Data from filtre 532_USB4F104151__3__11-57-42-327.txt Node

Date: Wed Apr 15 11:57:42 EDT 2026
User: LaboPhy
Spectrometer: USB4F10415
Trigger mode: 4
Integration Time (sec): 3,000000E-3
Scans to average: 1
Electric dark correction enabled: true
Nonlinearity correction enabled: false
Boxcar width: 0
XAxis mode: Wavelengths
Number of Pixels in Spectrum: 3648
>>>>>Begin Spectral Data<<<<<
178,204	30,72
178,424	30,72
178,644	30,72
178,864	-40,96
179,084	-77,82
179,304	-4,1
179,524	12,29
179,744	-10,24
179,964	59,39
180,184	2,05
180,404	8,19
180,624	-18,43
180,844	-2,05
181,064	-45,06
181,283	38,91
181,503	-34,82
181,723	-6,14
181,943	18,43
182,163	-14,34
182,383	-16,38
182,602	43,01
182,822	-83,97
183,042	-12,29
183,262	24,58
183,482	8,19
183,701	-32,77
183,921	-59,39
184,141	-51,2
184,361	30,72
184,58	-24,58
184,8	26,62
185,02	-61,44
185,239	-6,14
185,459	-20,48
185,679	2,05
185,898	-77,82
186,118	-18,43
186,338	-34,82
186,557	-8,19
186,777	38,91
186,997	-55,3
187,216	-10,24
187,436	-6,14
187,655	-22,53
187,875	12,29
188,095	8,19
188,314	104,45
188,534	-43,01
188,753	8,19
188,973	-38,91
189,192	24,58
189,412	-10,24
189,631	10,24
189,851	4,1
190,07	-6,14
190,29	-26,62
190,509	-36,86
190,729	12,29
190,948	26,62
191,168	14,34
191,387	-16,38
191,607	14,34
191,826	34,82
192,045	22,53
192,265	4,1
192,484	0
192,704	-4,1
192,923	-28,67
193,142	-63,49
193,362	12,29
193,581	0
193,8	2,05
194,02	-43,01
194,239	67,58
194,458	61,44
194,678	47,1
194,897	-22,53
195,116	-6,14
195,335	18,43
195,555	26,62
195,774	32,77
195,993	-22,53
196,212	26,62
196,432	14,34
196,651	-14,34
196,87	40,96
197,089	4,1
197,308	-12,29
197,528	-6,14
197,747	47,1
197,966	-59,39
198,185	-53,25
198,404	-4,1
198,623	-63,49
198,842	-2,05
199,062	47,1
199,281	43,01
199,5	2,05
199,719	10,24
199,938	-4,1
200,157	-22,53
200,376	-12,29
200,595	34,82
200,814	-92,16
201,033	24,58
201,252	-2,05
201,471	2,05
201,69	-22,53
201,909	34,82
202,128	-30,72
202,347	-14,34
202,566	-53,25
202,785	-45,06
203,004	6,14
203,223	-38,91
203,442	-14,34
203,661	18,43
203,879	-28,67
204,098	-8,19
204,317	34,82
204,536	18,43
204,755	28,67
204,974	-45,06
205,193	45,06
205,411	6,14
205,63	-59,39
205,849	10,24
206,068	22,53
206,287	34,82
206,505	-14,34
206,724	-12,29
206,943	-69,63
207,162	49,15
207,381	-14,34
207,599	-10,24
207,818	-4,1
208,037	2,05
208,255	-59,39
208,474	28,67
208,693	-73,73
208,911	53,25
209,13	-14,34
209,349	-12,29
209,567	34,82
209,786	22,53
210,005	-26,62
210,223	-16,38
210,442	-24,58
210,661	10,24
210,879	-4,1
211,098	14,34
211,316	-8,19
211,535	10,24
211,753	-73,73
211,972	-38,91
212,191	-12,29
212,409	47,1
212,628	34,82
212,846	26,62
213,065	-6,14
213,283	0
213,502	-51,2
213,72	4,1
213,938	51,2
214,157	-53,25
214,375	12,29
214,594	-6,14
214,812	-4,1
215,031	-6,14
215,249	-47,1
215,467	-6,14
215,686	-71,68
215,904	83,97
216,122	10,24
216,341	75,77
216,559	-45,06
216,778	14,34
216,996	6,14
217,214	51,2
217,432	-30,72
217,651	47,1
217,869	-43,01
218,087	53,25
218,306	-63,49
218,524	59,39
218,742	-22,53
218,96	18,43
219,179	-10,24
219,397	-36,86
219,615	51,2
219,833	34,82
220,051	-45,06
220,27	-18,43
220,488	-12,29
220,706	30,72
220,924	-79,87
221,142	-63,49
221,36	-61,44
221,578	18,43
221,796	-55,3
222,015	63,49
222,233	34,82
222,451	-43,01
222,669	38,91
222,887	-26,62
223,105	71,68
223,323	-8,19
223,541	-38,91
223,759	-6,14
223,977	-63,49
224,195	30,72
224,413	63,49
224,631	-4,1
224,849	36,86
225,067	14,34
225,285	6,14
225,503	10,24
225,721	71,68
225,939	-22,53
226,157	10,24
226,375	-34,82
226,592	75,77
226,81	-16,38
227,028	36,86
227,246	34,82
227,464	22,53
227,682	-10,24
227,9	49,15
228,117	-4,1
228,335	20,48
228,553	-12,29
228,771	18,43
228,989	-30,72
229,206	-2,05
229,424	38,91
229,642	-28,67
229,86	28,67
230,077	38,91
230,295	-38,91
230,513	-16,38
230,731	-12,29
230,948	-61,44
231,166	-22,53
231,384	51,2
231,601	28,67
231,819	-45,06
232,037	-30,72
232,254	-51,2
232,472	26,62
232,689	12,29
232,907	8,19
233,125	-20,48
233,342	34,82
233,56	14,34
233,777	-63,49
233,995	-8,19
234,213	-45,06
234,43	-100,35
234,648	-26,62
234,865	-2,05
235,083	-61,44
235,3	-47,1
235,518	-30,72
235,735	18,43
235,953	12,29
236,17	36,86
236,388	-18,43
236,605	-12,29
236,822	-34,82
237,04	26,62
237,257	-43,01
237,475	-67,58
237,692	-30,72
237,909	47,1
238,127	-12,29
238,344	-6,14
238,562	-6,14
238,779	-14,34
238,996	24,58
239,214	4,1
239,431	36,86
239,648	-61,44
239,865	38,91
240,083	14,34
240,3	26,62
240,517	-69,63
240,735	-63,49
240,952	-12,29
241,169	20,48
241,386	-28,67
241,603	-8,19
241,821	16,38
242,038	-43,01
242,255	-14,34
242,472	-12,29
242,689	-38,91
242,907	53,25
243,124	8,19
243,341	-8,19
243,558	-43,01
243,775	-18,43
243,992	22,53
244,209	-18,43
244,426	8,19
244,643	-22,53
244,86	-6,14
245,078	69,63
245,295	-28,67
245,512	2,05
245,729	14,34
245,946	24,58
246,163	10,24
246,38	63,49
246,597	22,53
246,814	12,29
247,031	0
247,248	-14,34
247,464	-38,91
247,681	-57,34
247,898	32,77
248,115	-47,1
248,332	83,97
248,549	-22,53
248,766	6,14
248,983	2,05
249,2	10,24
249,417	63,49
249,633	14,34
249,85	20,48
250,067	-10,24
250,284	26,62
250,501	-77,82
250,717	-12,29
250,934	-24,58
251,151	-20,48
251,368	-30,72
251,585	18,43
251,801	22,53
252,018	-18,43
252,235	18,43
252,451	-57,34
252,668	10,24
252,885	-36,86
253,102	79,87
253,318	-22,53
253,535	51,2
253,752	-67,58
253,968	-28,67
254,185	4,1
254,401	26,62
254,618	2,05
254,835	20,48
255,051	26,62
255,268	49,15
255,484	51,2
255,701	34,82
255,917	18,43
256,134	-61,44
256,351	40,96
256,567	-53,25
256,784	24,58
257	-28,67
257,217	26,62
257,433	4,1
257,65	-55,3
257,866	-2,05
258,082	69,63
258,299	4,1
258,515	28,67
258,732	2,05
258,948	32,77
259,165	20,48
259,381	-88,06
259,597	-28,67
259,814	61,44
260,03	-6,14
260,246	45,06
260,463	-26,62
260,679	12,29
260,895	-86,01
261,112	-22,53
261,328	61,44
261,544	26,62
261,761	-49,15
261,977	-8,19
262,193	28,67
262,409	71,68
262,626	67,58
262,842	-22,53
263,058	18,43
263,274	-53,25
263,49	51,2
263,707	10,24
263,923	-6,14
264,139	43,01
264,355	-63,49
264,571	6,14
264,787	-6,14
265,004	28,67
265,22	-4,1
265,436	-4,1
265,652	-38,91
265,868	92,16
266,084	-18,43
266,3	55,3
266,516	-18,43
266,732	-71,68
266,948	-30,72
267,164	-43,01
267,38	53,25
267,596	10,24
267,812	20,48
268,028	77,82
268,244	-6,14
268,46	-14,34
268,676	22,53
268,892	49,15
269,108	4,1
269,324	-4,1
269,54	51,2
269,756	26,62
269,972	10,24
270,188	53,25
270,403	-30,72
270,619	-28,67
270,835	-2,05
271,051	77,82
271,267	-38,91
271,483	8,19
271,698	73,73
271,914	-34,82
272,13	-77,82
272,346	2,05
272,562	-14,34
272,777	-55,3
272,993	30,72
273,209	-49,15
273,425	6,14
273,64	-2,05
273,856	59,39
274,072	-6,14
274,287	6,14
274,503	86,01
274,719	2,05
274,934	-32,77
275,15	30,72
275,366	-49,15
275,581	4,1
275,797	-45,06
276,012	43,01
276,228	-79,87
276,444	-22,53
276,659	-6,14
276,875	-16,38
277,09	22,53
277,306	36,86
277,521	-2,05
277,737	-12,29
277,952	51,2
278,168	22,53
278,383	12,29
278,599	18,43
278,814	38,91
279,03	14,34
279,245	26,62
279,461	-8,19
279,676	-63,49
279,892	-30,72
280,107	10,24
280,322	-26,62
280,538	26,62
280,753	36,86
280,969	43,01
281,184	-20,48
281,399	63,49
281,615	34,82
281,83	-2,05
282,045	18,43
282,26	53,25
282,476	2,05
282,691	10,24
282,906	-2,05
283,122	18,43
283,337	-14,34
283,552	26,62
283,767	-18,43
283,983	53,25
284,198	2,05
284,413	77,82
284,628	-38,91
284,843	-10,24
285,058	-16,38
285,274	-30,72
285,489	18,43
285,704	-12,29
285,919	45,06
286,134	-8,19
286,349	10,24
286,564	43,01
286,779	-6,14
286,995	-12,29
287,21	-10,24
287,425	-8,19
287,64	-16,38
287,855	4,1
288,07	32,77
288,285	51,2
288,5	20,48
288,715	-57,34
288,93	36,86
289,145	28,67
289,36	14,34
289,575	-6,14
289,79	-10,24
290,004	-18,43
290,219	36,86
290,434	-24,58
290,649	-20,48
290,864	-30,72
291,079	-24,58
291,294	18,43
291,509	2,05
291,724	-22,53
291,938	-30,72
292,153	-2,05
292,368	61,44
292,583	53,25
292,798	-75,77
293,012	4,1
293,227	10,24
293,442	-51,2
293,657	36,86
293,871	10,24
294,086	-28,67
294,301	24,58
294,516	-55,3
294,73	-49,15
294,945	-20,48
295,16	43,01
295,374	18,43
295,589	-45,06
295,804	79,87
296,018	-22,53
296,233	-28,67
296,447	59,39
296,662	-14,34
296,877	-43,01
297,091	100,35
297,306	12,29
297,52	-30,72
297,735	14,34
297,949	28,67
298,164	30,72
298,378	-20,48
298,593	-20,48
298,807	-2,05
299,022	40,96
299,236	32,77
299,451	-10,24
299,665	-6,14
299,88	-79,87
300,094	-22,53
300,309	-12,29
300,523	-26,62
300,737	-14,34
300,952	-51,2
301,166	53,25
301,381	47,1
301,595	-22,53
301,809	-12,29
302,024	-6,14
302,238	-10,24
302,452	-4,1
302,667	-57,34
302,881	-61,44
303,095	-8,19
303,309	67,58
303,524	-8,19
303,738	-26,62
303,952	12,29
304,166	-30,72
304,381	-22,53
304,595	24,58
304,809	-47,1
305,023	47,1
305,237	75,77
305,452	45,06
305,666	-55,3
305,88	-30,72
306,094	61,44
306,308	-36,86
306,522	18,43
306,736	2,05
306,95	-79,87
307,164	18,43
307,379	71,68
307,593	-30,72
307,807	59,39
308,021	18,43
308,235	30,72
308,449	22,53
308,663	34,82
308,877	22,53
309,091	4,1
309,305	18,43
309,519	-18,43
309,733	-4,1
309,947	-32,77
310,161	-49,15
310,374	38,91
310,588	30,72
310,802	-45,06
311,016	-4,1
311,23	22,53
311,444	-53,25
311,658	16,38
311,872	-26,62
312,085	0
312,299	26,62
312,513	-38,91
312,727	10,24
312,941	18,43
313,154	10,24
313,368	112,64
313,582	34,82
313,796	-43,01
314,009	-14,34
314,223	-47,1
314,437	-45,06
314,651	22,53
314,864	14,34
315,078	77,82
315,292	67,58
315,505	4,1
315,719	-67,58
315,933	-47,1
316,146	43,01
316,36	-12,29
316,573	20,48
316,787	-6,14
317,001	43,01
317,214	-20,48
317,428	40,96
317,641	51,2
317,855	47,1
318,068	-6,14
318,282	-10,24
318,495	-6,14
318,709	-30,72
318,922	12,29
319,136	49,15
319,349	-6,14
319,563	-12,29
319,776	-20,48
319,99	-8,19
320,203	-30,72
320,417	-57,34
320,63	-10,24
320,843	-61,44
321,057	0
321,27	-6,14
321,483	-43,01
321,697	-36,86
321,91	-92,16
322,124	61,44
322,337	2,05
322,55	-28,67
322,763	-14,34
322,977	-61,44
323,19	-59,39
323,403	-28,67
323,617	-61,44
323,83	4,1
324,043	-36,86
324,256	6,14
324,469	-47,1
324,683	-22,53
324,896	30,72
325,109	55,3
325,322	22,53
325,535	53,25
325,748	49,15
325,962	-18,43
326,175	-36,86
326,388	45,06
326,601	24,58
326,814	63,49
327,027	-6,14
327,24	10,24
327,453	38,91
327,666	-79,87
327,879	-30,72
328,092	38,91
328,305	-28,67
328,518	26,62
328,731	26,62
328,944	-22,53
329,157	51,2
329,37	45,06
329,583	-10,24
329,796	-20,48
330,009	47,1
330,222	-2,05
330,435	38,91
330,648	4,1
330,861	-6,14
331,073	-8,19
331,286	-30,72
331,499	-22,53
331,712	24,58
331,925	88,06
332,138	-47,1
332,35	-24,58
332,563	8,19
332,776	51,2
332,989	-14,34
333,202	30,72
333,414	-2,05
333,627	-45,06
333,84	-67,58
334,053	83,97
334,265	-32,77
334,478	-2,05
334,691	20,48
334,903	-12,29
335,116	-96,25
335,329	16,38
335,541	-77,82
335,754	2,05
335,966	-51,2
336,179	38,91
336,392	-36,86
336,604	40,96
336,817	-38,91
337,029	-34,82
337,242	22,53
337,454	59,39
337,667	26,62
337,88	20,48
338,092	75,77
338,305	14,34
338,517	-14,34
338,729	26,62
338,942	110,59
339,154	-30,72
339,367	-83,97
339,579	12,29
339,792	16,38
340,004	-59,39
340,217	-40,96
340,429	-16,38
340,641	51,2
340,854	20,48
341,066	-12,29
341,278	-6,14
341,491	2,05
341,703	4,1
341,915	36,86
342,128	-20,48
342,34	-38,91
342,552	-14,34
342,764	-14,34
342,977	-22,53
343,189	-45,06
343,401	-10,24
343,613	57,34
343,826	18,43
344,038	-63,49
344,25	-24,58
344,462	-28,67
344,674	-4,1
344,886	12,29
345,099	36,86
345,311	16,38
345,523	47,1
345,735	-26,62
345,947	-4,1
346,159	-12,29
346,371	-38,91
346,583	-26,62
346,795	-14,34
347,007	-2,05
347,219	20,48
347,431	45,06
347,643	38,91
347,855	-96,25
348,067	61,44
348,279	-22,53
348,491	-6,14
348,703	6,14
348,915	20,48
349,127	36,86
349,339	-40,96
349,551	4,1
349,763	14,34
349,975	-26,62
350,187	-2,05
350,399	-8,19
350,61	2,05
350,822	47,1
351,034	47,1
351,246	6,14
351,458	-30,72
351,669	14,34
351,881	69,63
352,093	22,53
352,305	32,77
352,517	-6,14
352,728	24,58
352,94	-2,05
353,152	-6,14
353,363	6,14
353,575	10,24
353,787	133,12
353,999	36,86
354,21	-20,48
354,422	36,86
354,633	22,53
354,845	-61,44
355,057	20,48
355,268	18,43
355,48	26,62
355,692	22,53
355,903	20,48
356,115	36,86
356,326	-22,53
356,538	-67,58
356,749	10,24
356,961	10,24
357,172	-51,2
357,384	-6,14
357,595	92,16
357,807	57,34
358,018	18,43
358,23	45,06
358,441	8,19
358,653	2,05
358,864	2,05
359,075	55,3
359,287	-28,67
359,498	-2,05
359,709	-63,49
359,921	-12,29
360,132	2,05
360,344	4,1
360,555	-4,1
360,766	-14,34
360,977	-36,86
361,189	18,43
361,4	6,14
361,611	36,86
361,823	-59,39
362,034	-8,19
362,245	28,67
362,456	-8,19
362,667	-38,91
362,879	-38,91
363,09	-77,82
363,301	-6,14
363,512	36,86
363,723	-14,34
363,935	-14,34
364,146	-12,29
364,357	-8,19
364,568	-22,53
364,779	-2,05
364,99	-38,91
365,201	0
365,412	26,62
365,623	-2,05
365,834	20,48
366,045	-16,38
366,256	59,39
366,467	14,34
366,678	16,38
366,889	18,43
367,1	100,35
367,311	-8,19
367,522	45,06
367,733	-43,01
367,944	12,29
368,155	8,19
368,366	-6,14
368,577	-22,53
368,788	-12,29
368,999	26,62
369,209	-6,14
369,42	-63,49
369,631	-36,86
369,842	-43,01
370,053	-28,67
370,264	-4,1
370,474	26,62
370,685	14,34
370,896	-47,1
371,107	-38,91
371,317	45,06
371,528	-34,82
371,739	-34,82
371,95	36,86
372,16	-34,82
372,371	-4,1
372,582	-47,1
372,792	-18,43
373,003	51,2
373,214	6,14
373,424	10,24
373,635	-16,38
373,846	53,25
374,056	-14,34
374,267	36,86
374,477	-26,62
374,688	-8,19
374,898	20,48
375,109	-12,29
375,319	-30,72
375,53	28,67
375,74	47,1
375,951	18,43
376,161	-43,01
376,372	-2,05
376,582	20,48
376,793	-10,24
377,003	32,77
377,214	28,67
377,424	-10,24
377,635	22,53
377,845	4,1
378,055	20,48
378,266	-45,06
378,476	6,14
378,686	-2,05
378,897	-22,53
379,107	4,1
379,317	86,01
379,528	-79,87
379,738	-6,14
379,948	-18,43
380,158	18,43
380,369	-36,86
380,579	34,82
380,789	59,39
380,999	6,14
381,21	-79,87
381,42	51,2
381,63	-12,29
381,84	47,1
382,05	-34,82
382,261	12,29
382,471	-20,48
382,681	47,1
382,891	32,77
383,101	-2,05
383,311	-26,62
383,521	-34,82
383,731	26,62
383,941	-10,24
384,151	-38,91
384,361	-8,19
384,571	-26,62
384,781	18,43
384,991	8,19
385,201	-43,01
385,411	-43,01
385,621	36,86
385,831	-6,14
386,041	59,39
386,251	-126,97
386,461	-18,43
386,671	18,43
386,881	45,06
387,091	-2,05
387,301	47,1
387,511	-55,3
387,72	12,29
387,93	12,29
388,14	-30,72
388,35	-36,86
388,56	34,82
388,769	-71,68
388,979	-20,48
389,189	24,58
389,399	-4,1
389,609	55,3
389,818	6,14
390,028	-2,05
390,238	-79,87
390,447	-59,39
390,657	86,01
390,867	-38,91
391,076	-4,1
391,286	-73,73
391,496	-8,19
391,705	-34,82
391,915	30,72
392,125	6,14
392,334	6,14
392,544	-34,82
392,753	-22,53
392,963	-88,06
393,172	10,24
393,382	-43,01
393,591	-22,53
393,801	-49,15
394,01	-22,53
394,22	-36,86
394,429	18,43
394,639	2,05
394,848	2,05
395,058	-26,62
395,267	40,96
395,477	-26,62
395,686	63,49
395,895	-16,38
396,105	-18,43
396,314	26,62
396,524	43,01
396,733	-47,1
396,942	-14,34
397,152	-28,67
397,361	-14,34
397,57	34,82
397,78	-28,67
397,989	-22,53
398,198	14,34
398,407	-38,91
398,617	-24,58
398,826	-6,14
399,035	6,14
399,244	-86,01
399,453	-34,82
399,663	-10,24
399,872	38,91
400,081	-20,48
400,29	-30,72
400,499	28,67
400,708	-38,91
400,917	-4,1
401,127	4,1
401,336	32,77
401,545	18,43
401,754	-8,19
401,963	-38,91
402,172	38,91
402,381	-28,67
402,59	-22,53
402,799	-10,24
403,008	-14,34
403,217	63,49
403,426	30,72
403,635	-32,77
403,844	-30,72
404,053	59,39
404,262	-6,14
404,471	67,58
404,68	-12,29
404,888	-6,14
405,097	26,62
405,306	-47,1
405,515	67,58
405,724	-26,62
405,933	22,53
406,142	16,38
406,35	34,82
406,559	-6,14
406,768	-22,53
406,977	49,15
407,185	-49,15
407,394	4,1
407,603	55,3
407,812	0
408,02	14,34
408,229	38,91
408,438	-55,3
408,646	-51,2
408,855	12,29
409,064	34,82
409,272	-30,72
409,481	94,21
409,69	34,82
409,898	-55,3
410,107	-61,44
410,315	71,68
410,524	-6,14
410,733	4,1
410,941	-12,29
411,15	59,39
411,358	65,53
411,567	-20,48
411,775	-28,67
411,984	-6,14
412,192	-40,96
412,401	26,62
412,609	34,82
412,818	-22,53
413,026	-16,38
413,234	14,34
413,443	-14,34
413,651	51,2
413,86	26,62
414,068	-24,58
414,276	-18,43
414,485	18,43
414,693	-6,14
414,901	10,24
415,11	-14,34
415,318	32,77
415,526	30,72
415,734	47,1
415,943	22,53
416,151	2,05
416,359	-14,34
416,567	12,29
416,776	38,91
416,984	-20,48
417,192	38,91
417,4	-16,38
417,608	-55,3
417,817	12,29
418,025	-43,01
418,233	-10,24
418,441	59,39
418,649	-47,1
418,857	-8,19
419,065	59,39
419,273	6,14
419,481	2,05
419,689	-45,06
419,897	38,91
420,105	20,48
420,313	-51,2
420,521	-47,1
420,729	-36,86
420,937	55,3
421,145	36,86
421,353	-6,14
421,561	63,49
421,769	-10,24
421,977	-12,29
422,185	-67,58
422,393	53,25
422,601	-4,1
422,809	6,14
423,017	32,77
423,224	55,3
423,432	-22,53
423,64	18,43
423,848	-61,44
424,056	4,1
424,263	2,05
424,471	-18,43
424,679	-38,91
424,887	-18,43
425,094	-36,86
425,302	-28,67
425,51	26,62
425,718	59,39
425,925	57,34
426,133	-57,34
426,341	28,67
426,548	-53,25
426,756	-28,67
426,964	16,38
427,171	12,29
427,379	71,68
427,586	51,2
427,794	-18,43
428,001	-6,14
428,209	-22,53
428,417	16,38
428,624	-30,72
428,832	6,14
429,039	18,43
429,247	69,63
429,454	-45,06
429,662	-8,19
429,869	2,05
430,076	28,67
430,284	-4,1
430,491	12,29
430,699	-38,91
430,906	6,14
431,114	-16,38
431,321	26,62
431,528	4,1
431,736	-47,1
431,943	20,48
432,15	67,58
432,358	59,39
432,565	-57,34
432,772	14,34
432,979	-38,91
433,187	-28,67
433,394	-6,14
433,601	-73,73
433,808	38,91
434,016	-10,24
434,223	12,29
434,43	18,43
434,637	-51,2
434,844	34,82
435,052	59,39
435,259	-38,91
435,466	-32,77
435,673	-4,1
435,88	-22,53
436,087	26,62
436,294	-38,91
436,501	-53,25
436,708	-45,06
436,915	-36,86
437,122	26,62
437,329	6,14
437,537	-71,68
437,743	79,87
437,95	-10,24
438,157	12,29
438,364	-22,53
438,571	-10,24
438,778	-6,14
438,985	14,34
439,192	30,72
439,399	43,01
439,606	14,34
439,813	-43,01
440,02	-38,91
440,227	-36,86
440,433	-10,24
440,64	67,58
440,847	-6,14
441,054	-61,44
441,261	34,82
441,467	16,38
441,674	-14,34
441,881	14,34
442,088	14,34
442,294	6,14
442,501	36,86
442,708	-38,91
442,914	18,43
443,121	47,1
443,328	22,53
443,534	6,14
443,741	-28,67
443,948	-10,24
444,154	22,53
444,361	8,19
444,568	-75,77
444,774	26,62
444,981	-20,48
445,187	-20,48
445,394	51,2
445,6	40,96
445,807	49,15
446,013	-30,72
446,22	-12,29
446,426	-30,72
446,633	20,48
446,839	12,29
447,046	-6,14
447,252	10,24
447,459	2,05
447,665	-43,01
447,871	30,72
448,078	26,62
448,284	-71,68
448,491	40,96
448,697	-4,1
448,903	16,38
449,11	45,06
449,316	26,62
449,522	-61,44
449,728	-16,38
449,935	-8,19
450,141	-104,45
450,347	43,01
450,553	-14,34
450,76	-14,34
450,966	-6,14
451,172	-65,54
451,378	28,67
451,584	26,62
451,791	-45,06
451,997	47,1
452,203	-20,48
452,409	43,01
452,615	-38,91
452,821	-20,48
453,027	-38,91
453,233	-6,14
453,44	6,14
453,646	-73,73
453,852	2,05
454,058	-53,25
454,264	-4,1
454,47	-86,01
454,676	-16,38
454,882	2,05
455,088	30,72
455,294	12,29
455,5	4,1
455,705	-14,34
455,911	-38,91
456,117	-71,68
456,323	26,62
456,529	-6,14
456,735	22,53
456,941	-45,06
457,147	18,43
457,352	51,2
457,558	28,67
457,764	-2,05
457,97	8,19
458,176	-16,38
458,381	36,86
458,587	-45,06
458,793	30,72
458,999	-12,29
459,204	-22,53
459,41	26,62
459,616	14,34
459,821	18,43
460,027	-12,29
460,233	18,43
460,438	53,25
460,644	-18,43
460,85	34,82
461,055	22,53
461,261	116,73
461,466	24,58
461,672	10,24
461,878	6,14
462,083	30,72
462,289	-38,91
462,494	18,43
462,7	-34,82
462,905	-14,34
463,111	-36,86
463,316	-14,34
463,522	-83,97
463,727	-22,53
463,932	-38,91
464,138	59,39
464,343	10,24
464,549	30,72
464,754	2,05
464,959	-20,48
465,165	106,49
465,37	88,06
465,575	-108,54
465,781	-26,62
465,986	-4,1
466,191	18,43
466,397	10,24
466,602	57,34
466,807	18,43
467,012	10,24
467,218	6,14
467,423	28,67
467,628	30,72
467,833	-43,01
468,038	43,01
468,244	-14,34
468,449	28,67
468,654	-14,34
468,859	22,53
469,064	-51,2
469,269	-16,38
469,474	45,06
469,679	-12,29
469,885	28,67
470,09	10,24
470,295	-2,05
470,5	0
470,705	61,44
470,91	-24,58
471,115	-10,24
471,32	-2,05
471,525	-4,1
471,73	12,29
471,935	-6,14
472,139	-16,38
472,344	-57,34
472,549	6,14
472,754	53,25
472,959	-36,86
473,164	45,06
473,369	-6,14
473,574	20,48
473,778	-47,1
473,983	-59,39
474,188	-10,24
474,393	77,82
474,598	-8,19
474,802	-28,67
475,007	-2,05
475,212	-14,34
475,417	34,82
475,621	59,39
475,826	-4,1
476,031	2,05
476,235	-20,48
476,44	18,43
476,645	-28,67
476,849	28,67
477,054	4,1
477,259	77,82
477,463	86,01
477,668	2,05
477,872	0
478,077	-20,48
478,282	24,58
478,486	2,05
478,691	-12,29
478,895	75,77
479,1	-96,25
479,304	14,34
479,509	-36,86
479,713	-4,1
479,918	-53,25
480,122	10,24
480,326	-18,43
480,531	2,05
480,735	12,29
480,94	-38,91
481,144	38,91
481,348	10,24
481,553	4,1
481,757	2,05
481,961	79,87
482,166	20,48
482,37	-30,72
482,574	-36,86
482,778	43,01
482,983	16,38
483,187	53,25
483,391	-45,06
483,595	28,67
483,8	34,82
484,004	-20,48
484,208	96,25
484,412	-38,91
484,616	-10,24
484,821	-45,06
485,025	36,86
485,229	-79,87
485,433	36,86
485,637	2,05
485,841	-69,63
486,045	-30,72
486,249	51,2
486,453	43,01
486,657	26,62
486,861	-28,67
487,065	-30,72
487,269	22,53
487,473	34,82
487,677	28,67
487,881	26,62
488,085	-30,72
488,289	-6,14
488,493	-16,38
488,697	22,53
488,901	-63,49
489,105	-2,05
489,309	-32,77
489,512	-8,19
489,716	-4,1
489,92	0
490,124	-30,72
490,328	20,48
490,531	-18,43
490,735	22,53
490,939	4,1
491,143	18,43
491,346	-63,49
491,55	-30,72
491,754	18,43
491,958	14,34
492,161	-4,1
492,365	-20,48
492,569	18,43
492,772	-2,05
492,976	-51,2
493,18	20,48
493,383	32,77
493,587	-6,14
493,79	-10,24
493,994	-12,29
494,197	-20,48
494,401	38,91
494,605	-6,14
494,808	59,39
495,012	83,97
495,215	-38,91
495,419	10,24
495,622	10,24
495,825	6,14
496,029	-26,62
496,232	-10,24
496,436	61,44
496,639	-6,14
496,843	-36,86
497,046	-4,1
497,249	18,43
497,453	-2,05
497,656	55,3
497,859	-38,91
498,063	14,34
498,266	14,34
498,469	-16,38
498,673	-16,38
498,876	-38,91
499,079	-4,1
499,282	14,34
499,485	-12,29
499,689	-22,53
499,892	14,34
500,095	-12,29
500,298	6,14
500,501	73,73
500,705	20,48
500,908	36,86
501,111	-16,38
501,314	36,86
501,517	36,86
501,72	-16,38
501,923	14,34
502,126	-55,3
502,329	-57,34
502,532	40,96
502,735	-8,19
502,938	28,67
503,141	-6,14
503,344	22,53
503,547	-16,38
503,75	-20,48
503,953	-20,48
504,156	-4,1
504,359	-12,29
504,562	-30,72
504,765	69,63
504,968	38,91
505,17	2,05
505,373	-45,06
505,576	43,01
505,779	12,29
505,982	-6,14
506,185	88,06
506,387	34,82
506,59	-47,1
506,793	34,82
506,996	-6,14
507,198	-34,82
507,401	-18,43
507,604	2,05
507,807	63,49
508,009	18,43
508,212	-34,82
508,415	-65,54
508,617	34,82
508,82	-40,96
509,022	18,43
509,225	2,05
509,428	-51,2
509,63	8,19
509,833	-30,72
510,035	-38,91
510,238	65,53
510,44	-45,06
510,643	18,43
510,845	53,25
511,048	-38,91
511,25	8,19
511,453	20,48
511,655	-43,01
511,858	-63,49
512,06	-4,1
512,262	-20,48
512,465	2,05
512,667	34,82
512,87	-36,86
513,072	-16,38
513,274	-63,49
513,477	53,25
513,679	10,24
513,881	-47,1
514,084	-30,72
514,286	-6,14
514,488	-51,2
514,69	77,82
514,893	55,3
515,095	-30,72
515,297	-59,39
515,499	-22,53
515,701	12,29
515,904	0
516,106	-6,14
516,308	51,2
516,51	-12,29
516,712	4,1
516,914	47,1
517,116	53,25
517,318	16,38
517,52	28,67
517,722	28,67
517,925	40,96
518,127	-79,87
518,329	6,14
518,531	61,44
518,733	26,62
518,935	-14,34
519,136	108,54
519,338	-18,43
519,54	-8,19
519,742	30,72
519,944	2,05
520,146	-8,19
520,348	-34,82
520,55	-63,49
520,752	30,72
520,954	18,43
521,155	40,96
521,357	-32,77
521,559	2,05
521,761	32,77
521,963	10,24
522,164	32,77
522,366	4,1
522,568	-12,29
522,77	-14,34
522,971	43,01
523,173	75,77
523,375	57,34
523,576	10,24
523,778	4,1
523,98	77,82
524,181	51,2
524,383	47,1
524,584	61,44
524,786	63,49
524,988	194,56
525,189	235,52
525,391	428,03
525,592	634,87
525,794	1034,22
525,995	1576,94
526,197	2199,52
526,398	3131,34
526,6	4452,28
526,801	5388,21
527,003	7212,95
527,204	8544,13
527,406	10880,86
527,607	12754,75
527,808	15490,84
528,01	17889,01
528,211	20598,47
528,412	23578,26
528,614	26793,58
528,815	29822,52
529,016	32986,63
529,218	35067,37
529,419	37719,49
529,62	40060,32
529,822	41930,11
530,023	44332,38
530,224	45983,04
530,425	46724,41
530,626	48082,21
530,828	48323,87
531,029	50644,22
531,23	49607,95
531,431	50939,13
531,632	51266,8
531,833	51721,45
532,035	51698,92
532,236	52061,41
532,437	52454,62
532,638	52118,76
532,839	52606,17
533,04	52872,41
533,241	51877,1
533,442	53406,93
533,643	52790,49
533,844	52944,09
534,045	53501,14
534,246	52378,85
534,447	52919,51
534,648	52557,02
534,849	52630,75
535,05	51774,7
535,251	51623,15
535,451	51217,65
535,652	50838,78
535,853	49786,12
536,054	48885,01
536,255	48190,75
536,456	45976,9
536,657	45292,88
536,857	42986,86
537,058	41076,11
537,259	39499,17
537,46	36574,67
537,66	34153,97
537,861	31649,31
538,062	28876,36
538,263	26738,28
538,463	23340,7
538,664	20866,75
538,865	18487,01
539,065	16602,88
539,266	13721,39
539,466	12599,1
539,667	10143,59
539,868	8812,41
540,068	7163,79
540,269	6014,88
540,469	4593,59
540,67	3760,07
540,87	2848,72
541,071	2084,83
541,271	1529,83
541,472	1185,77
541,672	733,17
541,873	518,14
542,073	313,34
542,274	192,51
542,474	151,55
542,675	169,98
542,875	67,58
543,075	47,1
543,276	94,21
543,476	67,58
543,676	88,06
543,877	98,3
544,077	12,29
544,277	2,05
544,478	34,82
544,678	38,91
544,878	2,05
545,078	14,34
545,279	10,24
545,479	10,24
545,679	30,72
545,879	8,19
546,079	90,11
546,28	83,97
546,48	4,1
546,68	36,86
546,88	20,48
547,08	-65,54
547,28	63,49
547,48	-47,1
547,68	8,19
547,88	10,24
548,081	43,01
548,281	75,77
548,481	-12,29
548,681	-14,34
548,881	47,1
549,081	26,62
549,28	12,29
549,48	36,86
549,68	8,19
549,88	20,48
550,08	-2,05
550,28	26,62
550,48	-12,29
550,68	-14,34
550,88	98,3
551,08	-22,53
551,279	-14,34
551,479	69,63
551,679	20,48
551,879	26,62
552,079	28,67
552,278	30,72
552,478	-65,54
552,678	20,48
552,878	18,43
553,077	2,05
553,277	-16,38
553,477	-6,14
553,676	10,24
553,876	-18,43
554,076	-28,67
554,275	-43,01
554,475	18,43
554,674	10,24
554,874	14,34
555,074	-63,49
555,273	-43,01
555,473	2,05
555,672	53,25
555,872	12,29
556,071	59,39
556,271	-43,01
556,47	-28,67
556,67	6,14
556,869	28,67
557,068	-16,38
557,268	6,14
557,467	-43,01
557,667	-22,53
557,866	10,24
558,065	2,05
558,265	6,14
558,464	53,25
558,663	71,68
558,863	-22,53
559,062	49,15
559,261	-75,77
559,461	67,58
559,66	22,53
559,859	-4,1
560,058	-26,62
560,258	-6,14
560,457	-4,1
560,656	-63,49
560,855	-38,91
561,054	-55,3
561,253	2,05
561,453	-2,05
561,652	10,24
561,851	75,77
562,05	-34,82
562,249	43,01
562,448	-22,53
562,647	-16,38
562,846	14,34
563,045	24,58
563,244	26,62
563,443	-43,01
563,642	-22,53
563,841	-14,34
564,04	6,14
564,239	-57,34
564,438	10,24
564,637	30,72
564,836	-10,24
565,035	55,3
565,234	-10,24
565,432	-20,48
565,631	18,43
565,83	-8,19
566,029	-38,91
566,228	-71,68
566,427	45,06
566,625	-79,87
566,824	4,1
567,023	40,96
567,222	22,53
567,42	4,1
567,619	4,1
567,818	34,82
568,016	-8,19
568,215	-36,86
568,414	34,82
568,612	26,62
568,811	12,29
569,01	8,19
569,208	67,58
569,407	0
569,605	2,05
569,804	55,3
570,002	20,48
570,201	-18,43
570,4	43,01
570,598	-92,16
570,797	30,72
570,995	2,05
571,193	34,82
571,392	77,82
571,59	22,53
571,789	-88,06
571,987	18,43
572,186	6,14
572,384	-51,2
572,582	-2,05
572,781	-18,43
572,979	-47,1
573,177	-12,29
573,376	30,72
573,574	10,24
573,772	-26,62
573,971	34,82
574,169	32,77
574,367	-30,72
574,565	-22,53
574,763	26,62
574,962	-4,1
575,16	-53,25
575,358	28,67
575,556	4,1
575,754	14,34
575,952	4,1
576,151	43,01
576,349	30,72
576,547	-14,34
576,745	-10,24
576,943	-45,06
577,141	10,24
577,339	-34,82
577,537	2,05
577,735	0
577,933	49,15
578,131	10,24
578,329	61,44
578,527	18,43
578,725	51,2
578,923	-43,01
579,121	45,06
579,319	77,82
579,516	22,53
579,714	14,34
579,912	14,34
580,11	-2,05
580,308	-2,05
580,506	-10,24
580,704	-43,01
580,901	18,43
581,099	-22,53
581,297	-6,14
581,495	6,14
581,692	26,62
581,89	-22,53
582,088	-43,01
582,285	-45,06
582,483	26,62
582,681	43,01
582,878	28,67
583,076	-32,77
583,274	-16,38
583,471	43,01
583,669	-10,24
583,866	-6,14
584,064	2,05
584,262	110,59
584,459	2,05
584,657	28,67
584,854	92,16
585,052	-38,91
585,249	20,48
585,447	49,15
585,644	-4,1
585,841	2,05
586,039	-20,48
586,236	-2,05
586,434	0
586,631	34,82
586,828	16,38
587,026	-12,29
587,223	-28,67
587,42	-18,43
587,618	16,38
587,815	2,05
588,012	12,29
588,21	-53,25
588,407	-16,38
588,604	2,05
588,801	-10,24
588,999	30,72
589,196	-36,86
589,393	-34,82
589,59	28,67
589,787	-14,34
589,984	12,29
590,182	79,87
590,379	-6,14
590,576	-10,24
590,773	18,43
590,97	-20,48
591,167	10,24
591,364	-2,05
591,561	2,05
591,758	18,43
591,955	18,43
592,152	-8,19
592,349	26,62
592,546	0
592,743	-2,05
592,94	102,4
593,137	-28,67
593,334	-36,86
593,531	-20,48
593,727	18,43
593,924	-4,1
594,121	-22,53
594,318	6,14
594,515	-51,2
594,712	51,2
594,908	2,05
595,105	32,77
595,302	59,39
595,499	-92,16
595,696	-8,19
595,892	-12,29
596,089	-4,1
596,286	49,15
596,482	-43,01
596,679	4,1
596,876	4,1
597,072	2,05
597,269	-94,21
597,466	-26,62
597,662	-47,1
597,859	28,67
598,055	-14,34
598,252	-53,25
598,448	-63,49
598,645	-6,14
598,841	67,58
599,038	-2,05
599,234	-45,06
599,431	-28,67
599,627	-43,01
599,824	0
600,02	-49,15
600,217	-45,06
600,413	47,1
600,609	22,53
600,806	38,91
601,002	10,24
601,198	20,48
601,395	-40,96
601,591	6,14
601,787	-24,58
601,984	-38,91
602,18	-28,67
602,376	-40,96
602,572	20,48
602,769	28,67
602,965	-2,05
603,161	77,82
603,357	-22,53
603,553	-22,53
603,75	26,62
603,946	26,62
604,142	28,67
604,338	-10,24
604,534	22,53
604,73	-6,14
604,926	-6,14
605,122	2,05
605,318	-45,06
605,514	65,53
605,71	65,53
605,906	34,82
606,102	-22,53
606,298	32,77
606,494	26,62
606,69	-2,05
606,886	-12,29
607,082	-14,34
607,278	12,29
607,474	-34,82
607,67	-22,53
607,866	12,29
608,062	-6,14
608,257	14,34
608,453	-18,43
608,649	83,97
608,845	-34,82
609,041	-71,68
609,236	18,43
609,432	16,38
609,628	36,86
609,824	-26,62
610,019	6,14
610,215	-32,77
610,411	43,01
610,606	16,38
610,802	14,34
610,998	-32,77
611,193	-34,82
611,389	-4,1
611,584	69,63
611,78	-2,05
611,976	51,2
612,171	20,48
612,367	-34,82
612,562	-14,34
612,758	-2,05
612,953	20,48
613,149	-75,77
613,344	16,38
613,539	-18,43
613,735	6,14
613,93	2,05
614,126	61,44
614,321	-34,82
614,517	47,1
614,712	-67,58
614,907	43,01
615,103	-55,3
615,298	18,43
615,493	47,1
615,688	-14,34
615,884	-10,24
616,079	18,43
616,274	14,34
616,47	-14,34
616,665	-55,3
616,86	4,1
617,055	12,29
617,25	-2,05
617,445	43,01
617,641	12,29
617,836	-10,24
618,031	26,62
618,226	-104,45
618,421	38,91
618,616	43,01
618,811	18,43
619,006	88,06
619,201	-12,29
619,396	-26,62
619,591	36,86
619,786	-45,06
619,981	-6,14
620,176	18,43
620,371	-28,67
620,566	-16,38
620,761	-16,38
620,956	2,05
621,151	32,77
621,346	-24,58
621,541	10,24
621,735	14,34
621,93	38,91
622,125	-2,05
622,32	-18,43
622,515	-49,15
622,709	-12,29
622,904	-38,91
623,099	67,58
623,294	-26,62
623,488	-47,1
623,683	-28,67
623,878	-55,3
624,072	-2,05
624,267	10,24
624,462	-28,67
624,656	36,86
624,851	34,82
625,046	20,48
625,24	-38,91
625,435	2,05
625,629	-24,58
625,824	2,05
626,018	26,62
626,213	81,92
626,407	-16,38
626,602	-65,54
626,796	-34,82
626,991	14,34
627,185	-28,67
627,38	-6,14
627,574	51,2
627,768	10,24
627,963	38,91
628,157	-10,24
628,352	-47,1
628,546	-10,24
628,74	-14,34
628,935	-4,1
629,129	-10,24
629,323	28,67
629,517	-69,63
629,712	-51,2
629,906	-69,63
630,1	12,29
630,294	-26,62
630,489	4,1
630,683	-45,06
630,877	30,72
631,071	28,67
631,265	-4,1
631,459	-24,58
631,653	-34,82
631,848	2,05
632,042	65,53
632,236	-20,48
632,43	43,01
632,624	-12,29
632,818	26,62
633,012	-47,1
633,206	59,39
633,4	8,19
633,594	16,38
633,788	4,1
633,982	4,1
634,176	-51,2
634,369	10,24
634,563	-38,91
634,757	43,01
634,951	18,43
635,145	18,43
635,339	24,58
635,533	-30,72
635,726	-22,53
635,92	4,1
636,114	20,48
636,308	-30,72
636,501	10,24
636,695	4,1
636,889	36,86
637,083	59,39
637,276	-14,34
637,47	2,05
637,664	-14,34
637,857	61,44
638,051	-26,62
638,244	16,38
638,438	16,38
638,632	4,1
638,825	57,34
639,019	32,77
639,212	-14,34
639,406	-14,34
639,599	-12,29
639,793	-16,38
639,986	-12,29
640,18	-47,1
640,373	-32,77
640,567	-4,1
640,76	65,53
640,954	-12,29
641,147	24,58
641,34	49,15
641,534	-34,82
641,727	0
641,92	4,1
642,114	-2,05
642,307	-18,43
642,5	-20,48
642,694	-40,96
642,887	30,72
643,08	-10,24
643,273	30,72
643,467	30,72
643,66	-53,25
643,853	34,82
644,046	45,06
644,239	34,82
644,432	-22,53
644,626	2,05
644,819	-71,68
645,012	-22,53
645,205	22,53
645,398	-34,82
645,591	28,67
645,784	-45,06
645,977	2,05
646,17	18,43
646,363	20,48
646,556	-26,62
646,749	16,38
646,942	4,1
647,135	10,24
647,328	-88,06
647,521	-53,25
647,714	-26,62
647,907	40,96
648,099	12,29
648,292	4,1
648,485	-10,24
648,678	4,1
648,871	38,91
649,064	22,53
649,256	-47,1
649,449	18,43
649,642	0
649,835	26,62
650,027	14,34
650,22	4,1
650,413	-59,39
650,605	6,14
650,798	30,72
650,991	-55,3
651,183	-18,43
651,376	59,39
651,568	-4,1
651,761	-2,05
651,954	-65,54
652,146	-47,1
652,339	10,24
652,531	69,63
652,724	-10,24
652,916	16,38
653,109	26,62
653,301	-26,62
653,494	-45,06
653,686	-14,34
653,879	-18,43
654,071	14,34
654,263	75,77
654,456	-30,72
654,648	49,15
654,84	59,39
655,033	0
655,225	16,38
655,417	-10,24
655,61	2,05
655,802	-47,1
655,994	16,38
656,186	-28,67
656,379	45,06
656,571	-47,1
656,763	-10,24
656,955	-10,24
657,148	-6,14
657,34	-22,53
657,532	-4,1
657,724	-38,91
657,916	-14,34
658,108	-6,14
658,3	-8,19
658,492	36,86
658,684	-20,48
658,876	-6,14
659,068	26,62
659,26	6,14
659,452	59,39
659,644	26,62
659,836	-2,05
660,028	-30,72
660,22	49,15
660,412	6,14
660,604	-32,77
660,796	83,97
660,988	-59,39
661,18	16,38
661,372	22,53
661,563	43,01
661,755	-34,82
661,947	34,82
662,139	59,39
662,331	8,19
662,522	22,53
662,714	18,43
662,906	-6,14
663,097	-57,34
663,289	-79,87
663,481	2,05
663,673	43,01
663,864	-34,82
664,056	-12,29
664,247	-6,14
664,439	22,53
664,631	-45,06
664,822	-4,1
665,014	-30,72
665,205	-12,29
665,397	-14,34
665,588	36,86
665,78	-30,72
665,971	12,29
666,163	-26,62
666,354	-77,82
666,546	-45,06
666,737	-14,34
666,929	-45,06
667,12	24,58
667,311	43,01
667,503	-51,2
667,694	-12,29
667,885	-38,91
668,077	-30,72
668,268	18,43
668,459	-16,38
668,651	45,06
668,842	-112,64
669,033	-67,58
669,224	-4,1
669,416	59,39
669,607	-55,3
669,798	-30,72
669,989	-18,43
670,18	32,77
670,371	10,24
670,563	-24,58
670,754	26,62
670,945	-47,1
671,136	-26,62
671,327	100,35
671,518	2,05
671,709	77,82
671,9	2,05
672,091	18,43
672,282	-30,72
672,473	-2,05
672,664	30,72
672,855	53,25
673,046	-2,05
673,237	-18,43
673,428	-18,43
673,619	55,3
673,809	-55,3
674	-2,05
674,191	-8,19
674,382	-2,05
674,573	6,14
674,764	49,15
674,954	83,97
675,145	26,62
675,336	18,43
675,527	-24,58
675,717	71,68
675,908	-26,62
676,099	-6,14
676,289	6,14
676,48	-12,29
676,671	18,43
676,861	49,15
677,052	-12,29
677,243	0
677,433	-30,72
677,624	-30,72
677,814	-6,14
678,005	16,38
678,195	12,29
678,386	-2,05
678,576	2,05
678,767	-8,19
678,957	-10,24
679,148	-61,44
679,338	26,62
679,529	-22,53
679,719	-73,73
679,909	-20,48
680,1	67,58
680,29	34,82
680,481	45,06
680,671	43,01
680,861	-45,06
681,052	-4,1
681,242	-45,06
681,432	43,01
681,622	26,62
681,813	6,14
682,003	-10,24
682,193	59,39
682,383	14,34
682,573	47,1
682,764	22,53
682,954	-16,38
683,144	55,3
683,334	14,34
683,524	-38,91
683,714	30,72
683,904	-26,62
684,094	10,24
684,284	-112,64
684,474	-30,72
684,664	20,48
684,854	47,1
685,044	55,3
685,234	-69,63
685,424	-67,58
685,614	-65,54
685,804	-14,34
685,994	-4,1
686,184	-8,19
686,374	-10,24
686,564	-14,34
686,753	-47,1
686,943	30,72
687,133	16,38
687,323	-12,29
687,513	-57,34
687,702	26,62
687,892	-34,82
688,082	47,1
688,272	4,1
688,461	-6,14
688,651	-10,24
688,841	26,62
689,03	-6,14
689,22	-10,24
689,41	14,34
689,599	-26,62
689,789	53,25
689,979	20,48
690,168	14,34
690,358	30,72
690,547	-18,43
690,737	-18,43
690,926	-8,19
691,116	-20,48
691,305	20,48
691,495	10,24
691,684	20,48
691,874	79,87
692,063	-83,97
692,252	92,16
692,442	2,05
692,631	43,01
692,82	-45,06
693,01	-18,43
693,199	57,34
693,388	-12,29
693,578	51,2
693,767	-36,86
693,956	-2,05
694,146	8,19
694,335	-67,58
694,524	61,44
694,713	-69,63
694,902	-55,3
695,092	14,34
695,281	20,48
695,47	22,53
695,659	47,1
695,848	-18,43
696,037	-4,1
696,226	20,48
696,415	-34,82
696,604	-4,1
696,793	8,19
696,982	2,05
697,171	0
697,36	-55,3
697,549	18,43
697,738	-18,43
697,927	-14,34
698,116	2,05
698,305	-28,67
698,494	32,77
698,683	43,01
698,872	-14,34
699,061	20,48
699,25	-2,05
699,438	-26,62
699,627	6,14
699,816	18,43
700,005	24,58
700,193	-18,43
700,382	-16,38
700,571	-53,25
700,76	-47,1
700,948	-26,62
701,137	-32,77
701,326	-14,34
701,514	-38,91
701,703	18,43
701,892	-32,77
702,08	-43,01
702,269	4,1
702,457	49,15
702,646	-18,43
702,834	26,62
703,023	-96,25
703,212	34,82
703,4	-69,63
703,589	75,77
703,777	4,1
703,965	6,14
704,154	-63,49
704,342	8,19
704,531	-22,53
704,719	26,62
704,907	16,38
705,096	4,1
705,284	38,91
705,472	-32,77
705,661	24,58
705,849	-49,15
706,037	-67,58
706,226	-8,19
706,414	45,06
706,602	92,16
706,79	55,3
706,979	-2,05
707,167	-45,06
707,355	18,43
707,543	49,15
707,731	-6,14
707,919	16,38
708,107	-51,2
708,296	47,1
708,484	-67,58
708,672	-65,54
708,86	53,25
709,048	-2,05
709,236	36,86
709,424	-34,82
709,612	20,48
709,8	40,96
709,988	28,67
710,176	-32,77
710,364	-18,43
710,551	51,2
710,739	47,1
710,927	-67,58
711,115	-6,14
711,303	-135,17
711,491	10,24
711,679	12,29
711,866	20,48
712,054	2,05
712,242	4,1
712,43	10,24
712,617	-24,58
712,805	75,77
712,993	12,29
713,181	2,05
713,368	-32,77
713,556	28,67
713,744	8,19
713,931	8,19
714,119	38,91
714,306	20,48
714,494	20,48
714,682	-18,43
714,869	36,86
715,057	-2,05
715,244	2,05
715,432	86,01
715,619	-14,34
715,807	51,2
715,994	20,48
716,182	-10,24
716,369	-4,1
716,556	-2,05
716,744	-38,91
716,931	-75,77
717,119	-30,72
717,306	-22,53
717,493	0
717,681	53,25
717,868	-2,05
718,055	20,48
718,242	51,2
718,43	16,38
718,617	43,01
718,804	2,05
718,991	-2,05
719,179	-4,1
719,366	-53,25
719,553	-20,48
719,74	18,43
719,927	-14,34
720,114	2,05
720,301	20,48
720,488	-2,05
720,676	-20,48
720,863	20,48
721,05	-67,58
721,237	22,53
721,424	-26,62
721,611	12,29
721,798	2,05
721,985	-30,72
722,172	-22,53
722,358	-22,53
722,545	-10,24
722,732	-34,82
722,919	-6,14
723,106	28,67
723,293	2,05
723,48	4,1
723,667	-24,58
723,853	28,67
724,04	-18,43
724,227	-28,67
724,414	-6,14
724,6	-45,06
724,787	-47,1
724,974	-16,38
725,161	-55,3
725,347	-38,91
725,534	-14,34
725,72	26,62
725,907	34,82
726,094	55,3
726,28	43,01
726,467	-86,01
726,653	-12,29
726,84	-61,44
727,027	-8,19
727,213	47,1
727,4	38,91
727,586	63,49
727,773	4,1
727,959	-10,24
728,145	12,29
728,332	30,72
728,518	-38,91
728,705	0
728,891	-47,1
729,077	34,82
729,264	28,67
729,45	63,49
729,636	-59,39
729,823	6,14
730,009	-20,48
730,195	4,1
730,382	-22,53
730,568	-2,05
730,754	-38,91
730,94	-28,67
731,126	-75,77
731,313	-47,1
731,499	14,34
731,685	-10,24
731,871	-30,72
732,057	4,1
732,243	116,73
732,429	-26,62
732,615	-32,77
732,801	43,01
732,987	-57,34
733,173	-30,72
733,359	-40,96
733,545	6,14
733,731	-12,29
733,917	18,43
734,103	-10,24
734,289	51,2
734,475	-55,3
734,661	14,34
734,847	-57,34
735,033	-32,77
735,219	10,24
735,404	18,43
735,59	-59,39
735,776	2,05
735,962	-2,05
736,148	-34,82
736,333	-40,96
736,519	-61,44
736,705	38,91
736,89	69,63
737,076	6,14
737,262	-30,72
737,447	16,38
737,633	2,05
737,819	-67,58
738,004	-2,05
738,19	-65,54
738,375	10,24
738,561	34,82
738,747	34,82
738,932	-83,97
739,118	49,15
739,303	12,29
739,489	20,48
739,674	-77,82
739,859	22,53
740,045	36,86
740,23	-12,29
740,416	4,1
740,601	-118,78
740,786	-12,29
740,972	-36,86
741,157	-6,14
741,342	-12,29
741,528	28,67
741,713	-10,24
741,898	18,43
742,084	-26,62
742,269	-40,96
742,454	-14,34
742,639	-55,3
742,824	10,24
743,01	28,67
743,195	81,92
743,38	-26,62
743,565	32,77
743,75	-18,43
743,935	63,49
744,12	-49,15
744,305	8,19
744,49	18,43
744,675	-18,43
744,86	53,25
745,045	-40,96
745,23	14,34
745,415	-63,49
745,6	57,34
745,785	-4,1
745,97	6,14
746,155	-49,15
746,34	26,62
746,525	6,14
746,71	0
746,895	-88,06
747,079	-38,91
747,264	57,34
747,449	98,3
747,634	4,1
747,819	-14,34
748,003	-53,25
748,188	-8,19
748,373	-20,48
748,557	-8,19
748,742	2,05
748,927	-38,91
749,111	-4,1
749,296	-47,1
749,481	43,01
749,665	-18,43
749,85	-6,14
750,034	-10,24
750,219	102,4
750,404	16,38
750,588	-14,34
750,773	-47,1
750,957	-10,24
751,141	-26,62
751,326	18,43
751,51	108,54
751,695	40,96
751,879	6,14
752,064	-28,67
752,248	0
752,432	18,43
752,617	-30,72
752,801	-6,14
752,985	-63,49
753,17	-16,38
753,354	18,43
753,538	24,58
753,722	-28,67
753,907	-4,1
754,091	-57,34
754,275	20,48
754,459	-43,01
754,643	-36,86
754,828	-51,2
755,012	10,24
755,196	-43,01
755,38	14,34
755,564	-32,77
755,748	6,14
755,932	-2,05
756,116	6,14
756,3	0
756,484	-12,29
756,668	67,58
756,852	59,39
757,036	14,34
757,22	10,24
757,404	12,29
757,588	-38,91
757,772	24,58
757,956	-28,67
758,14	-2,05
758,323	-18,43
758,507	26,62
758,691	2,05
758,875	10,24
759,059	-61,44
759,242	0
759,426	65,53
759,61	40,96
759,794	-20,48
759,977	-30,72
760,161	2,05
760,345	-24,58
760,528	-14,34
760,712	-38,91
760,895	-2,05
761,079	18,43
761,263	-79,87
761,446	51,2
761,63	55,3
761,813	-2,05
761,997	-45,06
762,18	-30,72
762,364	-71,68
762,547	26,62
762,731	43,01
762,914	-51,2
763,098	53,25
763,281	-34,82
763,464	-4,1
763,648	-53,25
763,831	18,43
764,015	-65,54
764,198	4,1
764,381	-47,1
764,564	-69,63
764,748	-38,91
764,931	4,1
765,114	-2,05
765,297	14,34
765,481	-24,58
765,664	-28,67
765,847	-55,3
766,03	-92,16
766,213	-14,34
766,397	26,62
766,58	4,1
766,763	-16,38
766,946	-4,1
767,129	49,15
767,312	-8,19
767,495	75,77
767,678	-18,43
767,861	47,1
768,044	43,01
768,227	38,91
768,41	-69,63
768,593	98,3
768,776	-43,01
768,959	-79,87
769,142	-65,54
769,324	32,77
769,507	-28,67
769,69	36,86
769,873	-16,38
770,056	-22,53
770,239	-10,24
770,421	4,1
770,604	75,77
770,787	-65,54
770,97	-26,62
771,152	-57,34
771,335	-14,34
771,518	-4,1
771,7	-47,1
771,883	-12,29
772,066	-36,86
772,248	-22,53
772,431	-22,53
772,613	-65,54
772,796	4,1
772,978	-55,3
773,161	34,82
773,343	-8,19
773,526	-53,25
773,708	-43,01
773,891	-34,82
774,073	-59,39
774,256	-65,54
774,438	90,11
774,621	-10,24
774,803	18,43
774,985	18,43
775,168	-4,1
775,35	-24,58
775,532	12,29
775,715	67,58
775,897	18,43
776,079	-30,72
776,261	51,2
776,444	14,34
776,626	16,38
776,808	-22,53
776,99	36,86
777,173	124,93
777,355	0
777,537	-18,43
777,719	-59,39
777,901	36,86
778,083	20,48
778,265	38,91
778,447	10,24
778,629	6,14
778,811	-24,58
778,993	26,62
779,175	-14,34
779,357	-12,29
779,539	2,05
779,721	-34,82
779,903	-45,06
780,085	-18,43
780,267	-14,34
780,449	-43,01
780,631	-30,72
780,812	-20,48
780,994	18,43
781,176	75,77
781,358	-16,38
781,54	-43,01
781,721	-14,34
781,903	-14,34
782,085	30,72
782,267	4,1
782,448	-16,38
782,63	-10,24
782,812	-49,15
782,993	-22,53
783,175	28,67
783,357	-30,72
783,538	6,14
783,72	-36,86
783,901	0
784,083	49,15
784,264	-26,62
784,446	16,38
784,627	6,14
784,809	28,67
784,99	-63,49
785,172	-83,97
785,353	-53,25
785,535	-53,25
785,716	-10,24
785,897	-14,34
786,079	22,53
786,26	26,62
786,441	-6,14
786,623	57,34
786,804	-30,72
786,985	43,01
787,167	28,67
787,348	-40,96
787,529	14,34
787,71	26,62
787,891	6,14
788,073	-2,05
788,254	-75,77
788,435	-36,86
788,616	-22,53
788,797	12,29
788,978	-6,14
789,159	45,06
789,34	-2,05
789,522	-20,48
789,703	-81,92
789,884	10,24
790,065	-24,58
790,246	-18,43
790,427	38,91
790,607	-24,58
790,788	-20,48
790,969	2,05
791,15	34,82
791,331	10,24
791,512	-30,72
791,693	6,14
791,874	-32,77
792,054	-6,14
792,235	0
792,416	-61,44
792,597	-6,14
792,778	-30,72
792,958	43,01
793,139	18,43
793,32	-51,2
793,5	-59,39
793,681	10,24
793,862	-51,2
794,042	8,19
794,223	-26,62
794,404	-6,14
794,584	-43,01
794,765	-22,53
794,945	12,29
795,126	-2,05
795,306	4,1
795,487	28,67
795,667	-18,43
795,848	4,1
796,028	-4,1
796,209	10,24
796,389	-2,05
796,57	-6,14
796,75	18,43
796,93	135,17
797,111	-40,96
797,291	-38,91
797,471	28,67
797,652	-14,34
797,832	-38,91
798,012	4,1
798,192	36,86
798,373	30,72
798,553	-71,68
798,733	-4,1
798,913	8,19
799,093	-20,48
799,274	18,43
799,454	51,2
799,634	-20,48
799,814	36,86
799,994	10,24
800,174	51,2
800,354	-2,05
800,534	-6,14
800,714	-49,15
800,894	-24,58
801,074	-12,29
801,254	71,68
801,434	32,77
801,614	-28,67
801,794	-4,1
801,974	-22,53
802,154	18,43
802,334	100,35
802,514	-12,29
802,693	-51,2
802,873	55,3
803,053	-26,62
803,233	-14,34
803,413	6,14
803,592	10,24
803,772	75,77
803,952	-51,2
804,131	38,91
804,311	-14,34
804,491	0
804,67	14,34
804,85	20,48
805,03	49,15
805,209	30,72
805,389	-12,29
805,568	20,48
805,748	-92,16
805,928	69,63
806,107	-4,1
806,287	-18,43
806,466	0
806,646	-6,14
806,825	-38,91
807,004	45,06
807,184	-20,48
807,363	20,48
807,543	22,53
807,722	0
807,901	-51,2
808,081	0
808,26	-20,48
808,439	34,82
808,619	-18,43
808,798	4,1
808,977	-10,24
809,156	79,87
809,336	-92,16
809,515	2,05
809,694	-30,72
809,873	45,06
810,052	-43,01
810,231	-12,29
810,411	-14,34
810,59	-51,2
810,769	-12,29
810,948	18,43
811,127	26,62
811,306	22,53
811,485	-16,38
811,664	4,1
811,843	12,29
812,022	-12,29
812,201	-22,53
812,38	-6,14
812,559	0
812,737	18,43
812,916	-28,67
813,095	-26,62
813,274	-28,67
813,453	8,19
813,632	-67,58
813,811	-20,48
813,989	16,38
814,168	18,43
814,347	12,29
814,526	38,91
814,704	-34,82
814,883	-30,72
815,062	24,58
815,24	-49,15
815,419	0
815,598	-51,2
815,776	4,1
815,955	30,72
816,133	20,48
816,312	6,14
816,49	30,72
816,669	-55,3
816,847	6,14
817,026	-8,19
817,204	12,29
817,383	-12,29
817,561	14,34
817,74	-36,86
817,918	20,48
818,097	-77,82
818,275	-53,25
818,453	59,39
818,632	0
818,81	49,15
818,988	-24,58
819,167	-22,53
819,345	12,29
819,523	45,06
819,701	108,54
819,879	114,69
820,058	28,67
820,236	-28,67
820,414	20,48
820,592	-51,2
820,77	-6,14
820,948	14,34
821,127	-34,82
821,305	10,24
821,483	-22,53
821,661	-18,43
821,839	47,1
822,017	6,14
822,195	18,43
822,373	36,86
822,551	22,53
822,729	-71,68
822,907	-6,14
823,085	10,24
823,262	-36,86
823,44	10,24
823,618	38,91
823,796	-47,1
823,974	6,14
824,152	-4,1
824,329	0
824,507	53,25
824,685	-10,24
824,863	-6,14
825,04	-18,43
825,218	-30,72
825,396	22,53
825,574	2,05
825,751	-18,43
825,929	43,01
826,107	-30,72
826,284	-49,15
826,462	-26,62
826,639	43,01
826,817	-47,1
826,994	28,67
827,172	-59,39
827,349	47,1
827,527	-2,05
827,704	-30,72
827,882	30,72
828,059	12,29
828,237	12,29
828,414	36,86
828,591	28,67
828,769	43,01
828,946	-14,34
829,124	75,77
829,301	-18,43
829,478	-20,48
829,655	38,91
829,833	40,96
830,01	0
830,187	-20,48
830,364	-40,96
830,542	12,29
830,719	-6,14
830,896	8,19
831,073	-10,24
831,25	67,58
831,427	-38,91
831,604	-32,77
831,782	-94,21
831,959	14,34
832,136	-16,38
832,313	14,34
832,49	-14,34
832,667	-10,24
832,844	-94,21
833,021	102,4
833,198	2,05
833,374	-2,05
833,551	4,1
833,728	-8,19
833,905	-10,24
834,082	-71,68
834,259	26,62
834,436	-77,82
834,612	38,91
834,789	47,1
834,966	67,58
835,143	-45,06
835,319	14,34
835,496	26,62
835,673	-40,96
835,85	12,29
836,026	-49,15
836,203	-69,63
836,38	-12,29
836,556	-22,53
836,733	51,2
836,909	-6,14
837,086	-67,58
837,262	-6,14
837,439	14,34
837,616	-12,29
837,792	-20,48
837,968	12,29
838,145	-24,58
838,321	20,48
838,498	-10,24
838,674	-61,44
838,851	12,29
839,027	69,63
839,203	-6,14
839,38	-47,1
839,556	-71,68
839,732	0
839,909	-55,3
840,085	-12,29
840,261	8,19
840,437	32,77
840,614	-8,19
840,79	-49,15
840,966	-6,14
841,142	43,01
841,318	-6,14
841,494	20,48
841,671	40,96
841,847	16,38
842,023	-2,05
842,199	-4,1
842,375	-6,14
842,551	-8,19
842,727	-47,1
842,903	18,43
843,079	-6,14
843,255	-32,77
843,431	14,34
843,607	86,01
843,783	38,91
843,959	8,19
844,134	45,06
844,31	-20,48
844,486	-32,77
844,662	-24,58
844,838	-12,29
845,013	6,14
845,189	4,1
845,365	6,14
845,541	18,43
845,716	-4,1
845,892	-47,1
846,068	75,77
846,244	2,05
846,419	-10,24
846,595	-2,05
846,77	38,91
846,946	-6,14
847,122	8,19
847,297	8,19
847,473	12,29
847,648	-6,14
847,824	45,06
847,999	10,24
848,175	-47,1
848,35	59,39
848,526	18,43
848,701	14,34
848,876	-12,29
849,052	-22,53
849,227	26,62
849,403	-38,91
849,578	-6,14
849,753	6,14
849,929	75,77
850,104	-14,34
850,279	28,67
850,454	-38,91
850,63	4,1
850,805	-18,43
850,98	-18,43
851,155	-6,14
851,33	55,3
851,505	-10,24
851,681	26,62
851,856	12,29
852,031	77,82
852,206	-10,24
852,381	-20,48
852,556	2,05
852,731	-12,29
852,906	-8,19
853,081	6,14
853,256	-61,44
853,431	55,3
853,606	38,91
853,781	12,29
853,956	-36,86
854,131	51,2
854,305	-28,67
854,48	55,3
854,655	-43,01
854,83	-51,2
855,005	22,53
855,18	43,01
855,354	-14,34
855,529	26,62
855,704	61,44
855,879	-22,53
856,053	-14,34
856,228	2,05
856,403	-10,24
856,577	43,01
856,752	20,48
856,926	26,62
857,101	-22,53
857,276	22,53
857,45	-18,43
857,625	38,91
857,799	12,29
857,974	-10,24
858,148	18,43
858,323	-16,38
858,497	-55,3
858,672	-57,34
858,846	-86,01
859,02	-4,1
859,195	-22,53
859,369	43,01
859,543	40,96
859,718	59,39
859,892	-14,34
860,066	-16,38
860,241	-40,96
860,415	53,25
860,589	0
860,763	-14,34
860,938	-53,25
861,112	-14,34
861,286	55,3
861,46	26,62
861,634	-32,77
861,808	-28,67
861,982	69,63
862,157	20,48
862,331	36,86
862,505	-14,34
862,679	-12,29
862,853	51,2
863,027	-2,05
863,201	-30,72
863,375	-47,1
863,549	-30,72
863,722	-59,39
863,896	-34,82
864,07	-26,62
864,244	-4,1
864,418	-12,29
864,592	-36,86
864,766	-36,86
864,939	-28,67
865,113	34,82
865,287	77,82
865,461	8,19
865,634	45,06
865,808	45,06
865,982	22,53
866,156	-22,53
866,329	-14,34
866,503	-55,3
866,676	20,48
866,85	-30,72
867,024	12,29
867,197	-14,34
867,371	-12,29
867,544	-43,01
867,718	4,1
867,891	10,24
868,065	12,29
868,238	-69,63
868,412	-6,14
868,585	-55,3
868,759	-10,24
868,932	-38,91
869,105	30,72
869,279	-77,82
869,452	-47,1
869,625	-38,91
869,799	26,62
869,972	-43,01
870,145	20,48
870,319	-26,62
870,492	10,24
870,665	-28,67
870,838	-10,24
871,011	-40,96
871,185	-55,3
871,358	-8,19
871,531	4,1
871,704	-2,05
871,877	-30,72
872,05	40,96
872,223	-16,38
872,396	47,1
872,569	-51,2
872,742	-61,44
872,915	-108,54
873,088	-18,43
873,261	45,06
873,434	-47,1
873,607	94,21
873,78	55,3
873,953	14,34
874,126	14,34
874,299	-36,86
874,471	-71,68
874,644	45,06
874,817	10,24
874,99	-8,19
875,163	-67,58
875,335	20,48
875,508	-4,1
875,681	18,43
875,853	26,62
876,026	57,34
876,199	34,82
876,371	59,39
876,544	-47,1
876,717	-12,29
876,889	-12,29
877,062	6,14
877,234	-2,05
877,407	-38,91
877,579	-63,49
877,752	-20,48
877,924	-38,91
878,097	59,39
878,269	4,1
878,442	65,53
878,614	-61,44
878,786	34,82
878,959	24,58
879,131	2,05
879,303	-67,58
879,476	-47,1
879,648	-57,34
879,82	2,05
879,993	8,19
880,165	-36,86
880,337	-36,86
880,509	67,58
880,681	-30,72
880,854	-18,43
881,026	6,14
881,198	-28,67
881,37	-38,91
881,542	4,1
881,714	-57,34
881,886	18,43
882,058	-6,14
882,23	-8,19
882,402	34,82
882,574	-14,34
882,746	0
882,918	14,34
883,09	-36,86
883,262	28,67
883,434	2,05
883,606	-20,48
883,778	26,62
883,95	4,1
884,122	-55,3
884,293	-20,48
884,465	-34,82
884,637	-20,48
884,809	2,05
884,98	4,1
885,152	-26,62
885,324	-79,87
885,496	-26,62
885,667	-83,97
885,839	61,44
886,011	-20,48
886,182	-49,15
886,354	0
886,525	59,39
886,697	45,06
886,869	-8,19
887,04	-2,05
887,212	-8,19
887,383	10,24
887,555	-36,86
887,726	10,24
887,897	-38,91
888,069	26,62
888,24	0
888,412	-73,73
888,583	16,38
888,754	77,82
888,926	16,38
889,097	10,24
889,268	43,01
889,44	20,48
889,611	51,2
889,782	-51,2
889,953	-8,19
890,125	12,29
890,296	2,05
890,467	47,1
890,638	43,01
890,809	-8,19
890,98	-34,82
891,151	-63,49
891,323	-30,72
891,494	-38,91
891,665	45,06
891,836	10,24
892,007	-6,14
892,178	-10,24
892,349	-2,05
892,52	6,14
892,691	-14,34
892,862	-14,34
893,032	26,62
893,203	4,1
893,374	75,77
893,545	49,15
893,716	-10,24
893,887	59,39
894,057	47,1
894,228	-6,14
894,399	-49,15
894,57	81,92
894,74	-12,29
894,911	2,05
895,082	-10,24
895,253	12,29
895,423	-47,1
895,594	18,43
895,764	-10,24
895,935	-90,11
896,106	51,2
896,276	-38,91
896,447	-2,05
896,617	4,1
896,788	-32,77
896,958	-14,34
897,129	12,29
897,299	30,72
897,47	-51,2
897,64	45,06
897,81	26,62
897,981	-75,77
898,151	-8,19
898,322	30,72
898,492	83,97
898,662	-18,43
898,832	-16,38
899,003	16,38
899,173	-10,24
899,343	-28,67
899,513	-43,01
