Data from filtre 532_USB4F104151__2__11-57-42-319.txt Node

Date: Wed Apr 15 11:57:42 EDT 2026
User: LaboPhy
Spectrometer: USB4F10415
Trigger mode: 4
Integration Time (sec): 3,000000E-3
Scans to average: 1
Electric dark correction enabled: true
Nonlinearity correction enabled: false
Boxcar width: 0
XAxis mode: Wavelengths
Number of Pixels in Spectrum: 3648
>>>>>Begin Spectral Data<<<<<
178,204	-56,83
178,424	-56,83
178,644	-56,83
178,864	-7,68
179,084	-36,35
179,304	-19,97
179,524	-38,4
179,744	-62,98
179,964	59,9
180,184	0,51
180,404	82,43
180,624	-71,17
180,844	55,81
181,064	-60,93
181,283	12,8
181,503	0,51
181,723	41,47
181,943	25,09
182,163	-3,58
182,383	-40,45
182,602	12,8
182,822	-40,45
183,042	-62,98
183,262	-71,17
183,482	-15,87
183,701	-40,45
183,921	33,28
184,141	53,76
184,361	0,51
184,58	-62,98
184,8	29,18
185,02	-62,98
185,239	16,9
185,459	-5,63
185,679	-13,82
185,898	-89,6
186,118	-38,4
186,338	-26,11
186,557	12,8
186,777	-32,26
186,997	-65,02
187,216	-56,83
187,436	-3,58
187,655	-50,69
187,875	23,04
188,095	27,14
188,314	2,56
188,534	43,52
188,753	-65,02
188,973	2,56
189,192	10,75
189,412	-15,87
189,631	41,47
189,851	8,7
190,07	-22,02
190,29	-101,89
190,509	-13,82
190,729	-116,22
190,948	2,56
191,168	29,18
191,387	33,28
191,607	8,7
191,826	2,56
192,045	12,8
192,265	70,14
192,484	-19,97
192,704	-83,45
192,923	-32,26
193,142	-9,73
193,362	23,04
193,581	-54,78
193,8	-11,78
194,02	-28,16
194,239	-30,21
194,458	-15,87
194,678	51,71
194,897	-15,87
195,116	-48,64
195,335	49,66
195,555	-22,02
195,774	16,9
195,993	61,95
196,212	-5,63
196,432	10,75
196,651	45,57
196,87	-30,21
197,089	-77,31
197,308	66,05
197,528	-24,06
197,747	-52,74
197,966	-3,58
198,185	-50,69
198,404	0,51
198,623	35,33
198,842	2,56
199,062	18,94
199,281	18,94
199,5	66,05
199,719	41,47
199,938	-5,63
200,157	-11,78
200,376	-28,16
200,595	8,7
200,814	2,56
201,033	-22,02
201,252	-17,92
201,471	-30,21
201,69	12,8
201,909	49,66
202,128	-54,78
202,347	61,95
202,566	-11,78
202,785	-44,54
203,004	61,95
203,223	98,81
203,442	-28,16
203,661	-3,58
203,879	33,28
204,098	-32,26
204,317	35,33
204,536	-30,21
204,755	20,99
204,974	14,85
205,193	-112,13
205,411	-13,82
205,63	-30,21
205,849	-24,06
206,068	-79,36
206,287	-60,93
206,505	-62,98
206,724	33,28
206,943	-38,4
207,162	-24,06
207,381	10,75
207,599	-30,21
207,818	-22,02
208,037	-11,78
208,255	-19,97
208,474	8,7
208,693	61,95
208,911	10,75
209,13	-13,82
209,349	45,57
209,567	49,66
209,786	18,94
210,005	-62,98
210,223	39,42
210,442	-22,02
210,661	16,9
210,879	-19,97
211,098	25,09
211,316	66,05
211,535	2,56
211,753	-24,06
211,972	-7,68
212,191	20,99
212,409	2,56
212,628	-50,69
212,846	18,94
213,065	-26,11
213,283	-54,78
213,502	-17,92
213,72	25,09
213,938	41,47
214,157	66,05
214,375	-36,35
214,594	66,05
214,812	14,85
215,031	33,28
215,249	-19,97
215,467	12,8
215,686	-54,78
215,904	74,24
216,122	-15,87
216,341	29,18
216,559	-36,35
216,778	78,33
216,996	-48,64
217,214	-60,93
217,432	-24,06
217,651	8,7
217,869	-19,97
218,087	14,85
218,306	4,61
218,524	8,7
218,742	57,86
218,96	-32,26
219,179	82,43
219,397	-36,35
219,615	-42,5
219,833	-38,4
220,051	-32,26
220,27	-91,65
220,488	18,94
220,706	-15,87
220,924	-24,06
221,142	-32,26
221,36	4,61
221,578	-101,89
221,796	-24,06
222,015	6,66
222,233	25,09
222,451	0,51
222,669	4,61
222,887	6,66
223,105	43,52
223,323	41,47
223,541	-44,54
223,759	33,28
223,977	-32,26
224,195	-15,87
224,413	-19,97
224,631	70,14
224,849	6,66
225,067	8,7
225,285	2,56
225,503	-5,63
225,721	-5,63
225,939	18,94
226,157	-62,98
226,375	-7,68
226,592	-7,68
226,81	0,51
227,028	-65,02
227,246	33,28
227,464	-42,5
227,682	20,99
227,9	-65,02
228,117	-15,87
228,335	-54,78
228,553	0,51
228,771	-7,68
228,989	-32,26
229,206	-3,58
229,424	4,61
229,642	35,33
229,86	102,91
230,077	8,7
230,295	-19,97
230,513	-32,26
230,731	-7,68
230,948	6,66
231,166	49,66
231,384	-38,4
231,601	31,23
231,819	-30,21
232,037	-13,82
232,254	-30,21
232,472	53,76
232,689	-19,97
232,907	-1,54
233,125	25,09
233,342	90,62
233,56	-17,92
233,777	8,7
233,995	-3,58
234,213	37,38
234,43	-22,02
234,648	2,56
234,865	-46,59
235,083	0,51
235,3	-32,26
235,518	29,18
235,735	2,56
235,953	10,75
236,17	8,7
236,388	-26,11
236,605	-30,21
236,822	12,8
237,04	25,09
237,257	29,18
237,475	0,51
237,692	-38,4
237,909	-97,79
238,127	-24,06
238,344	-83,45
238,562	-48,64
238,779	0,51
238,996	-30,21
239,214	27,14
239,431	18,94
239,648	41,47
239,865	0,51
240,083	-24,06
240,3	6,66
240,517	-38,4
240,735	80,38
240,952	47,62
241,169	-1,54
241,386	-60,93
241,603	20,99
241,821	2,56
242,038	68,09
242,255	37,38
242,472	-30,21
242,689	27,14
242,907	0,51
243,124	-30,21
243,341	-9,73
243,558	16,9
243,775	-52,74
243,992	-38,4
244,209	-44,54
244,426	-15,87
244,643	-46,59
244,86	-56,83
245,078	-19,97
245,295	8,7
245,512	31,23
245,729	8,7
245,946	25,09
246,163	61,95
246,38	-13,82
246,597	-48,64
246,814	25,09
247,031	4,61
247,248	23,04
247,464	0,51
247,681	-46,59
247,898	25,09
248,115	23,04
248,332	-15,87
248,549	25,09
248,766	-7,68
248,983	-15,87
249,2	-3,58
249,417	-19,97
249,633	41,47
249,85	-22,02
250,067	8,7
250,284	-1,54
250,501	-22,02
250,717	10,75
250,934	-50,69
251,151	-3,58
251,368	-26,11
251,585	-13,82
251,801	25,09
252,018	16,9
252,235	10,75
252,451	14,85
252,668	-24,06
252,885	16,9
253,102	-3,58
253,318	59,9
253,535	-22,02
253,752	29,18
253,968	16,9
254,185	27,14
254,401	4,61
254,618	25,09
254,835	2,56
255,051	-9,73
255,268	-75,26
255,484	-65,02
255,701	-24,06
255,917	25,09
256,134	-19,97
256,351	25,09
256,567	8,7
256,784	16,9
257	4,61
257,217	-3,58
257,433	31,23
257,65	16,9
257,866	-24,06
258,082	-19,97
258,299	-24,06
258,515	2,56
258,732	25,09
258,948	66,05
259,165	27,14
259,381	33,28
259,597	-3,58
259,814	-48,64
260,03	-34,3
260,246	-1,54
260,463	8,7
260,679	-22,02
260,895	-77,31
261,112	0,51
261,328	-50,69
261,544	18,94
261,761	-7,68
261,977	8,7
262,193	51,71
262,409	-9,73
262,626	-48,64
262,842	20,99
263,058	27,14
263,274	20,99
263,49	-44,54
263,707	16,9
263,923	-56,83
264,139	37,38
264,355	-46,59
264,571	23,04
264,787	16,9
265,004	2,56
265,22	-52,74
265,436	-5,63
265,652	-54,78
265,868	-30,21
266,084	74,24
266,3	0,51
266,516	-56,83
266,732	-56,83
266,948	43,52
267,164	-22,02
267,38	-40,45
267,596	4,61
267,812	-5,63
268,028	-71,17
268,244	8,7
268,46	12,8
268,676	-42,5
268,892	25,09
269,108	20,99
269,324	59,9
269,54	-13,82
269,756	-44,54
269,972	39,42
270,188	-3,58
270,403	0,51
270,619	41,47
270,835	4,61
271,051	-36,35
271,267	-40,45
271,483	10,75
271,698	-62,98
271,914	20,99
272,13	-58,88
272,346	-34,3
272,562	41,47
272,777	-28,16
272,993	-54,78
273,209	20,99
273,425	43,52
273,64	-5,63
273,856	57,86
274,072	2,56
274,287	-34,3
274,503	-17,92
274,719	-3,58
274,934	-17,92
275,15	-91,65
275,366	-30,21
275,581	4,61
275,797	16,9
276,012	-38,4
276,228	33,28
276,444	-7,68
276,659	-5,63
276,875	53,76
277,09	-22,02
277,306	20,99
277,521	-79,36
277,737	12,8
277,952	-11,78
278,168	-32,26
278,383	18,94
278,599	18,94
278,814	51,71
279,03	-24,06
279,245	47,62
279,461	20,99
279,676	-38,4
279,892	-93,69
280,107	-52,74
280,322	-30,21
280,538	27,14
280,753	-24,06
280,969	-46,59
281,184	41,47
281,399	76,29
281,615	2,56
281,83	-36,35
282,045	-56,83
282,26	-32,26
282,476	6,66
282,691	0,51
282,906	-56,83
283,122	10,75
283,337	16,9
283,552	47,62
283,767	-24,06
283,983	8,7
284,198	-38,4
284,413	-1,54
284,628	0,51
284,843	-32,26
285,058	6,66
285,274	-36,35
285,489	27,14
285,704	-11,78
285,919	-3,58
286,134	-32,26
286,349	-85,5
286,564	-54,78
286,779	-11,78
286,995	20,99
287,21	-32,26
287,425	18,94
287,64	4,61
287,855	57,86
288,07	-30,21
288,285	2,56
288,5	31,23
288,715	-38,4
288,93	61,95
289,145	-54,78
289,36	25,09
289,575	35,33
289,79	45,57
290,004	10,75
290,219	29,18
290,434	10,75
290,649	6,66
290,864	16,9
291,079	-13,82
291,294	16,9
291,509	39,42
291,724	-1,54
291,938	-71,17
292,153	16,9
292,368	-62,98
292,583	94,72
292,798	-40,45
293,012	37,38
293,227	-93,69
293,442	33,28
293,657	-17,92
293,871	-17,92
294,086	-22,02
294,301	-19,97
294,516	-36,35
294,73	37,38
294,945	45,57
295,16	-13,82
295,374	-19,97
295,589	33,28
295,804	8,7
296,018	-5,63
296,233	61,95
296,447	61,95
296,662	16,9
296,877	12,8
297,091	8,7
297,306	-36,35
297,52	33,28
297,735	-11,78
297,949	29,18
298,164	18,94
298,378	-28,16
298,593	12,8
298,807	-54,78
299,022	16,9
299,236	2,56
299,451	-3,58
299,665	49,66
299,88	-44,54
300,094	37,38
300,309	6,66
300,523	53,76
300,737	-15,87
300,952	-38,4
301,166	25,09
301,381	-73,21
301,595	-7,68
301,809	-40,45
302,024	29,18
302,238	-30,21
302,452	-89,6
302,667	-89,6
302,881	18,94
303,095	-28,16
303,309	53,76
303,524	33,28
303,738	-15,87
303,952	-11,78
304,166	107,01
304,381	-46,59
304,595	33,28
304,809	-9,73
305,023	33,28
305,237	10,75
305,452	41,47
305,666	-52,74
305,88	70,14
306,094	23,04
306,308	-17,92
306,522	-13,82
306,736	2,56
306,95	18,94
307,164	0,51
307,379	66,05
307,593	41,47
307,807	29,18
308,021	-1,54
308,235	-3,58
308,449	8,7
308,663	37,38
308,877	23,04
309,091	-83,45
309,305	-11,78
309,519	18,94
309,733	-32,26
309,947	39,42
310,161	-69,12
310,374	18,94
310,588	-9,73
310,802	-22,02
311,016	-44,54
311,23	-19,97
311,444	14,85
311,658	-38,4
311,872	-3,58
312,085	20,99
312,299	18,94
312,513	8,7
312,727	-13,82
312,941	-19,97
313,154	33,28
313,368	-19,97
313,582	-38,4
313,796	16,9
314,009	-17,92
314,223	41,47
314,437	0,51
314,651	68,09
314,864	33,28
315,078	-34,3
315,292	90,62
315,505	-69,12
315,719	-42,5
315,933	-11,78
316,146	-7,68
316,36	-7,68
316,573	-81,41
316,787	100,86
317,001	66,05
317,214	0,51
317,428	-79,36
317,641	-24,06
317,855	25,09
318,068	18,94
318,282	-56,83
318,495	-30,21
318,709	123,39
318,922	-34,3
319,136	-3,58
319,349	-22,02
319,563	23,04
319,776	-11,78
319,99	20,99
320,203	-11,78
320,417	12,8
320,63	-19,97
320,843	20,99
321,057	-19,97
321,27	0,51
321,483	39,42
321,697	-22,02
321,91	0,51
322,124	16,9
322,337	-32,26
322,55	-30,21
322,763	-40,45
322,977	-26,11
323,19	-7,68
323,403	-17,92
323,617	-32,26
323,83	-22,02
324,043	90,62
324,256	-22,02
324,469	-3,58
324,683	31,23
324,896	-22,02
325,109	-67,07
325,322	-56,83
325,535	16,9
325,748	-36,35
325,962	-7,68
326,175	-17,92
326,388	-32,26
326,601	8,7
326,814	-38,4
327,027	-48,64
327,24	39,42
327,453	-7,68
327,666	0,51
327,879	-19,97
328,092	39,42
328,305	14,85
328,518	31,23
328,731	16,9
328,944	35,33
329,157	-56,83
329,37	27,14
329,583	-87,55
329,796	51,71
330,009	4,61
330,222	-13,82
330,435	12,8
330,648	33,28
330,861	-19,97
331,073	8,7
331,286	-36,35
331,499	35,33
331,712	55,81
331,925	-5,63
332,138	-40,45
332,35	33,28
332,563	-13,82
332,776	-65,02
332,989	-1,54
333,202	25,09
333,414	16,9
333,627	-65,02
333,84	0,51
334,053	31,23
334,265	6,66
334,478	-15,87
334,691	41,47
334,903	8,7
335,116	27,14
335,329	33,28
335,541	-52,74
335,754	35,33
335,966	-3,58
336,179	-42,5
336,392	16,9
336,604	45,57
336,817	-36,35
337,029	35,33
337,242	-11,78
337,454	-36,35
337,667	-48,64
337,88	-7,68
338,092	-11,78
338,305	-30,21
338,517	-30,21
338,729	23,04
338,942	-19,97
339,154	-38,4
339,367	61,95
339,579	27,14
339,792	-44,54
340,004	-26,11
340,217	-48,64
340,429	-58,88
340,641	16,9
340,854	8,7
341,066	-24,06
341,278	-15,87
341,491	-15,87
341,703	-42,5
341,915	23,04
342,128	8,7
342,34	61,95
342,552	53,76
342,764	-15,87
342,977	18,94
343,189	27,14
343,401	-34,3
343,613	25,09
343,826	43,52
344,038	-15,87
344,25	51,71
344,462	16,9
344,674	-13,82
344,886	-114,17
345,099	14,85
345,311	0,51
345,523	18,94
345,735	25,09
345,947	18,94
346,159	27,14
346,371	-30,21
346,583	-24,06
346,795	-15,87
347,007	-32,26
347,219	-19,97
347,431	45,57
347,643	6,66
347,855	2,56
348,067	-30,21
348,279	8,7
348,491	18,94
348,703	-7,68
348,915	35,33
349,127	16,9
349,339	-13,82
349,551	-73,21
349,763	-40,45
349,975	-38,4
350,187	-15,87
350,399	-7,68
350,61	-11,78
350,822	6,66
351,034	35,33
351,246	-3,58
351,458	-17,92
351,669	-28,16
351,881	12,8
352,093	-56,83
352,305	-26,11
352,517	41,47
352,728	25,09
352,94	-15,87
353,152	14,85
353,363	29,18
353,575	-9,73
353,787	-17,92
353,999	-24,06
354,21	-15,87
354,422	0,51
354,633	33,28
354,845	-11,78
355,057	0,51
355,268	4,61
355,48	-11,78
355,692	16,9
355,903	31,23
356,115	-15,87
356,326	45,57
356,538	41,47
356,749	16,9
356,961	8,7
357,172	2,56
357,384	-38,4
357,595	-52,74
357,807	98,81
358,018	-7,68
358,23	25,09
358,441	10,75
358,653	-11,78
358,864	8,7
359,075	2,56
359,287	-46,59
359,498	-13,82
359,709	8,7
359,921	-97,79
360,132	8,7
360,344	41,47
360,555	-3,58
360,766	-13,82
360,977	-85,5
361,189	-3,58
361,4	47,62
361,611	-22,02
361,823	-44,54
362,034	-24,06
362,245	12,8
362,456	-44,54
362,667	-13,82
362,879	-13,82
363,09	8,7
363,301	-34,3
363,512	78,33
363,723	-15,87
363,935	20,99
364,146	25,09
364,357	23,04
364,568	-32,26
364,779	-13,82
364,99	66,05
365,201	-44,54
365,412	-40,45
365,623	-44,54
365,834	-1,54
366,045	-15,87
366,256	-28,16
366,467	-54,78
366,678	16,9
366,889	-11,78
367,1	4,61
367,311	25,09
367,522	39,42
367,733	-85,5
367,944	-48,64
368,155	35,33
368,366	25,09
368,577	27,14
368,788	8,7
368,999	43,52
369,209	-22,02
369,42	-40,45
369,631	25,09
369,842	-38,4
370,053	-19,97
370,264	-28,16
370,474	-24,06
370,685	6,66
370,896	107,01
371,107	25,09
371,317	39,42
371,528	35,33
371,739	-11,78
371,95	-30,21
372,16	4,61
372,371	0,51
372,582	27,14
372,792	66,05
373,003	8,7
373,214	-32,26
373,424	8,7
373,635	-26,11
373,846	53,76
374,056	20,99
374,267	-26,11
374,477	-24,06
374,688	51,71
374,898	-46,59
375,109	-32,26
375,319	-13,82
375,53	82,43
375,74	-15,87
375,951	4,61
376,161	-56,83
376,372	4,61
376,582	45,57
376,793	-62,98
377,003	-30,21
377,214	-13,82
377,424	8,7
377,635	-44,54
377,845	14,85
378,055	-79,36
378,266	-46,59
378,476	-11,78
378,686	39,42
378,897	-7,68
379,107	18,94
379,317	-73,21
379,528	31,23
379,738	-50,69
379,948	16,9
380,158	8,7
380,369	25,09
380,579	16,9
380,789	-36,35
380,999	25,09
381,21	-5,63
381,42	23,04
381,63	2,56
381,84	59,9
382,05	31,23
382,261	-1,54
382,471	-48,64
382,681	-7,68
382,891	-42,5
383,101	6,66
383,311	-15,87
383,521	-28,16
383,731	-77,31
383,941	-22,02
384,151	-11,78
384,361	33,28
384,571	-15,87
384,781	-38,4
384,991	41,47
385,201	18,94
385,411	12,8
385,621	-3,58
385,831	-38,4
386,041	20,99
386,251	37,38
386,461	10,75
386,671	27,14
386,881	0,51
387,091	-65,02
387,301	66,05
387,511	-11,78
387,72	-56,83
387,93	29,18
388,14	16,9
388,35	-19,97
388,56	57,86
388,769	41,47
388,979	35,33
389,189	0,51
389,399	74,24
389,609	39,42
389,818	12,8
390,028	-11,78
390,238	29,18
390,447	-30,21
390,657	-67,07
390,867	-22,02
391,076	18,94
391,286	10,75
391,496	-34,3
391,705	2,56
391,915	-11,78
392,125	-48,64
392,334	2,56
392,544	-19,97
392,753	12,8
392,963	14,85
393,172	37,38
393,382	2,56
393,591	74,24
393,801	6,66
394,01	-3,58
394,22	-48,64
394,429	35,33
394,639	-50,69
394,848	43,52
395,058	8,7
395,267	0,51
395,477	25,09
395,686	20,99
395,895	35,33
396,105	59,9
396,314	4,61
396,524	14,85
396,733	-42,5
396,942	35,33
397,152	-22,02
397,361	-13,82
397,57	29,18
397,78	29,18
397,989	8,7
398,198	-24,06
398,407	49,66
398,617	-44,54
398,826	-32,26
399,035	-28,16
399,244	-9,73
399,453	16,9
399,663	-36,35
399,872	53,76
400,081	0,51
400,29	8,7
400,499	-19,97
400,708	-15,87
400,917	-50,69
401,127	-48,64
401,336	2,56
401,545	27,14
401,754	23,04
401,963	29,18
402,172	41,47
402,381	10,75
402,59	-36,35
402,799	-1,54
403,008	8,7
403,217	-40,45
403,426	-56,83
403,635	16,9
403,844	-1,54
404,053	-22,02
404,262	8,7
404,471	14,85
404,68	-48,64
404,888	-60,93
405,097	-38,4
405,306	-56,83
405,515	27,14
405,724	25,09
405,933	10,75
406,142	18,94
406,35	-28,16
406,559	-38,4
406,768	6,66
406,977	0,51
407,185	14,85
407,394	-48,64
407,603	-87,55
407,812	-46,59
408,02	16,9
408,229	66,05
408,438	-22,02
408,646	2,56
408,855	27,14
409,064	14,85
409,272	-38,4
409,481	-13,82
409,69	-28,16
409,898	72,19
410,107	35,33
410,315	-5,63
410,524	-30,21
410,733	-65,02
410,941	-42,5
411,15	33,28
411,358	-24,06
411,567	-36,35
411,775	8,7
411,984	6,66
412,192	-15,87
412,401	-7,68
412,609	25,09
412,818	25,09
413,026	-13,82
413,234	-30,21
413,443	0,51
413,651	66,05
413,86	29,18
414,068	-56,83
414,276	-46,59
414,485	20,99
414,693	-24,06
414,901	18,94
415,11	-15,87
415,318	90,62
415,526	-3,58
415,734	18,94
415,943	0,51
416,151	-46,59
416,359	90,62
416,567	-28,16
416,776	0,51
416,984	59,9
417,192	25,09
417,4	-15,87
417,608	4,61
417,817	8,7
418,025	33,28
418,233	-28,16
418,441	-3,58
418,649	25,09
418,857	-40,45
419,065	4,61
419,273	-52,74
419,481	78,33
419,689	-28,16
419,897	-19,97
420,105	0,51
420,313	76,29
420,521	-1,54
420,729	25,09
420,937	-46,59
421,145	59,9
421,353	14,85
421,561	18,94
421,769	20,99
421,977	-15,87
422,185	18,94
422,393	-71,17
422,601	37,38
422,809	33,28
423,017	18,94
423,224	2,56
423,432	4,61
423,64	57,86
423,848	51,71
424,056	2,56
424,263	-19,97
424,471	25,09
424,679	76,29
424,887	-30,21
425,094	20,99
425,302	27,14
425,51	-22,02
425,718	14,85
425,925	0,51
426,133	-17,92
426,341	78,33
426,548	18,94
426,756	0,51
426,964	-34,3
427,171	49,66
427,379	43,52
427,586	-54,78
427,794	-56,83
428,001	53,76
428,209	2,56
428,417	-1,54
428,624	16,9
428,832	-22,02
429,039	57,86
429,247	-36,35
429,454	70,14
429,662	-15,87
429,869	25,09
430,076	12,8
430,284	43,52
430,491	-48,64
430,699	-15,87
430,906	-48,64
431,114	-22,02
431,321	33,28
431,528	-87,55
431,736	-60,93
431,943	-73,21
432,15	-48,64
432,358	37,38
432,565	-48,64
432,772	6,66
432,979	-28,16
433,187	41,47
433,394	0,51
433,601	-7,68
433,808	-5,63
434,016	16,9
434,223	51,71
434,43	-46,59
434,637	6,66
434,844	-3,58
435,052	-3,58
435,259	61,95
435,466	55,81
435,673	45,57
435,88	45,57
436,087	18,94
436,294	-26,11
436,501	64
436,708	47,62
436,915	8,7
437,122	27,14
437,329	-3,58
437,537	31,23
437,743	14,85
437,95	27,14
438,157	0,51
438,364	-19,97
438,571	14,85
438,778	-7,68
438,985	61,95
439,192	-13,82
439,399	57,86
439,606	-34,3
439,813	-30,21
440,02	45,57
440,227	31,23
440,433	-15,87
440,64	41,47
440,847	8,7
441,054	37,38
441,261	-13,82
441,467	0,51
441,674	-85,5
441,881	-46,59
442,088	-69,12
442,294	33,28
442,501	-65,02
442,708	-30,21
442,914	-15,87
443,121	88,57
443,328	25,09
443,534	25,09
443,741	8,7
443,948	96,77
444,154	43,52
444,361	16,9
444,568	37,38
444,774	-15,87
444,981	-1,54
445,187	18,94
445,394	10,75
445,6	43,52
445,807	-19,97
446,013	45,57
446,22	29,18
446,426	33,28
446,633	-24,06
446,839	-28,16
447,046	92,67
447,252	-81,41
447,459	25,09
447,665	25,09
447,871	-22,02
448,078	53,76
448,284	10,75
448,491	-52,74
448,697	14,85
448,903	29,18
449,11	43,52
449,316	-22,02
449,522	10,75
449,728	61,95
449,935	0,51
450,141	-42,5
450,347	-3,58
450,553	29,18
450,76	-22,02
450,966	-24,06
451,172	-46,59
451,378	33,28
451,584	-15,87
451,791	27,14
451,997	-15,87
452,203	-9,73
452,409	51,71
452,615	66,05
452,821	16,9
453,027	14,85
453,233	20,99
453,44	47,62
453,646	-32,26
453,852	18,94
454,058	2,56
454,264	-19,97
454,47	-22,02
454,676	-26,11
454,882	2,56
455,088	61,95
455,294	12,8
455,5	-46,59
455,705	-48,64
455,911	-42,5
456,117	-36,35
456,323	31,23
456,529	0,51
456,735	-3,58
456,941	-7,68
457,147	51,71
457,352	-38,4
457,558	31,23
457,764	-52,74
457,97	33,28
458,176	12,8
458,381	-11,78
458,587	-7,68
458,793	-48,64
458,999	-9,73
459,204	-7,68
459,41	-52,74
459,616	-52,74
459,821	68,09
460,027	29,18
460,233	-54,78
460,438	0,51
460,644	-26,11
460,85	59,9
461,055	37,38
461,261	-11,78
461,466	59,9
461,672	-7,68
461,878	59,9
462,083	-40,45
462,289	-50,69
462,494	74,24
462,7	-30,21
462,905	35,33
463,111	-19,97
463,316	4,61
463,522	-24,06
463,727	-9,73
463,932	-13,82
464,138	20,99
464,343	0,51
464,549	27,14
464,754	12,8
464,959	4,61
465,165	10,75
465,37	33,28
465,575	-34,3
465,781	33,28
465,986	-97,79
466,191	-26,11
466,397	55,81
466,602	25,09
466,807	-65,02
467,012	-122,37
467,218	39,42
467,423	-15,87
467,628	-32,26
467,833	4,61
468,038	-9,73
468,244	-30,21
468,449	-28,16
468,654	8,7
468,859	-54,78
469,064	-7,68
469,269	27,14
469,474	107,01
469,679	-40,45
469,885	-19,97
470,09	-24,06
470,295	20,99
470,5	70,14
470,705	-9,73
470,91	18,94
471,115	-3,58
471,32	-15,87
471,525	-5,63
471,73	41,47
471,935	43,52
472,139	-19,97
472,344	-62,98
472,549	-34,3
472,754	16,9
472,959	8,7
473,164	-36,35
473,369	0,51
473,574	82,43
473,778	-34,3
473,983	33,28
474,188	8,7
474,393	-97,79
474,598	23,04
474,802	-3,58
475,007	0,51
475,212	-9,73
475,417	-1,54
475,621	12,8
475,826	-65,02
476,031	20,99
476,235	-3,58
476,44	18,94
476,645	16,9
476,849	4,61
477,054	53,76
477,259	-1,54
477,463	-28,16
477,668	39,42
477,872	-38,4
478,077	33,28
478,282	16,9
478,486	49,66
478,691	-15,87
478,895	25,09
479,1	18,94
479,304	-58,88
479,509	-54,78
479,713	2,56
479,918	0,51
480,122	49,66
480,326	-30,21
480,531	-3,58
480,735	-73,21
480,94	4,61
481,144	18,94
481,348	-32,26
481,553	-56,83
481,757	23,04
481,961	-50,69
482,166	4,61
482,37	-17,92
482,574	-7,68
482,778	-28,16
482,983	-11,78
483,187	27,14
483,391	8,7
483,595	-3,58
483,8	25,09
484,004	-13,82
484,208	-15,87
484,412	0,51
484,616	-26,11
484,821	-42,5
485,025	16,9
485,229	-3,58
485,433	-17,92
485,637	10,75
485,841	20,99
486,045	8,7
486,249	57,86
486,453	14,85
486,657	-5,63
486,861	-24,06
487,065	-7,68
487,269	31,23
487,473	-28,16
487,677	-24,06
487,881	-28,16
488,085	20,99
488,289	-11,78
488,493	-24,06
488,697	33,28
488,901	-22,02
489,105	29,18
489,309	10,75
489,512	76,29
489,716	8,7
489,92	12,8
490,124	53,76
490,328	-32,26
490,531	8,7
490,735	57,86
490,939	-3,58
491,143	25,09
491,346	-7,68
491,55	-19,97
491,754	0,51
491,958	16,9
492,161	-15,87
492,365	-24,06
492,569	-65,02
492,772	20,99
492,976	-91,65
493,18	66,05
493,383	-15,87
493,587	-38,4
493,79	-95,74
493,994	-32,26
494,197	8,7
494,401	41,47
494,605	43,52
494,808	-46,59
495,012	-56,83
495,215	90,62
495,419	18,94
495,622	8,7
495,825	-73,21
496,029	0,51
496,232	-60,93
496,436	16,9
496,639	10,75
496,843	14,85
497,046	-52,74
497,249	-44,54
497,453	0,51
497,656	-7,68
497,859	27,14
498,063	-32,26
498,266	-24,06
498,469	-56,83
498,673	6,66
498,876	14,85
499,079	55,81
499,282	-50,69
499,485	-48,64
499,689	45,57
499,892	-36,35
500,095	-32,26
500,298	-65,02
500,501	27,14
500,705	-15,87
500,908	-13,82
501,111	-7,68
501,314	57,86
501,517	-73,21
501,72	-46,59
501,923	-134,65
502,126	8,7
502,329	45,57
502,532	-15,87
502,735	-95,74
502,938	12,8
503,141	-79,36
503,344	-9,73
503,547	-26,11
503,75	-52,74
503,953	-7,68
504,156	-34,3
504,359	33,28
504,562	-38,4
504,765	0,51
504,968	27,14
505,17	-30,21
505,373	25,09
505,576	-24,06
505,779	8,7
505,982	0,51
506,185	10,75
506,387	10,75
506,59	-26,11
506,793	66,05
506,996	33,28
507,198	-5,63
507,401	0,51
507,604	41,47
507,807	23,04
508,009	27,14
508,212	8,7
508,415	39,42
508,617	-38,4
508,82	16,9
509,022	-52,74
509,225	-36,35
509,428	-36,35
509,63	-56,83
509,833	37,38
510,035	-7,68
510,238	-30,21
510,44	-48,64
510,643	-15,87
510,845	41,47
511,048	-36,35
511,25	-26,11
511,453	20,99
511,655	-48,64
511,858	31,23
512,06	-13,82
512,262	-11,78
512,465	45,57
512,667	-7,68
512,87	-19,97
513,072	4,61
513,274	2,56
513,477	74,24
513,679	10,75
513,881	23,04
514,084	-38,4
514,286	47,62
514,488	33,28
514,69	6,66
514,893	-50,69
515,095	-24,06
515,297	23,04
515,499	-44,54
515,701	0,51
515,904	-58,88
516,106	18,94
516,308	59,9
516,51	6,66
516,712	-73,21
516,914	74,24
517,116	41,47
517,318	-73,21
517,52	-40,45
517,722	-54,78
517,925	2,56
518,127	0,51
518,329	51,71
518,531	27,14
518,733	33,28
518,935	-38,4
519,136	25,09
519,338	-38,4
519,54	-52,74
519,742	-3,58
519,944	-48,64
520,146	-3,58
520,348	41,47
520,55	59,9
520,752	-7,68
520,954	-9,73
521,155	-13,82
521,357	41,47
521,559	-22,02
521,761	-11,78
521,963	2,56
522,164	14,85
522,366	25,09
522,568	-9,73
522,77	16,9
522,971	-3,58
523,173	82,43
523,375	41,47
523,576	-30,21
523,778	-7,68
523,98	41,47
524,181	45,57
524,383	82,43
524,584	80,38
524,786	139,77
524,988	227,84
525,189	246,27
525,391	406,01
525,592	573,94
525,794	1147,37
525,995	1475,05
526,197	2296,28
526,398	2959,83
526,6	4114,88
526,801	5427,63
527,003	7082,39
527,204	8511,87
527,406	10928,47
527,607	12814,65
527,808	15311,13
528,01	17572,08
528,211	20443,34
528,412	23822,48
528,614	26667,11
528,815	29575,23
529,016	32993,29
529,218	35207,14
529,419	37865,41
529,62	39987,1
529,822	42114,94
530,023	43865,95
530,224	45453,13
530,425	46565,18
530,626	48011,04
530,828	48269,09
531,029	50814,71
531,23	49719,05
531,431	51068,66
531,632	51394,29
531,833	51425,01
532,035	51640,04
532,236	52063,97
532,437	52195,04
532,638	52045,54
532,839	52244,19
533,04	53104,34
533,241	52520,67
533,442	53096,15
533,643	52295,39
533,844	52537,05
534,045	52844,25
534,246	52248,29
534,447	52958,94
534,648	52522,72
534,849	52287,2
535,05	51619,56
535,251	51695,34
535,451	51302,13
535,652	50675,45
535,853	49780,49
536,054	48887,57
536,255	48326,43
536,456	46397,24
536,657	45463,37
536,857	43132,78
537,058	40877,97
537,259	39397,29
537,46	37121,99
537,66	34316,28
537,861	31676,44
538,062	28762,19
538,263	26550,38
538,463	23419,03
538,664	20990,14
538,865	18655,46
539,065	16589,06
539,266	13926,7
539,466	12194,12
539,667	9970,02
539,868	8749,43
540,068	7281,04
540,269	5962,15
540,469	4712,89
540,67	3764,68
540,87	2695,64
541,071	2126,3
541,271	1561,06
541,472	1077,74
541,672	680,44
541,873	539,13
542,073	301,56
542,274	211,45
542,474	174,59
542,675	180,73
542,875	84,48
543,075	111,1
543,276	82,43
543,476	127,49
543,676	57,86
543,877	25,09
544,077	100,86
544,277	23,04
544,478	61,95
544,678	68,09
544,878	-3,58
545,078	61,95
545,279	66,05
545,479	-17,92
545,679	6,66
545,879	51,71
546,079	-24,06
546,28	82,43
546,48	92,67
546,68	68,09
546,88	66,05
547,08	57,86
547,28	74,24
547,48	-89,6
547,68	-1,54
547,88	10,75
548,081	2,56
548,281	-71,17
548,481	31,23
548,681	74,24
548,881	16,9
549,081	-30,21
549,28	8,7
549,48	-19,97
549,68	-36,35
549,88	51,71
550,08	16,9
550,28	33,28
550,48	82,43
550,68	-11,78
550,88	23,04
551,08	-30,21
551,279	31,23
551,479	-48,64
551,679	74,24
551,879	-26,11
552,079	23,04
552,278	-42,5
552,478	66,05
552,678	4,61
552,878	-5,63
553,077	45,57
553,277	8,7
553,477	20,99
553,676	-32,26
553,876	-32,26
554,076	-13,82
554,275	16,9
554,475	-44,54
554,674	10,75
554,874	-38,4
555,074	-46,59
555,273	18,94
555,473	47,62
555,672	-34,3
555,872	0,51
556,071	10,75
556,271	8,7
556,47	18,94
556,67	-30,21
556,869	18,94
557,068	-42,5
557,268	76,29
557,467	27,14
557,667	8,7
557,866	-5,63
558,065	-32,26
558,265	84,48
558,464	-5,63
558,663	-15,87
558,863	49,66
559,062	2,56
559,261	4,61
559,461	39,42
559,66	0,51
559,859	-7,68
560,058	16,9
560,258	8,7
560,457	49,66
560,656	-1,54
560,855	66,05
561,054	-15,87
561,253	-44,54
561,453	16,9
561,652	-7,68
561,851	-32,26
562,05	-17,92
562,249	2,56
562,448	-11,78
562,647	6,66
562,846	51,71
563,045	0,51
563,244	-24,06
563,443	33,28
563,642	33,28
563,841	53,76
564,04	49,66
564,239	-36,35
564,438	16,9
564,637	-40,45
564,836	0,51
565,035	29,18
565,234	-15,87
565,432	-93,69
565,631	43,52
565,83	-7,68
566,029	35,33
566,228	39,42
566,427	-24,06
566,625	16,9
566,824	-15,87
567,023	-1,54
567,222	-7,68
567,42	0,51
567,619	35,33
567,818	2,56
568,016	-9,73
568,215	8,7
568,414	-13,82
568,612	8,7
568,811	29,18
569,01	6,66
569,208	-15,87
569,407	6,66
569,605	14,85
569,804	0,51
570,002	10,75
570,201	-65,02
570,4	-36,35
570,598	-32,26
570,797	18,94
570,995	-17,92
571,193	25,09
571,392	-30,21
571,59	-5,63
571,789	14,85
571,987	51,71
572,186	39,42
572,384	31,23
572,582	74,24
572,781	-1,54
572,979	-26,11
573,177	14,85
573,376	-7,68
573,574	64
573,772	-13,82
573,971	61,95
574,169	-26,11
574,367	16,9
574,565	-15,87
574,763	33,28
574,962	16,9
575,16	57,86
575,358	84,48
575,556	-15,87
575,754	0,51
575,952	64
576,151	-22,02
576,349	-3,58
576,547	61,95
576,745	-13,82
576,943	-30,21
577,141	-1,54
577,339	-1,54
577,537	25,09
577,735	14,85
577,933	0,51
578,131	-15,87
578,329	8,7
578,527	12,8
578,725	61,95
578,923	-36,35
579,121	-7,68
579,319	-13,82
579,516	18,94
579,714	-24,06
579,912	2,56
580,11	10,75
580,308	-7,68
580,506	29,18
580,704	43,52
580,901	-7,68
581,099	41,47
581,297	4,61
581,495	-15,87
581,692	-79,36
581,89	41,47
582,088	2,56
582,285	-32,26
582,483	-30,21
582,681	59,9
582,878	-1,54
583,076	-5,63
583,274	20,99
583,471	18,94
583,669	8,7
583,866	51,71
584,064	-40,45
584,262	0,51
584,459	57,86
584,657	-13,82
584,854	-13,82
585,052	14,85
585,249	-79,36
585,447	66,05
585,644	-5,63
585,841	51,71
586,039	-28,16
586,236	61,95
586,434	-38,4
586,631	-7,68
586,828	-7,68
587,026	8,7
587,223	20,99
587,42	-36,35
587,618	25,09
587,815	43,52
588,012	-46,59
588,21	29,18
588,407	49,66
588,604	-9,73
588,801	8,7
588,999	-15,87
589,196	-1,54
589,393	57,86
589,59	-19,97
589,787	57,86
589,984	-24,06
590,182	-58,88
590,379	-7,68
590,576	4,61
590,773	2,56
590,97	29,18
591,167	31,23
591,364	2,56
591,561	-58,88
591,758	8,7
591,955	8,7
592,152	-30,21
592,349	-11,78
592,546	61,95
592,743	0,51
592,94	-24,06
593,137	-24,06
593,334	4,61
593,531	8,7
593,727	-34,3
593,924	37,38
594,121	8,7
594,318	-15,87
594,515	49,66
594,712	-34,3
594,908	-19,97
595,105	-62,98
595,302	16,9
595,499	23,04
595,696	78,33
595,892	8,7
596,089	-48,64
596,286	-34,3
596,482	78,33
596,679	-38,4
596,876	-28,16
597,072	-15,87
597,269	16,9
597,466	-50,69
597,662	8,7
597,859	4,61
598,055	10,75
598,252	-38,4
598,448	23,04
598,645	-46,59
598,841	-3,58
599,038	-19,97
599,234	43,52
599,431	-108,03
599,627	-44,54
599,824	-48,64
600,02	53,76
600,217	-24,06
600,413	-32,26
600,609	-5,63
600,806	61,95
601,002	-3,58
601,198	12,8
601,395	4,61
601,591	8,7
601,787	41,47
601,984	78,33
602,18	-17,92
602,376	-1,54
602,572	-48,64
602,769	33,28
602,965	4,61
603,161	31,23
603,357	-62,98
603,553	4,61
603,75	-7,68
603,946	33,28
604,142	-13,82
604,338	43,52
604,534	-28,16
604,73	-46,59
604,926	-69,12
605,122	43,52
605,318	66,05
605,514	76,29
605,71	-34,3
605,906	92,67
606,102	-58,88
606,298	35,33
606,494	41,47
606,69	25,09
606,886	16,9
607,082	-56,83
607,278	-7,68
607,474	10,75
607,67	74,24
607,866	-3,58
608,062	-48,64
608,257	-11,78
608,453	-48,64
608,649	-3,58
608,845	-65,02
609,041	-3,58
609,236	-48,64
609,432	4,61
609,628	10,75
609,824	0,51
610,019	25,09
610,215	-56,83
610,411	16,9
610,606	-9,73
610,802	-1,54
610,998	-3,58
611,193	10,75
611,389	47,62
611,584	66,05
611,78	16,9
611,976	-44,54
612,171	25,09
612,367	-13,82
612,562	29,18
612,758	-26,11
612,953	25,09
613,149	-17,92
613,344	-42,5
613,539	-71,17
613,735	-122,37
613,93	-15,87
614,126	2,56
614,321	-44,54
614,517	53,76
614,712	20,99
614,907	10,75
615,103	-42,5
615,298	12,8
615,493	-42,5
615,688	-54,78
615,884	-15,87
616,079	35,33
616,274	8,7
616,47	29,18
616,665	16,9
616,86	-9,73
617,055	-97,79
617,25	-11,78
617,445	41,47
617,641	2,56
617,836	8,7
618,031	41,47
618,226	16,9
618,421	2,56
618,616	-7,68
618,811	49,66
619,006	-42,5
619,201	-71,17
619,396	-15,87
619,591	8,7
619,786	59,9
619,981	-3,58
620,176	-13,82
620,371	10,75
620,566	4,61
620,761	20,99
620,956	-9,73
621,151	-15,87
621,346	-11,78
621,541	8,7
621,735	-28,16
621,93	-22,02
622,125	8,7
622,32	31,23
622,515	-26,11
622,709	33,28
622,904	-54,78
623,099	-11,78
623,294	41,47
623,488	-1,54
623,683	45,57
623,878	-9,73
624,072	-36,35
624,267	-34,3
624,462	4,61
624,656	43,52
624,851	-40,45
625,046	-15,87
625,24	-5,63
625,435	-11,78
625,629	8,7
625,824	-5,63
626,018	-65,02
626,213	51,71
626,407	16,9
626,602	-40,45
626,796	-30,21
626,991	41,47
627,185	-26,11
627,38	10,75
627,574	-44,54
627,768	2,56
627,963	31,23
628,157	-22,02
628,352	-30,21
628,546	43,52
628,74	-46,59
628,935	-11,78
629,129	16,9
629,323	-13,82
629,517	-5,63
629,712	49,66
629,906	-13,82
630,1	-13,82
630,294	-65,02
630,489	-24,06
630,683	-38,4
630,877	66,05
631,071	51,71
631,265	33,28
631,459	-13,82
631,653	-3,58
631,848	-19,97
632,042	98,81
632,236	-7,68
632,43	31,23
632,624	27,14
632,818	-9,73
633,012	-7,68
633,206	-15,87
633,4	-89,6
633,594	8,7
633,788	29,18
633,982	-40,45
634,176	41,47
634,369	-48,64
634,563	27,14
634,757	8,7
634,951	-50,69
635,145	25,09
635,339	45,57
635,533	-30,21
635,726	-13,82
635,92	14,85
636,114	-48,64
636,308	-54,78
636,501	-40,45
636,695	-7,68
636,889	-30,21
637,083	8,7
637,276	-7,68
637,47	-56,83
637,664	8,7
637,857	10,75
638,051	59,9
638,244	66,05
638,438	25,09
638,632	-1,54
638,825	6,66
639,019	2,56
639,212	-44,54
639,406	-24,06
639,599	-69,12
639,793	-36,35
639,986	-11,78
640,18	45,57
640,373	0,51
640,567	-19,97
640,76	29,18
640,954	-7,68
641,147	57,86
641,34	-36,35
641,534	-1,54
641,727	-7,68
641,92	12,8
642,114	-3,58
642,307	-48,64
642,5	16,9
642,694	-22,02
642,887	-11,78
643,08	-1,54
643,273	45,57
643,467	-56,83
643,66	-7,68
643,853	-48,64
644,046	-42,5
644,239	29,18
644,432	16,9
644,626	-13,82
644,819	14,85
645,012	2,56
645,205	61,95
645,398	-7,68
645,591	16,9
645,784	-24,06
645,977	-1,54
646,17	-5,63
646,363	12,8
646,556	-48,64
646,749	18,94
646,942	-34,3
647,135	29,18
647,328	-30,21
647,521	4,61
647,714	10,75
647,907	27,14
648,099	14,85
648,292	6,66
648,485	0,51
648,678	0,51
648,871	25,09
649,064	-50,69
649,256	18,94
649,449	51,71
649,642	-62,98
649,835	51,71
650,027	-19,97
650,22	0,51
650,413	-32,26
650,605	2,56
650,798	18,94
650,991	53,76
651,183	-46,59
651,376	-56,83
651,568	8,7
651,761	16,9
651,954	-24,06
652,146	49,66
652,339	-22,02
652,531	31,23
652,724	49,66
652,916	-28,16
653,109	76,29
653,301	-52,74
653,494	27,14
653,686	-52,74
653,879	55,81
654,071	-15,87
654,263	12,8
654,456	8,7
654,648	-15,87
654,84	25,09
655,033	-48,64
655,225	25,09
655,417	-17,92
655,61	-112,13
655,802	6,66
655,994	-22,02
656,186	-5,63
656,379	20,99
656,571	-28,16
656,763	-5,63
656,955	2,56
657,148	33,28
657,34	2,56
657,532	18,94
657,724	-36,35
657,916	66,05
658,108	37,38
658,3	-56,83
658,492	-34,3
658,684	82,43
658,876	29,18
659,068	-54,78
659,26	53,76
659,452	2,56
659,644	-26,11
659,836	-19,97
660,028	18,94
660,22	-101,89
660,412	16,9
660,604	0,51
660,796	53,76
660,988	2,56
661,18	-50,69
661,372	-26,11
661,563	57,86
661,755	33,28
661,947	-58,88
662,139	33,28
662,331	25,09
662,522	0,51
662,714	10,75
662,906	37,38
663,097	25,09
663,289	37,38
663,481	-73,21
663,673	51,71
663,864	-46,59
664,056	-19,97
664,247	45,57
664,439	29,18
664,631	2,56
664,822	41,47
665,014	12,8
665,205	66,05
665,397	-62,98
665,588	14,85
665,78	45,57
665,971	-22,02
666,163	6,66
666,354	-46,59
666,546	-13,82
666,737	0,51
666,929	-15,87
667,12	-26,11
667,311	-26,11
667,503	31,23
667,694	-52,74
667,885	0,51
668,077	6,66
668,268	8,7
668,459	-3,58
668,651	41,47
668,842	16,9
669,033	-62,98
669,224	-7,68
669,416	8,7
669,607	-44,54
669,798	-40,45
669,989	-22,02
670,18	-13,82
670,371	8,7
670,563	10,75
670,754	-9,73
670,945	2,56
671,136	-73,21
671,327	51,71
671,518	49,66
671,709	-36,35
671,9	14,85
672,091	-22,02
672,282	4,61
672,473	-19,97
672,664	66,05
672,855	-5,63
673,046	-32,26
673,237	-32,26
673,428	14,85
673,619	51,71
673,809	-15,87
674	35,33
674,191	-19,97
674,382	-11,78
674,573	-3,58
674,764	-26,11
674,954	25,09
675,145	2,56
675,336	-9,73
675,527	49,66
675,717	-5,63
675,908	-7,68
676,099	8,7
676,289	-32,26
676,48	-42,5
676,671	86,53
676,861	-56,83
677,052	16,9
677,243	18,94
677,433	-52,74
677,624	8,7
677,814	16,9
678,005	-22,02
678,195	53,76
678,386	-40,45
678,576	31,23
678,767	-7,68
678,957	-24,06
679,148	12,8
679,338	43,52
679,529	-36,35
679,719	-9,73
679,909	-30,21
680,1	-58,88
680,29	12,8
680,481	27,14
680,671	33,28
680,861	-13,82
681,052	-40,45
681,242	41,47
681,432	-42,5
681,622	18,94
681,813	6,66
682,003	-32,26
682,193	0,51
682,383	8,7
682,573	-13,82
682,764	64
682,954	0,51
683,144	-32,26
683,334	12,8
683,524	12,8
683,714	-30,21
683,904	86,53
684,094	-5,63
684,284	0,51
684,474	0,51
684,664	-22,02
684,854	-30,21
685,044	45,57
685,234	0,51
685,424	37,38
685,614	-73,21
685,804	2,56
685,994	-62,98
686,184	0,51
686,374	-52,74
686,564	0,51
686,753	33,28
686,943	-56,83
687,133	45,57
687,323	6,66
687,513	-17,92
687,702	-36,35
687,892	-40,45
688,082	-30,21
688,272	-44,54
688,461	-32,26
688,651	49,66
688,841	-81,41
689,03	-52,74
689,22	-1,54
689,41	-22,02
689,599	18,94
689,789	-32,26
689,979	29,18
690,168	-11,78
690,358	10,75
690,547	29,18
690,737	29,18
690,926	55,81
691,116	-26,11
691,305	10,75
691,495	12,8
691,684	12,8
691,874	-17,92
692,063	-11,78
692,252	-38,4
692,442	-40,45
692,631	10,75
692,82	-48,64
693,01	-38,4
693,199	29,18
693,388	8,7
693,578	33,28
693,767	-15,87
693,956	18,94
694,146	0,51
694,335	-28,16
694,524	10,75
694,713	70,14
694,902	-15,87
695,092	16,9
695,281	-30,21
695,47	-22,02
695,659	-40,45
695,848	16,9
696,037	-48,64
696,226	-54,78
696,415	51,71
696,604	-11,78
696,793	41,47
696,982	-15,87
697,171	-9,73
697,36	8,7
697,549	43,52
697,738	23,04
697,927	-36,35
698,116	47,62
698,305	20,99
698,494	-19,97
698,683	51,71
698,872	-3,58
699,061	4,61
699,25	18,94
699,438	-7,68
699,627	-5,63
699,816	14,85
700,005	-42,5
700,193	18,94
700,382	16,9
700,571	25,09
700,76	-85,5
700,948	-26,11
701,137	-5,63
701,326	43,52
701,514	-32,26
701,703	-3,58
701,892	-34,3
702,08	35,33
702,269	-36,35
702,457	2,56
702,646	-28,16
702,834	23,04
703,023	-54,78
703,212	-13,82
703,4	2,56
703,589	0,51
703,777	-101,89
703,965	2,56
704,154	-34,3
704,342	27,14
704,531	6,66
704,719	33,28
704,907	25,09
705,096	-46,59
705,284	33,28
705,472	-1,54
705,661	-48,64
705,849	43,52
706,037	-17,92
706,226	35,33
706,414	41,47
706,602	-32,26
706,79	-3,58
706,979	90,62
707,167	-56,83
707,355	8,7
707,543	-24,06
707,731	-22,02
707,919	-19,97
708,107	12,8
708,296	-52,74
708,484	-58,88
708,672	-93,69
708,86	41,47
709,048	-13,82
709,236	-1,54
709,424	12,8
709,612	-32,26
709,8	20,99
709,988	6,66
710,176	-19,97
710,364	33,28
710,551	-38,4
710,739	82,43
710,927	55,81
711,115	-40,45
711,303	-52,74
711,491	0,51
711,679	2,56
711,866	2,56
712,054	20,99
712,242	10,75
712,43	-65,02
712,617	-38,4
712,805	-5,63
712,993	41,47
713,181	-3,58
713,368	-36,35
713,556	20,99
713,744	-7,68
713,931	-7,68
714,119	16,9
714,306	-13,82
714,494	-7,68
714,682	-26,11
714,869	27,14
715,057	-46,59
715,244	-13,82
715,432	-30,21
715,619	-28,16
715,807	-13,82
715,994	-36,35
716,182	-13,82
716,369	27,14
716,556	-26,11
716,744	25,09
716,931	-87,55
717,119	-28,16
717,306	-24,06
717,493	59,9
717,681	-28,16
717,868	25,09
718,055	-30,21
718,242	43,52
718,43	-48,64
718,617	-56,83
718,804	-40,45
718,991	-30,21
719,179	-30,21
719,366	14,85
719,553	-75,26
719,74	41,47
719,927	33,28
720,114	43,52
720,301	16,9
720,488	-13,82
720,676	-17,92
720,863	-22,02
721,05	51,71
721,237	41,47
721,424	-1,54
721,611	16,9
721,798	-34,3
721,985	6,66
722,172	-22,02
722,358	-19,97
722,545	4,61
722,732	20,99
722,919	-3,58
723,106	-62,98
723,293	-9,73
723,48	57,86
723,667	-26,11
723,853	-7,68
724,04	-13,82
724,227	14,85
724,414	-65,02
724,6	49,66
724,787	-44,54
724,974	-83,45
725,161	6,66
725,347	0,51
725,534	-1,54
725,72	-7,68
725,907	-15,87
726,094	-7,68
726,28	-56,83
726,467	16,9
726,653	-50,69
726,84	10,75
727,027	-15,87
727,213	-9,73
727,4	12,8
727,586	-46,59
727,773	-52,74
727,959	16,9
728,145	0,51
728,332	18,94
728,518	23,04
728,705	-48,64
728,891	-19,97
729,077	12,8
729,264	-85,5
729,45	-28,16
729,636	4,61
729,823	16,9
730,009	-62,98
730,195	8,7
730,382	16,9
730,568	29,18
730,754	-32,26
730,94	31,23
731,126	0,51
731,313	-7,68
731,499	-15,87
731,685	59,9
731,871	23,04
732,057	12,8
732,243	-30,21
732,429	18,94
732,615	-24,06
732,801	2,56
732,987	2,56
733,173	-11,78
733,359	-67,07
733,545	-13,82
733,731	6,66
733,917	35,33
734,103	-15,87
734,289	-9,73
734,475	16,9
734,661	57,86
734,847	35,33
735,033	18,94
735,219	-17,92
735,404	10,75
735,59	-105,98
735,776	41,47
735,962	6,66
736,148	8,7
736,333	8,7
736,519	-7,68
736,705	-5,63
736,89	82,43
737,076	-71,17
737,262	86,53
737,447	0,51
737,633	-38,4
737,819	-24,06
738,004	76,29
738,19	-36,35
738,375	10,75
738,561	-22,02
738,747	64
738,932	-7,68
739,118	-7,68
739,303	47,62
739,489	-79,36
739,674	-15,87
739,859	-38,4
740,045	61,95
740,23	-32,26
740,416	-48,64
740,601	27,14
740,786	45,57
740,972	43,52
741,157	66,05
741,342	-24,06
741,528	-46,59
741,713	8,7
741,898	-79,36
742,084	-60,93
742,269	6,66
742,454	53,76
742,639	88,57
742,824	-11,78
743,01	-34,3
743,195	-56,83
743,38	0,51
743,565	-22,02
743,75	-75,26
743,935	8,7
744,12	-73,21
744,305	14,85
744,49	-22,02
744,675	-7,68
744,86	12,8
745,045	55,81
745,23	-69,12
745,415	68,09
745,6	61,95
745,785	10,75
745,97	-36,35
746,155	-28,16
746,34	-60,93
746,525	-30,21
746,71	-22,02
746,895	84,48
747,079	-42,5
747,264	-36,35
747,449	-13,82
747,634	33,28
747,819	-28,16
748,003	0,51
748,188	-13,82
748,373	-40,45
748,557	-52,74
748,742	0,51
748,927	2,56
749,111	35,33
749,296	-42,5
749,481	-24,06
749,665	23,04
749,85	-3,58
750,034	4,61
750,219	-9,73
750,404	-46,59
750,588	16,9
750,773	-67,07
750,957	25,09
751,141	8,7
751,326	33,28
751,51	-28,16
751,695	33,28
751,879	-34,3
752,064	16,9
752,248	16,9
752,432	-13,82
752,617	0,51
752,801	-11,78
752,985	-7,68
753,17	4,61
753,354	-24,06
753,538	-7,68
753,722	-15,87
753,907	-73,21
754,091	-11,78
754,275	-44,54
754,459	-15,87
754,643	43,52
754,828	-22,02
755,012	-7,68
755,196	-30,21
755,38	14,85
755,564	-34,3
755,748	-19,97
755,932	-42,5
756,116	35,33
756,3	0,51
756,484	4,61
756,668	18,94
756,852	-1,54
757,036	-48,64
757,22	16,9
757,404	-24,06
757,588	27,14
757,772	-1,54
757,956	-22,02
758,14	20,99
758,323	18,94
758,507	-30,21
758,691	-34,3
758,875	-9,73
759,059	-17,92
759,242	35,33
759,426	12,8
759,61	-42,5
759,794	-42,5
759,977	51,71
760,161	-1,54
760,345	-7,68
760,528	14,85
760,712	12,8
760,895	16,9
761,079	-54,78
761,263	20,99
761,446	16,9
761,63	-40,45
761,813	-7,68
761,997	-24,06
762,18	55,81
762,364	43,52
762,547	-42,5
762,731	33,28
762,914	66,05
763,098	6,66
763,281	-17,92
763,464	47,62
763,648	74,24
763,831	-62,98
764,015	-38,4
764,198	20,99
764,381	-24,06
764,564	-17,92
764,748	-5,63
764,931	51,71
765,114	-15,87
765,297	-5,63
765,481	6,66
765,664	-65,02
765,847	-13,82
766,03	6,66
766,213	-17,92
766,397	49,66
766,58	61,95
766,763	-22,02
766,946	-3,58
767,129	-11,78
767,312	16,9
767,495	33,28
767,678	-54,78
767,861	61,95
768,044	-24,06
768,227	0,51
768,41	20,99
768,593	74,24
768,776	-3,58
768,959	25,09
769,142	-5,63
769,324	8,7
769,507	51,71
769,69	-52,74
769,873	12,8
770,056	-9,73
770,239	-15,87
770,421	-30,21
770,604	-11,78
770,787	33,28
770,97	8,7
771,152	-11,78
771,335	0,51
771,518	-7,68
771,7	0,51
771,883	61,95
772,066	-44,54
772,248	25,09
772,431	16,9
772,613	-32,26
772,796	18,94
772,978	35,33
773,161	33,28
773,343	-56,83
773,526	-11,78
773,708	29,18
773,891	-13,82
774,073	-32,26
774,256	20,99
774,438	-48,64
774,621	-13,82
774,803	33,28
774,985	2,56
775,168	-7,68
775,35	-52,74
775,532	0,51
775,715	-50,69
775,897	6,66
776,079	-34,3
776,261	-32,26
776,444	53,76
776,626	-15,87
776,808	-32,26
776,99	20,99
777,173	20,99
777,355	0,51
777,537	18,94
777,719	-17,92
777,901	-58,88
778,083	0,51
778,265	-38,4
778,447	4,61
778,629	-7,68
778,811	-22,02
778,993	0,51
779,175	49,66
779,357	66,05
779,539	31,23
779,721	-19,97
779,903	8,7
780,085	12,8
780,267	29,18
780,449	-67,07
780,631	-15,87
780,812	-9,73
780,994	61,95
781,176	41,47
781,358	29,18
781,54	-19,97
781,721	-13,82
781,903	-7,68
782,085	8,7
782,267	0,51
782,448	-48,64
782,63	41,47
782,812	57,86
782,993	74,24
783,175	-1,54
783,357	-17,92
783,538	8,7
783,72	-3,58
783,901	-42,5
784,083	-48,64
784,264	31,23
784,446	45,57
784,627	-11,78
784,809	-73,21
784,99	0,51
785,172	45,57
785,353	-54,78
785,535	-75,26
785,716	-13,82
785,897	-11,78
786,079	-40,45
786,26	-19,97
786,441	-48,64
786,623	-38,4
786,804	12,8
786,985	-15,87
787,167	-9,73
787,348	-24,06
787,529	-7,68
787,71	57,86
787,891	49,66
788,073	-11,78
788,254	0,51
788,435	-32,26
788,616	37,38
788,797	-15,87
788,978	20,99
789,159	18,94
789,34	-7,68
789,522	-26,11
789,703	45,57
789,884	-32,26
790,065	-26,11
790,246	23,04
790,427	-19,97
790,607	8,7
790,788	55,81
790,969	-3,58
791,15	-17,92
791,331	0,51
791,512	8,7
791,693	-58,88
791,874	88,57
792,054	-28,16
792,235	18,94
792,416	-28,16
792,597	27,14
792,778	-7,68
792,958	0,51
793,139	23,04
793,32	-44,54
793,5	12,8
793,681	-24,06
793,862	39,42
794,042	8,7
794,223	-5,63
794,404	-48,64
794,584	35,33
794,765	78,33
794,945	0,51
795,126	18,94
795,306	-9,73
795,487	10,75
795,667	94,72
795,848	-22,02
796,028	8,7
796,209	-36,35
796,389	25,09
796,57	49,66
796,75	-24,06
796,93	18,94
797,111	16,9
797,291	-9,73
797,471	-13,82
797,652	-13,82
797,832	-52,74
798,012	-26,11
798,192	33,28
798,373	76,29
798,553	14,85
798,733	47,62
798,913	-3,58
799,093	2,56
799,274	-48,64
799,454	-48,64
799,634	-13,82
799,814	-32,26
799,994	-50,69
800,174	18,94
800,354	-24,06
800,534	31,23
800,714	-46,59
800,894	4,61
801,074	6,66
801,254	29,18
801,434	-11,78
801,614	12,8
801,794	57,86
801,974	37,38
802,154	-11,78
802,334	49,66
802,514	-7,68
802,693	25,09
802,873	-46,59
803,053	-5,63
803,233	53,76
803,413	-48,64
803,592	4,61
803,772	-22,02
803,952	23,04
804,131	33,28
804,311	10,75
804,491	49,66
804,67	-15,87
804,85	41,47
805,03	-52,74
805,209	-34,3
805,389	16,9
805,568	12,8
805,748	-15,87
805,928	-7,68
806,107	16,9
806,287	-22,02
806,466	-44,54
806,646	33,28
806,825	16,9
807,004	-22,02
807,184	-28,16
807,363	-5,63
807,543	16,9
807,722	-32,26
807,901	14,85
808,081	35,33
808,26	29,18
808,439	74,24
808,619	-38,4
808,798	43,52
808,977	4,61
809,156	-28,16
809,336	33,28
809,515	92,67
809,694	-22,02
809,873	-7,68
810,052	45,57
810,231	-3,58
810,411	43,52
810,59	-54,78
810,769	-11,78
810,948	70,14
811,127	-110,08
811,306	51,71
811,485	-81,41
811,664	-32,26
811,843	-48,64
812,022	-36,35
812,201	-48,64
812,38	-65,02
812,559	16,9
812,737	8,7
812,916	-46,59
813,095	10,75
813,274	-46,59
813,453	-11,78
813,632	-7,68
813,811	31,23
813,989	-24,06
814,168	74,24
814,347	-46,59
814,526	-19,97
814,704	-24,06
814,883	-46,59
815,062	27,14
815,24	-11,78
815,419	-46,59
815,598	12,8
815,776	-56,83
815,955	-17,92
816,133	12,8
816,312	-19,97
816,49	0,51
816,669	16,9
816,847	-44,54
817,026	-24,06
817,204	-19,97
817,383	0,51
817,561	0,51
817,74	12,8
817,918	8,7
818,097	-7,68
818,275	41,47
818,453	76,29
818,632	12,8
818,81	-26,11
818,988	-48,64
819,167	-11,78
819,345	49,66
819,523	4,61
819,701	49,66
819,879	18,94
820,058	-19,97
820,236	-5,63
820,414	-24,06
820,592	-26,11
820,77	-46,59
820,948	-44,54
821,127	16,9
821,305	-30,21
821,483	29,18
821,661	57,86
821,839	-11,78
822,017	39,42
822,195	-7,68
822,373	-44,54
822,551	-13,82
822,729	-3,58
822,907	-3,58
823,085	29,18
823,262	-7,68
823,44	37,38
823,618	33,28
823,796	4,61
823,974	98,81
824,152	-7,68
824,329	-28,16
824,507	-40,45
824,685	-19,97
824,863	-13,82
825,04	-30,21
825,218	-24,06
825,396	18,94
825,574	12,8
825,751	-7,68
825,929	-17,92
826,107	-32,26
826,284	61,95
826,462	18,94
826,639	-22,02
826,817	59,9
826,994	39,42
827,172	-36,35
827,349	-15,87
827,527	6,66
827,704	23,04
827,882	-40,45
828,059	35,33
828,237	0,51
828,414	80,38
828,591	25,09
828,769	-15,87
828,946	74,24
829,124	-48,64
829,301	-30,21
829,478	-60,93
829,655	-26,11
829,833	61,95
830,01	-13,82
830,187	-9,73
830,364	-50,69
830,542	0,51
830,719	23,04
830,896	-17,92
831,073	12,8
831,25	10,75
831,427	16,9
831,604	-56,83
831,782	2,56
831,959	16,9
832,136	-46,59
832,313	25,09
832,49	-13,82
832,667	-13,82
832,844	-50,69
833,021	53,76
833,198	41,47
833,374	29,18
833,551	25,09
833,728	-40,45
833,905	47,62
834,082	4,61
834,259	-13,82
834,436	18,94
834,612	49,66
834,789	76,29
834,966	-19,97
835,143	41,47
835,319	25,09
835,496	37,38
835,673	2,56
835,85	31,23
836,026	-9,73
836,203	2,56
836,38	-7,68
836,556	25,09
836,733	8,7
836,909	-19,97
837,086	2,56
837,262	-19,97
837,439	16,9
837,616	31,23
837,792	0,51
837,968	10,75
838,145	45,57
838,321	-62,98
838,498	6,66
838,674	-13,82
838,851	-85,5
839,027	-1,54
839,203	0,51
839,38	12,8
839,556	31,23
839,732	2,56
839,909	-9,73
840,085	27,14
840,261	25,09
840,437	-52,74
840,614	-56,83
840,79	10,75
840,966	4,61
841,142	-19,97
841,318	-54,78
841,494	18,94
841,671	-40,45
841,847	-13,82
842,023	-1,54
842,199	12,8
842,375	12,8
842,551	51,71
842,727	-15,87
842,903	-32,26
843,079	4,61
843,255	20,99
843,431	-81,41
843,607	-40,45
843,783	16,9
843,959	45,57
844,134	4,61
844,31	-28,16
844,486	92,67
844,662	-52,74
844,838	2,56
845,013	-17,92
845,189	-85,5
845,365	57,86
845,541	-42,5
845,716	45,57
845,892	35,33
846,068	16,9
846,244	-17,92
846,419	8,7
846,595	-52,74
846,77	25,09
846,946	18,94
847,122	35,33
847,297	37,38
847,473	-19,97
847,648	-3,58
847,824	-52,74
847,999	-95,74
848,175	-9,73
848,35	-15,87
848,526	29,18
848,701	-24,06
848,876	-5,63
849,052	33,28
849,227	16,9
849,403	-81,41
849,578	53,76
849,753	-54,78
849,929	-28,16
850,104	-44,54
850,279	8,7
850,454	-60,93
850,63	8,7
850,805	-5,63
850,98	-22,02
851,155	-19,97
851,33	-46,59
851,505	-24,06
851,681	-17,92
851,856	6,66
852,031	-24,06
852,206	16,9
852,381	-38,4
852,556	-1,54
852,731	-15,87
852,906	8,7
853,081	-7,68
853,256	-7,68
853,431	8,7
853,606	16,9
853,781	-15,87
853,956	-62,98
854,131	-13,82
854,305	-73,21
854,48	-32,26
854,655	-62,98
854,83	59,9
855,005	47,62
855,18	35,33
855,354	-28,16
855,529	14,85
855,704	41,47
855,879	16,9
856,053	16,9
856,228	-60,93
856,403	-32,26
856,577	-36,35
856,752	33,28
856,926	-44,54
857,101	-24,06
857,276	59,9
857,45	-11,78
857,625	-22,02
857,799	0,51
857,974	18,94
858,148	47,62
858,323	27,14
858,497	-52,74
858,672	-9,73
858,846	10,75
859,02	51,71
859,195	-15,87
859,369	-52,74
859,543	-54,78
859,718	27,14
859,892	18,94
860,066	-3,58
860,241	45,57
860,415	-5,63
860,589	-32,26
860,763	35,33
860,938	-19,97
861,112	2,56
861,286	53,76
861,46	-36,35
861,634	4,61
861,808	29,18
861,982	-54,78
862,157	-22,02
862,331	-32,26
862,505	-30,21
862,679	-38,4
862,853	-11,78
863,027	29,18
863,201	55,81
863,375	2,56
863,549	55,81
863,722	0,51
863,896	20,99
864,07	-13,82
864,244	74,24
864,418	8,7
864,592	10,75
864,766	2,56
864,939	-15,87
865,113	-15,87
865,287	16,9
865,461	20,99
865,634	-3,58
865,808	-40,45
865,982	78,33
866,156	-77,31
866,329	12,8
866,503	8,7
866,676	-15,87
866,85	-15,87
867,024	-30,21
867,197	0,51
867,371	12,8
867,544	-81,41
867,718	-44,54
867,891	-13,82
868,065	-9,73
868,238	-32,26
868,412	-19,97
868,585	43,52
868,759	31,23
868,932	61,95
869,105	33,28
869,279	-30,21
869,452	-22,02
869,625	-1,54
869,799	68,09
869,972	4,61
870,145	8,7
870,319	43,52
870,492	6,66
870,665	45,57
870,838	-15,87
871,011	-13,82
871,185	-13,82
871,358	-32,26
871,531	2,56
871,704	43,52
871,877	-50,69
872,05	-65,02
872,223	20,99
872,396	-1,54
872,569	51,71
872,742	25,09
872,915	-32,26
873,088	-73,21
873,261	-40,45
873,434	12,8
873,607	18,94
873,78	8,7
873,953	-19,97
874,126	-58,88
874,299	2,56
874,471	33,28
874,644	8,7
874,817	-13,82
874,99	-52,74
875,163	-11,78
875,335	-32,26
875,508	-69,12
875,681	-38,4
875,853	-73,21
876,026	-15,87
876,199	-32,26
876,371	-7,68
876,544	4,61
876,717	98,81
876,889	-50,69
877,062	76,29
877,234	-38,4
877,407	-19,97
877,579	-36,35
877,752	-5,63
877,924	-38,4
878,097	-44,54
878,269	-26,11
878,442	-77,31
878,614	-32,26
878,786	-44,54
878,959	41,47
879,131	-24,06
879,303	-24,06
879,476	35,33
879,648	10,75
879,82	-22,02
879,993	33,28
880,165	-103,93
880,337	-56,83
880,509	20,99
880,681	-48,64
880,854	-54,78
881,026	-30,21
881,198	16,9
881,37	41,47
881,542	-13,82
881,714	-65,02
881,886	59,9
882,058	45,57
882,23	23,04
882,402	-85,5
882,574	33,28
882,746	0,51
882,918	31,23
883,09	53,76
883,262	-11,78
883,434	45,57
883,606	6,66
883,778	0,51
883,95	-30,21
884,122	-54,78
884,293	-24,06
884,465	35,33
884,637	55,81
884,809	-28,16
884,98	0,51
885,152	20,99
885,324	55,81
885,496	-52,74
885,667	-3,58
885,839	8,7
886,011	-38,4
886,182	29,18
886,354	84,48
886,525	-30,21
886,697	16,9
886,869	-85,5
887,04	25,09
887,212	23,04
887,383	18,94
887,555	-13,82
887,726	20,99
887,897	-52,74
888,069	53,76
888,24	23,04
888,412	47,62
888,583	4,61
888,754	-9,73
888,926	10,75
889,097	-50,69
889,268	-19,97
889,44	10,75
889,611	-42,5
889,782	-46,59
889,953	25,09
890,125	14,85
890,296	-46,59
890,467	-1,54
890,638	27,14
890,809	-5,63
890,98	-7,68
891,151	18,94
891,323	-19,97
891,494	0,51
891,665	33,28
891,836	-73,21
892,007	16,9
892,178	-22,02
892,349	41,47
892,52	-40,45
892,691	-116,22
892,862	25,09
893,032	37,38
893,203	18,94
893,374	-32,26
893,545	-95,74
893,716	-28,16
893,887	-3,58
894,057	35,33
894,228	2,56
894,399	-50,69
894,57	-40,45
894,74	64
894,911	57,86
895,082	-73,21
895,253	35,33
895,423	10,75
895,594	-52,74
895,764	57,86
895,935	2,56
896,106	8,7
896,276	0,51
896,447	-1,54
896,617	-19,97
896,788	-24,06
896,958	57,86
897,129	-17,92
897,299	-32,26
897,47	76,29
897,64	41,47
897,81	-56,83
897,981	25,09
898,151	39,42
898,322	53,76
898,492	8,7
898,662	8,7
898,832	0,51
899,003	-46,59
899,173	-3,58
899,343	45,57
899,513	-54,78
