Data from filtre 532_USB4F104151__0__11-57-42-275.txt Node

Date: Wed Apr 15 11:57:42 EDT 2026
User: LaboPhy
Spectrometer: USB4F10415
Trigger mode: 4
Integration Time (sec): 3,000000E-3
Scans to average: 1
Electric dark correction enabled: true
Nonlinearity correction enabled: false
Boxcar width: 0
XAxis mode: Wavelengths
Number of Pixels in Spectrum: 3648
>>>>>Begin Spectral Data<<<<<
178,204	24,23
178,424	24,23
178,644	24,23
178,864	-24,92
179,084	42,67
179,304	-31,06
179,524	-33,11
179,744	-59,73
179,964	38,57
180,184	22,19
180,404	54,95
180,624	-82,26
180,844	16,04
181,064	11,95
181,283	-24,92
181,503	40,62
181,723	46,76
181,943	54,95
182,163	1,71
182,383	-6,49
182,602	30,38
182,822	-12,63
183,042	-55,64
183,262	-10,58
183,482	1,71
183,701	-35,16
183,921	1,71
184,141	-8,53
184,361	-2,39
184,58	5,8
184,8	5,8
185,02	11,95
185,239	57
185,459	-14,68
185,679	30,38
185,898	-41,3
186,118	24,23
186,338	67,24
186,557	69,29
186,777	-26,96
186,997	-24,92
187,216	-35,16
187,436	87,72
187,655	46,76
187,875	-4,44
188,095	3,75
188,314	42,67
188,534	-8,53
188,753	-18,77
188,973	26,28
189,192	1,71
189,412	-0,34
189,631	-2,39
189,851	32,43
190,07	1,71
190,29	5,8
190,509	-0,34
190,729	54,95
190,948	-0,34
191,168	65,19
191,387	87,72
191,607	-51,54
191,826	16,04
192,045	-41,3
192,265	-31,06
192,484	-51,54
192,704	-31,06
192,923	5,8
193,142	57
193,362	46,76
193,581	79,53
193,8	5,8
194,02	-4,44
194,239	-16,73
194,458	-2,39
194,678	48,81
194,897	71,34
195,116	-51,54
195,335	63,15
195,555	46,76
195,774	-0,34
195,993	75,43
196,212	-8,53
196,432	-59,73
196,651	30,38
196,87	3,75
197,089	24,23
197,308	-6,49
197,528	44,71
197,747	7,85
197,966	13,99
198,185	59,05
198,404	-2,39
198,623	32,43
198,842	16,04
199,062	-39,25
199,281	-14,68
199,5	3,75
199,719	50,86
199,938	9,9
200,157	-33,11
200,376	38,57
200,595	-2,39
200,814	57
201,033	-2,39
201,252	9,9
201,471	-49,49
201,69	-12,63
201,909	13,99
202,128	34,47
202,347	-45,4
202,566	-4,44
202,785	18,09
203,004	-10,58
203,223	-18,77
203,442	34,47
203,661	46,76
203,879	30,38
204,098	57
204,317	28,33
204,536	46,76
204,755	-39,25
204,974	18,09
205,193	-65,88
205,411	-47,44
205,63	30,38
205,849	63,15
206,068	40,62
206,287	65,19
206,505	-16,73
206,724	-6,49
206,943	1,71
207,162	16,04
207,381	-6,49
207,599	46,76
207,818	16,04
208,037	38,57
208,255	73,39
208,474	50,86
208,693	-35,16
208,911	-22,87
209,13	-22,87
209,349	22,19
209,567	-6,49
209,786	46,76
210,005	-16,73
210,223	-57,68
210,442	-18,77
210,661	-6,49
210,879	65,19
211,098	22,19
211,316	7,85
211,535	7,85
211,753	61,1
211,972	46,76
212,191	-18,77
212,409	-39,25
212,628	22,19
212,846	48,81
213,065	61,1
213,283	13,99
213,502	5,8
213,72	-14,68
213,938	-22,87
214,157	24,23
214,375	16,04
214,594	1,71
214,812	-2,39
215,031	-18,77
215,249	9,9
215,467	-29,01
215,686	16,04
215,904	75,43
216,122	13,99
216,341	26,28
216,559	5,8
216,778	18,09
216,996	54,95
217,214	54,95
217,432	-8,53
217,651	16,04
217,869	16,04
218,087	38,57
218,306	-10,58
218,524	11,95
218,742	24,23
218,96	18,09
219,179	28,33
219,397	54,95
219,615	38,57
219,833	59,05
220,051	24,23
220,27	-51,54
220,488	63,15
220,706	24,23
220,924	-2,39
221,142	13,99
221,36	38,57
221,578	26,28
221,796	-43,35
222,015	5,8
222,233	-4,44
222,451	24,23
222,669	40,62
222,887	-2,39
223,105	-26,96
223,323	32,43
223,541	22,19
223,759	20,14
223,977	-31,06
224,195	54,95
224,413	77,48
224,631	-0,34
224,849	5,8
225,067	32,43
225,285	-0,34
225,503	65,19
225,721	36,52
225,939	-18,77
226,157	26,28
226,375	95,91
226,592	63,15
226,81	89,77
227,028	38,57
227,246	3,75
227,464	-2,39
227,682	63,15
227,9	-18,77
228,117	48,81
228,335	5,8
228,553	-24,92
228,771	44,71
228,989	-2,39
229,206	-24,92
229,424	-45,4
229,642	54,95
229,86	-12,63
230,077	3,75
230,295	3,75
230,513	32,43
230,731	-2,39
230,948	28,33
231,166	22,19
231,384	1,71
231,601	50,86
231,819	108,2
232,037	-0,34
232,254	87,72
232,472	-16,73
232,689	-18,77
232,907	5,8
233,125	5,8
233,342	30,38
233,56	-10,58
233,777	-2,39
233,995	-59,73
234,213	22,19
234,43	13,99
234,648	11,95
234,865	-43,35
235,083	5,8
235,3	13,99
235,518	9,9
235,735	28,33
235,953	-12,63
236,17	-22,87
236,388	32,43
236,605	-31,06
236,822	87,72
237,04	-39,25
237,257	93,87
237,475	24,23
237,692	-35,16
237,909	32,43
238,127	-29,01
238,344	5,8
238,562	-12,63
238,779	-10,58
238,996	46,76
239,214	91,82
239,431	38,57
239,648	-2,39
239,865	59,05
240,083	100,01
240,3	9,9
240,517	1,71
240,735	-29,01
240,952	16,04
241,169	7,85
241,386	5,8
241,603	-26,96
241,821	9,9
242,038	69,29
242,255	-10,58
242,472	-2,39
242,689	-16,73
242,907	22,19
243,124	-10,58
243,341	13,99
243,558	-4,44
243,775	13,99
243,992	5,8
244,209	3,75
244,426	-2,39
244,643	40,62
244,86	24,23
245,078	-22,87
245,295	-20,82
245,512	-39,25
245,729	7,85
245,946	30,38
246,163	5,8
246,38	-2,39
246,597	40,62
246,814	-22,87
247,031	36,52
247,248	16,04
247,464	26,28
247,681	34,47
247,898	57
248,115	9,9
248,332	42,67
248,549	32,43
248,766	-18,77
248,983	112,3
249,2	-2,39
249,417	71,34
249,633	36,52
249,85	-51,54
250,067	9,9
250,284	-2,39
250,501	9,9
250,717	-72,02
250,934	20,14
251,151	-0,34
251,368	13,99
251,585	73,39
251,801	67,24
252,018	-33,11
252,235	-76,12
252,451	5,8
252,668	-45,4
252,885	-2,39
253,102	46,76
253,318	3,75
253,535	7,85
253,752	-43,35
253,968	11,95
254,185	-8,53
254,401	71,34
254,618	3,75
254,835	-10,58
255,051	75,43
255,268	52,91
255,484	22,19
255,701	-6,49
255,917	57
256,134	63,15
256,351	71,34
256,567	57
256,784	24,23
257	-14,68
257,217	-18,77
257,433	-14,68
257,65	-82,26
257,866	-51,54
258,082	-53,59
258,299	-18,77
258,515	-0,34
258,732	-16,73
258,948	46,76
259,165	-47,44
259,381	-8,53
259,597	-26,96
259,814	5,8
260,03	-24,92
260,246	-26,96
260,463	-8,53
260,679	87,72
260,895	18,09
261,112	-41,3
261,328	-0,34
261,544	11,95
261,761	7,85
261,977	42,67
262,193	32,43
262,409	38,57
262,626	-18,77
262,842	-0,34
263,058	7,85
263,274	-31,06
263,49	-2,39
263,707	22,19
263,923	3,75
264,139	5,8
264,355	-18,77
264,571	79,53
264,787	-67,92
265,004	63,15
265,22	67,24
265,436	-35,16
265,652	54,95
265,868	71,34
266,084	-10,58
266,3	67,24
266,516	46,76
266,732	50,86
266,948	40,62
267,164	28,33
267,38	-2,39
267,596	38,57
267,812	13,99
268,028	-14,68
268,244	9,9
268,46	1,71
268,676	-22,87
268,892	93,87
269,108	9,9
269,324	24,23
269,54	-8,53
269,756	-43,35
269,972	-39,25
270,188	-0,34
270,403	-0,34
270,619	32,43
270,835	-12,63
271,051	65,19
271,267	-47,44
271,483	1,71
271,698	-49,49
271,914	44,71
272,13	-18,77
272,346	28,33
272,562	30,38
272,777	22,19
272,993	-24,92
273,209	1,71
273,425	-2,39
273,64	57
273,856	13,99
274,072	42,67
274,287	-8,53
274,503	-41,3
274,719	-39,25
274,934	-18,77
275,15	-55,64
275,366	73,39
275,581	40,62
275,797	-74,07
276,012	73,39
276,228	5,8
276,444	24,23
276,659	57
276,875	5,8
277,09	30,38
277,306	-2,39
277,521	9,9
277,737	48,81
277,952	-41,3
278,168	-31,06
278,383	-65,88
278,599	24,23
278,814	-8,53
279,03	100,01
279,245	50,86
279,461	-82,26
279,676	5,8
279,892	-10,58
280,107	46,76
280,322	46,76
280,538	46,76
280,753	-29,01
280,969	13,99
281,184	16,04
281,399	-10,58
281,615	3,75
281,83	-59,73
282,045	42,67
282,26	38,57
282,476	-8,53
282,691	20,14
282,906	-20,82
283,122	95,91
283,337	36,52
283,552	13,99
283,767	34,47
283,983	-2,39
284,198	1,71
284,413	81,58
284,628	-45,4
284,843	91,82
285,058	7,85
285,274	-0,34
285,489	-2,39
285,704	-8,53
285,919	81,58
286,134	13,99
286,349	-2,39
286,564	1,71
286,779	1,71
286,995	-8,53
287,21	-59,73
287,425	34,47
287,64	-4,44
287,855	7,85
288,07	-10,58
288,285	42,67
288,5	22,19
288,715	3,75
288,93	34,47
289,145	16,04
289,36	30,38
289,575	26,28
289,79	48,81
290,004	59,05
290,219	-18,77
290,434	13,99
290,649	48,81
290,864	42,67
291,079	44,71
291,294	44,71
291,509	-4,44
291,724	5,8
291,938	54,95
292,153	-35,16
292,368	32,43
292,583	-31,06
292,798	30,38
293,012	16,04
293,227	-45,4
293,442	24,23
293,657	-16,73
293,871	112,3
294,086	28,33
294,301	-65,88
294,516	26,28
294,73	-22,87
294,945	7,85
295,16	-26,96
295,374	63,15
295,589	13,99
295,804	38,57
296,018	-0,34
296,233	16,04
296,447	-2,39
296,662	-39,25
296,877	79,53
297,091	63,15
297,306	-51,54
297,52	28,33
297,735	-12,63
297,949	46,76
298,164	-18,77
298,378	-16,73
298,593	50,86
298,807	7,85
299,022	-6,49
299,236	52,91
299,451	38,57
299,665	54,95
299,88	13,99
300,094	-0,34
300,309	46,76
300,523	3,75
300,737	16,04
300,952	-108,88
301,166	-0,34
301,381	1,71
301,595	-18,77
301,809	-2,39
302,024	-14,68
302,238	42,67
302,452	-41,3
302,667	-39,25
302,881	63,15
303,095	-12,63
303,309	32,43
303,524	9,9
303,738	20,14
303,952	50,86
304,166	-18,77
304,381	18,09
304,595	-10,58
304,809	40,62
305,023	-59,73
305,237	57
305,452	46,76
305,666	-2,39
305,88	87,72
306,094	-2,39
306,308	59,05
306,522	-24,92
306,736	-0,34
306,95	-63,83
307,164	-22,87
307,379	-26,96
307,593	75,43
307,807	-10,58
308,021	71,34
308,235	-117,08
308,449	-22,87
308,663	-6,49
308,877	71,34
309,091	32,43
309,305	11,95
309,519	3,75
309,733	59,05
309,947	3,75
310,161	5,8
310,374	18,09
310,588	16,04
310,802	-0,34
311,016	38,57
311,23	-20,82
311,444	71,34
311,658	-12,63
311,872	-12,63
312,085	13,99
312,299	-35,16
312,513	42,67
312,727	32,43
312,941	-41,3
313,154	-2,39
313,368	-18,77
313,582	59,05
313,796	-6,49
314,009	-33,11
314,223	52,91
314,437	22,19
314,651	30,38
314,864	-12,63
315,078	13,99
315,292	-16,73
315,505	5,8
315,719	-31,06
315,933	-4,44
316,146	-43,35
316,36	34,47
316,573	34,47
316,787	-2,39
317,001	-10,58
317,214	7,85
317,428	18,09
317,641	32,43
317,855	-10,58
318,068	-10,58
318,282	22,19
318,495	7,85
318,709	26,28
318,922	1,71
319,136	-37,2
319,349	-6,49
319,563	-2,39
319,776	-18,77
319,99	38,57
320,203	36,52
320,417	-22,87
320,63	30,38
320,843	26,28
321,057	7,85
321,27	9,9
321,483	57
321,697	22,19
321,91	28,33
322,124	42,67
322,337	30,38
322,55	13,99
322,763	-65,88
322,977	44,71
323,19	-8,53
323,403	-10,58
323,617	22,19
323,83	87,72
324,043	-37,2
324,256	32,43
324,469	46,76
324,683	16,04
324,896	30,38
325,109	13,99
325,322	-14,68
325,535	-6,49
325,748	73,39
325,962	57
326,175	-31,06
326,388	7,85
326,601	16,04
326,814	30,38
327,027	5,8
327,24	7,85
327,453	-0,34
327,666	28,33
327,879	32,43
328,092	7,85
328,305	5,8
328,518	87,72
328,731	20,14
328,944	30,38
329,157	-59,73
329,37	36,52
329,583	50,86
329,796	-2,39
330,009	-29,01
330,222	-6,49
330,435	22,19
330,648	-12,63
330,861	18,09
331,073	-16,73
331,286	-47,44
331,499	-47,44
331,712	-20,82
331,925	57
332,138	18,09
332,35	3,75
332,563	16,04
332,776	-6,49
332,989	13,99
333,202	30,38
333,414	81,58
333,627	-18,77
333,84	-2,39
334,053	5,8
334,265	22,19
334,478	50,86
334,691	-6,49
334,903	24,23
335,116	-51,54
335,329	-8,53
335,541	13,99
335,754	46,76
335,966	24,23
336,179	69,29
336,392	3,75
336,604	-10,58
336,817	7,85
337,029	-86,36
337,242	5,8
337,454	-10,58
337,667	18,09
337,88	-12,63
338,092	30,38
338,305	54,95
338,517	3,75
338,729	-2,39
338,942	-12,63
339,154	-31,06
339,367	-20,82
339,579	32,43
339,792	-39,25
340,004	87,72
340,217	-16,73
340,429	-35,16
340,641	-18,77
340,854	-0,34
341,066	13,99
341,278	-8,53
341,491	5,8
341,703	5,8
341,915	-22,87
342,128	-35,16
342,34	-31,06
342,552	24,23
342,764	3,75
342,977	30,38
343,189	63,15
343,401	75,43
343,613	18,09
343,826	24,23
344,038	22,19
344,25	81,58
344,462	-0,34
344,674	-53,59
344,886	65,19
345,099	30,38
345,311	-10,58
345,523	9,9
345,735	-18,77
345,947	22,19
346,159	-14,68
346,371	59,05
346,583	26,28
346,795	46,76
347,007	-6,49
347,219	3,75
347,431	22,19
347,643	81,58
347,855	69,29
348,067	30,38
348,279	52,91
348,491	22,19
348,703	30,38
348,915	50,86
349,127	3,75
349,339	1,71
349,551	48,81
349,763	-18,77
349,975	11,95
350,187	-10,58
350,399	-18,77
350,61	11,95
350,822	1,71
351,034	30,38
351,246	44,71
351,458	5,8
351,669	34,47
351,881	-26,96
352,093	18,09
352,305	48,81
352,517	-2,39
352,728	16,04
352,94	-33,11
353,152	9,9
353,363	-43,35
353,575	-8,53
353,787	9,9
353,999	-8,53
354,21	61,1
354,422	-6,49
354,633	18,09
354,845	16,04
355,057	42,67
355,268	5,8
355,48	-35,16
355,692	-16,73
355,903	-41,3
356,115	9,9
356,326	-31,06
356,538	-16,73
356,749	-31,06
356,961	5,8
357,172	-41,3
357,384	-26,96
357,595	57
357,807	1,71
358,018	-35,16
358,23	-8,53
358,441	20,14
358,653	75,43
358,864	46,76
359,075	-35,16
359,287	-39,25
359,498	24,23
359,709	46,76
359,921	40,62
360,132	-20,82
360,344	-8,53
360,555	7,85
360,766	24,23
360,977	48,81
361,189	59,05
361,4	24,23
361,611	28,33
361,823	-10,58
362,034	5,8
362,245	-31,06
362,456	-22,87
362,667	18,09
362,879	-26,96
363,09	16,04
363,301	16,04
363,512	38,57
363,723	48,81
363,935	-43,35
364,146	-14,68
364,357	-2,39
364,568	89,77
364,779	-14,68
364,99	-8,53
365,201	-18,77
365,412	3,75
365,623	13,99
365,834	-22,87
366,045	104,11
366,256	-33,11
366,467	24,23
366,678	59,05
366,889	-0,34
367,1	38,57
367,311	-55,64
367,522	79,53
367,733	67,24
367,944	-10,58
368,155	20,14
368,366	-2,39
368,577	-6,49
368,788	1,71
368,999	13,99
369,209	46,76
369,42	22,19
369,631	26,28
369,842	-51,54
370,053	-6,49
370,264	7,85
370,474	57
370,685	22,19
370,896	-24,92
371,107	28,33
371,317	-0,34
371,528	61,1
371,739	16,04
371,95	-47,44
372,16	30,38
372,371	-43,35
372,582	32,43
372,792	54,95
373,003	32,43
373,214	-6,49
373,424	42,67
373,635	-29,01
373,846	30,38
374,056	-16,73
374,267	38,57
374,477	24,23
374,688	9,9
374,898	30,38
375,109	-76,12
375,319	75,43
375,53	38,57
375,74	1,71
375,951	57
376,161	20,14
376,372	13,99
376,582	-4,44
376,793	20,14
377,003	9,9
377,214	26,28
377,424	-39,25
377,635	63,15
377,845	20,14
378,055	-2,39
378,266	18,09
378,476	7,85
378,686	34,47
378,897	54,95
379,107	5,8
379,317	-74,07
379,528	73,39
379,738	9,9
379,948	-26,96
380,158	63,15
380,369	5,8
380,579	-37,2
380,789	46,76
380,999	71,34
381,21	93,87
381,42	5,8
381,63	32,43
381,84	-41,3
382,05	48,81
382,261	44,71
382,471	-16,73
382,681	16,04
382,891	7,85
383,101	73,39
383,311	-47,44
383,521	63,15
383,731	5,8
383,941	22,19
384,151	-18,77
384,361	7,85
384,571	24,23
384,781	11,95
384,991	-26,96
385,201	44,71
385,411	13,99
385,621	-6,49
385,831	-18,77
386,041	-20,82
386,251	91,82
386,461	24,23
386,671	3,75
386,881	38,57
387,091	24,23
387,301	-35,16
387,511	50,86
387,72	81,58
387,93	22,19
388,14	-2,39
388,35	9,9
388,56	7,85
388,769	7,85
388,979	26,28
389,189	-8,53
389,399	16,04
389,609	-6,49
389,818	22,19
390,028	-18,77
390,238	38,57
390,447	-65,88
390,657	-49,49
390,867	-22,87
391,076	71,34
391,286	-2,39
391,496	44,71
391,705	-35,16
391,915	22,19
392,125	-6,49
392,334	-43,35
392,544	59,05
392,753	-6,49
392,963	46,76
393,172	-26,96
393,382	-39,25
393,591	79,53
393,801	26,28
394,01	34,47
394,22	-39,25
394,429	-53,59
394,639	9,9
394,848	7,85
395,058	18,09
395,267	-10,58
395,477	-14,68
395,686	26,28
395,895	-24,92
396,105	30,38
396,314	38,57
396,524	3,75
396,733	-35,16
396,942	71,34
397,152	9,9
397,361	-18,77
397,57	9,9
397,78	73,39
397,989	26,28
398,198	54,95
398,407	16,04
398,617	36,52
398,826	7,85
399,035	63,15
399,244	-6,49
399,453	-31,06
399,663	65,19
399,872	54,95
400,081	-12,63
400,29	57
400,499	-0,34
400,708	-33,11
400,917	-35,16
401,127	24,23
401,336	65,19
401,545	18,09
401,754	-37,2
401,963	5,8
402,172	-26,96
402,381	46,76
402,59	-18,77
402,799	-43,35
403,008	-41,3
403,217	13,99
403,426	-35,16
403,635	30,38
403,844	20,14
404,053	-26,96
404,262	30,38
404,471	11,95
404,68	57
404,888	-0,34
405,097	24,23
405,306	48,81
405,515	34,47
405,724	13,99
405,933	79,53
406,142	-51,54
406,35	-26,96
406,559	-0,34
406,768	61,1
406,977	-35,16
407,185	24,23
407,394	59,05
407,603	-26,96
407,812	-35,16
408,02	-92,5
408,229	44,71
408,438	-35,16
408,646	-35,16
408,855	46,76
409,064	40,62
409,272	-24,92
409,481	1,71
409,69	-63,83
409,898	40,62
410,107	-0,34
410,315	-8,53
410,524	5,8
410,733	54,95
410,941	38,57
411,15	-10,58
411,358	28,33
411,567	22,19
411,775	-16,73
411,984	-26,96
412,192	34,47
412,401	-39,25
412,609	-57,68
412,818	65,19
413,026	1,71
413,234	32,43
413,443	-6,49
413,651	-35,16
413,86	-14,68
414,068	48,81
414,276	-41,3
414,485	79,53
414,693	3,75
414,901	24,23
415,11	-29,01
415,318	-102,74
415,526	-10,58
415,734	34,47
415,943	-6,49
416,151	-0,34
416,359	36,52
416,567	1,71
416,776	-8,53
416,984	7,85
417,192	40,62
417,4	59,05
417,608	44,71
417,817	9,9
418,025	46,76
418,233	-16,73
418,441	16,04
418,649	50,86
418,857	38,57
419,065	1,71
419,273	28,33
419,481	40,62
419,689	95,91
419,897	36,52
420,105	-6,49
420,313	13,99
420,521	-26,96
420,729	-22,87
420,937	-76,12
421,145	26,28
421,353	-35,16
421,561	-4,44
421,769	24,23
421,977	-0,34
422,185	-39,25
422,393	48,81
422,601	46,76
422,809	16,04
423,017	-10,58
423,224	-10,58
423,432	1,71
423,64	7,85
423,848	-43,35
424,056	52,91
424,263	18,09
424,471	30,38
424,679	-16,73
424,887	50,86
425,094	30,38
425,302	11,95
425,51	118,44
425,718	81,58
425,925	-29,01
426,133	18,09
426,341	-6,49
426,548	30,38
426,756	-14,68
426,964	24,23
427,171	87,72
427,379	-18,77
427,586	-6,49
427,794	100,01
428,001	-39,25
428,209	32,43
428,417	65,19
428,624	-33,11
428,832	-35,16
429,039	59,05
429,247	-26,96
429,454	-0,34
429,662	20,14
429,869	34,47
430,076	11,95
430,284	32,43
430,491	46,76
430,699	-10,58
430,906	71,34
431,114	5,8
431,321	-16,73
431,528	7,85
431,736	-2,39
431,943	18,09
432,15	18,09
432,358	54,95
432,565	5,8
432,772	-65,88
432,979	32,43
433,187	22,19
433,394	42,67
433,601	48,81
433,808	-37,2
434,016	5,8
434,223	-26,96
434,43	20,14
434,637	24,23
434,844	36,52
435,052	5,8
435,259	3,75
435,466	7,85
435,673	63,15
435,88	20,14
436,087	-2,39
436,294	57
436,501	128,68
436,708	1,71
436,915	136,87
437,122	13,99
437,329	18,09
437,537	13,99
437,743	50,86
437,95	-22,87
438,157	32,43
438,364	-2,39
438,571	-22,87
438,778	-4,44
438,985	-26,96
439,192	-51,54
439,399	-14,68
439,606	-26,96
439,813	18,09
440,02	54,95
440,227	-10,58
440,433	13,99
440,64	-22,87
440,847	9,9
441,054	57
441,261	34,47
441,467	38,57
441,674	18,09
441,881	42,67
442,088	-41,3
442,294	-12,63
442,501	-43,35
442,708	116,39
442,914	-43,35
443,121	63,15
443,328	-35,16
443,534	24,23
443,741	83,63
443,948	-18,77
444,154	-10,58
444,361	-47,44
444,568	-2,39
444,774	3,75
444,981	24,23
445,187	-22,87
445,394	-41,3
445,6	-22,87
445,807	-24,92
446,013	-8,53
446,22	1,71
446,426	-16,73
446,633	-22,87
446,839	7,85
447,046	-59,73
447,252	16,04
447,459	44,71
447,665	5,8
447,871	-10,58
448,078	85,67
448,284	18,09
448,491	-26,96
448,697	38,57
448,903	5,8
449,11	-29,01
449,316	-18,77
449,522	50,86
449,728	-24,92
449,935	-4,44
450,141	-0,34
450,347	-0,34
450,553	-24,92
450,76	-2,39
450,966	24,23
451,172	13,99
451,378	28,33
451,584	-24,92
451,791	-2,39
451,997	-6,49
452,203	28,33
452,409	26,28
452,615	32,43
452,821	20,14
453,027	79,53
453,233	50,86
453,44	-69,97
453,646	13,99
453,852	83,63
454,058	-45,4
454,264	-14,68
454,47	40,62
454,676	-10,58
454,882	38,57
455,088	-57,68
455,294	38,57
455,5	54,95
455,705	-18,77
455,911	-41,3
456,117	9,9
456,323	11,95
456,529	-59,73
456,735	52,91
456,941	-49,49
457,147	-2,39
457,352	48,81
457,558	38,57
457,764	-24,92
457,97	-18,77
458,176	1,71
458,381	24,23
458,587	-35,16
458,793	38,57
458,999	11,95
459,204	40,62
459,41	-12,63
459,616	7,85
459,821	28,33
460,027	9,9
460,233	-18,77
460,438	3,75
460,644	44,71
460,85	54,95
461,055	11,95
461,261	7,85
461,466	1,71
461,672	-80,21
461,878	-47,44
462,083	-29,01
462,289	-31,06
462,494	38,57
462,7	-26,96
462,905	89,77
463,111	-80,21
463,316	-26,96
463,522	9,9
463,727	13,99
463,932	-18,77
464,138	73,39
464,343	46,76
464,549	13,99
464,754	-8,53
464,959	5,8
465,165	-43,35
465,37	26,28
465,575	-26,96
465,781	-22,87
465,986	-31,06
466,191	1,71
466,397	-6,49
466,602	48,81
466,807	5,8
467,012	-0,34
467,218	7,85
467,423	-12,63
467,628	69,29
467,833	22,19
468,038	63,15
468,244	9,9
468,449	-37,2
468,654	-18,77
468,859	-22,87
469,064	-29,01
469,269	16,04
469,474	13,99
469,679	16,04
469,885	-16,73
470,09	48,81
470,295	-8,53
470,5	28,33
470,705	-43,35
470,91	-18,77
471,115	38,57
471,32	-0,34
471,525	-69,97
471,73	16,04
471,935	26,28
472,139	120,49
472,344	1,71
472,549	-51,54
472,754	54,95
472,959	-6,49
473,164	57
473,369	48,81
473,574	54,95
473,778	42,67
473,983	30,38
474,188	16,04
474,393	5,8
474,598	-41,3
474,802	-0,34
475,007	24,23
475,212	13,99
475,417	-10,58
475,621	46,76
475,826	13,99
476,031	-6,49
476,235	-2,39
476,44	-20,82
476,645	44,71
476,849	20,14
477,054	-24,92
477,259	26,28
477,463	40,62
477,668	-18,77
477,872	40,62
478,077	30,38
478,282	-10,58
478,486	5,8
478,691	-10,58
478,895	-16,73
479,1	-22,87
479,304	42,67
479,509	42,67
479,713	1,71
479,918	-26,96
480,122	-12,63
480,326	3,75
480,531	-14,68
480,735	24,23
480,94	34,47
481,144	40,62
481,348	63,15
481,553	-43,35
481,757	-43,35
481,961	-10,58
482,166	-2,39
482,37	-43,35
482,574	28,33
482,778	30,38
482,983	104,11
483,187	16,04
483,391	-16,73
483,595	20,14
483,8	18,09
484,004	30,38
484,208	40,62
484,412	-39,25
484,616	32,43
484,821	-29,01
485,025	18,09
485,229	18,09
485,433	52,91
485,637	52,91
485,841	16,04
486,045	-35,16
486,249	46,76
486,453	-4,44
486,657	-12,63
486,861	30,38
487,065	34,47
487,269	-18,77
487,473	13,99
487,677	32,43
487,881	22,19
488,085	22,19
488,289	9,9
488,493	36,52
488,697	-14,68
488,901	-2,39
489,105	100,01
489,309	-22,87
489,512	-0,34
489,716	-39,25
489,92	-2,39
490,124	50,86
490,328	54,95
490,531	-63,83
490,735	22,19
490,939	-22,87
491,143	54,95
491,346	-22,87
491,55	-33,11
491,754	7,85
491,958	81,58
492,161	42,67
492,365	63,15
492,569	-18,77
492,772	-65,88
492,976	24,23
493,18	89,77
493,383	-2,39
493,587	63,15
493,79	-12,63
493,994	59,05
494,197	-43,35
494,401	67,24
494,605	7,85
494,808	13,99
495,012	28,33
495,215	-20,82
495,419	61,1
495,622	-0,34
495,825	65,19
496,029	16,04
496,232	50,86
496,436	81,58
496,639	3,75
496,843	-22,87
497,046	-59,73
497,249	38,57
497,453	-20,82
497,656	34,47
497,859	-12,63
498,063	13,99
498,266	-35,16
498,469	24,23
498,673	-6,49
498,876	-22,87
499,079	-37,2
499,282	93,87
499,485	32,43
499,689	54,95
499,892	-16,73
500,095	13,99
500,298	11,95
500,501	-31,06
500,705	-45,4
500,908	-2,39
501,111	-10,58
501,314	20,14
501,517	-16,73
501,72	73,39
501,923	1,71
502,126	38,57
502,329	7,85
502,532	22,19
502,735	-2,39
502,938	-6,49
503,141	40,62
503,344	-26,96
503,547	44,71
503,75	-4,44
503,953	-26,96
504,156	-26,96
504,359	54,95
504,562	46,76
504,765	-24,92
504,968	61,1
505,17	-35,16
505,373	61,1
505,576	73,39
505,779	-41,3
505,982	-2,39
506,185	52,91
506,387	-0,34
506,59	38,57
506,793	16,04
506,996	42,67
507,198	11,95
507,401	22,19
507,604	32,43
507,807	20,14
508,009	48,81
508,212	36,52
508,415	-14,68
508,617	-0,34
508,82	-2,39
509,022	26,28
509,225	40,62
509,428	50,86
509,63	-10,58
509,833	-59,73
510,035	-29,01
510,238	22,19
510,44	3,75
510,643	83,63
510,845	3,75
511,048	-2,39
511,25	-45,4
511,453	54,95
511,655	54,95
511,858	22,19
512,06	83,63
512,262	40,62
512,465	40,62
512,667	67,24
512,87	-20,82
513,072	24,23
513,274	38,57
513,477	7,85
513,679	24,23
513,881	24,23
514,084	48,81
514,286	22,19
514,488	30,38
514,69	38,57
514,893	-2,39
515,095	22,19
515,297	13,99
515,499	-16,73
515,701	-24,92
515,904	-33,11
516,106	-41,3
516,308	32,43
516,51	-37,2
516,712	54,95
516,914	-18,77
517,116	34,47
517,318	1,71
517,52	79,53
517,722	83,63
517,925	3,75
518,127	-18,77
518,329	46,76
518,531	20,14
518,733	46,76
518,935	-4,44
519,136	71,34
519,338	-41,3
519,54	46,76
519,742	69,29
519,944	38,57
520,146	-16,73
520,348	28,33
520,55	-0,34
520,752	59,05
520,954	54,95
521,155	30,38
521,357	-22,87
521,559	9,9
521,761	124,58
521,963	-8,53
522,164	-6,49
522,366	24,23
522,568	54,95
522,77	97,96
522,971	52,91
523,173	13,99
523,375	-2,39
523,576	91,82
523,778	138,92
523,98	32,43
524,181	93,87
524,383	75,43
524,584	81,58
524,786	136,87
524,988	140,97
525,189	325,29
525,391	478,88
525,592	628,39
525,794	1121,95
525,995	1562,26
526,197	2428,55
526,398	3219,07
526,6	4460,13
526,801	5492,31
527,003	7102,01
527,204	8627,75
527,406	10886,66
527,607	12707,3
527,808	15560,13
528,01	17620,38
528,211	20807,02
528,412	23756,1
528,614	26772,75
528,815	29385,96
529,016	33057,97
529,218	35243,15
529,419	38184,04
529,62	40137,8
529,822	42474,53
530,023	43990,03
530,224	45743,09
530,425	46529,51
530,626	48045,01
530,828	48047,05
531,029	50664,36
531,23	50322,35
531,431	50779,04
531,632	51055,52
531,833	51872,66
532,035	51532,7
532,236	52343,69
532,437	52786,05
532,638	51905,43
532,839	52245,39
533,04	53355,39
533,241	52255,63
533,442	53568,38
533,643	52691,85
533,844	52994,95
534,045	52951,94
534,246	52388,75
534,447	53048,19
534,648	52886,4
534,849	52646,79
535,05	51587,99
535,251	51880,85
535,451	51094,43
535,652	50815,91
535,853	49490,87
536,054	48780,23
536,255	48153,55
536,456	46285,8
536,657	45745,14
536,857	42920,99
537,058	40985,66
537,259	39310,42
537,46	37004,41
537,66	34317,47
537,861	31769,8
538,062	28894,45
538,263	26807,57
538,463	23690,56
538,664	21362,02
538,865	18718,09
539,065	16813,48
539,266	13878,74
539,466	12496,36
539,667	10237,45
539,868	8887,84
540,068	7214,65
540,269	5992,02
540,469	4912,74
540,67	3751,54
540,87	2705,03
541,071	2180,75
541,271	1470,1
541,472	1210,01
541,672	712,35
541,873	466,6
542,073	353,96
542,274	294,57
542,474	214,7
542,675	128,68
542,875	190,12
543,075	61,1
543,276	85,67
543,476	46,76
543,676	57
543,877	87,72
544,077	63,15
544,277	22,19
544,478	79,53
544,678	-2,39
544,878	26,28
545,078	75,43
545,279	38,57
545,479	-10,58
545,679	40,62
545,879	-12,63
546,079	-10,58
546,28	18,09
546,48	50,86
546,68	1,71
546,88	32,43
547,08	61,1
547,28	13,99
547,48	-2,39
547,68	-10,58
547,88	30,38
548,081	5,8
548,281	1,71
548,481	30,38
548,681	-14,68
548,881	38,57
549,081	32,43
549,28	87,72
549,48	-6,49
549,68	42,67
549,88	-0,34
550,08	65,19
550,28	-18,77
550,48	40,62
550,68	5,8
550,88	-0,34
551,08	18,09
551,279	81,58
551,479	40,62
551,679	26,28
551,879	89,77
552,079	-12,63
552,278	-2,39
552,478	46,76
552,678	18,09
552,878	38,57
553,077	26,28
553,277	75,43
553,477	-24,92
553,676	57
553,876	40,62
554,076	3,75
554,275	22,19
554,475	9,9
554,674	40,62
554,874	9,9
555,074	38,57
555,273	9,9
555,473	-31,06
555,672	9,9
555,872	-10,58
556,071	38,57
556,271	-0,34
556,47	13,99
556,67	16,04
556,869	106,15
557,068	40,62
557,268	24,23
557,467	-26,96
557,667	106,15
557,866	-8,53
558,065	63,15
558,265	9,9
558,464	20,14
558,663	22,19
558,863	79,53
559,062	-31,06
559,261	16,04
559,461	22,19
559,66	46,76
559,859	30,38
560,058	30,38
560,258	-26,96
560,457	57
560,656	-0,34
560,855	5,8
561,054	44,71
561,253	52,91
561,453	-33,11
561,652	63,15
561,851	50,86
562,05	30,38
562,249	-49,49
562,448	-12,63
562,647	1,71
562,846	40,62
563,045	87,72
563,244	63,15
563,443	-20,82
563,642	26,28
563,841	28,33
564,04	38,57
564,239	44,71
564,438	46,76
564,637	-51,54
564,836	44,71
565,035	81,58
565,234	5,8
565,432	42,67
565,631	1,71
565,83	-43,35
566,029	75,43
566,228	134,82
566,427	38,57
566,625	48,81
566,824	13,99
567,023	7,85
567,222	-6,49
567,42	-22,87
567,619	-35,16
567,818	36,52
568,016	13,99
568,215	34,47
568,414	-2,39
568,612	67,24
568,811	30,38
569,01	-18,77
569,208	22,19
569,407	30,38
569,605	59,05
569,804	-51,54
570,002	-8,53
570,201	-0,34
570,4	22,19
570,598	26,28
570,797	52,91
570,995	-29,01
571,193	38,57
571,392	-0,34
571,59	-4,44
571,789	-0,34
571,987	28,33
572,186	5,8
572,384	24,23
572,582	-6,49
572,781	46,76
572,979	-43,35
573,177	-0,34
573,376	36,52
573,574	22,19
573,772	30,38
573,971	42,67
574,169	16,04
574,367	-2,39
574,565	-51,54
574,763	-4,44
574,962	-6,49
575,16	-35,16
575,358	-31,06
575,556	32,43
575,754	24,23
575,952	-22,87
576,151	32,43
576,349	91,82
576,547	11,95
576,745	30,38
576,943	13,99
577,141	26,28
577,339	38,57
577,537	46,76
577,735	48,81
577,933	-0,34
578,131	-33,11
578,329	-41,3
578,527	-45,4
578,725	22,19
578,923	50,86
579,121	-41,3
579,319	-59,73
579,516	65,19
579,714	9,9
579,912	42,67
580,11	16,04
580,308	34,47
580,506	-6,49
580,704	30,38
580,901	-47,44
581,099	13,99
581,297	46,76
581,495	65,19
581,692	-10,58
581,89	22,19
582,088	30,38
582,285	-24,92
582,483	5,8
582,681	9,9
582,878	24,23
583,076	89,77
583,274	36,52
583,471	44,71
583,669	-2,39
583,866	26,28
584,064	-47,44
584,262	50,86
584,459	11,95
584,657	30,38
584,854	20,14
585,052	22,19
585,249	7,85
585,447	69,29
585,644	-67,92
585,841	42,67
586,039	71,34
586,236	-16,73
586,434	30,38
586,631	5,8
586,828	-0,34
587,026	32,43
587,223	5,8
587,42	1,71
587,618	24,23
587,815	-2,39
588,012	-0,34
588,21	54,95
588,407	5,8
588,604	22,19
588,801	32,43
588,999	18,09
589,196	13,99
589,393	13,99
589,59	26,28
589,787	-59,73
589,984	13,99
590,182	50,86
590,379	-76,12
590,576	3,75
590,773	-51,54
590,97	-4,44
591,167	24,23
591,364	-10,58
591,561	-26,96
591,758	30,38
591,955	13,99
592,152	79,53
592,349	-47,44
592,546	54,95
592,743	-0,34
592,94	13,99
593,137	-18,77
593,334	46,76
593,531	95,91
593,727	5,8
593,924	-47,44
594,121	-2,39
594,318	5,8
594,515	38,57
594,712	-74,07
594,908	-10,58
595,105	30,38
595,302	81,58
595,499	-35,16
595,696	26,28
595,892	-53,59
596,089	46,76
596,286	-26,96
596,482	-0,34
596,679	-22,87
596,876	-2,39
597,072	-10,58
597,269	79,53
597,466	-72,02
597,662	34,47
597,859	-31,06
598,055	16,04
598,252	54,95
598,448	42,67
598,645	-24,92
598,841	46,76
599,038	-14,68
599,234	73,39
599,431	24,23
599,627	50,86
599,824	71,34
600,02	13,99
600,217	-16,73
600,413	24,23
600,609	24,23
600,806	81,58
601,002	71,34
601,198	-24,92
601,395	-16,73
601,591	65,19
601,787	11,95
601,984	-0,34
602,18	34,47
602,376	57
602,572	42,67
602,769	-8,53
602,965	-10,58
603,161	22,19
603,357	5,8
603,553	38,57
603,75	42,67
603,946	42,67
604,142	30,38
604,338	9,9
604,534	20,14
604,73	16,04
604,926	18,09
605,122	36,52
605,318	26,28
605,514	22,19
605,71	34,47
605,906	69,29
606,102	22,19
606,298	-57,68
606,494	28,33
606,69	-10,58
606,886	13,99
607,082	48,81
607,278	24,23
607,474	104,11
607,67	34,47
607,866	48,81
608,062	13,99
608,257	9,9
608,453	13,99
608,649	40,62
608,845	-39,25
609,041	30,38
609,236	-47,44
609,432	52,91
609,628	-20,82
609,824	18,09
610,019	22,19
610,215	46,76
610,411	-4,44
610,606	11,95
610,802	61,1
610,998	22,19
611,193	11,95
611,389	52,91
611,584	-57,68
611,78	42,67
611,976	22,19
612,171	-8,53
612,367	-4,44
612,562	59,05
612,758	30,38
612,953	-0,34
613,149	-26,96
613,344	40,62
613,539	-0,34
613,735	-8,53
613,93	-41,3
614,126	-18,77
614,321	30,38
614,517	30,38
614,712	42,67
614,907	81,58
615,103	-8,53
615,298	-90,45
615,493	-6,49
615,688	5,8
615,884	22,19
616,079	28,33
616,274	-0,34
616,47	-47,44
616,665	50,86
616,86	9,9
617,055	1,71
617,25	38,57
617,445	24,23
617,641	-10,58
617,836	30,38
618,031	7,85
618,226	5,8
618,421	-0,34
618,616	114,34
618,811	-53,59
619,006	-6,49
619,201	28,33
619,396	34,47
619,591	-12,63
619,786	50,86
619,981	-76,12
620,176	-31,06
620,371	32,43
620,566	44,71
620,761	1,71
620,956	22,19
621,151	73,39
621,346	-61,78
621,541	-76,12
621,735	-4,44
621,93	13,99
622,125	-47,44
622,32	-8,53
622,515	67,24
622,709	36,52
622,904	-59,73
623,099	26,28
623,294	95,91
623,488	-59,73
623,683	9,9
623,878	42,67
624,072	54,95
624,267	-12,63
624,462	59,05
624,656	-35,16
624,851	75,43
625,046	20,14
625,24	42,67
625,435	-51,54
625,629	-22,87
625,824	67,24
626,018	22,19
626,213	24,23
626,407	-80,21
626,602	40,62
626,796	5,8
626,991	-39,25
627,185	1,71
627,38	22,19
627,574	9,9
627,768	-35,16
627,963	-2,39
628,157	48,81
628,352	-26,96
628,546	36,52
628,74	-26,96
628,935	9,9
629,129	-4,44
629,323	5,8
629,517	18,09
629,712	-10,58
629,906	18,09
630,1	73,39
630,294	30,38
630,489	-4,44
630,683	22,19
630,877	-0,34
631,071	-35,16
631,265	59,05
631,459	26,28
631,653	7,85
631,848	-26,96
632,042	67,24
632,236	-6,49
632,43	48,81
632,624	24,23
632,818	-31,06
633,012	-47,44
633,206	-22,87
633,4	79,53
633,594	32,43
633,788	59,05
633,982	24,23
634,176	-2,39
634,369	30,38
634,563	-33,11
634,757	30,38
634,951	-49,49
635,145	-18,77
635,339	-18,77
635,533	13,99
635,726	-2,39
635,92	18,09
636,114	40,62
636,308	-0,34
636,501	-49,49
636,695	42,67
636,889	42,67
637,083	-8,53
637,276	5,8
637,47	77,48
637,664	-8,53
637,857	54,95
638,051	54,95
638,244	32,43
638,438	1,71
638,632	71,34
638,825	13,99
639,019	16,04
639,212	42,67
639,406	59,05
639,599	30,38
639,793	-24,92
639,986	-51,54
640,18	-16,73
640,373	13,99
640,567	40,62
640,76	-14,68
640,954	-31,06
641,147	87,72
641,34	46,76
641,534	44,71
641,727	38,57
641,92	22,19
642,114	-33,11
642,307	-26,96
642,5	-41,3
642,694	18,09
642,887	32,43
643,08	-0,34
643,273	-33,11
643,467	24,23
643,66	-14,68
643,853	36,52
644,046	-14,68
644,239	-22,87
644,432	54,95
644,626	-12,63
644,819	-26,96
645,012	44,71
645,205	24,23
645,398	3,75
645,591	79,53
645,784	32,43
645,977	-20,82
646,17	-39,25
646,363	44,71
646,556	-65,88
646,749	95,91
646,942	-39,25
647,135	38,57
647,328	13,99
647,521	38,57
647,714	-10,58
647,907	18,09
648,099	16,04
648,292	-63,83
648,485	-24,92
648,678	-39,25
648,871	-2,39
649,064	40,62
649,256	34,47
649,449	1,71
649,642	5,8
649,835	-92,5
650,027	-26,96
650,22	32,43
650,413	7,85
650,605	-14,68
650,798	-2,39
650,991	5,8
651,183	28,33
651,376	5,8
651,568	18,09
651,761	30,38
651,954	-8,53
652,146	-35,16
652,339	81,58
652,531	-10,58
652,724	-8,53
652,916	30,38
653,109	7,85
653,301	26,28
653,494	-31,06
653,686	3,75
653,879	-4,44
654,071	48,81
654,263	32,43
654,456	46,76
654,648	69,29
654,84	20,14
655,033	38,57
655,225	32,43
655,417	-35,16
655,61	24,23
655,802	-2,39
655,994	16,04
656,186	5,8
656,379	50,86
656,571	73,39
656,763	-18,77
656,955	-78,16
657,148	54,95
657,34	-10,58
657,532	-20,82
657,724	-53,59
657,916	16,04
658,108	16,04
658,3	-59,73
658,492	-18,77
658,684	-26,96
658,876	30,38
659,068	26,28
659,26	-26,96
659,452	46,76
659,644	-4,44
659,836	18,09
660,028	-33,11
660,22	13,99
660,412	-14,68
660,604	-18,77
660,796	-26,96
660,988	5,8
661,18	24,23
661,372	42,67
661,563	65,19
661,755	40,62
661,947	30,38
662,139	-55,64
662,331	73,39
662,522	-80,21
662,714	-78,16
662,906	24,23
663,097	26,28
663,289	-51,54
663,481	-43,35
663,673	-14,68
663,864	18,09
664,056	30,38
664,247	-39,25
664,439	20,14
664,631	24,23
664,822	75,43
665,014	-26,96
665,205	44,71
665,397	20,14
665,588	16,04
665,78	-2,39
665,971	63,15
666,163	38,57
666,354	-43,35
666,546	75,43
666,737	30,38
666,929	-14,68
667,12	13,99
667,311	-6,49
667,503	50,86
667,694	-12,63
667,885	54,95
668,077	65,19
668,268	-31,06
668,459	7,85
668,651	7,85
668,842	18,09
669,033	59,05
669,224	-37,2
669,416	28,33
669,607	3,75
669,798	-8,53
669,989	54,95
670,18	22,19
670,371	32,43
670,563	18,09
670,754	-4,44
670,945	-16,73
671,136	-47,44
671,327	57
671,518	30,38
671,709	65,19
671,9	-2,39
672,091	5,8
672,282	-33,11
672,473	-6,49
672,664	20,14
672,855	57
673,046	22,19
673,237	-0,34
673,428	16,04
673,619	1,71
673,809	-10,58
674	7,85
674,191	3,75
674,382	40,62
674,573	54,95
674,764	7,85
674,954	-26,96
675,145	36,52
675,336	22,19
675,527	-59,73
675,717	16,04
675,908	28,33
676,099	-18,77
676,289	-31,06
676,48	52,91
676,671	22,19
676,861	-12,63
677,052	3,75
677,243	22,19
677,433	42,67
677,624	38,57
677,814	-0,34
678,005	-69,97
678,195	1,71
678,386	-29,01
678,576	9,9
678,767	-0,34
678,957	-0,34
679,148	-4,44
679,338	16,04
679,529	-29,01
679,719	65,19
679,909	5,8
680,1	-33,11
680,29	13,99
680,481	-57,68
680,671	-14,68
680,861	40,62
681,052	-33,11
681,242	32,43
681,432	22,19
681,622	-35,16
681,813	3,75
682,003	75,43
682,193	-18,77
682,383	-55,64
682,573	28,33
682,764	-100,69
682,954	1,71
683,144	42,67
683,334	-41,3
683,524	-0,34
683,714	44,71
683,904	13,99
684,094	-26,96
684,284	-12,63
684,474	11,95
684,664	-33,11
684,854	-43,35
685,044	-2,39
685,234	11,95
685,424	42,67
685,614	-16,73
685,804	28,33
685,994	32,43
686,184	22,19
686,374	83,63
686,564	-0,34
686,753	-35,16
686,943	89,77
687,133	-14,68
687,323	48,81
687,513	57
687,702	46,76
687,892	16,04
688,082	38,57
688,272	-24,92
688,461	30,38
688,651	-26,96
688,841	32,43
689,03	38,57
689,22	67,24
689,41	-6,49
689,599	18,09
689,789	-53,59
689,979	-0,34
690,168	-18,77
690,358	24,23
690,547	-0,34
690,737	24,23
690,926	67,24
691,116	-24,92
691,305	36,52
691,495	38,57
691,684	50,86
691,874	71,34
692,063	32,43
692,252	-0,34
692,442	-29,01
692,631	5,8
692,82	-14,68
693,01	-0,34
693,199	34,47
693,388	54,95
693,578	83,63
693,767	-0,34
693,956	24,23
694,146	7,85
694,335	3,75
694,524	57
694,713	13,99
694,902	-51,54
695,092	48,81
695,281	44,71
695,47	-16,73
695,659	7,85
695,848	-33,11
696,037	5,8
696,226	54,95
696,415	30,38
696,604	38,57
696,793	57
696,982	-67,92
697,171	13,99
697,36	-51,54
697,549	63,15
697,738	16,04
697,927	22,19
698,116	-49,49
698,305	65,19
698,494	30,38
698,683	-39,25
698,872	-2,39
699,061	5,8
699,25	46,76
699,438	32,43
699,627	-10,58
699,816	38,57
700,005	40,62
700,193	16,04
700,382	57
700,571	13,99
700,76	-26,96
700,948	38,57
701,137	-63,83
701,326	20,14
701,514	22,19
701,703	-43,35
701,892	7,85
702,08	30,38
702,269	-20,82
702,457	50,86
702,646	22,19
702,834	65,19
703,023	-2,39
703,212	7,85
703,4	26,28
703,589	9,9
703,777	32,43
703,965	54,95
704,154	26,28
704,342	-2,39
704,531	18,09
704,719	9,9
704,907	-8,53
705,096	30,38
705,284	48,81
705,472	89,77
705,661	-49,49
705,849	-2,39
706,037	-8,53
706,226	-57,68
706,414	9,9
706,602	28,33
706,79	46,76
706,979	11,95
707,167	-24,92
707,355	32,43
707,543	20,14
707,731	-22,87
707,919	67,24
708,107	-16,73
708,296	1,71
708,484	3,75
708,672	9,9
708,86	18,09
709,048	32,43
709,236	-8,53
709,424	50,86
709,612	-29,01
709,8	46,76
709,988	32,43
710,176	-43,35
710,364	30,38
710,551	59,05
710,739	-4,44
710,927	-6,49
711,115	9,9
711,303	40,62
711,491	-18,77
711,679	-49,49
711,866	28,33
712,054	-20,82
712,242	-33,11
712,43	13,99
712,617	30,38
712,805	-20,82
712,993	-37,2
713,181	13,99
713,368	-41,3
713,556	-0,34
713,744	91,82
713,931	48,81
714,119	-22,87
714,306	24,23
714,494	73,39
714,682	-12,63
714,869	-35,16
715,057	20,14
715,244	-14,68
715,432	5,8
715,619	-22,87
715,807	32,43
715,994	-2,39
716,182	5,8
716,369	13,99
716,556	50,86
716,744	-10,58
716,931	-6,49
717,119	63,15
717,306	-14,68
717,493	30,38
717,681	57
717,868	-6,49
718,055	-10,58
718,242	-18,77
718,43	13,99
718,617	-10,58
718,804	13,99
718,991	-0,34
719,179	63,15
719,366	24,23
719,553	57
719,74	9,9
719,927	-2,39
720,114	-43,35
720,301	-16,73
720,488	-2,39
720,676	48,81
720,863	54,95
721,05	-53,59
721,237	13,99
721,424	3,75
721,611	-18,77
721,798	-72,02
721,985	-20,82
722,172	52,91
722,358	-55,64
722,545	-39,25
722,732	48,81
722,919	3,75
723,106	-41,3
723,293	7,85
723,48	16,04
723,667	59,05
723,853	46,76
724,04	-26,96
724,227	-10,58
724,414	32,43
724,6	-24,92
724,787	-35,16
724,974	-10,58
725,161	-37,2
725,347	-0,34
725,534	7,85
725,72	-2,39
725,907	-26,96
726,094	16,04
726,28	34,47
726,467	22,19
726,653	-59,73
726,84	-8,53
727,027	-16,73
727,213	-0,34
727,4	40,62
727,586	30,38
727,773	-51,54
727,959	-24,92
728,145	7,85
728,332	-47,44
728,518	30,38
728,705	-12,63
728,891	34,47
729,077	48,81
729,264	5,8
729,45	-10,58
729,636	-14,68
729,823	-26,96
730,009	-26,96
730,195	81,58
730,382	-0,34
730,568	-4,44
730,754	-26,96
730,94	11,95
731,126	24,23
731,313	34,47
731,499	-55,64
731,685	-35,16
731,871	5,8
732,057	52,91
732,243	50,86
732,429	85,67
732,615	26,28
732,801	-10,58
732,987	22,19
733,173	38,57
733,359	40,62
733,545	-16,73
733,731	-51,54
733,917	-6,49
734,103	30,38
734,289	46,76
734,475	-0,34
734,661	38,57
734,847	22,19
735,033	-0,34
735,219	-16,73
735,404	71,34
735,59	5,8
735,776	63,15
735,962	-6,49
736,148	28,33
736,333	-20,82
736,519	-39,25
736,705	30,38
736,89	3,75
737,076	-31,06
737,262	22,19
737,447	-24,92
737,633	-20,82
737,819	18,09
738,004	32,43
738,19	26,28
738,375	32,43
738,561	22,19
738,747	9,9
738,932	-74,07
739,118	73,39
739,303	13,99
739,489	59,05
739,674	65,19
739,859	-51,54
740,045	-4,44
740,23	-8,53
740,416	-18,77
740,601	-10,58
740,786	-8,53
740,972	75,43
741,157	30,38
741,342	30,38
741,528	57
741,713	11,95
741,898	-10,58
742,084	13,99
742,269	-2,39
742,454	13,99
742,639	-22,87
742,824	-10,58
743,01	-41,3
743,195	36,52
743,38	-43,35
743,565	18,09
743,75	5,8
743,935	26,28
744,12	-2,39
744,305	106,15
744,49	24,23
744,675	-0,34
744,86	20,14
745,045	-14,68
745,23	95,91
745,415	5,8
745,6	-12,63
745,785	52,91
745,97	-6,49
746,155	83,63
746,34	-2,39
746,525	-33,11
746,71	61,1
746,895	79,53
747,079	3,75
747,264	-47,44
747,449	9,9
747,634	46,76
747,819	20,14
748,003	-14,68
748,188	-43,35
748,373	3,75
748,557	-41,3
748,742	20,14
748,927	30,38
749,111	9,9
749,296	5,8
749,481	32,43
749,665	48,81
749,85	-8,53
750,034	7,85
750,219	-14,68
750,404	65,19
750,588	3,75
750,773	-18,77
750,957	28,33
751,141	-31,06
751,326	30,38
751,51	-4,44
751,695	-6,49
751,879	-6,49
752,064	71,34
752,248	22,19
752,432	-35,16
752,617	42,67
752,801	50,86
752,985	13,99
753,17	108,2
753,354	26,28
753,538	46,76
753,722	-51,54
753,907	5,8
754,091	-18,77
754,275	-37,2
754,459	-39,25
754,643	-53,59
754,828	9,9
755,012	-45,4
755,196	-67,92
755,38	38,57
755,564	-6,49
755,748	44,71
755,932	18,09
756,116	-22,87
756,3	50,86
756,484	-12,63
756,668	26,28
756,852	22,19
757,036	30,38
757,22	18,09
757,404	-33,11
757,588	48,81
757,772	16,04
757,956	48,81
758,14	13,99
758,323	22,19
758,507	-0,34
758,691	79,53
758,875	32,43
759,059	-22,87
759,242	30,38
759,426	3,75
759,61	46,76
759,794	57
759,977	40,62
760,161	40,62
760,345	-6,49
760,528	20,14
760,712	26,28
760,895	38,57
761,079	-0,34
761,263	9,9
761,446	-14,68
761,63	50,86
761,813	-18,77
761,997	36,52
762,18	24,23
762,364	48,81
762,547	-26,96
762,731	83,63
762,914	-22,87
763,098	5,8
763,281	-35,16
763,464	54,95
763,648	-63,83
763,831	-39,25
764,015	38,57
764,198	-18,77
764,381	22,19
764,564	13,99
764,748	18,09
764,931	30,38
765,114	13,99
765,297	5,8
765,481	50,86
765,664	71,34
765,847	-10,58
766,03	-22,87
766,213	11,95
766,397	11,95
766,58	9,9
766,763	-18,77
766,946	11,95
767,129	73,39
767,312	13,99
767,495	32,43
767,678	-16,73
767,861	-2,39
768,044	-18,77
768,227	-16,73
768,41	-31,06
768,593	7,85
768,776	-0,34
768,959	18,09
769,142	63,15
769,324	61,1
769,507	-22,87
769,69	73,39
769,873	18,09
770,056	26,28
770,239	3,75
770,421	13,99
770,604	9,9
770,787	26,28
770,97	40,62
771,152	-10,58
771,335	18,09
771,518	46,76
771,7	5,8
771,883	28,33
772,066	26,28
772,248	-29,01
772,431	-24,92
772,613	22,19
772,796	-33,11
772,978	5,8
773,161	-98,64
773,343	-26,96
773,526	-16,73
773,708	-16,73
773,891	-22,87
774,073	-18,77
774,256	-14,68
774,438	-16,73
774,621	-67,92
774,803	32,43
774,985	32,43
775,168	34,47
775,35	-20,82
775,532	38,57
775,715	-0,34
775,897	7,85
776,079	-49,49
776,261	63,15
776,444	-0,34
776,626	24,23
776,808	-26,96
776,99	59,05
777,173	50,86
777,355	48,81
777,537	-4,44
777,719	11,95
777,901	-14,68
778,083	-35,16
778,265	40,62
778,447	-0,34
778,629	46,76
778,811	65,19
778,993	34,47
779,175	26,28
779,357	57
779,539	5,8
779,721	-2,39
779,903	-26,96
780,085	7,85
780,267	-33,11
780,449	1,71
780,631	65,19
780,812	-67,92
780,994	30,38
781,176	22,19
781,358	42,67
781,54	-24,92
781,721	-31,06
781,903	46,76
782,085	32,43
782,267	-18,77
782,448	71,34
782,63	9,9
782,812	65,19
782,993	-0,34
783,175	-8,53
783,357	-8,53
783,538	-41,3
783,72	46,76
783,901	3,75
784,083	22,19
784,264	16,04
784,446	57
784,627	30,38
784,809	13,99
784,99	-55,64
785,172	-14,68
785,353	-22,87
785,535	16,04
785,716	-10,58
785,897	24,23
786,079	-57,68
786,26	22,19
786,441	1,71
786,623	-6,49
786,804	13,99
786,985	-10,58
787,167	13,99
787,348	7,85
787,529	-24,92
787,71	-33,11
787,891	91,82
788,073	-8,53
788,254	36,52
788,435	30,38
788,616	79,53
788,797	7,85
788,978	-24,92
789,159	-18,77
789,34	-65,88
789,522	-49,49
789,703	65,19
789,884	-29,01
790,065	46,76
790,246	-22,87
790,427	-4,44
790,607	-12,63
790,788	-16,73
790,969	30,38
791,15	-33,11
791,331	-2,39
791,512	18,09
791,693	-76,12
791,874	-67,92
792,054	-12,63
792,235	-53,59
792,416	-33,11
792,597	-43,35
792,778	7,85
792,958	9,9
793,139	54,95
793,32	-10,58
793,5	32,43
793,681	34,47
793,862	-18,77
794,042	13,99
794,223	28,33
794,404	-14,68
794,584	-18,77
794,765	28,33
794,945	-49,49
795,126	7,85
795,306	-41,3
795,487	34,47
795,667	46,76
795,848	54,95
796,028	-26,96
796,209	54,95
796,389	-2,39
796,57	-57,68
796,75	16,04
796,93	50,86
797,111	-16,73
797,291	-6,49
797,471	-67,92
797,652	-16,73
797,832	44,71
798,012	-33,11
798,192	-6,49
798,373	30,38
798,553	-24,92
798,733	57
798,913	38,57
799,093	-14,68
799,274	13,99
799,454	13,99
799,634	50,86
799,814	26,28
799,994	24,23
800,174	-67,92
800,354	-57,68
800,534	-18,77
800,714	7,85
800,894	79,53
801,074	18,09
801,254	5,8
801,434	-33,11
801,614	54,95
801,794	34,47
801,974	9,9
802,154	24,23
802,334	-0,34
802,514	54,95
802,693	73,39
802,873	11,95
803,053	13,99
803,233	79,53
803,413	54,95
803,592	57
803,772	16,04
803,952	81,58
804,131	38,57
804,311	-8,53
804,491	34,47
804,67	-0,34
804,85	89,77
805,03	-33,11
805,209	71,34
805,389	3,75
805,568	36,52
805,748	-26,96
805,928	-8,53
806,107	-39,25
806,287	-8,53
806,466	-18,77
806,646	46,76
806,825	-10,58
807,004	-51,54
807,184	22,19
807,363	22,19
807,543	16,04
807,722	79,53
807,901	-14,68
808,081	-6,49
808,26	30,38
808,439	-6,49
808,619	-18,77
808,798	16,04
808,977	50,86
809,156	-41,3
809,336	30,38
809,515	50,86
809,694	-59,73
809,873	5,8
810,052	46,76
810,231	28,33
810,411	-33,11
810,59	71,34
810,769	-18,77
810,948	-10,58
811,127	-0,34
811,306	13,99
811,485	-20,82
811,664	-0,34
811,843	-59,73
812,022	-39,25
812,201	30,38
812,38	16,04
812,559	-29,01
812,737	42,67
812,916	59,05
813,095	38,57
813,274	69,29
813,453	30,38
813,632	30,38
813,811	-6,49
813,989	9,9
814,168	57
814,347	-39,25
814,526	32,43
814,704	-0,34
814,883	-10,58
815,062	-43,35
815,24	-8,53
815,419	57
815,598	34,47
815,776	48,81
815,955	30,38
816,133	59,05
816,312	22,19
816,49	28,33
816,669	-6,49
816,847	-76,12
817,026	9,9
817,204	-49,49
817,383	22,19
817,561	-24,92
817,74	26,28
817,918	1,71
818,097	71,34
818,275	30,38
818,453	73,39
818,632	57
818,81	30,38
818,988	5,8
819,167	59,05
819,345	65,19
819,523	-12,63
819,701	1,71
819,879	-10,58
820,058	16,04
820,236	-2,39
820,414	54,95
820,592	50,86
820,77	-6,49
820,948	-61,78
821,127	97,96
821,305	22,19
821,483	9,9
821,661	-0,34
821,839	34,47
822,017	-10,58
822,195	44,71
822,373	3,75
822,551	18,09
822,729	5,8
822,907	-10,58
823,085	11,95
823,262	38,57
823,44	-55,64
823,618	-6,49
823,796	-16,73
823,974	32,43
824,152	36,52
824,329	-14,68
824,507	16,04
824,685	22,19
824,863	-57,68
825,04	-26,96
825,218	13,99
825,396	-57,68
825,574	63,15
825,751	-39,25
825,929	24,23
826,107	-10,58
826,284	13,99
826,462	-24,92
826,639	-33,11
826,817	-16,73
826,994	3,75
827,172	-59,73
827,349	28,33
827,527	13,99
827,704	-2,39
827,882	-26,96
828,059	18,09
828,237	-33,11
828,414	-72,02
828,591	-6,49
828,769	5,8
828,946	83,63
829,124	36,52
829,301	26,28
829,478	13,99
829,655	16,04
829,833	-12,63
830,01	16,04
830,187	22,19
830,364	38,57
830,542	-2,39
830,719	42,67
830,896	3,75
831,073	-29,01
831,25	44,71
831,427	-26,96
831,604	-6,49
831,782	30,38
831,959	-2,39
832,136	63,15
832,313	-0,34
832,49	3,75
832,667	-35,16
832,844	9,9
833,021	71,34
833,198	22,19
833,374	50,86
833,551	30,38
833,728	3,75
833,905	-59,73
834,082	-8,53
834,259	26,28
834,436	40,62
834,612	-24,92
834,789	54,95
834,966	-24,92
835,143	-14,68
835,319	-22,87
835,496	-31,06
835,673	63,15
835,85	57
836,026	-12,63
836,203	-0,34
836,38	32,43
836,556	42,67
836,733	63,15
836,909	-10,58
837,086	-53,59
837,262	16,04
837,439	18,09
837,616	-22,87
837,792	-6,49
837,968	7,85
838,145	-20,82
838,321	22,19
838,498	-49,49
838,674	-74,07
838,851	26,28
839,027	5,8
839,203	-31,06
839,38	-31,06
839,556	5,8
839,732	-0,34
839,909	38,57
840,085	-22,87
840,261	-2,39
840,437	7,85
840,614	5,8
840,79	-26,96
840,966	81,58
841,142	44,71
841,318	-0,34
841,494	9,9
841,671	-10,58
841,847	63,15
842,023	-0,34
842,199	-6,49
842,375	-8,53
842,551	-22,87
842,727	13,99
842,903	13,99
843,079	9,9
843,255	-2,39
843,431	20,14
843,607	63,15
843,783	-88,4
843,959	5,8
844,134	54,95
844,31	-20,82
844,486	9,9
844,662	-6,49
844,838	-14,68
845,013	-65,88
845,189	32,43
845,365	54,95
845,541	9,9
845,716	-16,73
845,892	7,85
846,068	-6,49
846,244	18,09
846,419	18,09
846,595	-2,39
846,77	46,76
846,946	11,95
847,122	-51,54
847,297	-16,73
847,473	5,8
847,648	-47,44
847,824	13,99
847,999	-14,68
848,175	-69,97
848,35	7,85
848,526	22,19
848,701	5,8
848,876	114,34
849,052	30,38
849,227	-8,53
849,403	-10,58
849,578	44,71
849,753	-10,58
849,929	-12,63
850,104	48,81
850,279	7,85
850,454	-20,82
850,63	24,23
850,805	-10,58
850,98	22,19
851,155	26,28
851,33	-22,87
851,505	44,71
851,681	1,71
851,856	54,95
852,031	-14,68
852,206	28,33
852,381	-26,96
852,556	38,57
852,731	-2,39
852,906	38,57
853,081	-16,73
853,256	-47,44
853,431	-6,49
853,606	-41,3
853,781	22,19
853,956	3,75
854,131	-2,39
854,305	-18,77
854,48	-39,25
854,655	-22,87
854,83	-2,39
855,005	-0,34
855,18	-6,49
855,354	-8,53
855,529	-2,39
855,704	-10,58
855,879	54,95
856,053	24,23
856,228	3,75
856,403	-51,54
856,577	42,67
856,752	-16,73
856,926	-31,06
857,101	32,43
857,276	34,47
857,45	26,28
857,625	22,19
857,799	42,67
857,974	-2,39
858,148	59,05
858,323	36,52
858,497	-24,92
858,672	22,19
858,846	9,9
859,02	-8,53
859,195	-18,77
859,369	-33,11
859,543	16,04
859,718	-2,39
859,892	18,09
860,066	44,71
860,241	-49,49
860,415	-49,49
860,589	-22,87
860,763	20,14
860,938	-59,73
861,112	5,8
861,286	-26,96
861,46	16,04
861,634	-10,58
861,808	32,43
861,982	5,8
862,157	9,9
862,331	-20,82
862,505	-8,53
862,679	42,67
862,853	-16,73
863,027	-33,11
863,201	22,19
863,375	16,04
863,549	42,67
863,722	26,28
863,896	20,14
864,07	36,52
864,244	-8,53
864,418	34,47
864,592	79,53
864,766	-45,4
864,939	5,8
865,113	-35,16
865,287	54,95
865,461	-33,11
865,634	24,23
865,808	18,09
865,982	71,34
866,156	-61,78
866,329	71,34
866,503	-72,02
866,676	-12,63
866,85	26,28
867,024	89,77
867,197	65,19
867,371	26,28
867,544	-2,39
867,718	-10,58
867,891	13,99
868,065	-35,16
868,238	-33,11
868,412	11,95
868,585	44,71
868,759	38,57
868,932	63,15
869,105	-22,87
869,279	-33,11
869,452	-2,39
869,625	16,04
869,799	63,15
869,972	-82,26
870,145	-59,73
870,319	-65,88
870,492	-0,34
870,665	-33,11
870,838	24,23
871,011	26,28
871,185	34,47
871,358	-57,68
871,531	54,95
871,704	-31,06
871,877	-49,49
872,05	-16,73
872,223	73,39
872,396	13,99
872,569	9,9
872,742	32,43
872,915	-14,68
873,088	1,71
873,261	32,43
873,434	-33,11
873,607	-24,92
873,78	11,95
873,953	63,15
874,126	-24,92
874,299	13,99
874,471	-0,34
874,644	-10,58
874,817	16,04
874,99	-20,82
875,163	30,38
875,335	32,43
875,508	-0,34
875,681	-6,49
875,853	-61,78
876,026	34,47
876,199	3,75
876,371	-8,53
876,544	30,38
876,717	22,19
876,889	-37,2
877,062	13,99
877,234	-24,92
877,407	54,95
877,579	16,04
877,752	38,57
877,924	-8,53
878,097	-45,4
878,269	-16,73
878,442	24,23
878,614	30,38
878,786	22,19
878,959	20,14
879,131	5,8
879,303	46,76
879,476	-4,44
879,648	65,19
879,82	48,81
879,993	50,86
880,165	28,33
880,337	79,53
880,509	7,85
880,681	57
880,854	-8,53
881,026	-2,39
881,198	67,24
881,37	1,71
881,542	40,62
881,714	-57,68
881,886	28,33
882,058	38,57
882,23	59,05
882,402	3,75
882,574	-4,44
882,746	50,86
882,918	24,23
883,09	32,43
883,262	-26,96
883,434	-0,34
883,606	7,85
883,778	-18,77
883,95	89,77
884,122	-10,58
884,293	22,19
884,465	-18,77
884,637	11,95
884,809	-2,39
884,98	13,99
885,152	-33,11
885,324	46,76
885,496	-12,63
885,667	-49,49
885,839	-10,58
886,011	-6,49
886,182	22,19
886,354	100,01
886,525	-45,4
886,697	-35,16
886,869	-4,44
887,04	-6,49
887,212	44,71
887,383	-8,53
887,555	20,14
887,726	-55,64
887,897	22,19
888,069	30,38
888,24	13,99
888,412	-10,58
888,583	24,23
888,754	-0,34
888,926	-35,16
889,097	-24,92
889,268	22,19
889,44	-33,11
889,611	-39,25
889,782	16,04
889,953	-10,58
890,125	24,23
890,296	24,23
890,467	5,8
890,638	38,57
890,809	20,14
890,98	-35,16
891,151	-0,34
891,323	5,8
891,494	22,19
891,665	22,19
891,836	-26,96
892,007	-26,96
892,178	46,76
892,349	24,23
892,52	9,9
892,691	5,8
892,862	63,15
893,032	67,24
893,203	26,28
893,374	16,04
893,545	52,91
893,716	7,85
893,887	-8,53
894,057	26,28
894,228	-31,06
894,399	32,43
894,57	26,28
894,74	20,14
894,911	1,71
895,082	28,33
895,253	30,38
895,423	5,8
895,594	87,72
895,764	-2,39
895,935	-26,96
896,106	7,85
896,276	30,38
896,447	32,43
896,617	59,05
896,788	-63,83
896,958	-12,63
897,129	11,95
897,299	89,77
897,47	-74,07
897,64	61,1
897,81	-12,63
897,981	28,33
898,151	-10,58
898,322	79,53
898,492	9,9
898,662	32,43
898,832	5,8
899,003	36,52
899,173	50,86
899,343	9,9
899,513	13,99
