Data from filtre 532_USB4F104151__6__11-57-42-366.txt Node

Date: Wed Apr 15 11:57:42 EDT 2026
User: LaboPhy
Spectrometer: USB4F10415
Trigger mode: 4
Integration Time (sec): 3,000000E-3
Scans to average: 1
Electric dark correction enabled: true
Nonlinearity correction enabled: false
Boxcar width: 0
XAxis mode: Wavelengths
Number of Pixels in Spectrum: 3648
>>>>>Begin Spectral Data<<<<<
178,204	11,09
178,424	11,09
178,644	11,09
178,864	-21,67
179,084	56,15
179,304	-13,48
179,524	-58,54
179,744	23,38
179,964	15,19
180,184	35,67
180,404	58,2
180,624	-17,58
180,844	-21,67
181,064	-97,45
181,283	-5,29
181,503	66,39
181,723	15,19
181,943	7
182,163	45,91
182,383	27,48
182,602	2,9
182,822	66,39
183,042	19,29
183,262	23,38
183,482	21,33
183,701	-23,72
183,921	17,24
184,141	-38,06
184,361	47,96
184,58	-11,43
184,8	-17,58
185,02	-79,02
185,239	52,05
185,459	19,29
185,679	31,57
185,898	68,44
186,118	58,2
186,338	-29,87
186,557	-5,29
186,777	33,62
186,997	56,15
187,216	-17,58
187,436	-23,72
187,655	-13,48
187,875	-46,25
188,095	64,34
188,314	-5,29
188,534	11,09
188,753	64,34
188,973	-46,25
189,192	-13,48
189,412	23,38
189,631	35,67
189,851	7
190,07	-89,26
190,29	17,24
190,509	35,67
190,729	17,24
190,948	-72,87
191,168	39,76
191,387	2,9
191,607	-27,82
191,826	35,67
192,045	-7,34
192,265	17,24
192,484	-17,58
192,704	-58,54
192,923	-9,39
193,142	7
193,362	-38,06
193,581	43,86
193,8	68,44
194,02	7
194,239	43,86
194,458	-33,96
194,678	0,85
194,897	-9,39
195,116	25,43
195,335	39,76
195,555	31,57
195,774	39,76
195,993	-50,35
196,212	-27,82
196,432	11,09
196,651	-46,25
196,87	25,43
197,089	17,24
197,308	-15,53
197,528	0,85
197,747	-17,58
197,966	43,86
198,185	-7,34
198,404	29,52
198,623	25,43
198,842	25,43
199,062	-111,78
199,281	-1,19
199,5	-27,82
199,719	-27,82
199,938	7
200,157	-15,53
200,376	80,72
200,595	21,33
200,814	-19,63
201,033	4,95
201,252	88,92
201,471	11,09
201,69	25,43
201,909	19,29
202,128	19,29
202,347	72,53
202,566	7
202,785	-33,96
203,004	31,57
203,223	52,05
203,442	-5,29
203,661	-9,39
203,879	-7,34
204,098	97,11
204,317	7
204,536	-40,11
204,755	23,38
204,974	33,62
205,193	-17,58
205,411	29,52
205,63	25,43
205,849	-33,96
206,068	-25,77
206,287	93,01
206,505	11,09
206,724	-38,06
206,943	45,91
207,162	-42,15
207,381	-31,91
207,599	37,72
207,818	-64,68
208,037	-79,02
208,255	7
208,474	72,53
208,693	-25,77
208,911	11,09
209,13	-54,44
209,349	62,29
209,567	17,24
209,786	105,3
210,005	-19,63
210,223	-13,48
210,442	-29,87
210,661	0,85
210,879	7
211,098	-122,02
211,316	-13,48
211,535	7
211,753	17,24
211,972	17,24
212,191	0,85
212,409	7
212,628	7
212,846	-31,91
213,065	-19,63
213,283	-25,77
213,502	15,19
213,72	74,58
213,938	90,96
214,157	-58,54
214,375	-33,96
214,594	9,05
214,812	58,2
215,031	-21,67
215,249	-19,63
215,467	31,57
215,686	43,86
215,904	47,96
216,122	-17,58
216,341	-33,96
216,559	-1,19
216,778	52,05
216,996	-58,54
217,214	-17,58
217,432	-36,01
217,651	-17,58
217,869	7
218,087	-33,96
218,306	4,95
218,524	39,76
218,742	27,48
218,96	-31,91
219,179	25,43
219,397	4,95
219,615	35,67
219,833	90,96
220,051	-48,3
220,27	25,43
220,488	-40,11
220,706	56,15
220,924	50
221,142	17,24
221,36	66,39
221,578	-23,72
221,796	-7,34
222,015	21,33
222,233	54,1
222,451	-44,2
222,669	23,38
222,887	25,43
223,105	11,09
223,323	-5,29
223,541	72,53
223,759	41,81
223,977	56,15
224,195	-9,39
224,413	-25,77
224,631	39,76
224,849	41,81
225,067	56,15
225,285	-46,25
225,503	-1,19
225,721	-23,72
225,939	-33,96
226,157	23,38
226,375	-7,34
226,592	-9,39
226,81	7
227,028	25,43
227,246	25,43
227,464	-3,24
227,682	33,62
227,9	-31,91
228,117	-33,96
228,335	-15,53
228,553	-72,87
228,771	-38,06
228,989	-1,19
229,206	15,19
229,424	-1,19
229,642	-17,58
229,86	31,57
230,077	-9,39
230,295	35,67
230,513	-9,39
230,731	23,38
230,948	15,19
231,166	-13,48
231,384	9,05
231,601	4,95
231,819	-3,24
232,037	41,81
232,254	-1,19
232,472	64,34
232,689	35,67
232,907	78,68
233,125	-36,01
233,342	9,05
233,56	33,62
233,777	-44,2
233,995	47,96
234,213	27,48
234,43	-1,19
234,648	-44,2
234,865	-66,73
235,083	-29,87
235,3	47,96
235,518	82,77
235,735	-13,48
235,953	-1,19
236,17	-23,72
236,388	117,59
236,605	-42,15
236,822	17,24
237,04	-58,54
237,257	-48,3
237,475	-50,35
237,692	17,24
237,909	-33,96
238,127	0,85
238,344	47,96
238,562	-21,67
238,779	31,57
238,996	-11,43
239,214	43,86
239,431	-13,48
239,648	29,52
239,865	33,62
240,083	9,05
240,3	-1,19
240,517	15,19
240,735	-3,24
240,952	2,9
241,169	-1,19
241,386	43,86
241,603	31,57
241,821	-68,78
242,038	25,43
242,255	-21,67
242,472	-48,3
242,689	2,9
242,907	-13,48
243,124	7
243,341	9,05
243,558	-56,49
243,775	-9,39
243,992	64,34
244,209	-27,82
244,426	4,95
244,643	-5,29
244,86	-11,43
245,078	64,34
245,295	-21,67
245,512	33,62
245,729	39,76
245,946	-1,19
246,163	23,38
246,38	-5,29
246,597	13,14
246,814	23,38
247,031	47,96
247,248	7
247,464	-1,19
247,681	-11,43
247,898	-13,48
248,115	-72,87
248,332	15,19
248,549	35,67
248,766	-29,87
248,983	37,72
249,2	33,62
249,417	-21,67
249,633	-23,72
249,85	-15,53
250,067	25,43
250,284	45,91
250,501	-85,16
250,717	-23,72
250,934	45,91
251,151	58,2
251,368	39,76
251,585	-33,96
251,801	0,85
252,018	-5,29
252,235	19,29
252,451	-83,11
252,668	41,81
252,885	-1,19
253,102	33,62
253,318	23,38
253,535	47,96
253,752	-7,34
253,968	-1,19
254,185	15,19
254,401	41,81
254,618	84,82
254,835	-17,58
255,051	-44,2
255,268	52,05
255,484	7
255,701	-3,24
255,917	41,81
256,134	-46,25
256,351	-58,54
256,567	-9,39
256,784	50
257	-25,77
257,217	31,57
257,433	-19,63
257,65	80,72
257,866	39,76
258,082	19,29
258,299	-1,19
258,515	-7,34
258,732	-7,34
258,948	39,76
259,165	7
259,381	-9,39
259,597	-9,39
259,814	0,85
260,03	13,14
260,246	-7,34
260,463	-42,15
260,679	9,05
260,895	-15,53
261,112	4,95
261,328	-21,67
261,544	101,2
261,761	43,86
261,977	39,76
262,193	2,9
262,409	97,11
262,626	-31,91
262,842	35,67
263,058	-13,48
263,274	2,9
263,49	-25,77
263,707	-48,3
263,923	-3,24
264,139	-29,87
264,355	66,39
264,571	39,76
264,787	-64,68
265,004	9,05
265,22	-38,06
265,436	39,76
265,652	7
265,868	-1,19
266,084	-33,96
266,3	-9,39
266,516	13,14
266,732	41,81
266,948	-29,87
267,164	-29,87
267,38	4,95
267,596	80,72
267,812	39,76
268,028	-29,87
268,244	41,81
268,46	11,09
268,676	-38,06
268,892	-21,67
269,108	-29,87
269,324	64,34
269,54	37,72
269,756	80,72
269,972	-11,43
270,188	4,95
270,403	17,24
270,619	35,67
270,835	7
271,051	11,09
271,267	-13,48
271,483	-56,49
271,698	-13,48
271,914	54,1
272,13	-50,35
272,346	19,29
272,562	-25,77
272,777	9,05
272,993	-11,43
273,209	23,38
273,425	29,52
273,64	0,85
273,856	-1,19
274,072	74,58
274,287	-25,77
274,503	25,43
274,719	-70,83
274,934	15,19
275,15	37,72
275,366	-50,35
275,581	33,62
275,797	-7,34
276,012	23,38
276,228	29,52
276,444	0,85
276,659	-56,49
276,875	64,34
277,09	-7,34
277,306	23,38
277,521	15,19
277,737	-3,24
277,952	-70,83
278,168	21,33
278,383	-7,34
278,599	23,38
278,814	17,24
279,03	13,14
279,245	-15,53
279,461	-1,19
279,676	54,1
279,892	-29,87
280,107	-9,39
280,322	-33,96
280,538	-1,19
280,753	-68,78
280,969	39,76
281,184	-54,44
281,399	-33,96
281,615	62,29
281,83	-95,4
282,045	-42,15
282,26	23,38
282,476	-15,53
282,691	23,38
282,906	-25,77
283,122	-40,11
283,337	-23,72
283,552	-31,91
283,767	31,57
283,983	-23,72
284,198	-29,87
284,413	19,29
284,628	-23,72
284,843	15,19
285,058	-23,72
285,274	19,29
285,489	47,96
285,704	17,24
285,919	-25,77
286,134	-38,06
286,349	27,48
286,564	-7,34
286,779	-23,72
286,995	80,72
287,21	-52,39
287,425	39,76
287,64	68,44
287,855	0,85
288,07	-11,43
288,285	-13,48
288,5	33,62
288,715	11,09
288,93	7
289,145	-15,53
289,36	-58,54
289,575	80,72
289,79	113,49
290,004	41,81
290,219	66,39
290,434	-50,35
290,649	17,24
290,864	-42,15
291,079	-56,49
291,294	15,19
291,509	17,24
291,724	39,76
291,938	-19,63
292,153	13,14
292,368	-50,35
292,583	60,24
292,798	-50,35
293,012	13,14
293,227	19,29
293,442	15,19
293,657	-44,2
293,871	7
294,086	-7,34
294,301	-25,77
294,516	-7,34
294,73	25,43
294,945	-3,24
295,16	25,43
295,374	-40,11
295,589	-5,29
295,804	-83,11
296,018	-1,19
296,233	7
296,447	-23,72
296,662	-23,72
296,877	9,05
297,091	-13,48
297,306	-31,91
297,52	-62,63
297,735	58,2
297,949	-38,06
298,164	39,76
298,378	-87,21
298,593	31,57
298,807	56,15
299,022	64,34
299,236	-103,59
299,451	-48,3
299,665	-13,48
299,88	-21,67
300,094	-48,3
300,309	-9,39
300,523	-74,92
300,737	-1,19
300,952	43,86
301,166	11,09
301,381	-50,35
301,595	-50,35
301,809	35,67
302,024	-58,54
302,238	-7,34
302,452	-52,39
302,667	0,85
302,881	31,57
303,095	-21,67
303,309	-44,2
303,524	21,33
303,738	31,57
303,952	-40,11
304,166	2,9
304,381	7
304,595	39,76
304,809	15,19
305,023	64,34
305,237	13,14
305,452	17,24
305,666	62,29
305,88	58,2
306,094	-7,34
306,308	43,86
306,522	-17,58
306,736	-56,49
306,95	-70,83
307,164	23,38
307,379	31,57
307,593	41,81
307,807	45,91
308,021	-40,11
308,235	4,95
308,449	15,19
308,663	-29,87
308,877	11,09
309,091	-44,2
309,305	-9,39
309,519	-17,58
309,733	31,57
309,947	-25,77
310,161	-29,87
310,374	-19,63
310,588	35,67
310,802	33,62
311,016	31,57
311,23	31,57
311,444	2,9
311,658	7
311,872	9,05
312,085	7
312,299	35,67
312,513	-1,19
312,727	-33,96
312,941	7
313,154	-1,19
313,368	-31,91
313,582	82,77
313,796	-5,29
314,009	0,85
314,223	31,57
314,437	62,29
314,651	17,24
314,864	74,58
315,078	7
315,292	-23,72
315,505	0,85
315,719	56,15
315,933	13,14
316,146	33,62
316,36	-23,72
316,573	-48,3
316,787	-9,39
317,001	41,81
317,214	19,29
317,428	9,05
317,641	4,95
317,855	-44,2
318,068	23,38
318,282	-31,91
318,495	-13,48
318,709	33,62
318,922	7
319,136	-1,19
319,349	19,29
319,563	21,33
319,776	-23,72
319,99	47,96
320,203	-68,78
320,417	62,29
320,63	33,62
320,843	15,19
321,057	25,43
321,27	-11,43
321,483	-40,11
321,697	-21,67
321,91	-81,07
322,124	15,19
322,337	-5,29
322,55	-17,58
322,763	-74,92
322,977	-46,25
323,19	-15,53
323,403	-9,39
323,617	-7,34
323,83	29,52
324,043	-38,06
324,256	43,86
324,469	9,05
324,683	-1,19
324,896	-62,63
325,109	68,44
325,322	-13,48
325,535	21,33
325,748	27,48
325,962	7
326,175	15,19
326,388	7
326,601	27,48
326,814	56,15
327,027	-7,34
327,24	-1,19
327,453	-9,39
327,666	-9,39
327,879	2,9
328,092	-25,77
328,305	21,33
328,518	7
328,731	-25,77
328,944	21,33
329,157	-31,91
329,37	-17,58
329,583	64,34
329,796	80,72
330,009	37,72
330,222	33,62
330,435	4,95
330,648	23,38
330,861	-9,39
331,073	19,29
331,286	-76,97
331,499	-11,43
331,712	43,86
331,925	99,16
332,138	101,2
332,35	13,14
332,563	-11,43
332,776	64,34
332,989	-38,06
333,202	90,96
333,414	-95,4
333,627	39,76
333,84	15,19
334,053	-1,19
334,265	21,33
334,478	31,57
334,691	-23,72
334,903	64,34
335,116	-58,54
335,329	90,96
335,541	2,9
335,754	11,09
335,966	13,14
336,179	-17,58
336,392	-40,11
336,604	80,72
336,817	-46,25
337,029	37,72
337,242	-5,29
337,454	-19,63
337,667	66,39
337,88	-1,19
338,092	43,86
338,305	-25,77
338,517	35,67
338,729	-1,19
338,942	-5,29
339,154	-60,59
339,367	-31,91
339,579	50
339,792	-38,06
340,004	-1,19
340,217	9,05
340,429	72,53
340,641	-50,35
340,854	72,53
341,066	41,81
341,278	23,38
341,491	-89,26
341,703	19,29
341,915	-25,77
342,128	2,9
342,34	-42,15
342,552	58,2
342,764	64,34
342,977	-9,39
343,189	9,05
343,401	31,57
343,613	-1,19
343,826	45,91
344,038	-1,19
344,25	64,34
344,462	68,44
344,674	-7,34
344,886	50
345,099	23,38
345,311	9,05
345,523	50
345,735	35,67
345,947	23,38
346,159	-36,01
346,371	47,96
346,583	-27,82
346,795	-48,3
347,007	11,09
347,219	-58,54
347,431	-7,34
347,643	7
347,855	-11,43
348,067	2,9
348,279	39,76
348,491	0,85
348,703	-42,15
348,915	80,72
349,127	-42,15
349,339	45,91
349,551	27,48
349,763	15,19
349,975	-40,11
350,187	-1,19
350,399	15,19
350,61	17,24
350,822	-7,34
351,034	-15,53
351,246	25,43
351,458	-44,2
351,669	45,91
351,881	-42,15
352,093	52,05
352,305	56,15
352,517	-11,43
352,728	25,43
352,94	-3,24
353,152	19,29
353,363	-64,68
353,575	21,33
353,787	60,24
353,999	-3,24
354,21	-5,29
354,422	31,57
354,633	-13,48
354,845	-15,53
355,057	-17,58
355,268	-29,87
355,48	-3,24
355,692	-7,34
355,903	-1,19
356,115	31,57
356,326	7
356,538	-33,96
356,749	-93,35
356,961	17,24
357,172	-1,19
357,384	-48,3
357,595	0,85
357,807	-25,77
358,018	-1,19
358,23	17,24
358,441	-36,01
358,653	23,38
358,864	-17,58
359,075	9,05
359,287	-46,25
359,498	-62,63
359,709	-31,91
359,921	47,96
360,132	-52,39
360,344	-21,67
360,555	47,96
360,766	25,43
360,977	-42,15
361,189	-46,25
361,4	-52,39
361,611	56,15
361,823	27,48
362,034	9,05
362,245	27,48
362,456	54,1
362,667	-9,39
362,879	2,9
363,09	-3,24
363,301	15,19
363,512	-5,29
363,723	-13,48
363,935	-23,72
364,146	-15,53
364,357	-40,11
364,568	-21,67
364,779	-17,58
364,99	15,19
365,201	-9,39
365,412	33,62
365,623	-38,06
365,834	-23,72
366,045	-11,43
366,256	60,24
366,467	-13,48
366,678	50
366,889	-25,77
367,1	39,76
367,311	7
367,522	-23,72
367,733	15,19
367,944	-17,58
368,155	-50,35
368,366	41,81
368,577	9,05
368,788	23,38
368,999	4,95
369,209	9,05
369,42	2,9
369,631	19,29
369,842	-21,67
370,053	4,95
370,264	31,57
370,474	-29,87
370,685	-29,87
370,896	2,9
371,107	19,29
371,317	-5,29
371,528	7
371,739	-40,11
371,95	-9,39
372,16	-31,91
372,371	-46,25
372,582	-33,96
372,792	-5,29
373,003	31,57
373,214	31,57
373,424	7
373,635	-38,06
373,846	78,68
374,056	25,43
374,267	-27,82
374,477	-7,34
374,688	-72,87
374,898	-1,19
375,109	-11,43
375,319	-23,72
375,53	15,19
375,74	-9,39
375,951	-27,82
376,161	-62,63
376,372	-50,35
376,582	-21,67
376,793	-56,49
377,003	-17,58
377,214	56,15
377,424	-46,25
377,635	0,85
377,845	-42,15
378,055	58,2
378,266	-42,15
378,476	25,43
378,686	-36,01
378,897	-1,19
379,107	-79,02
379,317	-40,11
379,528	45,91
379,738	-21,67
379,948	4,95
380,158	-9,39
380,369	21,33
380,579	-1,19
380,789	-31,91
380,999	11,09
381,21	-13,48
381,42	-33,96
381,63	-17,58
381,84	15,19
382,05	-23,72
382,261	39,76
382,471	50
382,681	-13,48
382,891	-13,48
383,101	17,24
383,311	-64,68
383,521	78,68
383,731	-33,96
383,941	13,14
384,151	-17,58
384,361	0,85
384,571	-13,48
384,781	54,1
384,991	2,9
385,201	29,52
385,411	-17,58
385,621	41,81
385,831	0,85
386,041	-1,19
386,251	11,09
386,461	-5,29
386,671	-36,01
386,881	17,24
387,091	-68,78
387,301	-27,82
387,511	29,52
387,72	-33,96
387,93	-17,58
388,14	-15,53
388,35	-29,87
388,56	-13,48
388,769	-38,06
388,979	90,96
389,189	13,14
389,399	9,05
389,609	31,57
389,818	11,09
390,028	-44,2
390,238	-1,19
390,447	17,24
390,657	11,09
390,867	11,09
391,076	25,43
391,286	7
391,496	27,48
391,705	70,48
391,915	-1,19
392,125	2,9
392,334	-15,53
392,544	56,15
392,753	47,96
392,963	-19,63
393,172	2,9
393,382	-68,78
393,591	13,14
393,801	-17,58
394,01	33,62
394,22	-7,34
394,429	15,19
394,639	0,85
394,848	2,9
395,058	-31,91
395,267	0,85
395,477	45,91
395,686	31,57
395,895	37,72
396,105	-58,54
396,314	-58,54
396,524	-29,87
396,733	-40,11
396,942	-31,91
397,152	54,1
397,361	-40,11
397,57	-17,58
397,78	80,72
397,989	43,86
398,198	-25,77
398,407	9,05
398,617	74,58
398,826	-21,67
399,035	23,38
399,244	-3,24
399,453	47,96
399,663	-17,58
399,872	90,96
400,081	23,38
400,29	25,43
400,499	17,24
400,708	-1,19
400,917	15,19
401,127	-15,53
401,336	-33,96
401,545	2,9
401,754	-13,48
401,963	50
402,172	-42,15
402,381	-124,07
402,59	-50,35
402,799	-23,72
403,008	21,33
403,217	-50,35
403,426	-52,39
403,635	-15,53
403,844	7
404,053	-17,58
404,262	27,48
404,471	25,43
404,68	-25,77
404,888	-11,43
405,097	47,96
405,306	47,96
405,515	84,82
405,724	15,19
405,933	41,81
406,142	17,24
406,35	7
406,559	31,57
406,768	-46,25
406,977	27,48
407,185	23,38
407,394	-42,15
407,603	0,85
407,812	13,14
408,02	-25,77
408,229	19,29
408,438	-1,19
408,646	9,05
408,855	-23,72
409,064	35,67
409,272	-107,69
409,481	19,29
409,69	-60,59
409,898	64,34
410,107	-29,87
410,315	-3,24
410,524	64,34
410,733	-56,49
410,941	-19,63
411,15	17,24
411,358	39,76
411,567	47,96
411,775	9,05
411,984	25,43
412,192	13,14
412,401	17,24
412,609	-23,72
412,818	25,43
413,026	-5,29
413,234	41,81
413,443	33,62
413,651	2,9
413,86	-50,35
414,068	56,15
414,276	-38,06
414,485	56,15
414,693	7
414,901	33,62
415,11	17,24
415,318	7
415,526	-13,48
415,734	35,67
415,943	7
416,151	43,86
416,359	37,72
416,567	-52,39
416,776	17,24
416,984	-40,11
417,192	56,15
417,4	21,33
417,608	-87,21
417,817	-21,67
418,025	2,9
418,233	-17,58
418,441	74,58
418,649	-42,15
418,857	9,05
419,065	-44,2
419,273	-21,67
419,481	93,01
419,689	29,52
419,897	-17,58
420,105	-9,39
420,313	-19,63
420,521	19,29
420,729	15,19
420,937	-19,63
421,145	56,15
421,353	-66,73
421,561	9,05
421,769	4,95
421,977	-36,01
422,185	97,11
422,393	-1,19
422,601	-42,15
422,809	11,09
423,017	2,9
423,224	-46,25
423,432	23,38
423,64	17,24
423,848	-1,19
424,056	-21,67
424,263	-9,39
424,471	31,57
424,679	31,57
424,887	-5,29
425,094	-13,48
425,302	7
425,51	39,76
425,718	43,86
425,925	-25,77
426,133	43,86
426,341	9,05
426,548	-11,43
426,756	23,38
426,964	11,09
427,171	-25,77
427,379	-23,72
427,586	-9,39
427,794	-5,29
428,001	-7,34
428,209	0,85
428,417	-50,35
428,624	-15,53
428,832	-13,48
429,039	-27,82
429,247	-31,91
429,454	4,95
429,662	-7,34
429,869	-58,54
430,076	27,48
430,284	19,29
430,491	-23,72
430,699	-1,19
430,906	11,09
431,114	-50,35
431,321	23,38
431,528	66,39
431,736	7
431,943	-29,87
432,15	19,29
432,358	41,81
432,565	52,05
432,772	31,57
432,979	-17,58
433,187	37,72
433,394	15,19
433,601	47,96
433,808	-5,29
434,016	-54,44
434,223	80,72
434,43	31,57
434,637	-36,01
434,844	7
435,052	-36,01
435,259	-13,48
435,466	7
435,673	-17,58
435,88	23,38
436,087	25,43
436,294	0,85
436,501	29,52
436,708	-17,58
436,915	33,62
437,122	19,29
437,329	-46,25
437,537	17,24
437,743	0,85
437,95	-31,91
438,157	39,76
438,364	-42,15
438,571	13,14
438,778	-72,87
438,985	-83,11
439,192	43,86
439,399	-23,72
439,606	-36,01
439,813	41,81
440,02	9,05
440,227	-9,39
440,433	43,86
440,64	-29,87
440,847	15,19
441,054	33,62
441,261	-31,91
441,467	17,24
441,674	-46,25
441,881	4,95
442,088	-46,25
442,294	-46,25
442,501	56,15
442,708	7
442,914	25,43
443,121	37,72
443,328	0,85
443,534	31,57
443,741	-11,43
443,948	31,57
444,154	-15,53
444,361	7
444,568	-7,34
444,774	31,57
444,981	33,62
445,187	27,48
445,394	-9,39
445,6	-72,87
445,807	0,85
446,013	15,19
446,22	62,29
446,426	-40,11
446,633	-19,63
446,839	58,2
447,046	0,85
447,252	17,24
447,459	7
447,665	-42,15
447,871	-7,34
448,078	33,62
448,284	4,95
448,491	19,29
448,697	-5,29
448,903	-25,77
449,11	4,95
449,316	-1,19
449,522	-13,48
449,728	17,24
449,935	-42,15
450,141	-81,07
450,347	15,19
450,553	72,53
450,76	-17,58
450,966	2,9
451,172	-46,25
451,378	97,11
451,584	-13,48
451,791	60,24
451,997	-70,83
452,203	4,95
452,409	-7,34
452,615	17,24
452,821	-27,82
453,027	-74,92
453,233	21,33
453,44	74,58
453,646	35,67
453,852	11,09
454,058	-7,34
454,264	39,76
454,47	-21,67
454,676	82,77
454,882	-76,97
455,088	-52,39
455,294	19,29
455,5	64,34
455,705	27,48
455,911	101,2
456,117	13,14
456,323	7
456,529	-25,77
456,735	7
456,941	0,85
457,147	50
457,352	35,67
457,558	-42,15
457,764	-15,53
457,97	11,09
458,176	-5,29
458,381	56,15
458,587	-15,53
458,793	64,34
458,999	35,67
459,204	-50,35
459,41	-21,67
459,616	-5,29
459,821	23,38
460,027	39,76
460,233	17,24
460,438	60,24
460,644	80,72
460,85	-5,29
461,055	-11,43
461,261	39,76
461,466	33,62
461,672	-5,29
461,878	15,19
462,083	-7,34
462,289	64,34
462,494	-15,53
462,7	-15,53
462,905	52,05
463,111	-50,35
463,316	31,57
463,522	31,57
463,727	-56,49
463,932	-9,39
464,138	-79,02
464,343	39,76
464,549	-50,35
464,754	15,19
464,959	27,48
465,165	-46,25
465,37	-70,83
465,575	52,05
465,781	-33,96
465,986	-46,25
466,191	0,85
466,397	11,09
466,602	7
466,807	25,43
467,012	-25,77
467,218	-25,77
467,423	-48,3
467,628	-9,39
467,833	68,44
468,038	-11,43
468,244	-5,29
468,449	-9,39
468,654	47,96
468,859	9,05
469,064	27,48
469,269	-74,92
469,474	19,29
469,679	-13,48
469,885	31,57
470,09	17,24
470,295	113,49
470,5	31,57
470,705	43,86
470,91	-31,91
471,115	64,34
471,32	-15,53
471,525	88,92
471,73	52,05
471,935	50
472,139	23,38
472,344	-33,96
472,549	17,24
472,754	-33,96
472,959	11,09
473,164	4,95
473,369	33,62
473,574	41,81
473,778	50
473,983	2,9
474,188	19,29
474,393	-17,58
474,598	-9,39
474,802	105,3
475,007	-17,58
475,212	66,39
475,417	23,38
475,621	23,38
475,826	-38,06
476,031	-9,39
476,235	-13,48
476,44	9,05
476,645	-70,83
476,849	7
477,054	-25,77
477,259	13,14
477,463	47,96
477,668	45,91
477,872	19,29
478,077	23,38
478,282	-42,15
478,486	7
478,691	-7,34
478,895	7
479,1	-31,91
479,304	13,14
479,509	-60,59
479,713	2,9
479,918	47,96
480,122	-1,19
480,326	43,86
480,531	17,24
480,735	2,9
480,94	33,62
481,144	64,34
481,348	70,48
481,553	2,9
481,757	31,57
481,961	31,57
482,166	-48,3
482,37	27,48
482,574	7
482,778	-27,82
482,983	39,76
483,187	80,72
483,391	-56,49
483,595	13,14
483,8	-42,15
484,004	7
484,208	-23,72
484,412	17,24
484,616	-23,72
484,821	-25,77
485,025	-27,82
485,229	-15,53
485,433	72,53
485,637	80,72
485,841	47,96
486,045	-3,24
486,249	31,57
486,453	-3,24
486,657	-40,11
486,861	-31,91
487,065	97,11
487,269	0,85
487,473	0,85
487,677	-1,19
487,881	-66,73
488,085	4,95
488,289	-1,19
488,493	-15,53
488,697	-7,34
488,901	21,33
489,105	-25,77
489,309	23,38
489,512	17,24
489,716	-1,19
489,92	-23,72
490,124	-44,2
490,328	27,48
490,531	7
490,735	15,19
490,939	-62,63
491,143	11,09
491,346	-54,44
491,55	64,34
491,754	-54,44
491,958	17,24
492,161	41,81
492,365	-25,77
492,569	19,29
492,772	-62,63
492,976	-27,82
493,18	27,48
493,383	13,14
493,587	-19,63
493,79	66,39
493,994	-9,39
494,197	-25,77
494,401	-3,24
494,605	23,38
494,808	19,29
495,012	7
495,215	7
495,419	-27,82
495,622	-9,39
495,825	-21,67
496,029	7
496,232	-83,11
496,436	-7,34
496,639	-9,39
496,843	2,9
497,046	29,52
497,249	27,48
497,453	-29,87
497,656	-46,25
497,859	-74,92
498,063	11,09
498,266	66,39
498,469	23,38
498,673	0,85
498,876	-42,15
499,079	-7,34
499,282	-21,67
499,485	-1,19
499,689	4,95
499,892	-9,39
500,095	50
500,298	21,33
500,501	-5,29
500,705	35,67
500,908	15,19
501,111	13,14
501,314	80,72
501,517	17,24
501,72	-17,58
501,923	72,53
502,126	105,3
502,329	-21,67
502,532	-33,96
502,735	15,19
502,938	-36,01
503,141	-9,39
503,344	-27,82
503,547	56,15
503,75	-29,87
503,953	-56,49
504,156	7
504,359	-3,24
504,562	39,76
504,765	-33,96
504,968	-56,49
505,17	-5,29
505,373	41,81
505,576	2,9
505,779	-72,87
505,982	-29,87
506,185	-95,4
506,387	-17,58
506,59	4,95
506,793	7
506,996	9,05
507,198	-50,35
507,401	35,67
507,604	-17,58
507,807	-1,19
508,009	41,81
508,212	39,76
508,415	-7,34
508,617	31,57
508,82	13,14
509,022	33,62
509,225	17,24
509,428	-11,43
509,63	-11,43
509,833	-1,19
510,035	0,85
510,238	-74,92
510,44	-36,01
510,643	-17,58
510,845	23,38
511,048	0,85
511,25	-21,67
511,453	-21,67
511,655	-5,29
511,858	7
512,06	35,67
512,262	33,62
512,465	-19,63
512,667	-3,24
512,87	-64,68
513,072	27,48
513,274	9,05
513,477	88,92
513,679	13,14
513,881	47,96
514,084	-3,24
514,286	-21,67
514,488	27,48
514,69	80,72
514,893	0,85
515,095	-17,58
515,297	-70,83
515,499	17,24
515,701	11,09
515,904	-1,19
516,106	-25,77
516,308	60,24
516,51	19,29
516,712	-1,19
516,914	-5,29
517,116	23,38
517,318	29,52
517,52	29,52
517,722	-58,54
517,925	15,19
518,127	23,38
518,329	60,24
518,531	-7,34
518,733	-1,19
518,935	13,14
519,136	50
519,338	13,14
519,54	31,57
519,742	11,09
519,944	9,05
520,146	19,29
520,348	23,38
520,55	-58,54
520,752	-15,53
520,954	-31,91
521,155	7
521,357	-48,3
521,559	7
521,761	-15,53
521,963	33,62
522,164	7
522,366	-17,58
522,568	23,38
522,77	60,24
522,971	23,38
523,173	21,33
523,375	15,19
523,576	72,53
523,778	47,96
523,98	88,92
524,181	7
524,383	97,11
524,584	64,34
524,786	160,59
524,988	219,99
525,189	281,43
525,391	478,03
525,592	648,01
525,794	1106,76
525,995	1583,93
526,197	2265,91
526,398	3001,13
526,6	4530,96
526,801	5395,2
527,003	7070,44
527,204	8729,3
527,406	10648,24
527,607	12673,68
527,808	15247,98
528,01	17619,53
528,211	20711,96
528,412	24029,67
528,614	26988,99
528,815	29745,55
529,016	33259,87
529,218	35119,42
529,419	38220,05
529,62	40145,14
529,822	42326,22
530,023	44161,2
530,224	45576,35
530,425	46784,65
530,626	47954,04
530,828	48238,71
531,029	50602,07
531,23	49936,48
531,431	50514
531,632	50645,07
531,833	51615,81
532,035	52095,03
532,236	52344,89
532,437	52357,17
532,638	52086,84
532,839	52586,55
533,04	52949,04
533,241	52269,11
533,442	53620,77
533,643	52650,03
533,844	52901,93
534,045	53127,21
534,246	52224,06
534,447	52570,16
534,648	52885,55
534,849	52410,42
535,05	51914,81
535,251	51443,78
535,451	50923,6
535,652	50688,08
535,853	49727,58
536,054	49135,72
536,255	48345,2
536,456	46020,76
536,657	45406,37
536,857	43071,68
537,058	41132,26
537,259	39381,24
537,46	36823,33
537,66	34572,61
537,861	31662,45
538,062	29024,67
538,263	26763,71
538,463	23706,09
538,664	21488,14
538,865	18793,01
539,065	16644,7
539,266	13849,22
539,466	12475,03
539,667	10205,88
539,868	8952,52
540,068	7330,53
540,269	5878,52
540,469	4586,26
540,67	3668,77
540,87	2902,83
541,071	2149,17
541,271	1481,53
541,472	1080,13
541,672	744,27
541,873	572,24
542,073	326,48
542,274	232,27
542,474	189,27
542,675	129,88
542,875	66,39
543,075	68,44
543,276	111,44
543,476	70,48
543,676	146,26
543,877	97,11
544,077	58,2
544,277	123,73
544,478	47,96
544,678	82,77
544,878	15,19
545,078	74,58
545,279	82,77
545,479	11,09
545,679	56,15
545,879	25,43
546,079	-36,01
546,28	11,09
546,48	15,19
546,68	-5,29
546,88	9,05
547,08	-29,87
547,28	35,67
547,48	17,24
547,68	2,9
547,88	-3,24
548,081	-33,96
548,281	-15,53
548,481	43,86
548,681	56,15
548,881	52,05
549,081	-70,83
549,28	-3,24
549,48	-5,29
549,68	37,72
549,88	-1,19
550,08	-1,19
550,28	-7,34
550,48	35,67
550,68	19,29
550,88	-7,34
551,08	-5,29
551,279	33,62
551,479	0,85
551,679	39,76
551,879	7
552,079	7
552,278	-25,77
552,478	-5,29
552,678	-7,34
552,878	97,11
553,077	25,43
553,277	-29,87
553,477	-7,34
553,676	52,05
553,876	0,85
554,076	-23,72
554,275	17,24
554,475	-13,48
554,674	66,39
554,874	7
555,074	-5,29
555,273	29,52
555,473	-58,54
555,672	90,96
555,872	37,72
556,071	-1,19
556,271	45,91
556,47	113,49
556,67	-64,68
556,869	-3,24
557,068	66,39
557,268	25,43
557,467	-17,58
557,667	19,29
557,866	41,81
558,065	31,57
558,265	39,76
558,464	-25,77
558,663	-33,96
558,863	29,52
559,062	88,92
559,261	27,48
559,461	43,86
559,66	74,58
559,859	2,9
560,058	-7,34
560,258	70,48
560,457	17,24
560,656	-13,48
560,855	54,1
561,054	2,9
561,253	33,62
561,453	23,38
561,652	-60,59
561,851	-62,63
562,05	39,76
562,249	-50,35
562,448	31,57
562,647	23,38
562,846	-1,19
563,045	90,96
563,244	-25,77
563,443	0,85
563,642	17,24
563,841	0,85
564,04	-89,26
564,239	7
564,438	-56,49
564,637	60,24
564,836	29,52
565,035	43,86
565,234	60,24
565,432	0,85
565,631	23,38
565,83	41,81
566,029	-7,34
566,228	-13,48
566,427	-13,48
566,625	76,63
566,824	-27,82
567,023	50
567,222	-38,06
567,42	-1,19
567,619	-52,39
567,818	60,24
568,016	-17,58
568,215	11,09
568,414	84,82
568,612	111,44
568,811	11,09
569,01	29,52
569,208	-17,58
569,407	17,24
569,605	-19,63
569,804	56,15
570,002	-54,44
570,201	-15,53
570,4	39,76
570,598	0,85
570,797	21,33
570,995	0,85
571,193	13,14
571,392	64,34
571,59	31,57
571,789	80,72
571,987	-31,91
572,186	52,05
572,384	39,76
572,582	7
572,781	97,11
572,979	-17,58
573,177	58,2
573,376	-29,87
573,574	31,57
573,772	23,38
573,971	-3,24
574,169	-29,87
574,367	13,14
574,565	-81,07
574,763	66,39
574,962	76,63
575,16	68,44
575,358	35,67
575,556	9,05
575,754	27,48
575,952	-3,24
576,151	113,49
576,349	47,96
576,547	-3,24
576,745	2,9
576,943	-40,11
577,141	-40,11
577,339	-9,39
577,537	66,39
577,735	-15,53
577,933	-5,29
578,131	31,57
578,329	45,91
578,527	54,1
578,725	60,24
578,923	23,38
579,121	43,86
579,319	-56,49
579,516	-40,11
579,714	-13,48
579,912	-5,29
580,11	60,24
580,308	41,81
580,506	11,09
580,704	41,81
580,901	-33,96
581,099	-25,77
581,297	39,76
581,495	23,38
581,692	66,39
581,89	-36,01
582,088	-21,67
582,285	-40,11
582,483	-23,72
582,681	80,72
582,878	-23,72
583,076	84,82
583,274	-54,44
583,471	-25,77
583,669	-15,53
583,866	23,38
584,064	15,19
584,262	15,19
584,459	-3,24
584,657	-29,87
584,854	93,01
585,052	-5,29
585,249	62,29
585,447	45,91
585,644	-50,35
585,841	17,24
586,039	-48,3
586,236	19,29
586,434	-21,67
586,631	-36,01
586,828	54,1
587,026	-13,48
587,223	-64,68
587,42	-17,58
587,618	2,9
587,815	7
588,012	23,38
588,21	50
588,407	-31,91
588,604	-1,19
588,801	-9,39
588,999	-1,19
589,196	-25,77
589,393	9,05
589,59	-11,43
589,787	-29,87
589,984	-44,2
590,182	35,67
590,379	9,05
590,576	-1,19
590,773	-11,43
590,97	-33,96
591,167	23,38
591,364	-40,11
591,561	0,85
591,758	56,15
591,955	56,15
592,152	-19,63
592,349	19,29
592,546	-9,39
592,743	-17,58
592,94	0,85
593,137	35,67
593,334	-9,39
593,531	7
593,727	39,76
593,924	52,05
594,121	7
594,318	-29,87
594,515	41,81
594,712	-13,48
594,908	-3,24
595,105	-5,29
595,302	41,81
595,499	-1,19
595,696	64,34
595,892	11,09
596,089	-60,59
596,286	-19,63
596,482	-7,34
596,679	9,05
596,876	25,43
597,072	23,38
597,269	-1,19
597,466	-19,63
597,662	15,19
597,859	82,77
598,055	15,19
598,252	-17,58
598,448	88,92
598,645	-31,91
598,841	60,24
599,038	-27,82
599,234	-1,19
599,431	-48,3
599,627	-42,15
599,824	19,29
600,02	15,19
600,217	-3,24
600,413	-76,97
600,609	-13,48
600,806	43,86
601,002	-40,11
601,198	-3,24
601,395	-42,15
601,591	-23,72
601,787	-21,67
601,984	-40,11
602,18	43,86
602,376	-5,29
602,572	-23,72
602,769	23,38
602,965	17,24
603,161	50
603,357	-7,34
603,553	62,29
603,75	-23,72
603,946	-13,48
604,142	-48,3
604,338	-9,39
604,534	-1,19
604,73	25,43
604,926	15,19
605,122	-42,15
605,318	-21,67
605,514	27,48
605,71	-31,91
605,906	39,76
606,102	-5,29
606,298	54,1
606,494	-1,19
606,69	11,09
606,886	23,38
607,082	-29,87
607,278	-46,25
607,474	27,48
607,67	15,19
607,866	-72,87
608,062	-60,59
608,257	15,19
608,453	-9,39
608,649	33,62
608,845	-11,43
609,041	-17,58
609,236	-42,15
609,432	58,2
609,628	-7,34
609,824	7
610,019	0,85
610,215	-3,24
610,411	-23,72
610,606	41,81
610,802	7
610,998	-44,2
611,193	-23,72
611,389	7
611,584	17,24
611,78	37,72
611,976	23,38
612,171	-1,19
612,367	31,57
612,562	-33,96
612,758	19,29
612,953	11,09
613,149	-21,67
613,344	-23,72
613,539	9,05
613,735	-62,63
613,93	7
614,126	50
614,321	11,09
614,517	-17,58
614,712	-1,19
614,907	-42,15
615,103	64,34
615,298	-5,29
615,493	25,43
615,688	-25,77
615,884	37,72
616,079	33,62
616,274	-36,01
616,47	27,48
616,665	-62,63
616,86	23,38
617,055	-17,58
617,25	-23,72
617,445	-29,87
617,641	0,85
617,836	-42,15
618,031	-3,24
618,226	-1,19
618,421	-21,67
618,616	-72,87
618,811	19,29
619,006	9,05
619,201	31,57
619,396	-46,25
619,591	15,19
619,786	-13,48
619,981	-7,34
620,176	31,57
620,371	17,24
620,566	-66,73
620,761	7
620,956	-29,87
621,151	31,57
621,346	-36,01
621,541	0,85
621,735	-33,96
621,93	15,19
622,125	35,67
622,32	-21,67
622,515	-17,58
622,709	19,29
622,904	-38,06
623,099	-58,54
623,294	-29,87
623,488	0,85
623,683	43,86
623,878	11,09
624,072	82,77
624,267	29,52
624,462	-42,15
624,656	15,19
624,851	-46,25
625,046	23,38
625,24	9,05
625,435	-7,34
625,629	-25,77
625,824	7
626,018	39,76
626,213	-31,91
626,407	-29,87
626,602	-19,63
626,796	-7,34
626,991	-11,43
627,185	15,19
627,38	13,14
627,574	-19,63
627,768	-13,48
627,963	33,62
628,157	29,52
628,352	-21,67
628,546	-7,34
628,74	7
628,935	47,96
629,129	-25,77
629,323	41,81
629,517	-23,72
629,712	0,85
629,906	47,96
630,1	25,43
630,294	-9,39
630,489	31,57
630,683	-7,34
630,877	-44,2
631,071	-9,39
631,265	39,76
631,459	-5,29
631,653	72,53
631,848	-52,39
632,042	9,05
632,236	15,19
632,43	-48,3
632,624	33,62
632,818	-40,11
633,012	-76,97
633,206	-17,58
633,4	-15,53
633,594	-3,24
633,788	7
633,982	50
634,176	39,76
634,369	-21,67
634,563	-33,96
634,757	11,09
634,951	58,2
635,145	15,19
635,339	19,29
635,533	-23,72
635,726	50
635,92	9,05
636,114	25,43
636,308	7
636,501	33,62
636,695	54,1
636,889	-31,91
637,083	11,09
637,276	33,62
637,47	-44,2
637,664	-11,43
637,857	-56,49
638,051	64,34
638,244	31,57
638,438	-99,5
638,632	-9,39
638,825	-15,53
639,019	-72,87
639,212	-58,54
639,406	-36,01
639,599	47,96
639,793	31,57
639,986	-58,54
640,18	9,05
640,373	-38,06
640,567	9,05
640,76	15,19
640,954	-68,78
641,147	-1,19
641,34	2,9
641,534	-1,19
641,727	-21,67
641,92	35,67
642,114	0,85
642,307	-36,01
642,5	60,24
642,694	-31,91
642,887	-42,15
643,08	-60,59
643,273	17,24
643,467	50
643,66	0,85
643,853	-56,49
644,046	-36,01
644,239	-50,35
644,432	29,52
644,626	13,14
644,819	-19,63
645,012	117,59
645,205	23,38
645,398	-25,77
645,591	-9,39
645,784	-31,91
645,977	31,57
646,17	25,43
646,363	54,1
646,556	-15,53
646,749	-13,48
646,942	-23,72
647,135	-23,72
647,328	-42,15
647,521	58,2
647,714	4,95
647,907	-19,63
648,099	27,48
648,292	-13,48
648,485	31,57
648,678	-7,34
648,871	-40,11
649,064	17,24
649,256	47,96
649,449	-9,39
649,642	-50,35
649,835	21,33
650,027	-15,53
650,22	27,48
650,413	21,33
650,605	15,19
650,798	-15,53
650,991	-29,87
651,183	-9,39
651,376	-17,58
651,568	13,14
651,761	-23,72
651,954	21,33
652,146	17,24
652,339	-13,48
652,531	15,19
652,724	29,52
652,916	-31,91
653,109	-64,68
653,301	-23,72
653,494	-7,34
653,686	27,48
653,879	0,85
654,071	52,05
654,263	4,95
654,456	-48,3
654,648	19,29
654,84	58,2
655,033	17,24
655,225	-7,34
655,417	9,05
655,61	-17,58
655,802	0,85
655,994	33,62
656,186	-13,48
656,379	-1,19
656,571	39,76
656,763	4,95
656,955	0,85
657,148	56,15
657,34	2,9
657,532	15,19
657,724	33,62
657,916	-66,73
658,108	50
658,3	7
658,492	-9,39
658,684	-11,43
658,876	74,58
659,068	-42,15
659,26	-9,39
659,452	80,72
659,644	-5,29
659,836	25,43
660,028	-1,19
660,22	-33,96
660,412	-11,43
660,604	7
660,796	23,38
660,988	15,19
661,18	-25,77
661,372	9,05
661,563	-74,92
661,755	9,05
661,947	17,24
662,139	23,38
662,331	82,77
662,522	-62,63
662,714	-50,35
662,906	105,3
663,097	29,52
663,289	-29,87
663,481	-3,24
663,673	4,95
663,864	0,85
664,056	50
664,247	-17,58
664,439	7
664,631	-25,77
664,822	-15,53
665,014	-42,15
665,205	31,57
665,397	15,19
665,588	-58,54
665,78	88,92
665,971	-15,53
666,163	23,38
666,354	-1,19
666,546	56,15
666,737	-17,58
666,929	-25,77
667,12	33,62
667,311	-15,53
667,503	2,9
667,694	45,91
667,885	-21,67
668,077	-40,11
668,268	-38,06
668,459	-87,21
668,651	9,05
668,842	-42,15
669,033	-42,15
669,224	13,14
669,416	-19,63
669,607	-15,53
669,798	-76,97
669,989	4,95
670,18	-64,68
670,371	-13,48
670,563	41,81
670,754	-91,31
670,945	9,05
671,136	43,86
671,327	-21,67
671,518	7
671,709	2,9
671,9	7
672,091	2,9
672,282	-27,82
672,473	7
672,664	19,29
672,855	39,76
673,046	25,43
673,237	107,35
673,428	9,05
673,619	-23,72
673,809	62,29
674	35,67
674,191	0,85
674,382	7
674,573	-3,24
674,764	45,91
674,954	15,19
675,145	9,05
675,336	50
675,527	-62,63
675,717	7
675,908	15,19
676,099	35,67
676,289	27,48
676,48	-13,48
676,671	33,62
676,861	13,14
677,052	-40,11
677,243	-5,29
677,433	74,58
677,624	-17,58
677,814	-13,48
678,005	50
678,195	19,29
678,386	-11,43
678,576	35,67
678,767	-38,06
678,957	15,19
679,148	56,15
679,338	-5,29
679,529	-50,35
679,719	58,2
679,909	29,52
680,1	27,48
680,29	74,58
680,481	21,33
680,671	0,85
680,861	-1,19
681,052	47,96
681,242	45,91
681,432	-25,77
681,622	2,9
681,813	60,24
682,003	37,72
682,193	7
682,383	23,38
682,573	-50,35
682,764	31,57
682,954	15,19
683,144	50
683,334	-33,96
683,524	47,96
683,714	-23,72
683,904	-15,53
684,094	-13,48
684,284	62,29
684,474	68,44
684,664	0,85
684,854	13,14
685,044	82,77
685,234	15,19
685,424	19,29
685,614	-1,19
685,804	-38,06
685,994	2,9
686,184	-13,48
686,374	35,67
686,564	-13,48
686,753	35,67
686,943	-9,39
687,133	-42,15
687,323	-1,19
687,513	39,76
687,702	9,05
687,892	-31,91
688,082	-9,39
688,272	31,57
688,461	-7,34
688,651	29,52
688,841	-7,34
689,03	15,19
689,22	-9,39
689,41	31,57
689,599	27,48
689,789	-31,91
689,979	27,48
690,168	7
690,358	-58,54
690,547	-31,91
690,737	-9,39
690,926	-54,44
691,116	-5,29
691,305	29,52
691,495	11,09
691,684	15,19
691,874	21,33
692,063	-33,96
692,252	-46,25
692,442	-42,15
692,631	33,62
692,82	19,29
693,01	-17,58
693,199	-99,5
693,388	-29,87
693,578	11,09
693,767	-7,34
693,956	-25,77
694,146	2,9
694,335	45,91
694,524	-9,39
694,713	-19,63
694,902	-21,67
695,092	15,19
695,281	-46,25
695,47	-66,73
695,659	64,34
695,848	21,33
696,037	72,53
696,226	2,9
696,415	56,15
696,604	13,14
696,793	31,57
696,982	-31,91
697,171	41,81
697,36	-56,49
697,549	-17,58
697,738	9,05
697,927	9,05
698,116	29,52
698,305	-3,24
698,494	-46,25
698,683	-3,24
698,872	25,43
699,061	-7,34
699,25	-15,53
699,438	-21,67
699,627	-13,48
699,816	45,91
700,005	-17,58
700,193	9,05
700,382	7
700,571	-17,58
700,76	15,19
700,948	64,34
701,137	-89,26
701,326	2,9
701,514	-58,54
701,703	-27,82
701,892	50
702,08	-15,53
702,269	15,19
702,457	72,53
702,646	25,43
702,834	-1,19
703,023	2,9
703,212	66,39
703,4	0,85
703,589	13,14
703,777	2,9
703,965	-46,25
704,154	-11,43
704,342	62,29
704,531	-23,72
704,719	50
704,907	27,48
705,096	17,24
705,284	-9,39
705,472	-46,25
705,661	-62,63
705,849	80,72
706,037	-25,77
706,226	9,05
706,414	29,52
706,602	-23,72
706,79	17,24
706,979	15,19
707,167	-15,53
707,355	17,24
707,543	-40,11
707,731	19,29
707,919	-1,19
708,107	-19,63
708,296	17,24
708,484	21,33
708,672	-46,25
708,86	25,43
709,048	11,09
709,236	15,19
709,424	-46,25
709,612	21,33
709,8	-1,19
709,988	-91,31
710,176	-1,19
710,364	-25,77
710,551	-23,72
710,739	-1,19
710,927	-70,83
711,115	-17,58
711,303	-5,29
711,491	-23,72
711,679	25,43
711,866	23,38
712,054	-42,15
712,242	-19,63
712,43	-31,91
712,617	25,43
712,805	-9,39
712,993	-62,63
713,181	-33,96
713,368	-40,11
713,556	-9,39
713,744	-7,34
713,931	-23,72
714,119	82,77
714,306	11,09
714,494	47,96
714,682	-42,15
714,869	2,9
715,057	35,67
715,244	52,05
715,432	27,48
715,619	0,85
715,807	-21,67
715,994	86,87
716,182	-3,24
716,369	2,9
716,556	-15,53
716,744	7
716,931	17,24
717,119	-15,53
717,306	-58,54
717,493	41,81
717,681	7
717,868	-5,29
718,055	-46,25
718,242	-7,34
718,43	-33,96
718,617	33,62
718,804	-15,53
718,991	-23,72
719,179	-70,83
719,366	-48,3
719,553	-9,39
719,74	58,2
719,927	15,19
720,114	41,81
720,301	35,67
720,488	80,72
720,676	-54,44
720,863	-50,35
721,05	35,67
721,237	7
721,424	-38,06
721,611	13,14
721,798	2,9
721,985	99,16
722,172	-38,06
722,358	-5,29
722,545	37,72
722,732	-13,48
722,919	-9,39
723,106	74,58
723,293	-15,53
723,48	-25,77
723,667	-48,3
723,853	70,48
724,04	27,48
724,227	13,14
724,414	-7,34
724,6	4,95
724,787	-48,3
724,974	43,86
725,161	-50,35
725,347	15,19
725,534	-5,29
725,72	39,76
725,907	-21,67
726,094	0,85
726,28	25,43
726,467	29,52
726,653	-31,91
726,84	2,9
727,027	-58,54
727,213	19,29
727,4	58,2
727,586	-62,63
727,773	-31,91
727,959	45,91
728,145	-33,96
728,332	41,81
728,518	0,85
728,705	25,43
728,891	31,57
729,077	-23,72
729,264	15,19
729,45	-38,06
729,636	-17,58
729,823	23,38
730,009	58,2
730,195	-56,49
730,382	-11,43
730,568	9,05
730,754	-42,15
730,94	-5,29
731,126	-13,48
731,313	13,14
731,499	-19,63
731,685	-23,72
731,871	27,48
732,057	31,57
732,243	-48,3
732,429	15,19
732,615	0,85
732,801	-5,29
732,987	21,33
733,173	-44,2
733,359	25,43
733,545	39,76
733,731	31,57
733,917	-107,69
734,103	-58,54
734,289	-13,48
734,475	33,62
734,661	0,85
734,847	11,09
735,033	105,3
735,219	-91,31
735,404	-40,11
735,59	-25,77
735,776	-25,77
735,962	-7,34
736,148	15,19
736,333	-58,54
736,519	31,57
736,705	-17,58
736,89	101,2
737,076	-46,25
737,262	-85,16
737,447	7
737,633	-89,26
737,819	33,62
738,004	11,09
738,19	21,33
738,375	39,76
738,561	62,29
738,747	-7,34
738,932	11,09
739,118	-17,58
739,303	50
739,489	17,24
739,674	-50,35
739,859	21,33
740,045	-40,11
740,23	-23,72
740,416	13,14
740,601	33,62
740,786	-1,19
740,972	39,76
741,157	25,43
741,342	-79,02
741,528	23,38
741,713	-21,67
741,898	-54,44
742,084	-15,53
742,269	-25,77
742,454	19,29
742,639	-44,2
742,824	-31,91
743,01	43,86
743,195	-15,53
743,38	-42,15
743,565	-23,72
743,75	-25,77
743,935	2,9
744,12	60,24
744,305	-27,82
744,49	52,05
744,675	19,29
744,86	-9,39
745,045	-9,39
745,23	41,81
745,415	17,24
745,6	-13,48
745,785	-9,39
745,97	15,19
746,155	56,15
746,34	76,63
746,525	41,81
746,71	33,62
746,895	68,44
747,079	-40,11
747,264	72,53
747,449	58,2
747,634	47,96
747,819	0,85
748,003	23,38
748,188	-21,67
748,373	64,34
748,557	-87,21
748,742	19,29
748,927	62,29
749,111	39,76
749,296	-44,2
749,481	37,72
749,665	-44,2
749,85	17,24
750,034	58,2
750,219	17,24
750,404	-50,35
750,588	21,33
750,773	-13,48
750,957	-7,34
751,141	-58,54
751,326	54,1
751,51	50
751,695	43,86
751,879	-54,44
752,064	0,85
752,248	7
752,432	19,29
752,617	33,62
752,801	-58,54
752,985	-15,53
753,17	60,24
753,354	-42,15
753,538	-13,48
753,722	-9,39
753,907	82,77
754,091	9,05
754,275	-13,48
754,459	76,63
754,643	58,2
754,828	15,19
755,012	7
755,196	-21,67
755,38	15,19
755,564	47,96
755,748	23,38
755,932	7
756,116	47,96
756,3	15,19
756,484	-124,07
756,668	-9,39
756,852	-17,58
757,036	39,76
757,22	41,81
757,404	25,43
757,588	0,85
757,772	-1,19
757,956	-17,58
758,14	7
758,323	-40,11
758,507	-3,24
758,691	27,48
758,875	-31,91
759,059	-70,83
759,242	-13,48
759,426	-25,77
759,61	41,81
759,794	45,91
759,977	23,38
760,161	-17,58
760,345	93,01
760,528	-7,34
760,712	-54,44
760,895	-21,67
761,079	66,39
761,263	13,14
761,446	-33,96
761,63	47,96
761,813	-44,2
761,997	-33,96
762,18	39,76
762,364	31,57
762,547	-17,58
762,731	-40,11
762,914	17,24
763,098	-21,67
763,281	-13,48
763,464	-23,72
763,648	7
763,831	39,76
764,015	-1,19
764,198	25,43
764,381	-25,77
764,564	52,05
764,748	76,63
764,931	56,15
765,114	-9,39
765,297	-54,44
765,481	-89,26
765,664	-7,34
765,847	-1,19
766,03	-17,58
766,213	-48,3
766,397	47,96
766,58	-56,49
766,763	9,05
766,946	23,38
767,129	23,38
767,312	-60,59
767,495	-15,53
767,678	-15,53
767,861	19,29
768,044	13,14
768,227	25,43
768,41	35,67
768,593	-5,29
768,776	7
768,959	-15,53
769,142	-25,77
769,324	21,33
769,507	31,57
769,69	-3,24
769,873	-58,54
770,056	9,05
770,239	64,34
770,421	23,38
770,604	13,14
770,787	-50,35
770,97	19,29
771,152	-31,91
771,335	54,1
771,518	80,72
771,7	-27,82
771,883	-36,01
772,066	-72,87
772,248	-9,39
772,431	31,57
772,613	-31,91
772,796	-40,11
772,978	-9,39
773,161	-9,39
773,343	0,85
773,526	-11,43
773,708	11,09
773,891	23,38
774,073	25,43
774,256	25,43
774,438	43,86
774,621	-1,19
774,803	119,64
774,985	27,48
775,168	-72,87
775,35	-29,87
775,532	31,57
775,715	-95,4
775,897	7
776,079	25,43
776,261	-9,39
776,444	-58,54
776,626	-13,48
776,808	-60,59
776,99	58,2
777,173	-5,29
777,355	41,81
777,537	41,81
777,719	17,24
777,901	7
778,083	-29,87
778,265	2,9
778,447	-1,19
778,629	-31,91
778,811	72,53
778,993	64,34
779,175	-38,06
779,357	-7,34
779,539	19,29
779,721	2,9
779,903	-15,53
780,085	33,62
780,267	-5,29
780,449	-13,48
780,631	19,29
780,812	25,43
780,994	17,24
781,176	-5,29
781,358	39,76
781,54	50
781,721	68,44
781,903	23,38
782,085	-42,15
782,267	19,29
782,448	-21,67
782,63	-9,39
782,812	9,05
782,993	25,43
783,175	31,57
783,357	-17,58
783,538	-42,15
783,72	-31,91
783,901	80,72
784,083	4,95
784,264	-7,34
784,446	56,15
784,627	21,33
784,809	11,09
784,99	29,52
785,172	-31,91
785,353	35,67
785,535	-5,29
785,716	25,43
785,897	56,15
786,079	80,72
786,26	-56,49
786,441	52,05
786,623	-15,53
786,804	2,9
786,985	0,85
787,167	17,24
787,348	-25,77
787,529	-1,19
787,71	-15,53
787,891	7
788,073	21,33
788,254	64,34
788,435	23,38
788,616	21,33
788,797	0,85
788,978	-58,54
789,159	-13,48
789,34	13,14
789,522	-56,49
789,703	-31,91
789,884	-17,58
790,065	-13,48
790,246	27,48
790,427	7
790,607	-13,48
790,788	-1,19
790,969	23,38
791,15	0,85
791,331	72,53
791,512	43,86
791,693	-64,68
791,874	47,96
792,054	58,2
792,235	15,19
792,416	11,09
792,597	15,19
792,778	-38,06
792,958	11,09
793,139	-33,96
793,32	-1,19
793,5	15,19
793,681	41,81
793,862	15,19
794,042	-29,87
794,223	-7,34
794,404	-64,68
794,584	-81,07
794,765	43,86
794,945	41,81
795,126	13,14
795,306	50
795,487	99,16
795,667	60,24
795,848	15,19
796,028	41,81
796,209	27,48
796,389	103,25
796,57	7
796,75	2,9
796,93	50
797,111	-44,2
797,291	33,62
797,471	-9,39
797,652	7
797,832	-7,34
798,012	-17,58
798,192	-40,11
798,373	-40,11
798,553	0,85
798,733	72,53
798,913	-15,53
799,093	17,24
799,274	9,05
799,454	11,09
799,634	47,96
799,814	-7,34
799,994	7
800,174	-40,11
800,354	-50,35
800,534	-27,82
800,714	45,91
800,894	-87,21
801,074	29,52
801,254	62,29
801,434	-79,02
801,614	11,09
801,794	-1,19
801,974	7
802,154	-15,53
802,334	15,19
802,514	-33,96
802,693	74,58
802,873	68,44
803,053	-17,58
803,233	-44,2
803,413	17,24
803,592	-15,53
803,772	-38,06
803,952	19,29
804,131	9,05
804,311	13,14
804,491	72,53
804,67	39,76
804,85	-66,73
805,03	0,85
805,209	33,62
805,389	-19,63
805,568	13,14
805,748	13,14
805,928	-33,96
806,107	41,81
806,287	-25,77
806,466	-3,24
806,646	-19,63
806,825	-1,19
807,004	23,38
807,184	33,62
807,363	-56,49
807,543	41,81
807,722	9,05
807,901	-25,77
808,081	-42,15
808,26	-1,19
808,439	-1,19
808,619	72,53
808,798	60,24
808,977	-7,34
809,156	-17,58
809,336	60,24
809,515	-50,35
809,694	29,52
809,873	15,19
810,052	-27,82
810,231	35,67
810,411	-33,96
810,59	45,91
810,769	0,85
810,948	47,96
811,127	13,14
811,306	-33,96
811,485	19,29
811,664	-13,48
811,843	-15,53
812,022	15,19
812,201	15,19
812,38	25,43
812,559	-17,58
812,737	-13,48
812,916	64,34
813,095	-5,29
813,274	-95,4
813,453	27,48
813,632	0,85
813,811	23,38
813,989	23,38
814,168	74,58
814,347	-70,83
814,526	-50,35
814,704	-19,63
814,883	0,85
815,062	-9,39
815,24	-7,34
815,419	-48,3
815,598	-48,3
815,776	-33,96
815,955	15,19
816,133	27,48
816,312	-7,34
816,49	-60,59
816,669	64,34
816,847	-17,58
817,026	-23,72
817,204	0,85
817,383	0,85
817,561	7
817,74	-21,67
817,918	2,9
818,097	80,72
818,275	33,62
818,453	13,14
818,632	0,85
818,81	23,38
818,988	-1,19
819,167	-87,21
819,345	50
819,523	-31,91
819,701	-17,58
819,879	-9,39
820,058	-13,48
820,236	-70,83
820,414	15,19
820,592	52,05
820,77	0,85
820,948	50
821,127	21,33
821,305	17,24
821,483	-21,67
821,661	17,24
821,839	101,2
822,017	19,29
822,195	45,91
822,373	54,1
822,551	-1,19
822,729	19,29
822,907	-23,72
823,085	47,96
823,262	-42,15
823,44	-38,06
823,618	-19,63
823,796	15,19
823,974	-42,15
824,152	13,14
824,329	-17,58
824,507	-3,24
824,685	-21,67
824,863	-72,87
825,04	50
825,218	-44,2
825,396	-15,53
825,574	56,15
825,751	-1,19
825,929	4,95
826,107	-25,77
826,284	23,38
826,462	43,86
826,639	2,9
826,817	62,29
826,994	23,38
827,172	41,81
827,349	45,91
827,527	33,62
827,704	47,96
827,882	-17,58
828,059	66,39
828,237	-13,48
828,414	99,16
828,591	-11,43
828,769	31,57
828,946	47,96
829,124	7
829,301	-60,59
829,478	47,96
829,655	33,62
829,833	50
830,01	-42,15
830,187	0,85
830,364	-31,91
830,542	19,29
830,719	50
830,896	56,15
831,073	-29,87
831,25	-60,59
831,427	33,62
831,604	39,76
831,782	11,09
831,959	-25,77
832,136	-54,44
832,313	33,62
832,49	31,57
832,667	-21,67
832,844	35,67
833,021	0,85
833,198	-23,72
833,374	13,14
833,551	97,11
833,728	-29,87
833,905	23,38
834,082	31,57
834,259	-15,53
834,436	33,62
834,612	-46,25
834,789	37,72
834,966	-15,53
835,143	15,19
835,319	11,09
835,496	50
835,673	31,57
835,85	29,52
836,026	37,72
836,203	-21,67
836,38	21,33
836,556	52,05
836,733	-11,43
836,909	-27,82
837,086	9,05
837,262	-40,11
837,439	45,91
837,616	-1,19
837,792	-36,01
837,968	41,81
838,145	-23,72
838,321	33,62
838,498	-56,49
838,674	2,9
838,851	-33,96
839,027	-17,58
839,203	-29,87
839,38	15,19
839,556	43,86
839,732	52,05
839,909	27,48
840,085	64,34
840,261	-66,73
840,437	-31,91
840,614	41,81
840,79	7
840,966	-1,19
841,142	21,33
841,318	25,43
841,494	-79,02
841,671	-70,83
841,847	-7,34
842,023	-23,72
842,199	17,24
842,375	0,85
842,551	66,39
842,727	-52,39
842,903	-50,35
843,079	-9,39
843,255	58,2
843,431	-99,5
843,607	-23,72
843,783	47,96
843,959	23,38
844,134	56,15
844,31	-19,63
844,486	15,19
844,662	33,62
844,838	-7,34
845,013	23,38
845,189	15,19
845,365	66,39
845,541	-11,43
845,716	-81,07
845,892	31,57
846,068	-7,34
846,244	0,85
846,419	29,52
846,595	-5,29
846,77	15,19
846,946	-33,96
847,122	-54,44
847,297	-5,29
847,473	-9,39
847,648	68,44
847,824	-7,34
847,999	-62,63
848,175	39,76
848,35	54,1
848,526	-5,29
848,701	17,24
848,876	21,33
849,052	52,05
849,227	70,48
849,403	-7,34
849,578	7
849,753	4,95
849,929	31,57
850,104	-23,72
850,279	88,92
850,454	56,15
850,63	2,9
850,805	35,67
850,98	15,19
851,155	-9,39
851,33	62,29
851,505	2,9
851,681	72,53
851,856	-70,83
852,031	31,57
852,206	0,85
852,381	17,24
852,556	0,85
852,731	27,48
852,906	31,57
853,081	-13,48
853,256	-70,83
853,431	72,53
853,606	-15,53
853,781	-44,2
853,956	-21,67
854,131	-56,49
854,305	11,09
854,48	-17,58
854,655	41,81
854,83	37,72
855,005	-21,67
855,18	37,72
855,354	0,85
855,529	23,38
855,704	29,52
855,879	31,57
856,053	-5,29
856,228	31,57
856,403	21,33
856,577	-7,34
856,752	-5,29
856,926	-31,91
857,101	13,14
857,276	-56,49
857,45	-38,06
857,625	-25,77
857,799	25,43
857,974	64,34
858,148	-54,44
858,323	33,62
858,497	23,38
858,672	45,91
858,846	-74,92
859,02	39,76
859,195	43,86
859,369	-25,77
859,543	62,29
859,718	7
859,892	-44,2
860,066	58,2
860,241	-9,39
860,415	47,96
860,589	2,9
860,763	-5,29
860,938	-62,63
861,112	-7,34
861,286	-1,19
861,46	-17,58
861,634	-33,96
861,808	27,48
861,982	-40,11
862,157	-33,96
862,331	19,29
862,505	47,96
862,679	13,14
862,853	9,05
863,027	-9,39
863,201	39,76
863,375	-5,29
863,549	-15,53
863,722	13,14
863,896	-13,48
864,07	-52,39
864,244	17,24
864,418	-33,96
864,592	-7,34
864,766	-15,53
864,939	27,48
865,113	-25,77
865,287	43,86
865,461	-1,19
865,634	47,96
865,808	50
865,982	-21,67
866,156	11,09
866,329	50
866,503	-52,39
866,676	121,68
866,85	15,19
867,024	43,86
867,197	-13,48
867,371	-1,19
867,544	15,19
867,718	88,92
867,891	25,43
868,065	-11,43
868,238	-9,39
868,412	-5,29
868,585	25,43
868,759	17,24
868,932	25,43
869,105	-23,72
869,279	19,29
869,452	-31,91
869,625	-1,19
869,799	-33,96
869,972	72,53
870,145	-27,82
870,319	-54,44
870,492	-27,82
870,665	25,43
870,838	-21,67
871,011	29,52
871,185	-29,87
871,358	19,29
871,531	-31,91
871,704	-21,67
871,877	31,57
872,05	19,29
872,223	27,48
872,396	-11,43
872,569	25,43
872,742	35,67
872,915	31,57
873,088	-48,3
873,261	-15,53
873,434	-60,59
873,607	13,14
873,78	2,9
873,953	15,19
874,126	9,05
874,299	47,96
874,471	47,96
874,644	4,95
874,817	-25,77
874,99	41,81
875,163	-19,63
875,335	-5,29
875,508	33,62
875,681	-31,91
875,853	-76,97
876,026	27,48
876,199	-36,01
876,371	37,72
876,544	23,38
876,717	-27,82
876,889	-33,96
877,062	7
877,234	-29,87
877,407	-7,34
877,579	31,57
877,752	-23,72
877,924	9,05
878,097	33,62
878,269	27,48
878,442	27,48
878,614	-87,21
878,786	47,96
878,959	-33,96
879,131	4,95
879,303	-5,29
879,476	-62,63
879,648	31,57
879,82	7
879,993	9,05
880,165	0,85
880,337	52,05
880,509	-5,29
880,681	-1,19
880,854	54,1
881,026	-44,2
881,198	7
881,37	15,19
881,542	-9,39
881,714	33,62
881,886	31,57
882,058	33,62
882,23	-5,29
882,402	-17,58
882,574	25,43
882,746	35,67
882,918	-9,39
883,09	72,53
883,262	33,62
883,434	-7,34
883,606	-3,24
883,778	17,24
883,95	50
884,122	-29,87
884,293	50
884,465	39,76
884,637	9,05
884,809	-25,77
884,98	129,88
885,152	-72,87
885,324	-33,96
885,496	-46,25
885,667	-29,87
885,839	31,57
886,011	27,48
886,182	-1,19
886,354	80,72
886,525	-21,67
886,697	-23,72
886,869	7
887,04	-17,58
887,212	54,1
887,383	50
887,555	50
887,726	33,62
887,897	-29,87
888,069	29,52
888,24	39,76
888,412	-1,19
888,583	-36,01
888,754	23,38
888,926	-46,25
889,097	39,76
889,268	-42,15
889,44	52,05
889,611	-1,19
889,782	17,24
889,953	-9,39
890,125	-31,91
890,296	-62,63
890,467	23,38
890,638	23,38
890,809	27,48
890,98	4,95
891,151	-21,67
891,323	25,43
891,494	33,62
891,665	15,19
891,836	-1,19
892,007	-1,19
892,178	68,44
892,349	-17,58
892,52	37,72
892,691	-5,29
892,862	43,86
893,032	23,38
893,203	9,05
893,374	-29,87
893,545	76,63
893,716	11,09
893,887	17,24
894,057	11,09
894,228	35,67
894,399	-68,78
894,57	2,9
894,74	43,86
894,911	54,1
895,082	9,05
895,253	27,48
895,423	-19,63
895,594	-7,34
895,764	84,82
895,935	47,96
896,106	39,76
896,276	13,14
896,447	-23,72
896,617	80,72
896,788	-48,3
896,958	-7,34
897,129	-13,48
897,299	-1,19
897,47	-3,24
897,64	-21,67
897,81	7
897,981	-64,68
898,151	-85,16
898,322	-72,87
898,492	-42,15
898,662	-42,15
898,832	-38,06
899,003	2,9
899,173	21,33
899,343	-66,73
899,513	-79,02
