Data from filtre 532_USB4F104151__1__11-57-42-312.txt Node

Date: Wed Apr 15 11:57:42 EDT 2026
User: LaboPhy
Spectrometer: USB4F10415
Trigger mode: 4
Integration Time (sec): 3,000000E-3
Scans to average: 1
Electric dark correction enabled: true
Nonlinearity correction enabled: false
Boxcar width: 0
XAxis mode: Wavelengths
Number of Pixels in Spectrum: 3648
>>>>>Begin Spectral Data<<<<<
178,204	43,52
178,424	43,52
178,644	43,52
178,864	-67,07
179,084	29,18
179,304	25,09
179,524	31,23
179,744	25,09
179,964	45,57
180,184	-19,97
180,404	4,61
180,624	-28,16
180,844	-44,54
181,064	-26,11
181,283	53,76
181,503	-95,74
181,723	29,18
181,943	92,67
182,163	4,61
182,383	-36,35
182,602	-19,97
182,822	104,96
183,042	43,52
183,262	37,38
183,482	72,19
183,701	20,99
183,921	-15,87
184,141	10,75
184,361	-22,02
184,58	8,7
184,8	66,05
185,02	-36,35
185,239	33,28
185,459	51,71
185,679	35,33
185,898	29,18
186,118	-22,02
186,338	-62,98
186,557	111,1
186,777	37,38
186,997	78,33
187,216	20,99
187,436	37,38
187,655	-17,92
187,875	31,23
188,095	61,95
188,314	-73,21
188,534	-3,58
188,753	55,81
188,973	-26,11
189,192	-32,26
189,412	2,56
189,631	76,29
189,851	-5,63
190,07	55,81
190,29	-44,54
190,509	8,7
190,729	6,66
190,948	49,66
191,168	14,85
191,387	45,57
191,607	-73,21
191,826	6,66
192,045	35,33
192,265	35,33
192,484	-1,54
192,704	-65,02
192,923	37,38
193,142	0,51
193,362	14,85
193,581	45,57
193,8	35,33
194,02	37,38
194,239	45,57
194,458	-28,16
194,678	-32,26
194,897	-11,78
195,116	4,61
195,335	33,28
195,555	39,42
195,774	96,77
195,993	35,33
196,212	59,9
196,432	10,75
196,651	-28,16
196,87	-38,4
197,089	-1,54
197,308	14,85
197,528	14,85
197,747	35,33
197,966	37,38
198,185	-46,59
198,404	6,66
198,623	-5,63
198,842	-7,68
199,062	-42,5
199,281	41,47
199,5	-69,12
199,719	4,61
199,938	-9,73
200,157	55,81
200,376	41,47
200,595	94,72
200,814	12,8
201,033	29,18
201,252	6,66
201,471	-28,16
201,69	27,14
201,909	31,23
202,128	16,9
202,347	33,28
202,566	-19,97
202,785	35,33
203,004	12,8
203,223	4,61
203,442	82,43
203,661	29,18
203,879	-32,26
204,098	25,09
204,317	-36,35
204,536	20,99
204,755	-28,16
204,974	-17,92
205,193	35,33
205,411	6,66
205,63	-22,02
205,849	20,99
206,068	23,04
206,287	49,66
206,505	16,9
206,724	-22,02
206,943	49,66
207,162	70,14
207,381	-15,87
207,599	31,23
207,818	27,14
208,037	74,24
208,255	4,61
208,474	88,57
208,693	6,66
208,911	-52,74
209,13	39,42
209,349	31,23
209,567	35,33
209,786	53,76
210,005	8,7
210,223	12,8
210,442	8,7
210,661	-5,63
210,879	-30,21
211,098	-17,92
211,316	66,05
211,535	51,71
211,753	33,28
211,972	-3,58
212,191	-19,97
212,409	4,61
212,628	45,57
212,846	-9,73
213,065	-11,78
213,283	-28,16
213,502	45,57
213,72	35,33
213,938	-30,21
214,157	72,19
214,375	4,61
214,594	41,47
214,812	-3,58
215,031	-15,87
215,249	23,04
215,467	8,7
215,686	-11,78
215,904	27,14
216,122	2,56
216,341	20,99
216,559	-28,16
216,778	33,28
216,996	27,14
217,214	35,33
217,432	66,05
217,651	23,04
217,869	18,94
218,087	150,01
218,306	39,42
218,524	35,33
218,742	-7,68
218,96	-13,82
219,179	-40,45
219,397	39,42
219,615	113,15
219,833	29,18
220,051	-9,73
220,27	6,66
220,488	-46,59
220,706	45,57
220,924	94,72
221,142	80,38
221,36	12,8
221,578	29,18
221,796	-22,02
222,015	-1,54
222,233	43,52
222,451	-44,54
222,669	49,66
222,887	33,28
223,105	-1,54
223,323	31,23
223,541	23,04
223,759	14,85
223,977	35,33
224,195	-26,11
224,413	23,04
224,631	6,66
224,849	-7,68
225,067	111,1
225,285	-28,16
225,503	-24,06
225,721	-26,11
225,939	70,14
226,157	-3,58
226,375	59,9
226,592	-13,82
226,81	25,09
227,028	51,71
227,246	6,66
227,464	-105,98
227,682	53,76
227,9	-34,3
228,117	37,38
228,335	98,81
228,553	45,57
228,771	25,09
228,989	92,67
229,206	27,14
229,424	72,19
229,642	-28,16
229,86	68,09
230,077	64
230,295	-5,63
230,513	-19,97
230,731	61,95
230,948	55,81
231,166	70,14
231,384	49,66
231,601	-32,26
231,819	31,23
232,037	55,81
232,254	27,14
232,472	-15,87
232,689	23,04
232,907	2,56
233,125	-5,63
233,342	12,8
233,56	8,7
233,777	-34,3
233,995	29,18
234,213	53,76
234,43	14,85
234,648	37,38
234,865	23,04
235,083	49,66
235,3	115,2
235,518	49,66
235,735	-1,54
235,953	29,18
236,17	-15,87
236,388	31,23
236,605	35,33
236,822	-19,97
237,04	10,75
237,257	74,24
237,475	80,38
237,692	45,57
237,909	-54,78
238,127	20,99
238,344	-3,58
238,562	33,28
238,779	39,42
238,996	12,8
239,214	12,8
239,431	-38,4
239,648	-42,5
239,865	23,04
240,083	-9,73
240,3	18,94
240,517	43,52
240,735	39,42
240,952	-89,6
241,169	61,95
241,386	0,51
241,603	51,71
241,821	16,9
242,038	92,67
242,255	2,56
242,472	29,18
242,689	-44,54
242,907	-9,73
243,124	-11,78
243,341	-36,35
243,558	-3,58
243,775	12,8
243,992	-38,4
244,209	78,33
244,426	-13,82
244,643	-1,54
244,86	-15,87
245,078	55,81
245,295	-15,87
245,512	84,48
245,729	20,99
245,946	23,04
246,163	-36,35
246,38	90,62
246,597	33,28
246,814	72,19
247,031	86,53
247,248	37,38
247,464	-19,97
247,681	-9,73
247,898	39,42
248,115	53,76
248,332	-44,54
248,549	-34,3
248,766	-22,02
248,983	74,24
249,2	-19,97
249,417	137,73
249,633	-11,78
249,85	4,61
250,067	-36,35
250,284	88,57
250,501	-3,58
250,717	23,04
250,934	-5,63
251,151	29,18
251,368	8,7
251,585	12,8
251,801	55,81
252,018	16,9
252,235	70,14
252,451	12,8
252,668	45,57
252,885	8,7
253,102	4,61
253,318	41,47
253,535	57,86
253,752	20,99
253,968	72,19
254,185	18,94
254,401	35,33
254,618	12,8
254,835	-9,73
255,051	23,04
255,268	12,8
255,484	33,28
255,701	37,38
255,917	2,56
256,134	-38,4
256,351	61,95
256,567	78,33
256,784	39,42
257	-3,58
257,217	55,81
257,433	4,61
257,65	23,04
257,866	39,42
258,082	55,81
258,299	-46,59
258,515	61,95
258,732	-3,58
258,948	76,29
259,165	-65,02
259,381	-7,68
259,597	-40,45
259,814	0,51
260,03	-11,78
260,246	29,18
260,463	43,52
260,679	119,29
260,895	41,47
261,112	-7,68
261,328	70,14
261,544	53,76
261,761	66,05
261,977	41,47
262,193	33,28
262,409	94,72
262,626	8,7
262,842	47,62
263,058	-13,82
263,274	37,38
263,49	80,38
263,707	39,42
263,923	-11,78
264,139	14,85
264,355	57,86
264,571	111,1
264,787	39,42
265,004	55,81
265,22	37,38
265,436	78,33
265,652	-5,63
265,868	45,57
266,084	72,19
266,3	12,8
266,516	61,95
266,732	33,28
266,948	70,14
267,164	14,85
267,38	23,04
267,596	-52,74
267,812	-3,58
268,028	74,24
268,244	-9,73
268,46	94,72
268,676	10,75
268,892	14,85
269,108	-13,82
269,324	29,18
269,54	14,85
269,756	76,29
269,972	55,81
270,188	-3,58
270,403	18,94
270,619	14,85
270,835	20,99
271,051	4,61
271,267	-60,93
271,483	4,61
271,698	16,9
271,914	55,81
272,13	72,19
272,346	45,57
272,562	-42,5
272,777	53,76
272,993	59,9
273,209	39,42
273,425	-24,06
273,64	16,9
273,856	80,38
274,072	-1,54
274,287	37,38
274,503	66,05
274,719	43,52
274,934	100,86
275,15	74,24
275,366	141,82
275,581	43,52
275,797	12,8
276,012	-13,82
276,228	0,51
276,444	33,28
276,659	10,75
276,875	-85,5
277,09	31,23
277,306	53,76
277,521	0,51
277,737	-46,59
277,952	-17,92
278,168	25,09
278,383	-11,78
278,599	-44,54
278,814	31,23
279,03	90,62
279,245	33,28
279,461	37,38
279,676	59,9
279,892	20,99
280,107	-13,82
280,322	29,18
280,538	94,72
280,753	-19,97
280,969	12,8
281,184	29,18
281,399	31,23
281,615	61,95
281,83	4,61
282,045	-13,82
282,26	37,38
282,476	4,61
282,691	4,61
282,906	53,76
283,122	98,81
283,337	31,23
283,552	41,47
283,767	74,24
283,983	29,18
284,198	53,76
284,413	29,18
284,628	55,81
284,843	37,38
285,058	66,05
285,274	-30,21
285,489	-32,26
285,704	88,57
285,919	10,75
286,134	0,51
286,349	29,18
286,564	0,51
286,779	-67,07
286,995	-17,92
287,21	16,9
287,425	25,09
287,64	-19,97
287,855	14,85
288,07	0,51
288,285	72,19
288,5	14,85
288,715	-44,54
288,93	16,9
289,145	6,66
289,36	-65,02
289,575	31,23
289,79	14,85
290,004	0,51
290,219	-13,82
290,434	-50,69
290,649	96,77
290,864	18,94
291,079	-11,78
291,294	43,52
291,509	29,18
291,724	27,14
291,938	-5,63
292,153	33,28
292,368	-24,06
292,583	-44,54
292,798	8,7
293,012	53,76
293,227	6,66
293,442	-30,21
293,657	-3,58
293,871	33,28
294,086	43,52
294,301	-7,68
294,516	12,8
294,73	41,47
294,945	8,7
295,16	-1,54
295,374	0,51
295,589	-34,3
295,804	20,99
296,018	74,24
296,233	20,99
296,447	72,19
296,662	-24,06
296,877	-58,88
297,091	-40,45
297,306	55,81
297,52	-15,87
297,735	-34,3
297,949	-48,64
298,164	20,99
298,378	-11,78
298,593	6,66
298,807	31,23
299,022	41,47
299,236	-32,26
299,451	41,47
299,665	31,23
299,88	-9,73
300,094	33,28
300,309	31,23
300,523	-11,78
300,737	16,9
300,952	31,23
301,166	64
301,381	61,95
301,595	-11,78
301,809	29,18
302,024	59,9
302,238	31,23
302,452	-1,54
302,667	4,61
302,881	74,24
303,095	53,76
303,309	37,38
303,524	51,71
303,738	-11,78
303,952	-44,54
304,166	20,99
304,381	18,94
304,595	0,51
304,809	64
305,023	64
305,237	-9,73
305,452	43,52
305,666	-26,11
305,88	43,52
306,094	20,99
306,308	6,66
306,522	10,75
306,736	18,94
306,95	131,58
307,164	8,7
307,379	-48,64
307,593	64
307,807	-28,16
308,021	-9,73
308,235	14,85
308,449	37,38
308,663	-24,06
308,877	80,38
309,091	37,38
309,305	16,9
309,519	20,99
309,733	-36,35
309,947	57,86
310,161	-1,54
310,374	-15,87
310,588	-1,54
310,802	-1,54
311,016	6,66
311,23	49,66
311,444	-26,11
311,658	-3,58
311,872	72,19
312,085	45,57
312,299	20,99
312,513	-15,87
312,727	39,42
312,941	-3,58
313,154	35,33
313,368	37,38
313,582	82,43
313,796	0,51
314,009	18,94
314,223	29,18
314,437	-15,87
314,651	2,56
314,864	39,42
315,078	66,05
315,292	10,75
315,505	20,99
315,719	20,99
315,933	-50,69
316,146	35,33
316,36	-44,54
316,573	10,75
316,787	-1,54
317,001	20,99
317,214	-22,02
317,428	33,28
317,641	-1,54
317,855	129,53
318,068	-11,78
318,282	31,23
318,495	-5,63
318,709	80,38
318,922	4,61
319,136	0,51
319,349	37,38
319,563	-19,97
319,776	-17,92
319,99	45,57
320,203	66,05
320,417	45,57
320,63	-30,21
320,843	45,57
321,057	0,51
321,27	16,9
321,483	14,85
321,697	-7,68
321,91	10,75
322,124	-1,54
322,337	23,04
322,55	37,38
322,763	39,42
322,977	16,9
323,19	-75,26
323,403	-32,26
323,617	45,57
323,83	86,53
324,043	-28,16
324,256	-5,63
324,469	25,09
324,683	-32,26
324,896	66,05
325,109	98,81
325,322	2,56
325,535	39,42
325,748	4,61
325,962	-38,4
326,175	39,42
326,388	23,04
326,601	-38,4
326,814	31,23
327,027	-26,11
327,24	4,61
327,453	10,75
327,666	39,42
327,879	35,33
328,092	-1,54
328,305	102,91
328,518	35,33
328,731	12,8
328,944	29,18
329,157	-11,78
329,37	-9,73
329,583	53,76
329,796	-3,58
330,009	-36,35
330,222	47,62
330,435	-9,73
330,648	0,51
330,861	31,23
331,073	107,01
331,286	8,7
331,499	29,18
331,712	-9,73
331,925	-15,87
332,138	37,38
332,35	25,09
332,563	23,04
332,776	37,38
332,989	-34,3
333,202	-19,97
333,414	18,94
333,627	-22,02
333,84	-1,54
334,053	0,51
334,265	37,38
334,478	2,56
334,691	51,71
334,903	6,66
335,116	45,57
335,329	76,29
335,541	10,75
335,754	43,52
335,966	66,05
336,179	-7,68
336,392	45,57
336,604	4,61
336,817	-40,45
337,029	53,76
337,242	43,52
337,454	61,95
337,667	-3,58
337,88	4,61
338,092	98,81
338,305	0,51
338,517	74,24
338,729	88,57
338,942	-17,92
339,154	-24,06
339,367	-22,02
339,579	82,43
339,792	84,48
340,004	129,53
340,217	45,57
340,429	33,28
340,641	45,57
340,854	-22,02
341,066	-28,16
341,278	-19,97
341,491	35,33
341,703	57,86
341,915	-97,79
342,128	23,04
342,34	29,18
342,552	33,28
342,764	12,8
342,977	37,38
343,189	31,23
343,401	-3,58
343,613	10,75
343,826	98,81
344,038	-3,58
344,25	29,18
344,462	12,8
344,674	-7,68
344,886	55,81
345,099	31,23
345,311	-36,35
345,523	78,33
345,735	-15,87
345,947	8,7
346,159	-9,73
346,371	2,56
346,583	86,53
346,795	53,76
347,007	-24,06
347,219	51,71
347,431	23,04
347,643	12,8
347,855	47,62
348,067	37,38
348,279	-32,26
348,491	23,04
348,703	-17,92
348,915	-19,97
349,127	12,8
349,339	-38,4
349,551	-3,58
349,763	35,33
349,975	-22,02
350,187	102,91
350,399	-56,83
350,61	-19,97
350,822	-7,68
351,034	29,18
351,246	33,28
351,458	27,14
351,669	6,66
351,881	14,85
352,093	2,56
352,305	20,99
352,517	31,23
352,728	55,81
352,94	20,99
353,152	96,77
353,363	20,99
353,575	-58,88
353,787	72,19
353,999	102,91
354,21	-5,63
354,422	29,18
354,633	49,66
354,845	119,29
355,057	31,23
355,268	6,66
355,48	49,66
355,692	55,81
355,903	27,14
356,115	107,01
356,326	37,38
356,538	49,66
356,749	18,94
356,961	53,76
357,172	10,75
357,384	-22,02
357,595	-11,78
357,807	-19,97
358,018	23,04
358,23	78,33
358,441	37,38
358,653	-7,68
358,864	47,62
359,075	-9,73
359,287	4,61
359,498	43,52
359,709	-9,73
359,921	53,76
360,132	-44,54
360,344	27,14
360,555	86,53
360,766	76,29
360,977	-36,35
361,189	88,57
361,4	12,8
361,611	55,81
361,823	20,99
362,034	47,62
362,245	-19,97
362,456	4,61
362,667	27,14
362,879	0,51
363,09	-19,97
363,301	39,42
363,512	0,51
363,723	12,8
363,935	70,14
364,146	33,28
364,357	-28,16
364,568	-3,58
364,779	27,14
364,99	-7,68
365,201	-3,58
365,412	64
365,623	-5,63
365,834	-22,02
366,045	20,99
366,256	39,42
366,467	14,85
366,678	2,56
366,889	14,85
367,1	6,66
367,311	20,99
367,522	-36,35
367,733	129,53
367,944	6,66
368,155	-26,11
368,366	16,9
368,577	-42,5
368,788	72,19
368,999	14,85
369,209	45,57
369,42	39,42
369,631	12,8
369,842	39,42
370,053	41,47
370,264	86,53
370,474	-15,87
370,685	-26,11
370,896	-24,06
371,107	29,18
371,317	-11,78
371,528	8,7
371,739	61,95
371,95	70,14
372,16	53,76
372,371	-15,87
372,582	-58,88
372,792	29,18
373,003	12,8
373,214	37,38
373,424	82,43
373,635	-9,73
373,846	45,57
374,056	-19,97
374,267	-30,21
374,477	-3,58
374,688	-81,41
374,898	-17,92
375,109	43,52
375,319	12,8
375,53	66,05
375,74	14,85
375,951	72,19
376,161	-19,97
376,372	82,43
376,582	-67,07
376,793	20,99
377,003	29,18
377,214	39,42
377,424	-1,54
377,635	43,52
377,845	4,61
378,055	4,61
378,266	49,66
378,476	23,04
378,686	53,76
378,897	-9,73
379,107	14,85
379,317	41,47
379,528	78,33
379,738	-15,87
379,948	-50,69
380,158	12,8
380,369	23,04
380,579	23,04
380,789	-36,35
380,999	35,33
381,21	-24,06
381,42	-34,3
381,63	33,28
381,84	53,76
382,05	-34,3
382,261	47,62
382,471	-9,73
382,681	16,9
382,891	4,61
383,101	-11,78
383,311	-32,26
383,521	100,86
383,731	-13,82
383,941	-26,11
384,151	-1,54
384,361	16,9
384,571	29,18
384,781	43,52
384,991	14,85
385,201	-44,54
385,411	23,04
385,621	6,66
385,831	64
386,041	70,14
386,251	2,56
386,461	72,19
386,671	35,33
386,881	-26,11
387,091	25,09
387,301	-3,58
387,511	25,09
387,72	20,99
387,93	70,14
388,14	-32,26
388,35	27,14
388,56	-15,87
388,769	61,95
388,979	66,05
389,189	12,8
389,399	29,18
389,609	14,85
389,818	14,85
390,028	12,8
390,238	37,38
390,447	-17,92
390,657	20,99
390,867	0,51
391,076	25,09
391,286	29,18
391,496	78,33
391,705	-26,11
391,915	47,62
392,125	47,62
392,334	-11,78
392,544	-5,63
392,753	0,51
392,963	39,42
393,172	45,57
393,382	4,61
393,591	78,33
393,801	78,33
394,01	59,9
394,22	-9,73
394,429	20,99
394,639	35,33
394,848	-42,5
395,058	45,57
395,267	20,99
395,477	45,57
395,686	-15,87
395,895	61,95
396,105	74,24
396,314	-19,97
396,524	66,05
396,733	-3,58
396,942	37,38
397,152	12,8
397,361	-26,11
397,57	23,04
397,78	31,23
397,989	-3,58
398,198	-19,97
398,407	-40,45
398,617	35,33
398,826	61,95
399,035	-5,63
399,244	10,75
399,453	20,99
399,663	20,99
399,872	-50,69
400,081	10,75
400,29	49,66
400,499	-32,26
400,708	-11,78
400,917	0,51
401,127	33,28
401,336	57,86
401,545	-11,78
401,754	39,42
401,963	55,81
402,172	-19,97
402,381	-15,87
402,59	-75,26
402,799	98,81
403,008	14,85
403,217	37,38
403,426	-24,06
403,635	72,19
403,844	4,61
404,053	47,62
404,262	49,66
404,471	94,72
404,68	-34,3
404,888	4,61
405,097	0,51
405,306	53,76
405,515	45,57
405,724	20,99
405,933	12,8
406,142	-26,11
406,35	37,38
406,559	96,77
406,768	33,28
406,977	41,47
407,185	4,61
407,394	74,24
407,603	-19,97
407,812	41,47
408,02	41,47
408,229	-11,78
408,438	-7,68
408,646	14,85
408,855	12,8
409,064	4,61
409,272	-36,35
409,481	55,81
409,69	41,47
409,898	51,71
410,107	-46,59
410,315	53,76
410,524	45,57
410,733	66,05
410,941	-22,02
411,15	31,23
411,358	-15,87
411,567	-9,73
411,775	-15,87
411,984	-3,58
412,192	-26,11
412,401	-34,3
412,609	41,47
412,818	82,43
413,026	-56,83
413,234	35,33
413,443	6,66
413,651	43,52
413,86	-9,73
414,068	39,42
414,276	8,7
414,485	-26,11
414,693	8,7
414,901	31,23
415,11	88,57
415,318	33,28
415,526	-5,63
415,734	66,05
415,943	-44,54
416,151	53,76
416,359	35,33
416,567	47,62
416,776	-9,73
416,984	-3,58
417,192	68,09
417,4	39,42
417,608	0,51
417,817	31,23
418,025	-13,82
418,233	37,38
418,441	41,47
418,649	74,24
418,857	66,05
419,065	109,05
419,273	43,52
419,481	64
419,689	88,57
419,897	-11,78
420,105	23,04
420,313	78,33
420,521	-83,45
420,729	25,09
420,937	23,04
421,145	-1,54
421,353	41,47
421,561	98,81
421,769	129,53
421,977	53,76
422,185	-42,5
422,393	66,05
422,601	20,99
422,809	4,61
423,017	25,09
423,224	14,85
423,432	88,57
423,64	8,7
423,848	12,8
424,056	23,04
424,263	-7,68
424,471	-22,02
424,679	18,94
424,887	-17,92
425,094	4,61
425,302	43,52
425,51	-5,63
425,718	33,28
425,925	14,85
426,133	20,99
426,341	16,9
426,548	20,99
426,756	31,23
426,964	-15,87
427,171	61,95
427,379	41,47
427,586	59,9
427,794	55,81
428,001	55,81
428,209	31,23
428,417	20,99
428,624	31,23
428,832	27,14
429,039	-28,16
429,247	20,99
429,454	68,09
429,662	33,28
429,869	102,91
430,076	-32,26
430,284	-22,02
430,491	20,99
430,699	72,19
430,906	-11,78
431,114	31,23
431,321	4,61
431,528	59,9
431,736	43,52
431,943	37,38
432,15	-11,78
432,358	70,14
432,565	64
432,772	-19,97
432,979	45,57
433,187	-5,63
433,394	74,24
433,601	4,61
433,808	4,61
434,016	12,8
434,223	59,9
434,43	-15,87
434,637	16,9
434,844	78,33
435,052	2,56
435,259	20,99
435,466	8,7
435,673	39,42
435,88	49,66
436,087	-1,54
436,294	-32,26
436,501	59,9
436,708	47,62
436,915	-65,02
437,122	-3,58
437,329	8,7
437,537	23,04
437,743	61,95
437,95	-15,87
438,157	100,86
438,364	-34,3
438,571	4,61
438,778	53,76
438,985	16,9
439,192	-26,11
439,399	-11,78
439,606	47,62
439,813	82,43
440,02	-15,87
440,227	-3,58
440,433	37,38
440,64	-3,58
440,847	49,66
441,054	64
441,261	74,24
441,467	14,85
441,674	37,38
441,881	23,04
442,088	14,85
442,294	49,66
442,501	49,66
442,708	-7,68
442,914	25,09
443,121	45,57
443,328	-26,11
443,534	45,57
443,741	29,18
443,948	-17,92
444,154	-5,63
444,361	82,43
444,568	12,8
444,774	35,33
444,981	10,75
445,187	12,8
445,394	39,42
445,6	-15,87
445,807	-7,68
446,013	16,9
446,22	78,33
446,426	27,14
446,633	2,56
446,839	-34,3
447,046	61,95
447,252	8,7
447,459	41,47
447,665	4,61
447,871	-11,78
448,078	35,33
448,284	-91,65
448,491	6,66
448,697	-5,63
448,903	12,8
449,11	6,66
449,316	-11,78
449,522	31,23
449,728	-1,54
449,935	33,28
450,141	-26,11
450,347	61,95
450,553	-5,63
450,76	-28,16
450,966	39,42
451,172	-42,5
451,378	86,53
451,584	-26,11
451,791	14,85
451,997	-42,5
452,203	-19,97
452,409	61,95
452,615	8,7
452,821	37,38
453,027	55,81
453,233	57,86
453,44	-11,78
453,646	23,04
453,852	45,57
454,058	20,99
454,264	4,61
454,47	-54,78
454,676	-3,58
454,882	18,94
455,088	4,61
455,294	33,28
455,5	33,28
455,705	4,61
455,911	45,57
456,117	12,8
456,323	23,04
456,529	-71,17
456,735	-24,06
456,941	45,57
457,147	0,51
457,352	43,52
457,558	-17,92
457,764	-19,97
457,97	29,18
458,176	59,9
458,381	-11,78
458,587	37,38
458,793	23,04
458,999	16,9
459,204	0,51
459,41	10,75
459,616	35,33
459,821	14,85
460,027	-48,64
460,233	33,28
460,438	135,68
460,644	-44,54
460,85	-11,78
461,055	23,04
461,261	43,52
461,466	-34,3
461,672	12,8
461,878	57,86
462,083	-3,58
462,289	-7,68
462,494	-24,06
462,7	-3,58
462,905	0,51
463,111	4,61
463,316	20,99
463,522	-5,63
463,727	-5,63
463,932	0,51
464,138	-3,58
464,343	-44,54
464,549	33,28
464,754	-26,11
464,959	49,66
465,165	-30,21
465,37	16,9
465,575	39,42
465,781	25,09
465,986	-50,69
466,191	-22,02
466,397	-38,4
466,602	-3,58
466,807	31,23
467,012	-24,06
467,218	25,09
467,423	10,75
467,628	-36,35
467,833	-11,78
468,038	29,18
468,244	31,23
468,449	-1,54
468,654	45,57
468,859	-60,93
469,064	37,38
469,269	-65,02
469,474	-7,68
469,679	10,75
469,885	64
470,09	-3,58
470,295	49,66
470,5	49,66
470,705	45,57
470,91	49,66
471,115	12,8
471,32	8,7
471,525	43,52
471,73	47,62
471,935	66,05
472,139	23,04
472,344	88,57
472,549	39,42
472,754	31,23
472,959	8,7
473,164	41,47
473,369	-34,3
473,574	-32,26
473,778	29,18
473,983	4,61
474,188	86,53
474,393	86,53
474,598	61,95
474,802	14,85
475,007	-48,64
475,212	61,95
475,417	31,23
475,621	78,33
475,826	-32,26
476,031	4,61
476,235	-7,68
476,44	117,25
476,645	43,52
476,849	47,62
477,054	92,67
477,259	47,62
477,463	12,8
477,668	35,33
477,872	53,76
478,077	-9,73
478,282	14,85
478,486	49,66
478,691	39,42
478,895	41,47
479,1	18,94
479,304	41,47
479,509	16,9
479,713	-32,26
479,918	0,51
480,122	18,94
480,326	-1,54
480,531	4,61
480,735	12,8
480,94	6,66
481,144	-1,54
481,348	-28,16
481,553	-36,35
481,757	16,9
481,961	37,38
482,166	61,95
482,37	-15,87
482,574	-7,68
482,778	39,42
482,983	0,51
483,187	-40,45
483,391	-34,3
483,595	-5,63
483,8	29,18
484,004	-77,31
484,208	-3,58
484,412	37,38
484,616	18,94
484,821	41,47
485,025	8,7
485,229	78,33
485,433	29,18
485,637	4,61
485,841	33,28
486,045	51,71
486,249	12,8
486,453	98,81
486,657	70,14
486,861	33,28
487,065	53,76
487,269	8,7
487,473	-24,06
487,677	-36,35
487,881	4,61
488,085	12,8
488,289	72,19
488,493	53,76
488,697	70,14
488,901	33,28
489,105	-13,82
489,309	4,61
489,512	27,14
489,716	-1,54
489,92	27,14
490,124	-9,73
490,328	20,99
490,531	-26,11
490,735	18,94
490,939	47,62
491,143	29,18
491,346	39,42
491,55	2,56
491,754	31,23
491,958	39,42
492,161	-11,78
492,365	-19,97
492,569	25,09
492,772	45,57
492,976	64
493,18	47,62
493,383	14,85
493,587	20,99
493,79	61,95
493,994	-32,26
494,197	18,94
494,401	33,28
494,605	59,9
494,808	18,94
495,012	39,42
495,215	23,04
495,419	2,56
495,622	29,18
495,825	-7,68
496,029	66,05
496,232	39,42
496,436	64
496,639	25,09
496,843	12,8
497,046	33,28
497,249	4,61
497,453	-44,54
497,656	8,7
497,859	35,33
498,063	6,66
498,266	27,14
498,469	-38,4
498,673	-11,78
498,876	25,09
499,079	10,75
499,282	78,33
499,485	53,76
499,689	6,66
499,892	-24,06
500,095	-34,3
500,298	-54,78
500,501	23,04
500,705	39,42
500,908	-58,88
501,111	25,09
501,314	-17,92
501,517	31,23
501,72	16,9
501,923	20,99
502,126	12,8
502,329	-32,26
502,532	33,28
502,735	-30,21
502,938	-7,68
503,141	12,8
503,344	70,14
503,547	-1,54
503,75	68,09
503,953	107,01
504,156	-11,78
504,359	4,61
504,562	20,99
504,765	45,57
504,968	6,66
505,17	-28,16
505,373	18,94
505,576	-28,16
505,779	39,42
505,982	-9,73
506,185	41,47
506,387	25,09
506,59	45,57
506,793	25,09
506,996	72,19
507,198	-7,68
507,401	-5,63
507,604	64
507,807	4,61
508,009	23,04
508,212	-67,07
508,415	57,86
508,617	29,18
508,82	53,76
509,022	12,8
509,225	4,61
509,428	41,47
509,63	8,7
509,833	-32,26
510,035	-15,87
510,238	115,2
510,44	0,51
510,643	20,99
510,845	-17,92
511,048	0,51
511,25	55,81
511,453	-11,78
511,655	10,75
511,858	45,57
512,06	-9,73
512,262	23,04
512,465	-101,89
512,667	76,29
512,87	18,94
513,072	16,9
513,274	29,18
513,477	-28,16
513,679	109,05
513,881	2,56
514,084	16,9
514,286	66,05
514,488	-54,78
514,69	25,09
514,893	31,23
515,095	23,04
515,297	-58,88
515,499	20,99
515,701	16,9
515,904	72,19
516,106	16,9
516,308	8,7
516,51	-9,73
516,712	25,09
516,914	31,23
517,116	37,38
517,318	14,85
517,52	37,38
517,722	-9,73
517,925	45,57
518,127	-19,97
518,329	-89,6
518,531	-22,02
518,733	61,95
518,935	4,61
519,136	25,09
519,338	16,9
519,54	10,75
519,742	39,42
519,944	23,04
520,146	29,18
520,348	29,18
520,55	-7,68
520,752	-7,68
520,954	45,57
521,155	37,38
521,357	6,66
521,559	-3,58
521,761	-17,92
521,963	-65,02
522,164	14,85
522,366	88,57
522,568	12,8
522,77	70,14
522,971	78,33
523,173	18,94
523,375	-11,78
523,576	123,39
523,778	88,57
523,98	66,05
524,181	29,18
524,383	90,62
524,584	98,81
524,786	193,02
524,988	217,6
525,189	285,18
525,391	438,78
525,592	608,76
525,794	1094,13
525,995	1563,11
526,197	2349,53
526,398	3086,8
526,6	4428,22
526,801	5527,98
527,003	7111,06
527,204	8540,54
527,406	10707,29
527,607	12697,92
527,808	15259,93
528,01	17322,23
528,211	20707,52
528,412	23814,29
528,614	26769,51
528,815	29524,03
529,016	32532,5
529,218	34908,14
529,419	38453,17
529,62	40222,62
529,822	42432,38
530,023	43810,66
530,224	45358,92
530,425	46214,97
530,626	47871,78
530,828	48404,25
531,029	50194,18
531,23	50251,52
531,431	50603,77
531,632	50982,65
531,833	51998,44
532,035	51574,51
532,236	51830,51
532,437	52287,2
532,638	52037,35
532,839	52756,19
533,04	52682,46
533,241	51805,93
533,442	53032,66
533,643	52422,37
533,844	52612,83
534,045	53186,26
534,246	52303,59
534,447	52557,53
534,648	52557,53
534,849	51994,34
535,05	51949,29
535,251	51771,11
535,451	50898,68
535,652	50857,72
535,853	49678,09
536,054	48922,39
536,255	48041,76
536,456	45731,65
536,657	45653,83
536,857	42954,61
537,058	40974,22
537,259	39464,87
537,46	36841,42
537,66	34357,24
537,861	31948,82
538,062	28911,69
538,263	26513,52
538,463	23640,22
538,664	21205,18
538,865	18473,19
539,065	16670,98
539,266	13971,75
539,466	12671,29
539,667	10170,72
539,868	9081,21
540,068	7102,87
540,269	6052,26
540,469	4721,08
540,67	3887,56
540,87	2771,41
541,071	2136,54
541,271	1559,02
541,472	1044,98
541,672	678,39
541,873	557,56
542,073	348,67
542,274	287,23
542,474	225,79
542,675	172,54
542,875	143,87
543,075	61,95
543,276	172,54
543,476	135,68
543,676	41,47
543,877	96,77
544,077	72,19
544,277	-17,92
544,478	111,1
544,678	64
544,878	-9,73
545,078	51,71
545,279	70,14
545,479	6,66
545,679	25,09
545,879	-5,63
546,079	-3,58
546,28	14,85
546,48	78,33
546,68	6,66
546,88	49,66
547,08	41,47
547,28	47,62
547,48	-95,74
547,68	20,99
547,88	14,85
548,081	-9,73
548,281	-28,16
548,481	25,09
548,681	31,23
548,881	37,38
549,081	18,94
549,28	86,53
549,48	47,62
549,68	53,76
549,88	-11,78
550,08	12,8
550,28	-26,11
550,48	31,23
550,68	-11,78
550,88	20,99
551,08	-28,16
551,279	39,42
551,479	78,33
551,679	-56,83
551,879	-42,5
552,079	25,09
552,278	72,19
552,478	72,19
552,678	31,23
552,878	-3,58
553,077	6,66
553,277	43,52
553,477	47,62
553,676	20,99
553,876	37,38
554,076	-1,54
554,275	20,99
554,475	43,52
554,674	-17,92
554,874	31,23
555,074	25,09
555,273	53,76
555,473	14,85
555,672	53,76
555,872	-9,73
556,071	18,94
556,271	35,33
556,47	37,38
556,67	-3,58
556,869	43,52
557,068	12,8
557,268	45,57
557,467	18,94
557,667	53,76
557,866	41,47
558,065	20,99
558,265	47,62
558,464	39,42
558,663	25,09
558,863	49,66
559,062	61,95
559,261	68,09
559,461	-15,87
559,66	16,9
559,859	-3,58
560,058	33,28
560,258	27,14
560,457	113,15
560,656	20,99
560,855	104,96
561,054	20,99
561,253	-42,5
561,453	12,8
561,652	37,38
561,851	12,8
562,05	33,28
562,249	-1,54
562,448	8,7
562,647	78,33
562,846	33,28
563,045	-24,06
563,244	-26,11
563,443	10,75
563,642	39,42
563,841	47,62
564,04	51,71
564,239	-26,11
564,438	18,94
564,637	20,99
564,836	-5,63
565,035	35,33
565,234	-5,63
565,432	37,38
565,631	0,51
565,83	47,62
566,029	8,7
566,228	86,53
566,427	53,76
566,625	53,76
566,824	31,23
567,023	6,66
567,222	59,9
567,42	80,38
567,619	18,94
567,818	70,14
568,016	-50,69
568,215	18,94
568,414	115,2
568,612	-7,68
568,811	12,8
569,01	45,57
569,208	64
569,407	98,81
569,605	33,28
569,804	8,7
570,002	53,76
570,201	-15,87
570,4	-9,73
570,598	12,8
570,797	119,29
570,995	-9,73
571,193	-5,63
571,392	-3,58
571,59	-11,78
571,789	-11,78
571,987	82,43
572,186	6,66
572,384	20,99
572,582	35,33
572,781	121,34
572,979	29,18
573,177	37,38
573,376	35,33
573,574	-1,54
573,772	12,8
573,971	-36,35
574,169	18,94
574,367	-36,35
574,565	-46,59
574,763	18,94
574,962	-15,87
575,16	6,66
575,358	61,95
575,556	4,61
575,754	-1,54
575,952	64
576,151	14,85
576,349	-9,73
576,547	-22,02
576,745	18,94
576,943	18,94
577,141	6,66
577,339	-44,54
577,537	31,23
577,735	14,85
577,933	49,66
578,131	39,42
578,329	76,29
578,527	43,52
578,725	76,29
578,923	-67,07
579,121	-42,5
579,319	2,56
579,516	20,99
579,714	37,38
579,912	-3,58
580,11	-9,73
580,308	78,33
580,506	16,9
580,704	-54,78
580,901	45,57
581,099	39,42
581,297	31,23
581,495	23,04
581,692	2,56
581,89	4,61
582,088	-42,5
582,285	25,09
582,483	20,99
582,681	-19,97
582,878	29,18
583,076	74,24
583,274	23,04
583,471	-19,97
583,669	37,38
583,866	16,9
584,064	-13,82
584,262	2,56
584,459	86,53
584,657	23,04
584,854	57,86
585,052	74,24
585,249	-60,93
585,447	25,09
585,644	29,18
585,841	49,66
586,039	8,7
586,236	-36,35
586,434	23,04
586,631	4,61
586,828	0,51
587,026	45,57
587,223	12,8
587,42	25,09
587,618	23,04
587,815	-40,45
588,012	-11,78
588,21	25,09
588,407	37,38
588,604	4,61
588,801	23,04
588,999	47,62
589,196	20,99
589,393	-24,06
589,59	41,47
589,787	-9,73
589,984	-36,35
590,182	-3,58
590,379	20,99
590,576	64
590,773	29,18
590,97	43,52
591,167	53,76
591,364	66,05
591,561	-30,21
591,758	4,61
591,955	78,33
592,152	27,14
592,349	-40,45
592,546	4,61
592,743	-1,54
592,94	61,95
593,137	-22,02
593,334	16,9
593,531	-11,78
593,727	-13,82
593,924	-9,73
594,121	23,04
594,318	-22,02
594,515	55,81
594,712	12,8
594,908	-60,93
595,105	23,04
595,302	-9,73
595,499	96,77
595,696	35,33
595,892	-1,54
596,089	-9,73
596,286	-1,54
596,482	10,75
596,679	-46,59
596,876	72,19
597,072	-17,92
597,269	29,18
597,466	-5,63
597,662	31,23
597,859	-13,82
598,055	72,19
598,252	-28,16
598,448	4,61
598,645	53,76
598,841	23,04
599,038	47,62
599,234	47,62
599,431	-26,11
599,627	6,66
599,824	133,63
600,02	2,56
600,217	29,18
600,413	20,99
600,609	-9,73
600,806	68,09
601,002	6,66
601,198	23,04
601,395	10,75
601,591	8,7
601,787	39,42
601,984	96,77
602,18	-26,11
602,376	29,18
602,572	20,99
602,769	10,75
602,965	18,94
603,161	39,42
603,357	-9,73
603,553	23,04
603,75	25,09
603,946	74,24
604,142	-3,58
604,338	29,18
604,534	-3,58
604,73	45,57
604,926	53,76
605,122	-40,45
605,318	31,23
605,514	33,28
605,71	8,7
605,906	53,76
606,102	33,28
606,298	10,75
606,494	-1,54
606,69	55,81
606,886	51,71
607,082	33,28
607,278	6,66
607,474	57,86
607,67	16,9
607,866	-11,78
608,062	64
608,257	16,9
608,453	-28,16
608,649	23,04
608,845	-36,35
609,041	68,09
609,236	-44,54
609,432	84,48
609,628	10,75
609,824	12,8
610,019	41,47
610,215	-44,54
610,411	39,42
610,606	82,43
610,802	-3,58
610,998	31,23
611,193	12,8
611,389	33,28
611,584	10,75
611,78	18,94
611,976	29,18
612,171	47,62
612,367	0,51
612,562	37,38
612,758	37,38
612,953	29,18
613,149	14,85
613,344	6,66
613,539	-40,45
613,735	29,18
613,93	-17,92
614,126	41,47
614,321	6,66
614,517	37,38
614,712	47,62
614,907	49,66
615,103	-24,06
615,298	25,09
615,493	31,23
615,688	25,09
615,884	39,42
616,079	25,09
616,274	47,62
616,47	64
616,665	57,86
616,86	23,04
617,055	-32,26
617,25	0,51
617,445	18,94
617,641	47,62
617,836	-11,78
618,031	0,51
618,226	-77,31
618,421	-17,92
618,616	0,51
618,811	59,9
619,006	0,51
619,201	45,57
619,396	80,38
619,591	41,47
619,786	-34,3
619,981	29,18
620,176	12,8
620,371	47,62
620,566	-7,68
620,761	0,51
620,956	-19,97
621,151	-24,06
621,346	78,33
621,541	49,66
621,735	25,09
621,93	109,05
622,125	45,57
622,32	0,51
622,515	-30,21
622,709	113,15
622,904	20,99
623,099	29,18
623,294	20,99
623,488	29,18
623,683	-22,02
623,878	53,76
624,072	16,9
624,267	29,18
624,462	37,38
624,656	-15,87
624,851	51,71
625,046	-40,45
625,24	23,04
625,435	57,86
625,629	10,75
625,824	57,86
626,018	-7,68
626,213	0,51
626,407	-3,58
626,602	29,18
626,796	20,99
626,991	4,61
627,185	80,38
627,38	45,57
627,574	59,9
627,768	12,8
627,963	-42,5
628,157	-15,87
628,352	-40,45
628,546	57,86
628,74	29,18
628,935	45,57
629,129	14,85
629,323	27,14
629,517	37,38
629,712	-34,3
629,906	45,57
630,1	18,94
630,294	-3,58
630,489	33,28
630,683	-36,35
630,877	29,18
631,071	10,75
631,265	92,67
631,459	29,18
631,653	47,62
631,848	53,76
632,042	96,77
632,236	14,85
632,43	-36,35
632,624	47,62
632,818	29,18
633,012	-9,73
633,206	18,94
633,4	-5,63
633,594	61,95
633,788	2,56
633,982	31,23
634,176	-5,63
634,369	64
634,563	37,38
634,757	33,28
634,951	14,85
635,145	37,38
635,339	51,71
635,533	-24,06
635,726	4,61
635,92	86,53
636,114	-17,92
636,308	16,9
636,501	72,19
636,695	55,81
636,889	53,76
637,083	47,62
637,276	-32,26
637,47	-19,97
637,664	0,51
637,857	12,8
638,051	20,99
638,244	39,42
638,438	29,18
638,632	88,57
638,825	45,57
639,019	-60,93
639,212	-73,21
639,406	27,14
639,599	-15,87
639,793	94,72
639,986	29,18
640,18	78,33
640,373	-42,5
640,567	6,66
640,76	-15,87
640,954	-28,16
641,147	-15,87
641,34	47,62
641,534	76,29
641,727	70,14
641,92	-9,73
642,114	23,04
642,307	14,85
642,5	37,38
642,694	-19,97
642,887	86,53
643,08	-22,02
643,273	6,66
643,467	8,7
643,66	70,14
643,853	10,75
644,046	20,99
644,239	29,18
644,432	16,9
644,626	64
644,819	18,94
645,012	66,05
645,205	4,61
645,398	31,23
645,591	31,23
645,784	35,33
645,977	-24,06
646,17	23,04
646,363	-11,78
646,556	80,38
646,749	-85,5
646,942	-60,93
647,135	33,28
647,328	45,57
647,521	-26,11
647,714	61,95
647,907	0,51
648,099	-17,92
648,292	33,28
648,485	72,19
648,678	10,75
648,871	49,66
649,064	14,85
649,256	25,09
649,449	20,99
649,642	-3,58
649,835	-24,06
650,027	-3,58
650,22	-3,58
650,413	53,76
650,605	43,52
650,798	82,43
650,991	51,71
651,183	-36,35
651,376	-22,02
651,568	-3,58
651,761	-36,35
651,954	39,42
652,146	25,09
652,339	45,57
652,531	0,51
652,724	25,09
652,916	-15,87
653,109	12,8
653,301	-1,54
653,494	-7,68
653,686	55,81
653,879	29,18
654,071	-11,78
654,263	-3,58
654,456	37,38
654,648	-42,5
654,84	29,18
655,033	16,9
655,225	-19,97
655,417	6,66
655,61	-17,92
655,802	8,7
655,994	-44,54
656,186	66,05
656,379	45,57
656,571	8,7
656,763	-26,11
656,955	12,8
657,148	-1,54
657,34	6,66
657,532	29,18
657,724	-13,82
657,916	14,85
658,108	18,94
658,3	4,61
658,492	-17,92
658,684	-83,45
658,876	25,09
659,068	66,05
659,26	-17,92
659,452	49,66
659,644	0,51
659,836	20,99
660,028	25,09
660,22	31,23
660,412	49,66
660,604	72,19
660,796	92,67
660,988	-9,73
661,18	0,51
661,372	-60,93
661,563	39,42
661,755	6,66
661,947	12,8
662,139	82,43
662,331	8,7
662,522	41,47
662,714	86,53
662,906	29,18
663,097	-11,78
663,289	16,9
663,481	33,28
663,673	29,18
663,864	-19,97
664,056	49,66
664,247	-32,26
664,439	74,24
664,631	-26,11
664,822	88,57
665,014	2,56
665,205	25,09
665,397	45,57
665,588	25,09
665,78	-9,73
665,971	78,33
666,163	-28,16
666,354	-1,54
666,546	27,14
666,737	-77,31
666,929	78,33
667,12	2,56
667,311	100,86
667,503	66,05
667,694	-56,83
667,885	53,76
668,077	6,66
668,268	33,28
668,459	-26,11
668,651	37,38
668,842	16,9
669,033	14,85
669,224	-22,02
669,416	16,9
669,607	94,72
669,798	2,56
669,989	4,61
670,18	16,9
670,371	49,66
670,563	39,42
670,754	-26,11
670,945	57,86
671,136	31,23
671,327	-19,97
671,518	4,61
671,709	49,66
671,9	27,14
672,091	64
672,282	61,95
672,473	43,52
672,664	-28,16
672,855	98,81
673,046	-15,87
673,237	27,14
673,428	12,8
673,619	55,81
673,809	-42,5
674	20,99
674,191	45,57
674,382	-17,92
674,573	-9,73
674,764	8,7
674,954	37,38
675,145	37,38
675,336	6,66
675,527	70,14
675,717	-36,35
675,908	72,19
676,099	37,38
676,289	-5,63
676,48	61,95
676,671	-19,97
676,861	-22,02
677,052	53,76
677,243	-3,58
677,433	64
677,624	-1,54
677,814	47,62
678,005	-40,45
678,195	47,62
678,386	-1,54
678,576	64
678,767	37,38
678,957	61,95
679,148	6,66
679,338	25,09
679,529	0,51
679,719	18,94
679,909	76,29
680,1	-19,97
680,29	29,18
680,481	4,61
680,671	66,05
680,861	55,81
681,052	-3,58
681,242	12,8
681,432	-24,06
681,622	6,66
681,813	20,99
682,003	49,66
682,193	47,62
682,383	29,18
682,573	-36,35
682,764	104,96
682,954	-42,5
683,144	-17,92
683,334	12,8
683,524	33,28
683,714	-9,73
683,904	29,18
684,094	-28,16
684,284	74,24
684,474	53,76
684,664	-69,12
684,854	-19,97
685,044	25,09
685,234	31,23
685,424	37,38
685,614	2,56
685,804	29,18
685,994	29,18
686,184	47,62
686,374	-28,16
686,564	33,28
686,753	23,04
686,943	6,66
687,133	23,04
687,323	-19,97
687,513	45,57
687,702	55,81
687,892	18,94
688,082	20,99
688,272	45,57
688,461	78,33
688,651	-3,58
688,841	0,51
689,03	147,97
689,22	25,09
689,41	20,99
689,599	4,61
689,789	49,66
689,979	16,9
690,168	-1,54
690,358	53,76
690,547	-17,92
690,737	-73,21
690,926	12,8
691,116	-26,11
691,305	-5,63
691,495	49,66
691,684	49,66
691,874	33,28
692,063	33,28
692,252	4,61
692,442	94,72
692,631	41,47
692,82	-7,68
693,01	8,7
693,199	29,18
693,388	16,9
693,578	-32,26
693,767	51,71
693,956	-44,54
694,146	-26,11
694,335	14,85
694,524	-24,06
694,713	-5,63
694,902	-15,87
695,092	-7,68
695,281	51,71
695,47	12,8
695,659	39,42
695,848	0,51
696,037	-36,35
696,226	4,61
696,415	-11,78
696,604	43,52
696,793	-73,21
696,982	-3,58
697,171	59,9
697,36	8,7
697,549	-11,78
697,738	33,28
697,927	-19,97
698,116	-36,35
698,305	86,53
698,494	-19,97
698,683	-9,73
698,872	78,33
699,061	-26,11
699,25	-54,78
699,438	66,05
699,627	43,52
699,816	23,04
700,005	-7,68
700,193	64
700,382	39,42
700,571	37,38
700,76	43,52
700,948	16,9
701,137	29,18
701,326	-36,35
701,514	29,18
701,703	-52,74
701,892	14,85
702,08	41,47
702,269	-5,63
702,457	35,33
702,646	90,62
702,834	49,66
703,023	45,57
703,212	-30,21
703,4	-7,68
703,589	45,57
703,777	-3,58
703,965	49,66
704,154	41,47
704,342	-9,73
704,531	-7,68
704,719	59,9
704,907	41,47
705,096	37,38
705,284	-26,11
705,472	35,33
705,661	4,61
705,849	18,94
706,037	61,95
706,226	23,04
706,414	31,23
706,602	39,42
706,79	-67,07
706,979	59,9
707,167	8,7
707,355	33,28
707,543	4,61
707,731	82,43
707,919	49,66
708,107	41,47
708,296	-11,78
708,484	49,66
708,672	0,51
708,86	25,09
709,048	55,81
709,236	70,14
709,424	37,38
709,612	35,33
709,8	2,56
709,988	61,95
710,176	41,47
710,364	59,9
710,551	39,42
710,739	23,04
710,927	45,57
711,115	76,29
711,303	51,71
711,491	29,18
711,679	49,66
711,866	0,51
712,054	37,38
712,242	-3,58
712,43	-17,92
712,617	4,61
712,805	-50,69
712,993	4,61
713,181	16,9
713,368	55,81
713,556	-19,97
713,744	72,19
713,931	33,28
714,119	-3,58
714,306	23,04
714,494	25,09
714,682	-17,92
714,869	-56,83
715,057	-9,73
715,244	39,42
715,432	10,75
715,619	-19,97
715,807	-85,5
715,994	59,9
716,182	6,66
716,369	37,38
716,556	4,61
716,744	35,33
716,931	-36,35
717,119	12,8
717,306	-36,35
717,493	29,18
717,681	16,9
717,868	-9,73
718,055	-19,97
718,242	41,47
718,43	-32,26
718,617	37,38
718,804	90,62
718,991	37,38
719,179	16,9
719,366	45,57
719,553	10,75
719,74	61,95
719,927	41,47
720,114	-3,58
720,301	27,14
720,488	39,42
720,676	-1,54
720,863	6,66
721,05	-3,58
721,237	-26,11
721,424	70,14
721,611	0,51
721,798	59,9
721,985	12,8
722,172	14,85
722,358	29,18
722,545	4,61
722,732	6,66
722,919	8,7
723,106	6,66
723,293	-15,87
723,48	16,9
723,667	88,57
723,853	-17,92
724,04	14,85
724,227	4,61
724,414	70,14
724,6	39,42
724,787	51,71
724,974	14,85
725,161	-60,93
725,347	20,99
725,534	74,24
725,72	-85,5
725,907	-17,92
726,094	25,09
726,28	74,24
726,467	4,61
726,653	16,9
726,84	-3,58
727,027	0,51
727,213	37,38
727,4	-1,54
727,586	-11,78
727,773	45,57
727,959	-3,58
728,145	-11,78
728,332	6,66
728,518	14,85
728,705	66,05
728,891	18,94
729,077	0,51
729,264	8,7
729,45	43,52
729,636	41,47
729,823	27,14
730,009	47,62
730,195	37,38
730,382	2,56
730,568	61,95
730,754	20,99
730,94	47,62
731,126	55,81
731,313	20,99
731,499	61,95
731,685	-28,16
731,871	33,28
732,057	-19,97
732,243	-13,82
732,429	-36,35
732,615	-40,45
732,801	-62,98
732,987	14,85
733,173	2,56
733,359	25,09
733,545	4,61
733,731	-36,35
733,917	55,81
734,103	45,57
734,289	-7,68
734,475	-19,97
734,661	-11,78
734,847	88,57
735,033	4,61
735,219	66,05
735,404	61,95
735,59	47,62
735,776	0,51
735,962	14,85
736,148	31,23
736,333	23,04
736,519	43,52
736,705	-34,3
736,89	16,9
737,076	-24,06
737,262	45,57
737,447	20,99
737,633	12,8
737,819	-36,35
738,004	0,51
738,19	-7,68
738,375	-1,54
738,561	-5,63
738,747	23,04
738,932	37,38
739,118	33,28
739,303	-3,58
739,489	37,38
739,674	90,62
739,859	-28,16
740,045	6,66
740,23	14,85
740,416	14,85
740,601	20,99
740,786	66,05
740,972	96,77
741,157	4,61
741,342	-30,21
741,528	0,51
741,713	4,61
741,898	31,23
742,084	-3,58
742,269	-17,92
742,454	-34,3
742,639	-36,35
742,824	66,05
743,01	10,75
743,195	-17,92
743,38	-34,3
743,565	29,18
743,75	27,14
743,935	29,18
744,12	37,38
744,305	72,19
744,49	66,05
744,675	6,66
744,86	31,23
745,045	-11,78
745,23	74,24
745,415	64
745,6	14,85
745,785	12,8
745,97	39,42
746,155	35,33
746,34	20,99
746,525	37,38
746,71	29,18
746,895	-15,87
747,079	-11,78
747,264	-7,68
747,449	27,14
747,634	0,51
747,819	37,38
748,003	-3,58
748,188	-15,87
748,373	57,86
748,557	6,66
748,742	6,66
748,927	-7,68
749,111	-67,07
749,296	-3,58
749,481	-32,26
749,665	-13,82
749,85	29,18
750,034	20,99
750,219	-19,97
750,404	23,04
750,588	47,62
750,773	70,14
750,957	-32,26
751,141	6,66
751,326	37,38
751,51	55,81
751,695	-22,02
751,879	12,8
752,064	-3,58
752,248	0,51
752,432	45,57
752,617	2,56
752,801	-15,87
752,985	10,75
753,17	4,61
753,354	-19,97
753,538	-17,92
753,722	-60,93
753,907	16,9
754,091	-11,78
754,275	-5,63
754,459	-9,73
754,643	66,05
754,828	-7,68
755,012	6,66
755,196	51,71
755,38	64
755,564	-7,68
755,748	59,9
755,932	14,85
756,116	55,81
756,3	2,56
756,484	-3,58
756,668	-15,87
756,852	-26,11
757,036	55,81
757,22	8,7
757,404	8,7
757,588	-3,58
757,772	61,95
757,956	39,42
758,14	10,75
758,323	-13,82
758,507	53,76
758,691	23,04
758,875	8,7
759,059	94,72
759,242	12,8
759,426	-19,97
759,61	55,81
759,794	37,38
759,977	53,76
760,161	14,85
760,345	57,86
760,528	-3,58
760,712	18,94
760,895	53,76
761,079	-19,97
761,263	-11,78
761,446	23,04
761,63	135,68
761,813	33,28
761,997	6,66
762,18	-9,73
762,364	31,23
762,547	-1,54
762,731	8,7
762,914	66,05
763,098	72,19
763,281	-15,87
763,464	45,57
763,648	61,95
763,831	-17,92
764,015	4,61
764,198	39,42
764,381	74,24
764,564	45,57
764,748	29,18
764,931	-46,59
765,114	-19,97
765,297	39,42
765,481	-32,26
765,664	64
765,847	-5,63
766,03	16,9
766,213	78,33
766,397	53,76
766,58	53,76
766,763	94,72
766,946	-15,87
767,129	12,8
767,312	-7,68
767,495	55,81
767,678	74,24
767,861	-46,59
768,044	-26,11
768,227	-9,73
768,41	-5,63
768,593	4,61
768,776	100,86
768,959	66,05
769,142	53,76
769,324	47,62
769,507	0,51
769,69	45,57
769,873	61,95
770,056	-97,79
770,239	94,72
770,421	43,52
770,604	-1,54
770,787	61,95
770,97	-28,16
771,152	-38,4
771,335	47,62
771,518	47,62
771,7	70,14
771,883	61,95
772,066	-26,11
772,248	16,9
772,431	57,86
772,613	-52,74
772,796	37,38
772,978	-26,11
773,161	29,18
773,343	6,66
773,526	-15,87
773,708	45,57
773,891	23,04
774,073	20,99
774,256	-3,58
774,438	33,28
774,621	18,94
774,803	49,66
774,985	-17,92
775,168	37,38
775,35	-3,58
775,532	39,42
775,715	82,43
775,897	29,18
776,079	47,62
776,261	-7,68
776,444	31,23
776,626	-60,93
776,808	6,66
776,99	10,75
777,173	12,8
777,355	-50,69
777,537	-9,73
777,719	-11,78
777,901	-40,45
778,083	-5,63
778,265	98,81
778,447	-3,58
778,629	39,42
778,811	-17,92
778,993	4,61
779,175	-1,54
779,357	-17,92
779,539	25,09
779,721	27,14
779,903	35,33
780,085	107,01
780,267	-3,58
780,449	-7,68
780,631	12,8
780,812	4,61
780,994	-52,74
781,176	39,42
781,358	78,33
781,54	-7,68
781,721	12,8
781,903	-28,16
782,085	-36,35
782,267	10,75
782,448	-7,68
782,63	8,7
782,812	45,57
782,993	70,14
783,175	-9,73
783,357	27,14
783,538	55,81
783,72	12,8
783,901	-48,64
784,083	43,52
784,264	12,8
784,446	20,99
784,627	-11,78
784,809	-3,58
784,99	2,56
785,172	37,38
785,353	-32,26
785,535	-11,78
785,716	61,95
785,897	39,42
786,079	23,04
786,26	-1,54
786,441	39,42
786,623	12,8
786,804	23,04
786,985	47,62
787,167	0,51
787,348	14,85
787,529	98,81
787,71	-5,63
787,891	66,05
788,073	20,99
788,254	8,7
788,435	-3,58
788,616	4,61
788,797	37,38
788,978	29,18
789,159	-1,54
789,34	-38,4
789,522	-28,16
789,703	2,56
789,884	100,86
790,065	12,8
790,246	-32,26
790,427	4,61
790,607	43,52
790,788	-15,87
790,969	25,09
791,15	61,95
791,331	14,85
791,512	20,99
791,693	-48,64
791,874	4,61
792,054	53,76
792,235	8,7
792,416	37,38
792,597	12,8
792,778	-3,58
792,958	-5,63
793,139	16,9
793,32	51,71
793,5	33,28
793,681	53,76
793,862	-40,45
794,042	6,66
794,223	-38,4
794,404	-22,02
794,584	14,85
794,765	-9,73
794,945	70,14
795,126	4,61
795,306	-17,92
795,487	23,04
795,667	6,66
795,848	14,85
796,028	-56,83
796,209	29,18
796,389	111,1
796,57	78,33
796,75	4,61
796,93	6,66
797,111	25,09
797,291	2,56
797,471	16,9
797,652	92,67
797,832	16,9
798,012	6,66
798,192	25,09
798,373	14,85
798,553	57,86
798,733	64
798,913	-28,16
799,093	78,33
799,274	-11,78
799,454	-38,4
799,634	55,81
799,814	66,05
799,994	-26,11
800,174	41,47
800,354	14,85
800,534	-13,82
800,714	37,38
800,894	31,23
801,074	4,61
801,254	47,62
801,434	12,8
801,614	23,04
801,794	6,66
801,974	61,95
802,154	4,61
802,334	49,66
802,514	20,99
802,693	61,95
802,873	16,9
803,053	86,53
803,233	-3,58
803,413	27,14
803,592	14,85
803,772	102,91
803,952	8,7
804,131	25,09
804,311	-46,59
804,491	-7,68
804,67	39,42
804,85	45,57
805,03	-7,68
805,209	37,38
805,389	86,53
805,568	66,05
805,748	39,42
805,928	2,56
806,107	33,28
806,287	-62,98
806,466	35,33
806,646	-5,63
806,825	-7,68
807,004	-9,73
807,184	-42,5
807,363	31,23
807,543	-87,55
807,722	-1,54
807,901	8,7
808,081	20,99
808,26	-9,73
808,439	72,19
808,619	29,18
808,798	82,43
808,977	-3,58
809,156	33,28
809,336	-36,35
809,515	14,85
809,694	2,56
809,873	80,38
810,052	61,95
810,231	-9,73
810,411	25,09
810,59	-19,97
810,769	20,99
810,948	-44,54
811,127	2,56
811,306	55,81
811,485	31,23
811,664	55,81
811,843	-7,68
812,022	12,8
812,201	6,66
812,38	-9,73
812,559	-52,74
812,737	68,09
812,916	-7,68
813,095	23,04
813,274	-32,26
813,453	-15,87
813,632	82,43
813,811	-36,35
813,989	-44,54
814,168	57,86
814,347	-7,68
814,526	4,61
814,704	16,9
814,883	16,9
815,062	70,14
815,24	23,04
815,419	-38,4
815,598	27,14
815,776	6,66
815,955	53,76
816,133	23,04
816,312	-24,06
816,49	45,57
816,669	51,71
816,847	80,38
817,026	39,42
817,204	8,7
817,383	12,8
817,561	-22,02
817,74	0,51
817,918	37,38
818,097	45,57
818,275	27,14
818,453	37,38
818,632	2,56
818,81	16,9
818,988	-58,88
819,167	72,19
819,345	29,18
819,523	70,14
819,701	-7,68
819,879	-24,06
820,058	49,66
820,236	43,52
820,414	-11,78
820,592	51,71
820,77	-19,97
820,948	-19,97
821,127	43,52
821,305	12,8
821,483	-3,58
821,661	-24,06
821,839	61,95
822,017	39,42
822,195	-38,4
822,373	-9,73
822,551	-1,54
822,729	45,57
822,907	-28,16
823,085	0,51
823,262	8,7
823,44	16,9
823,618	-11,78
823,796	14,85
823,974	2,56
824,152	-11,78
824,329	-30,21
824,507	-19,97
824,685	45,57
824,863	31,23
825,04	31,23
825,218	12,8
825,396	20,99
825,574	70,14
825,751	4,61
825,929	-19,97
826,107	16,9
826,284	-73,21
826,462	25,09
826,639	-42,5
826,817	23,04
826,994	27,14
827,172	-42,5
827,349	51,71
827,527	-15,87
827,704	33,28
827,882	39,42
828,059	23,04
828,237	18,94
828,414	66,05
828,591	8,7
828,769	12,8
828,946	29,18
829,124	31,23
829,301	41,47
829,478	53,76
829,655	53,76
829,833	4,61
830,01	-9,73
830,187	31,23
830,364	-15,87
830,542	37,38
830,719	16,9
830,896	29,18
831,073	31,23
831,25	23,04
831,427	-24,06
831,604	61,95
831,782	-54,78
831,959	29,18
832,136	47,62
832,313	-28,16
832,49	16,9
832,667	61,95
832,844	-73,21
833,021	-11,78
833,198	66,05
833,374	-1,54
833,551	-3,58
833,728	37,38
833,905	74,24
834,082	64
834,259	37,38
834,436	66,05
834,612	33,28
834,789	29,18
834,966	37,38
835,143	16,9
835,319	4,61
835,496	-30,21
835,673	-3,58
835,85	-69,12
836,026	49,66
836,203	20,99
836,38	-11,78
836,556	0,51
836,733	47,62
836,909	-1,54
837,086	-3,58
837,262	74,24
837,439	39,42
837,616	41,47
837,792	-3,58
837,968	8,7
838,145	14,85
838,321	-42,5
838,498	57,86
838,674	78,33
838,851	61,95
839,027	-11,78
839,203	72,19
839,38	64
839,556	61,95
839,732	57,86
839,909	-19,97
840,085	-26,11
840,261	-44,54
840,437	-3,58
840,614	45,57
840,79	51,71
840,966	41,47
841,142	59,9
841,318	6,66
841,494	49,66
841,671	4,61
841,847	37,38
842,023	-105,98
842,199	35,33
842,375	23,04
842,551	92,67
842,727	39,42
842,903	35,33
843,079	-13,82
843,255	39,42
843,431	12,8
843,607	10,75
843,783	6,66
843,959	12,8
844,134	104,96
844,31	-11,78
844,486	16,9
844,662	-34,3
844,838	41,47
845,013	37,38
845,189	-17,92
845,365	16,9
845,541	-30,21
845,716	-30,21
845,892	4,61
846,068	-44,54
846,244	64
846,419	10,75
846,595	37,38
846,77	20,99
846,946	14,85
847,122	4,61
847,297	8,7
847,473	45,57
847,648	23,04
847,824	47,62
847,999	-36,35
848,175	-7,68
848,35	-17,92
848,526	23,04
848,701	41,47
848,876	-36,35
849,052	20,99
849,227	23,04
849,403	10,75
849,578	-19,97
849,753	57,86
849,929	-19,97
850,104	-19,97
850,279	51,71
850,454	-28,16
850,63	-60,93
850,805	61,95
850,98	33,28
851,155	-9,73
851,33	14,85
851,505	18,94
851,681	6,66
851,856	-7,68
852,031	80,38
852,206	35,33
852,381	37,38
852,556	-17,92
852,731	-19,97
852,906	-1,54
853,081	59,9
853,256	29,18
853,431	121,34
853,606	8,7
853,781	8,7
853,956	37,38
854,131	2,56
854,305	37,38
854,48	29,18
854,655	35,33
854,83	-22,02
855,005	41,47
855,18	45,57
855,354	39,42
855,529	23,04
855,704	70,14
855,879	-9,73
856,053	41,47
856,228	-44,54
856,403	-28,16
856,577	-11,78
856,752	37,38
856,926	-1,54
857,101	102,91
857,276	25,09
857,45	16,9
857,625	6,66
857,799	-28,16
857,974	16,9
858,148	37,38
858,323	4,61
858,497	8,7
858,672	-32,26
858,846	39,42
859,02	37,38
859,195	-19,97
859,369	33,28
859,543	14,85
859,718	0,51
859,892	-3,58
860,066	47,62
860,241	23,04
860,415	-32,26
860,589	-15,87
860,763	45,57
860,938	12,8
861,112	33,28
861,286	-15,87
861,46	29,18
861,634	-56,83
861,808	61,95
861,982	53,76
862,157	31,23
862,331	-13,82
862,505	57,86
862,679	45,57
862,853	-1,54
863,027	23,04
863,201	31,23
863,375	-62,98
863,549	57,86
863,722	16,9
863,896	90,62
864,07	8,7
864,244	6,66
864,418	4,61
864,592	35,33
864,766	78,33
864,939	-11,78
865,113	-5,63
865,287	49,66
865,461	18,94
865,634	-75,26
865,808	12,8
865,982	-28,16
866,156	55,81
866,329	96,77
866,503	49,66
866,676	20,99
866,85	-3,58
867,024	-19,97
867,197	16,9
867,371	61,95
867,544	33,28
867,718	78,33
867,891	33,28
868,065	37,38
868,238	25,09
868,412	31,23
868,585	-22,02
868,759	-28,16
868,932	-24,06
869,105	-77,31
869,279	-17,92
869,452	66,05
869,625	2,56
869,799	72,19
869,972	55,81
870,145	72,19
870,319	-19,97
870,492	45,57
870,665	39,42
870,838	-73,21
871,011	-11,78
871,185	61,95
871,358	-34,3
871,531	-1,54
871,704	20,99
871,877	74,24
872,05	-15,87
872,223	4,61
872,396	6,66
872,569	4,61
872,742	86,53
872,915	-1,54
873,088	20,99
873,261	-24,06
873,434	14,85
873,607	-44,54
873,78	49,66
873,953	12,8
874,126	0,51
874,299	8,7
874,471	57,86
874,644	55,81
874,817	-40,45
874,99	-9,73
875,163	55,81
875,335	35,33
875,508	37,38
875,681	35,33
875,853	39,42
876,026	25,09
876,199	64
876,371	-17,92
876,544	18,94
876,717	66,05
876,889	41,47
877,062	76,29
877,234	-3,58
877,407	55,81
877,579	23,04
877,752	-7,68
877,924	-15,87
878,097	-24,06
878,269	-36,35
878,442	43,52
878,614	72,19
878,786	29,18
878,959	86,53
879,131	70,14
879,303	59,9
879,476	25,09
879,648	16,9
879,82	39,42
879,993	-28,16
880,165	-3,58
880,337	33,28
880,509	18,94
880,681	-9,73
880,854	14,85
881,026	-22,02
881,198	25,09
881,37	20,99
881,542	55,81
881,714	-7,68
881,886	-91,65
882,058	82,43
882,23	31,23
882,402	12,8
882,574	-44,54
882,746	55,81
882,918	57,86
883,09	78,33
883,262	12,8
883,434	33,28
883,606	102,91
883,778	-108,03
883,95	-50,69
884,122	25,09
884,293	129,53
884,465	76,29
884,637	12,8
884,809	0,51
884,98	57,86
885,152	20,99
885,324	-17,92
885,496	49,66
885,667	25,09
885,839	14,85
886,011	20,99
886,182	31,23
886,354	20,99
886,525	-101,89
886,697	6,66
886,869	-1,54
887,04	37,38
887,212	53,76
887,383	27,14
887,555	6,66
887,726	78,33
887,897	23,04
888,069	82,43
888,24	-7,68
888,412	70,14
888,583	25,09
888,754	20,99
888,926	6,66
889,097	25,09
889,268	-44,54
889,44	-26,11
889,611	0,51
889,782	47,62
889,953	-28,16
890,125	49,66
890,296	8,7
890,467	64
890,638	0,51
890,809	-26,11
890,98	20,99
891,151	-1,54
891,323	35,33
891,494	39,42
891,665	90,62
891,836	20,99
892,007	-42,5
892,178	59,9
892,349	0,51
892,52	-40,45
892,691	-1,54
892,862	4,61
893,032	-11,78
893,203	57,86
893,374	53,76
893,545	25,09
893,716	8,7
893,887	16,9
894,057	-7,68
894,228	-17,92
894,399	-34,3
894,57	51,71
894,74	14,85
894,911	41,47
895,082	57,86
895,253	20,99
895,423	-5,63
895,594	-36,35
895,764	0,51
895,935	31,23
896,106	53,76
896,276	-44,54
896,447	-30,21
896,617	20,99
896,788	37,38
896,958	-15,87
897,129	16,9
897,299	-65,02
897,47	-50,69
897,64	-5,63
897,81	88,57
897,981	-19,97
898,151	-19,97
898,322	-19,97
898,492	37,38
898,662	33,28
898,832	31,23
899,003	6,66
899,173	-34,3
899,343	64
899,513	12,8
