Data from filtre 532_USB4F104151__4__11-57-42-336.txt Node

Date: Wed Apr 15 11:57:42 EDT 2026
User: LaboPhy
Spectrometer: USB4F10415
Trigger mode: 4
Integration Time (sec): 3,000000E-3
Scans to average: 1
Electric dark correction enabled: true
Nonlinearity correction enabled: false
Boxcar width: 0
XAxis mode: Wavelengths
Number of Pixels in Spectrum: 3648
>>>>>Begin Spectral Data<<<<<
178,204	49,49
178,424	49,49
178,644	49,49
178,864	59,73
179,084	-28,33
179,304	-3,75
179,524	-16,04
179,744	-20,14
179,964	53,59
180,184	-13,99
180,404	-18,09
180,624	57,68
180,844	-1,71
181,064	-20,14
181,283	-32,43
181,503	-34,47
181,723	49,49
181,943	-1,71
182,163	76,12
182,383	26,96
182,602	-1,71
182,822	12,63
183,042	-11,95
183,262	16,73
183,482	26,96
183,701	33,11
183,921	26,96
184,141	72,02
184,361	49,49
184,58	-34,47
184,8	20,82
185,02	76,12
185,239	4,44
185,459	22,87
185,679	-18,09
185,898	-34,47
186,118	-28,33
186,338	82,26
186,557	-22,19
186,777	18,77
186,997	92,5
187,216	-46,76
187,436	57,68
187,655	-16,04
187,875	4,44
188,095	26,96
188,314	14,68
188,534	-54,95
188,753	-30,38
188,973	59,73
189,192	-9,9
189,412	-32,43
189,631	22,87
189,851	31,06
190,07	51,54
190,29	0,34
190,509	-16,04
190,729	-5,8
190,948	16,73
191,168	-30,38
191,387	67,92
191,607	57,68
191,826	10,58
192,045	14,68
192,265	-18,09
192,484	-40,62
192,704	33,11
192,923	-67,24
193,142	37,2
193,362	86,36
193,581	26,96
193,8	-26,28
194,02	39,25
194,239	20,82
194,458	-9,9
194,678	-38,57
194,897	76,12
195,116	14,68
195,335	-42,67
195,555	-1,71
195,774	29,01
195,993	-7,85
196,212	74,07
196,432	4,44
196,651	51,54
196,87	37,2
197,089	18,77
197,308	-95,91
197,528	2,39
197,747	2,39
197,966	-24,23
198,185	39,25
198,404	-13,99
198,623	-1,71
198,842	-7,85
199,062	6,49
199,281	43,35
199,5	-28,33
199,719	-50,86
199,938	53,59
200,157	137,56
200,376	0,34
200,595	47,44
200,814	22,87
201,033	69,97
201,252	18,77
201,471	10,58
201,69	-42,67
201,909	8,53
202,128	-30,38
202,347	6,49
202,566	-22,19
202,785	51,54
203,004	-5,8
203,223	14,68
203,442	-63,15
203,661	26,96
203,879	2,39
204,098	29,01
204,317	49,49
204,536	51,54
204,755	29,01
204,974	26,96
205,193	26,96
205,411	-13,99
205,63	69,97
205,849	20,82
206,068	-44,71
206,287	69,97
206,505	45,4
206,724	96,6
206,943	2,39
207,162	53,59
207,381	22,87
207,599	22,87
207,818	-30,38
208,037	0,34
208,255	45,4
208,474	106,84
208,693	8,53
208,911	43,35
209,13	31,06
209,349	35,16
209,567	43,35
209,786	76,12
210,005	10,58
210,223	2,39
210,442	31,06
210,661	4,44
210,879	35,16
211,098	29,01
211,316	-63,15
211,535	14,68
211,753	16,73
211,972	35,16
212,191	31,06
212,409	47,44
212,628	-26,28
212,846	24,92
213,065	20,82
213,283	82,26
213,502	-5,8
213,72	69,97
213,938	-28,33
214,157	-1,71
214,375	-16,04
214,594	-79,53
214,812	12,63
215,031	37,2
215,249	8,53
215,467	20,82
215,686	14,68
215,904	8,53
216,122	20,82
216,341	45,4
216,559	55,64
216,778	-3,75
216,996	-13,99
217,214	-13,99
217,432	31,06
217,651	78,16
217,869	55,64
218,087	29,01
218,306	20,82
218,524	47,44
218,742	53,59
218,96	-9,9
219,179	-40,62
219,397	26,96
219,615	16,73
219,833	18,77
220,051	29,01
220,27	76,12
220,488	78,16
220,706	-30,38
220,924	-30,38
221,142	33,11
221,36	-5,8
221,578	18,77
221,796	47,44
222,015	35,16
222,233	-13,99
222,451	119,12
222,669	-11,95
222,887	10,58
223,105	-46,76
223,323	2,39
223,541	31,06
223,759	49,49
223,977	18,77
224,195	35,16
224,413	14,68
224,631	26,96
224,849	-20,14
225,067	26,96
225,285	6,49
225,503	63,83
225,721	-40,62
225,939	43,35
226,157	-9,9
226,375	4,44
226,592	39,25
226,81	86,36
227,028	-46,76
227,246	-24,23
227,464	-18,09
227,682	-13,99
227,9	6,49
228,117	35,16
228,335	-34,47
228,553	67,92
228,771	76,12
228,989	35,16
229,206	2,39
229,424	-26,28
229,642	10,58
229,86	20,82
230,077	4,44
230,295	4,44
230,513	0,34
230,731	47,44
230,948	8,53
231,166	-18,09
231,384	-34,47
231,601	31,06
231,819	16,73
232,037	8,53
232,254	41,3
232,472	2,39
232,689	-5,8
232,907	67,92
233,125	59,73
233,342	53,59
233,56	14,68
233,777	72,02
233,995	-11,95
234,213	4,44
234,43	0,34
234,648	26,96
234,865	0,34
235,083	80,21
235,3	12,63
235,518	35,16
235,735	51,54
235,953	-20,14
236,17	-57
236,388	31,06
236,605	76,12
236,822	63,83
237,04	61,78
237,257	100,69
237,475	39,25
237,692	4,44
237,909	-11,95
238,127	2,39
238,344	-13,99
238,562	43,35
238,779	39,25
238,996	-3,75
239,214	26,96
239,431	-46,76
239,648	6,49
239,865	2,39
240,083	22,87
240,3	22,87
240,517	-16,04
240,735	6,49
240,952	-20,14
241,169	12,63
241,386	-36,52
241,603	-5,8
241,821	-18,09
242,038	82,26
242,255	41,3
242,472	-50,86
242,689	31,06
242,907	-28,33
243,124	-3,75
243,341	35,16
243,558	-3,75
243,775	26,96
243,992	65,88
244,209	39,25
244,426	20,82
244,643	26,96
244,86	-38,57
245,078	53,59
245,295	2,39
245,512	37,2
245,729	-44,71
245,946	53,59
246,163	-28,33
246,38	18,77
246,597	-18,09
246,814	29,01
247,031	-59,05
247,248	35,16
247,464	35,16
247,681	76,12
247,898	10,58
248,115	51,54
248,332	-30,38
248,549	55,64
248,766	57,68
248,983	10,58
249,2	69,97
249,417	84,31
249,633	61,78
249,85	-28,33
250,067	-5,8
250,284	-1,71
250,501	41,3
250,717	37,2
250,934	59,73
251,151	45,4
251,368	-9,9
251,585	-3,75
251,801	39,25
252,018	-13,99
252,235	63,83
252,451	20,82
252,668	22,87
252,885	59,73
253,102	-26,28
253,318	-50,86
253,535	24,92
253,752	76,12
253,968	12,63
254,185	39,25
254,401	88,4
254,618	43,35
254,835	12,63
255,051	10,58
255,268	108,88
255,484	12,63
255,701	53,59
255,917	12,63
256,134	24,92
256,351	-22,19
256,567	-79,53
256,784	-18,09
257	4,44
257,217	18,77
257,433	-28,33
257,65	-24,23
257,866	108,88
258,082	-26,28
258,299	43,35
258,515	24,92
258,732	20,82
258,948	35,16
259,165	-13,99
259,381	59,73
259,597	-13,99
259,814	39,25
260,03	43,35
260,246	-5,8
260,463	-20,14
260,679	61,78
260,895	-36,52
261,112	2,39
261,328	26,96
261,544	51,54
261,761	78,16
261,977	80,21
262,193	-13,99
262,409	-13,99
262,626	20,82
262,842	-5,8
263,058	-3,75
263,274	-7,85
263,49	20,82
263,707	37,2
263,923	-52,91
264,139	4,44
264,355	59,73
264,571	84,31
264,787	29,01
265,004	24,92
265,22	-28,33
265,436	10,58
265,652	-16,04
265,868	35,16
266,084	-22,19
266,3	20,82
266,516	-9,9
266,732	-5,8
266,948	-1,71
267,164	29,01
267,38	-20,14
267,596	35,16
267,812	8,53
268,028	51,54
268,244	80,21
268,46	4,44
268,676	-44,71
268,892	35,16
269,108	-50,86
269,324	45,4
269,54	29,01
269,756	20,82
269,972	-40,62
270,188	61,78
270,403	-1,71
270,619	20,82
270,835	26,96
271,051	-57
271,267	31,06
271,483	84,31
271,698	-26,28
271,914	100,69
272,13	26,96
272,346	69,97
272,562	10,58
272,777	-13,99
272,993	29,01
273,209	-22,19
273,425	35,16
273,64	29,01
273,856	-5,8
274,072	-54,95
274,287	24,92
274,503	84,31
274,719	18,77
274,934	-13,99
275,15	26,96
275,366	-46,76
275,581	117,08
275,797	-5,8
276,012	20,82
276,228	2,39
276,444	12,63
276,659	-18,09
276,875	14,68
277,09	67,92
277,306	26,96
277,521	65,88
277,737	-71,34
277,952	31,06
278,168	29,01
278,383	53,59
278,599	2,39
278,814	-46,76
279,03	26,96
279,245	-38,57
279,461	-7,85
279,676	14,68
279,892	10,58
280,107	-30,38
280,322	24,92
280,538	29,01
280,753	-71,34
280,969	45,4
281,184	12,63
281,399	-46,76
281,615	-73,39
281,83	55,64
282,045	-40,62
282,26	-34,47
282,476	-24,23
282,691	43,35
282,906	-16,04
283,122	-3,75
283,337	53,59
283,552	37,2
283,767	43,35
283,983	22,87
284,198	26,96
284,413	88,4
284,628	-5,8
284,843	39,25
285,058	-22,19
285,274	53,59
285,489	-11,95
285,704	43,35
285,919	35,16
286,134	53,59
286,349	-30,38
286,564	88,4
286,779	-44,71
286,995	80,21
287,21	53,59
287,425	-5,8
287,64	10,58
287,855	59,73
288,07	-46,76
288,285	-28,33
288,5	37,2
288,715	-42,67
288,93	26,96
289,145	4,44
289,36	20,82
289,575	16,73
289,79	47,44
290,004	63,83
290,219	18,77
290,434	10,58
290,649	-26,28
290,864	24,92
291,079	10,58
291,294	14,68
291,509	-40,62
291,724	-9,9
291,938	-5,8
292,153	0,34
292,368	-38,57
292,583	67,92
292,798	67,92
293,012	-1,71
293,227	35,16
293,442	59,73
293,657	51,54
293,871	69,97
294,086	-1,71
294,301	51,54
294,516	65,88
294,73	61,78
294,945	-22,19
295,16	37,2
295,374	0,34
295,589	86,36
295,804	29,01
296,018	18,77
296,233	24,92
296,447	26,96
296,662	80,21
296,877	43,35
297,091	16,73
297,306	-44,71
297,52	18,77
297,735	43,35
297,949	67,92
298,164	35,16
298,378	2,39
298,593	-20,14
298,807	-26,28
299,022	10,58
299,236	-13,99
299,451	-5,8
299,665	-42,67
299,88	37,2
300,094	-22,19
300,309	80,21
300,523	63,83
300,737	43,35
300,952	39,25
301,166	-42,67
301,381	53,59
301,595	10,58
301,809	-71,34
302,024	26,96
302,238	-9,9
302,452	37,2
302,667	53,59
302,881	16,73
303,095	88,4
303,309	-3,75
303,524	53,59
303,738	14,68
303,952	-1,71
304,166	39,25
304,381	-1,71
304,595	37,2
304,809	43,35
305,023	49,49
305,237	8,53
305,452	43,35
305,666	-16,04
305,88	-1,71
306,094	20,82
306,308	-7,85
306,522	8,53
306,736	31,06
306,95	-16,04
307,164	51,54
307,379	39,25
307,593	31,06
307,807	35,16
308,021	47,44
308,235	33,11
308,449	88,4
308,663	47,44
308,877	67,92
309,091	-11,95
309,305	53,59
309,519	14,68
309,733	-44,71
309,947	22,87
310,161	16,73
310,374	-1,71
310,588	-32,43
310,802	-30,38
311,016	63,83
311,23	20,82
311,444	-5,8
311,658	67,92
311,872	6,49
312,085	-65,19
312,299	0,34
312,513	43,35
312,727	14,68
312,941	47,44
313,154	26,96
313,368	-73,39
313,582	6,49
313,796	-46,76
314,009	8,53
314,223	-44,71
314,437	16,73
314,651	-9,9
314,864	20,82
315,078	-9,9
315,292	-3,75
315,505	12,63
315,719	41,3
315,933	4,44
316,146	-71,34
316,36	-40,62
316,573	55,64
316,787	14,68
317,001	-13,99
317,214	-13,99
317,428	47,44
317,641	-30,38
317,855	59,73
318,068	37,2
318,282	-1,71
318,495	88,4
318,709	51,54
318,922	-46,76
319,136	84,31
319,349	55,64
319,563	-54,95
319,776	20,82
319,99	-36,52
320,203	20,82
320,417	24,92
320,63	39,25
320,843	0,34
321,057	-38,57
321,27	59,73
321,483	45,4
321,697	51,54
321,91	49,49
322,124	43,35
322,337	-22,19
322,55	14,68
322,763	49,49
322,977	2,39
323,19	-79,53
323,403	43,35
323,617	-11,95
323,83	43,35
324,043	47,44
324,256	20,82
324,469	-44,71
324,683	18,77
324,896	49,49
325,109	100,69
325,322	24,92
325,535	31,06
325,748	72,02
325,962	-3,75
326,175	-1,71
326,388	69,97
326,601	35,16
326,814	2,39
327,027	2,39
327,24	-22,19
327,453	92,5
327,666	39,25
327,879	10,58
328,092	22,87
328,305	-34,47
328,518	29,01
328,731	-20,14
328,944	16,73
329,157	61,78
329,37	-18,09
329,583	22,87
329,796	47,44
330,009	43,35
330,222	117,08
330,435	-5,8
330,648	51,54
330,861	20,82
331,073	43,35
331,286	-5,8
331,499	69,97
331,712	55,64
331,925	22,87
332,138	-11,95
332,35	18,77
332,563	-3,75
332,776	115,03
332,989	-3,75
333,202	-26,28
333,414	24,92
333,627	18,77
333,84	35,16
334,053	24,92
334,265	18,77
334,478	14,68
334,691	76,12
334,903	-26,28
335,116	0,34
335,329	-13,99
335,541	-36,52
335,754	12,63
335,966	-9,9
336,179	20,82
336,392	69,97
336,604	-28,33
336,817	-44,71
337,029	35,16
337,242	-34,47
337,454	26,96
337,667	-46,76
337,88	22,87
338,092	-20,14
338,305	43,35
338,517	129,36
338,729	18,77
338,942	8,53
339,154	-34,47
339,367	61,78
339,579	-7,85
339,792	2,39
340,004	10,58
340,217	2,39
340,429	51,54
340,641	-13,99
340,854	10,58
341,066	-40,62
341,278	-30,38
341,491	4,44
341,703	69,97
341,915	31,06
342,128	4,44
342,34	45,4
342,552	12,63
342,764	10,58
342,977	102,74
343,189	-22,19
343,401	2,39
343,613	-5,8
343,826	74,07
344,038	2,39
344,25	-36,52
344,462	-20,14
344,674	-36,52
344,886	74,07
345,099	10,58
345,311	12,63
345,523	-28,33
345,735	-65,19
345,947	78,16
346,159	41,3
346,371	14,68
346,583	22,87
346,795	26,96
347,007	-7,85
347,219	18,77
347,431	-1,71
347,643	-3,75
347,855	26,96
348,067	45,4
348,279	31,06
348,491	22,87
348,703	-40,62
348,915	26,96
349,127	-32,43
349,339	22,87
349,551	-5,8
349,763	49,49
349,975	37,2
350,187	-5,8
350,399	18,77
350,61	2,39
350,822	14,68
351,034	39,25
351,246	67,92
351,458	-71,34
351,669	-13,99
351,881	-54,95
352,093	26,96
352,305	-13,99
352,517	33,11
352,728	29,01
352,94	-5,8
353,152	-26,28
353,363	98,64
353,575	61,78
353,787	96,6
353,999	51,54
354,21	35,16
354,422	84,31
354,633	14,68
354,845	72,02
355,057	4,44
355,268	18,77
355,48	-3,75
355,692	72,02
355,903	29,01
356,115	51,54
356,326	-50,86
356,538	43,35
356,749	63,83
356,961	67,92
357,172	16,73
357,384	-30,38
357,595	49,49
357,807	22,87
358,018	53,59
358,23	33,11
358,441	78,16
358,653	-5,8
358,864	-11,95
359,075	67,92
359,287	78,16
359,498	-28,33
359,709	-44,71
359,921	12,63
360,132	65,88
360,344	35,16
360,555	45,4
360,766	12,63
360,977	47,44
361,189	-22,19
361,4	-1,71
361,611	37,2
361,823	-48,81
362,034	-63,15
362,245	12,63
362,456	-38,57
362,667	6,49
362,879	-9,9
363,09	53,59
363,301	10,58
363,512	22,87
363,723	-22,19
363,935	74,07
364,146	8,53
364,357	10,58
364,568	35,16
364,779	39,25
364,99	24,92
365,201	-1,71
365,412	96,6
365,623	59,73
365,834	22,87
366,045	35,16
366,256	-11,95
366,467	53,59
366,678	37,2
366,889	45,4
367,1	29,01
367,311	2,39
367,522	20,82
367,733	26,96
367,944	-16,04
368,155	-22,19
368,366	-9,9
368,577	10,58
368,788	47,44
368,999	-13,99
369,209	110,93
369,42	26,96
369,631	37,2
369,842	43,35
370,053	-18,09
370,264	18,77
370,474	29,01
370,685	31,06
370,896	69,97
371,107	-44,71
371,317	-50,86
371,528	22,87
371,739	33,11
371,95	6,49
372,16	18,77
372,371	35,16
372,582	4,44
372,792	20,82
373,003	2,39
373,214	31,06
373,424	63,83
373,635	16,73
373,846	18,77
374,056	35,16
374,267	20,82
374,477	2,39
374,688	72,02
374,898	8,53
375,109	61,78
375,319	33,11
375,53	20,82
375,74	43,35
375,951	-3,75
376,161	-38,57
376,372	18,77
376,582	45,4
376,793	18,77
377,003	10,58
377,214	39,25
377,424	67,92
377,635	16,73
377,845	-38,57
378,055	37,2
378,266	59,73
378,476	72,02
378,686	-1,71
378,897	12,63
379,107	12,63
379,317	18,77
379,528	6,49
379,738	2,39
379,948	-1,71
380,158	49,49
380,369	22,87
380,579	2,39
380,789	26,96
380,999	14,68
381,21	2,39
381,42	59,73
381,63	-26,28
381,84	59,73
382,05	55,64
382,261	29,01
382,471	-69,29
382,681	8,53
382,891	-16,04
383,101	14,68
383,311	47,44
383,521	-11,95
383,731	18,77
383,941	39,25
384,151	-67,24
384,361	-34,47
384,571	-36,52
384,781	63,83
384,991	35,16
385,201	69,97
385,411	-38,57
385,621	-38,57
385,831	-18,09
386,041	90,45
386,251	10,58
386,461	67,92
386,671	-16,04
386,881	33,11
387,091	22,87
387,301	-5,8
387,511	51,54
387,72	35,16
387,93	20,82
388,14	29,01
388,35	31,06
388,56	-32,43
388,769	43,35
388,979	-77,48
389,189	-30,38
389,399	59,73
389,609	8,53
389,818	92,5
390,028	10,58
390,238	16,73
390,447	-61,1
390,657	-9,9
390,867	18,77
391,076	43,35
391,286	-34,47
391,496	22,87
391,705	35,16
391,915	31,06
392,125	51,54
392,334	10,58
392,544	76,12
392,753	55,64
392,963	-5,8
393,172	6,49
393,382	-38,57
393,591	69,97
393,801	-32,43
394,01	20,82
394,22	-22,19
394,429	-13,99
394,639	-30,38
394,848	-13,99
395,058	59,73
395,267	24,92
395,477	-13,99
395,686	47,44
395,895	-5,8
396,105	31,06
396,314	14,68
396,524	-26,28
396,733	31,06
396,942	26,96
397,152	84,31
397,361	-11,95
397,57	0,34
397,78	26,96
397,989	-1,71
398,198	59,73
398,407	37,2
398,617	14,68
398,826	-36,52
399,035	37,2
399,244	10,58
399,453	26,96
399,663	-11,95
399,872	43,35
400,081	78,16
400,29	10,58
400,499	-3,75
400,708	6,49
400,917	-20,14
401,127	55,64
401,336	49,49
401,545	57,68
401,754	4,44
401,963	-40,62
402,172	-9,9
402,381	16,73
402,59	76,12
402,799	18,77
403,008	-9,9
403,217	49,49
403,426	-5,8
403,635	37,2
403,844	-18,09
404,053	6,49
404,262	-13,99
404,471	45,4
404,68	35,16
404,888	33,11
405,097	-36,52
405,306	45,4
405,515	-22,19
405,724	22,87
405,933	51,54
406,142	35,16
406,35	45,4
406,559	37,2
406,768	18,77
406,977	37,2
407,185	-46,76
407,394	20,82
407,603	-1,71
407,812	14,68
408,02	33,11
408,229	26,96
408,438	26,96
408,646	-30,38
408,855	35,16
409,064	26,96
409,272	-3,75
409,481	59,73
409,69	-81,58
409,898	39,25
410,107	-7,85
410,315	59,73
410,524	-38,57
410,733	26,96
410,941	-18,09
411,15	-52,91
411,358	-13,99
411,567	-50,86
411,775	-30,38
411,984	26,96
412,192	-20,14
412,401	10,58
412,609	53,59
412,818	-5,8
413,026	22,87
413,234	26,96
413,443	29,01
413,651	29,01
413,86	6,49
414,068	59,73
414,276	53,59
414,485	31,06
414,693	16,73
414,901	29,01
415,11	39,25
415,318	-40,62
415,526	39,25
415,734	35,16
415,943	-9,9
416,151	29,01
416,359	16,73
416,567	82,26
416,776	-1,71
416,984	39,25
417,192	10,58
417,4	33,11
417,608	72,02
417,817	-1,71
418,025	31,06
418,233	61,78
418,441	-7,85
418,649	-22,19
418,857	8,53
419,065	10,58
419,273	2,39
419,481	45,4
419,689	-24,23
419,897	29,01
420,105	39,25
420,313	53,59
420,521	14,68
420,729	-22,19
420,937	2,39
421,145	59,73
421,353	76,12
421,561	51,54
421,769	-52,91
421,977	22,87
422,185	37,2
422,393	24,92
422,601	31,06
422,809	-1,71
423,017	-9,9
423,224	86,36
423,432	-5,8
423,64	39,25
423,848	-71,34
424,056	-5,8
424,263	-5,8
424,471	24,92
424,679	0,34
424,887	8,53
425,094	-7,85
425,302	51,54
425,51	53,59
425,718	0,34
425,925	-1,71
426,133	82,26
426,341	47,44
426,548	33,11
426,756	-32,43
426,964	41,3
427,171	-18,09
427,379	-24,23
427,586	-13,99
427,794	31,06
428,001	37,2
428,209	0,34
428,417	-42,67
428,624	-20,14
428,832	55,64
429,039	2,39
429,247	-36,52
429,454	51,54
429,662	69,97
429,869	-44,71
430,076	2,39
430,284	92,5
430,491	-26,28
430,699	18,77
430,906	-24,23
431,114	-13,99
431,321	31,06
431,528	12,63
431,736	-20,14
431,943	14,68
432,15	53,59
432,358	-30,38
432,565	0,34
432,772	-9,9
432,979	-81,58
433,187	18,77
433,394	-1,71
433,601	43,35
433,808	-32,43
434,016	18,77
434,223	-54,95
434,43	57,68
434,637	35,16
434,844	18,77
435,052	4,44
435,259	20,82
435,466	35,16
435,673	31,06
435,88	-79,53
436,087	14,68
436,294	33,11
436,501	22,87
436,708	43,35
436,915	-5,8
437,122	26,96
437,329	20,82
437,537	49,49
437,743	51,54
437,95	14,68
438,157	-3,75
438,364	-13,99
438,571	35,16
438,778	-1,71
438,985	6,49
439,192	-36,52
439,399	-32,43
439,606	26,96
439,813	-11,95
440,02	-9,9
440,227	14,68
440,433	51,54
440,64	-3,75
440,847	-22,19
441,054	37,2
441,261	-1,71
441,467	20,82
441,674	-18,09
441,881	29,01
442,088	67,92
442,294	-11,95
442,501	-5,8
442,708	14,68
442,914	45,4
443,121	86,36
443,328	10,58
443,534	4,44
443,741	84,31
443,948	6,49
444,154	-46,76
444,361	2,39
444,568	2,39
444,774	-1,71
444,981	16,73
445,187	-11,95
445,394	24,92
445,6	-40,62
445,807	47,44
446,013	10,58
446,22	-34,47
446,426	84,31
446,633	-3,75
446,839	26,96
447,046	35,16
447,252	35,16
447,459	-13,99
447,665	0,34
447,871	10,58
448,078	4,44
448,284	-26,28
448,491	29,01
448,697	43,35
448,903	49,49
449,11	33,11
449,316	-11,95
449,522	51,54
449,728	76,12
449,935	8,53
450,141	35,16
450,347	-50,86
450,553	35,16
450,76	-1,71
450,966	4,44
451,172	33,11
451,378	80,21
451,584	57,68
451,791	4,44
451,997	14,68
452,203	4,44
452,409	24,92
452,615	35,16
452,821	0,34
453,027	-5,8
453,233	39,25
453,44	-36,52
453,646	4,44
453,852	31,06
454,058	-5,8
454,264	92,5
454,47	51,54
454,676	-9,9
454,882	-30,38
455,088	-34,47
455,294	80,21
455,5	20,82
455,705	-24,23
455,911	10,58
456,117	35,16
456,323	14,68
456,529	12,63
456,735	26,96
456,941	-9,9
457,147	-30,38
457,352	-30,38
457,558	29,01
457,764	162,13
457,97	12,63
458,176	-18,09
458,381	92,5
458,587	29,01
458,793	39,25
458,999	49,49
459,204	10,58
459,41	-75,43
459,616	26,96
459,821	47,44
460,027	4,44
460,233	4,44
460,438	18,77
460,644	4,44
460,85	47,44
461,055	-11,95
461,261	18,77
461,466	12,63
461,672	2,39
461,878	4,44
462,083	26,96
462,289	35,16
462,494	-1,71
462,7	10,58
462,905	53,59
463,111	61,78
463,316	-13,99
463,522	8,53
463,727	78,16
463,932	-46,76
464,138	61,78
464,343	29,01
464,549	14,68
464,754	84,31
464,959	37,2
465,165	4,44
465,37	72,02
465,575	78,16
465,781	63,83
465,986	22,87
466,191	2,39
466,397	-46,76
466,602	-46,76
466,807	76,12
467,012	55,64
467,218	47,44
467,423	-22,19
467,628	-46,76
467,833	45,4
468,038	12,63
468,244	72,02
468,449	-46,76
468,654	31,06
468,859	-28,33
469,064	-22,19
469,269	6,49
469,474	-50,86
469,679	76,12
469,885	88,4
470,09	10,58
470,295	86,36
470,5	20,82
470,705	35,16
470,91	-40,62
471,115	76,12
471,32	10,58
471,525	6,49
471,73	-9,9
471,935	14,68
472,139	69,97
472,344	-71,34
472,549	-20,14
472,754	16,73
472,959	16,73
473,164	112,98
473,369	2,39
473,574	10,58
473,778	20,82
473,983	37,2
474,188	10,58
474,393	43,35
474,598	29,01
474,802	22,87
475,007	4,44
475,212	35,16
475,417	-5,8
475,621	63,83
475,826	2,39
476,031	-20,14
476,235	67,92
476,44	-5,8
476,645	-1,71
476,849	-50,86
477,054	16,73
477,259	-24,23
477,463	67,92
477,668	55,64
477,872	-32,43
478,077	-13,99
478,282	14,68
478,486	51,54
478,691	37,2
478,895	-22,19
479,1	-57
479,304	-34,47
479,509	-3,75
479,713	-5,8
479,918	18,77
480,122	-11,95
480,326	86,36
480,531	37,2
480,735	39,25
480,94	158,03
481,144	31,06
481,348	29,01
481,553	35,16
481,757	-30,38
481,961	43,35
482,166	18,77
482,37	-46,76
482,574	-16,04
482,778	-30,38
482,983	-26,28
483,187	-46,76
483,391	6,49
483,595	2,39
483,8	29,01
484,004	4,44
484,208	-1,71
484,412	47,44
484,616	43,35
484,821	-20,14
485,025	-18,09
485,229	63,83
485,433	102,74
485,637	4,44
485,841	-22,19
486,045	-16,04
486,249	18,77
486,453	69,97
486,657	-1,71
486,861	26,96
487,065	-91,82
487,269	-38,57
487,473	2,39
487,677	-16,04
487,881	2,39
488,085	16,73
488,289	43,35
488,493	55,64
488,697	-38,57
488,901	6,49
489,105	-30,38
489,309	-1,71
489,512	-13,99
489,716	8,53
489,92	35,16
490,124	39,25
490,328	53,59
490,531	-3,75
490,735	33,11
490,939	16,73
491,143	2,39
491,346	47,44
491,55	39,25
491,754	26,96
491,958	-28,33
492,161	4,44
492,365	24,92
492,569	31,06
492,772	4,44
492,976	16,73
493,18	-18,09
493,383	-22,19
493,587	-7,85
493,79	92,5
493,994	51,54
494,197	12,63
494,401	14,68
494,605	10,58
494,808	-11,95
495,012	-32,43
495,215	-18,09
495,419	-5,8
495,622	-20,14
495,825	10,58
496,029	84,31
496,232	0,34
496,436	47,44
496,639	16,73
496,843	22,87
497,046	61,78
497,249	47,44
497,453	-3,75
497,656	4,44
497,859	10,58
498,063	20,82
498,266	31,06
498,469	-13,99
498,673	-50,86
498,876	69,97
499,079	37,2
499,282	43,35
499,485	-11,95
499,689	10,58
499,892	10,58
500,095	-57
500,298	76,12
500,501	29,01
500,705	-11,95
500,908	20,82
501,111	35,16
501,314	49,49
501,517	22,87
501,72	35,16
501,923	12,63
502,126	41,3
502,329	-9,9
502,532	45,4
502,735	29,01
502,938	-5,8
503,141	26,96
503,344	10,58
503,547	10,58
503,75	-22,19
503,953	65,88
504,156	37,2
504,359	51,54
504,562	37,2
504,765	-28,33
504,968	-18,09
505,17	53,59
505,373	47,44
505,576	8,53
505,779	4,44
505,982	47,44
506,185	6,49
506,387	76,12
506,59	35,16
506,793	24,92
506,996	-22,19
507,198	-5,8
507,401	12,63
507,604	14,68
507,807	67,92
508,009	53,59
508,212	59,73
508,415	43,35
508,617	76,12
508,82	10,58
509,022	20,82
509,225	88,4
509,428	76,12
509,63	4,44
509,833	6,49
510,035	26,96
510,238	94,55
510,44	14,68
510,643	-20,14
510,845	31,06
511,048	74,07
511,25	43,35
511,453	65,88
511,655	26,96
511,858	6,49
512,06	37,2
512,262	10,58
512,465	59,73
512,667	92,5
512,87	-5,8
513,072	35,16
513,274	63,83
513,477	-13,99
513,679	-7,85
513,881	41,3
514,084	-38,57
514,286	45,4
514,488	-13,99
514,69	29,01
514,893	43,35
515,095	55,64
515,297	-11,95
515,499	20,82
515,701	-38,57
515,904	37,2
516,106	43,35
516,308	29,01
516,51	-54,95
516,712	43,35
516,914	26,96
517,116	20,82
517,318	39,25
517,52	55,64
517,722	43,35
517,925	129,36
518,127	53,59
518,329	-5,8
518,531	24,92
518,733	76,12
518,935	6,49
519,136	49,49
519,338	43,35
519,54	-3,75
519,742	4,44
519,944	-46,76
520,146	-9,9
520,348	-5,8
520,55	6,49
520,752	35,16
520,954	10,58
521,155	61,78
521,357	-20,14
521,559	67,92
521,761	-11,95
521,963	10,58
522,164	26,96
522,366	2,39
522,568	80,21
522,77	-24,23
522,971	86,36
523,173	67,92
523,375	74,07
523,576	39,25
523,778	84,31
523,98	110,93
524,181	127,32
524,383	117,08
524,584	63,83
524,786	184,66
524,988	168,27
525,189	350,54
525,391	477,52
525,592	635,21
525,794	1034,57
525,995	1427,78
526,197	2246,96
526,398	2992,42
526,6	4301,08
526,801	5417,22
527,003	7188,71
527,204	8646,87
527,406	10846,38
527,607	12738,71
527,808	15304,81
528,01	17674,31
528,211	20879,38
528,412	23625,71
528,614	26691,52
528,815	29921,16
529,016	33113,95
529,218	35055,42
529,419	38057,74
529,62	39749,37
529,822	42217,17
530,023	44070,58
530,224	45614,75
530,425	47107,72
530,626	47468,16
530,828	48113,27
531,029	50574,93
531,23	50105,94
531,431	50736,72
531,632	51037,77
531,833	51936,83
532,035	51979,84
532,236	52815,41
532,437	52379,19
532,638	52153,91
532,839	52770,35
533,04	52872,75
533,241	52108,86
533,442	53358,12
533,643	52622,9
533,844	52903,47
534,045	53163,56
534,246	52497,97
534,447	52813,36
534,648	52649,52
534,849	52528,69
535,05	52119,1
535,251	51940,92
535,451	51301,96
535,652	50998,86
535,853	50212,44
536,054	49018,47
536,255	47738,49
536,456	46075,54
536,657	45821,59
536,857	42886,85
537,058	41176,8
537,259	39188,22
537,46	37000,99
537,66	34299,72
537,861	32006
538,062	29091,74
538,263	26703,81
538,463	23435,25
538,664	21276,69
538,865	18765,88
539,065	16476,25
539,266	13783,17
539,466	12243,1
539,667	10178,75
539,868	8825,04
540,068	7309,54
540,269	5972,22
540,469	4679,95
540,67	3825,95
540,87	2838,83
541,071	2230,58
541,271	1485,12
541,472	1177,92
541,672	700,75
541,873	559,44
542,073	409,94
542,274	194,9
542,474	178,51
542,675	139,6
542,875	63,83
543,075	90,45
543,276	88,4
543,476	82,26
543,676	88,4
543,877	67,92
544,077	74,07
544,277	84,31
544,478	92,5
544,678	86,36
544,878	59,73
545,078	29,01
545,279	43,35
545,479	69,97
545,679	84,31
545,879	102,74
546,079	92,5
546,28	53,59
546,48	20,82
546,68	59,73
546,88	-1,71
547,08	47,44
547,28	33,11
547,48	31,06
547,68	20,82
547,88	20,82
548,081	72,02
548,281	53,59
548,481	49,49
548,681	41,3
548,881	-28,33
549,081	16,73
549,28	82,26
549,48	18,77
549,68	-7,85
549,88	-44,71
550,08	18,77
550,28	-1,71
550,48	57,68
550,68	26,96
550,88	-28,33
551,08	47,44
551,279	18,77
551,479	35,16
551,679	-20,14
551,879	29,01
552,079	84,31
552,278	53,59
552,478	45,4
552,678	14,68
552,878	2,39
553,077	43,35
553,277	10,58
553,477	43,35
553,676	31,06
553,876	35,16
554,076	29,01
554,275	43,35
554,475	18,77
554,674	-20,14
554,874	16,73
555,074	12,63
555,273	-5,8
555,473	-9,9
555,672	-3,75
555,872	-34,47
556,071	24,92
556,271	26,96
556,47	18,77
556,67	78,16
556,869	57,68
557,068	-46,76
557,268	35,16
557,467	90,45
557,667	39,25
557,866	61,78
558,065	-16,04
558,265	-3,75
558,464	72,02
558,663	-18,09
558,863	35,16
559,062	63,83
559,261	80,21
559,461	55,64
559,66	12,63
559,859	82,26
560,058	2,39
560,258	4,44
560,457	45,4
560,656	35,16
560,855	39,25
561,054	0,34
561,253	29,01
561,453	2,39
561,652	78,16
561,851	18,77
562,05	-22,19
562,249	47,44
562,448	-22,19
562,647	-9,9
562,846	-1,71
563,045	76,12
563,244	22,87
563,443	-3,75
563,642	-1,71
563,841	-26,28
564,04	39,25
564,239	4,44
564,438	26,96
564,637	47,44
564,836	26,96
565,035	59,73
565,234	72,02
565,432	14,68
565,631	51,54
565,83	45,4
566,029	29,01
566,228	-20,14
566,427	63,83
566,625	4,44
566,824	-1,71
567,023	-67,24
567,222	4,44
567,42	-44,71
567,619	18,77
567,818	59,73
568,016	47,44
568,215	18,77
568,414	18,77
568,612	2,39
568,811	67,92
569,01	86,36
569,208	37,2
569,407	20,82
569,605	20,82
569,804	37,2
570,002	10,58
570,201	-11,95
570,4	-20,14
570,598	43,35
570,797	-34,47
570,995	43,35
571,193	-22,19
571,392	-61,1
571,59	51,54
571,789	74,07
571,987	20,82
572,186	-38,57
572,384	31,06
572,582	-28,33
572,781	96,6
572,979	45,4
573,177	63,83
573,376	16,73
573,574	37,2
573,772	14,68
573,971	18,77
574,169	26,96
574,367	31,06
574,565	26,96
574,763	-44,71
574,962	33,11
575,16	61,78
575,358	0,34
575,556	-20,14
575,754	43,35
575,952	43,35
576,151	-18,09
576,349	72,02
576,547	-5,8
576,745	10,58
576,943	43,35
577,141	67,92
577,339	-3,75
577,537	37,2
577,735	-16,04
577,933	20,82
578,131	10,58
578,329	18,77
578,527	-38,57
578,725	67,92
578,923	12,63
579,121	67,92
579,319	-5,8
579,516	6,49
579,714	-26,28
579,912	10,58
580,11	14,68
580,308	0,34
580,506	-13,99
580,704	22,87
580,901	-36,52
581,099	78,16
581,297	6,49
581,495	80,21
581,692	53,59
581,89	82,26
582,088	16,73
582,285	2,39
582,483	22,87
582,681	59,73
582,878	24,92
583,076	-1,71
583,274	37,2
583,471	63,83
583,669	82,26
583,866	22,87
584,064	-11,95
584,262	43,35
584,459	10,58
584,657	-13,99
584,854	8,53
585,052	43,35
585,249	-5,8
585,447	6,49
585,644	-5,8
585,841	45,4
586,039	4,44
586,236	-20,14
586,434	37,2
586,631	14,68
586,828	-5,8
587,026	14,68
587,223	-22,19
587,42	20,82
587,618	80,21
587,815	112,98
588,012	2,39
588,21	-1,71
588,407	53,59
588,604	-83,63
588,801	-30,38
588,999	26,96
589,196	0,34
589,393	67,92
589,59	-9,9
589,787	14,68
589,984	53,59
590,182	4,44
590,379	-50,86
590,576	4,44
590,773	-3,75
590,97	43,35
591,167	18,77
591,364	22,87
591,561	98,64
591,758	-9,9
591,955	-1,71
592,152	104,79
592,349	-5,8
592,546	0,34
592,743	12,63
592,94	20,82
593,137	-24,23
593,334	-38,57
593,531	31,06
593,727	92,5
593,924	31,06
594,121	18,77
594,318	4,44
594,515	76,12
594,712	4,44
594,908	41,3
595,105	6,49
595,302	37,2
595,499	-13,99
595,696	-5,8
595,892	-3,75
596,089	61,78
596,286	-18,09
596,482	63,83
596,679	72,02
596,876	-5,8
597,072	-57
597,269	53,59
597,466	-26,28
597,662	22,87
597,859	24,92
598,055	45,4
598,252	14,68
598,448	104,79
598,645	53,59
598,841	39,25
599,038	6,49
599,234	10,58
599,431	0,34
599,627	47,44
599,824	53,59
600,02	-54,95
600,217	-7,85
600,413	-22,19
600,609	45,4
600,806	82,26
601,002	10,58
601,198	61,78
601,395	35,16
601,591	10,58
601,787	43,35
601,984	10,58
602,18	-20,14
602,376	65,88
602,572	-46,76
602,769	31,06
602,965	0,34
603,161	0,34
603,357	31,06
603,553	86,36
603,75	-36,52
603,946	-22,19
604,142	12,63
604,338	-22,19
604,534	2,39
604,73	0,34
604,926	63,83
605,122	45,4
605,318	-11,95
605,514	-73,39
605,71	-11,95
605,906	-11,95
606,102	14,68
606,298	8,53
606,494	41,3
606,69	47,44
606,886	18,77
607,082	43,35
607,278	12,63
607,474	69,97
607,67	47,44
607,866	10,58
608,062	8,53
608,257	100,69
608,453	-16,04
608,649	-11,95
608,845	6,49
609,041	-5,8
609,236	-30,38
609,432	-20,14
609,628	102,74
609,824	45,4
610,019	47,44
610,215	67,92
610,411	-11,95
610,606	84,31
610,802	18,77
610,998	39,25
611,193	-5,8
611,389	53,59
611,584	-13,99
611,78	39,25
611,976	-34,47
612,171	6,49
612,367	-95,91
612,562	-9,9
612,758	-3,75
612,953	37,2
613,149	14,68
613,344	10,58
613,539	-5,8
613,735	125,27
613,93	-1,71
614,126	-44,71
614,321	26,96
614,517	-61,1
614,712	-11,95
614,907	18,77
615,103	-22,19
615,298	37,2
615,493	-13,99
615,688	-5,8
615,884	-36,52
616,079	16,73
616,274	-3,75
616,47	37,2
616,665	20,82
616,86	45,4
617,055	18,77
617,25	67,92
617,445	-46,76
617,641	-26,28
617,836	33,11
618,031	-3,75
618,226	20,82
618,421	-13,99
618,616	31,06
618,811	16,73
619,006	-11,95
619,201	55,64
619,396	14,68
619,591	26,96
619,786	2,39
619,981	8,53
620,176	-11,95
620,371	26,96
620,566	-7,85
620,761	-13,99
620,956	47,44
621,151	41,3
621,346	-87,72
621,541	53,59
621,735	-32,43
621,93	-46,76
622,125	18,77
622,32	102,74
622,515	18,77
622,709	12,63
622,904	-40,62
623,099	33,11
623,294	-22,19
623,488	119,12
623,683	10,58
623,878	-24,23
624,072	47,44
624,267	-32,43
624,462	-30,38
624,656	-26,28
624,851	43,35
625,046	53,59
625,24	4,44
625,435	16,73
625,629	37,2
625,824	-50,86
626,018	-13,99
626,213	-3,75
626,407	53,59
626,602	45,4
626,796	24,92
626,991	22,87
627,185	-1,71
627,38	67,92
627,574	18,77
627,768	92,5
627,963	-30,38
628,157	72,02
628,352	29,01
628,546	69,97
628,74	76,12
628,935	-1,71
629,129	100,69
629,323	-36,52
629,517	49,49
629,712	80,21
629,906	22,87
630,1	45,4
630,294	-16,04
630,489	47,44
630,683	67,92
630,877	51,54
631,071	22,87
631,265	-59,05
631,459	26,96
631,653	6,49
631,848	-1,71
632,042	14,68
632,236	20,82
632,43	69,97
632,624	16,73
632,818	45,4
633,012	-16,04
633,206	84,31
633,4	-36,52
633,594	37,2
633,788	-5,8
633,982	-1,71
634,176	84,31
634,369	67,92
634,563	59,73
634,757	67,92
634,951	-42,67
635,145	6,49
635,339	55,64
635,533	0,34
635,726	26,96
635,92	18,77
636,114	-67,24
636,308	55,64
636,501	14,68
636,695	61,78
636,889	35,16
637,083	-44,71
637,276	63,83
637,47	69,97
637,664	2,39
637,857	-7,85
638,051	-5,8
638,244	49,49
638,438	-22,19
638,632	0,34
638,825	2,39
639,019	14,68
639,212	53,59
639,406	37,2
639,599	31,06
639,793	10,58
639,986	18,77
640,18	4,44
640,373	18,77
640,567	35,16
640,76	84,31
640,954	61,78
641,147	41,3
641,34	51,54
641,534	-26,28
641,727	45,4
641,92	8,53
642,114	6,49
642,307	29,01
642,5	-34,47
642,694	18,77
642,887	35,16
643,08	22,87
643,273	-20,14
643,467	-32,43
643,66	18,77
643,853	35,16
644,046	45,4
644,239	-30,38
644,432	53,59
644,626	-52,91
644,819	4,44
645,012	20,82
645,205	35,16
645,398	10,58
645,591	45,4
645,784	-1,71
645,977	4,44
646,17	-9,9
646,363	51,54
646,556	2,39
646,749	6,49
646,942	20,82
647,135	-52,91
647,328	37,2
647,521	51,54
647,714	-3,75
647,907	18,77
648,099	47,44
648,292	12,63
648,485	-1,71
648,678	18,77
648,871	10,58
649,064	35,16
649,256	72,02
649,449	8,53
649,642	-26,28
649,835	63,83
650,027	63,83
650,22	51,54
650,413	45,4
650,605	33,11
650,798	41,3
650,991	8,53
651,183	-13,99
651,376	37,2
651,568	-13,99
651,761	10,58
651,954	37,2
652,146	-26,28
652,339	35,16
652,531	43,35
652,724	43,35
652,916	-77,48
653,109	-13,99
653,301	49,49
653,494	10,58
653,686	14,68
653,879	31,06
654,071	-5,8
654,263	18,77
654,456	12,63
654,648	37,2
654,84	53,59
655,033	12,63
655,225	-13,99
655,417	39,25
655,61	76,12
655,802	43,35
655,994	2,39
656,186	51,54
656,379	92,5
656,571	61,78
656,763	10,58
656,955	47,44
657,148	35,16
657,34	20,82
657,532	-5,8
657,724	-5,8
657,916	49,49
658,108	100,69
658,3	-7,85
658,492	49,49
658,684	35,16
658,876	2,39
659,068	22,87
659,26	67,92
659,452	26,96
659,644	39,25
659,836	6,49
660,028	-20,14
660,22	100,69
660,412	-48,81
660,604	69,97
660,796	6,49
660,988	51,54
661,18	-30,38
661,372	-11,95
661,563	47,44
661,755	41,3
661,947	-24,23
662,139	-28,33
662,331	-28,33
662,522	2,39
662,714	49,49
662,906	55,64
663,097	-38,57
663,289	-11,95
663,481	-26,28
663,673	-20,14
663,864	0,34
664,056	-5,8
664,247	-34,47
664,439	84,31
664,631	20,82
664,822	-42,67
665,014	29,01
665,205	76,12
665,397	-5,8
665,588	2,39
665,78	-22,19
665,971	43,35
666,163	61,78
666,354	-9,9
666,546	-20,14
666,737	26,96
666,929	12,63
667,12	26,96
667,311	16,73
667,503	-46,76
667,694	-16,04
667,885	59,73
668,077	-7,85
668,268	55,64
668,459	-59,05
668,651	84,31
668,842	4,44
669,033	14,68
669,224	10,58
669,416	43,35
669,607	43,35
669,798	74,07
669,989	20,82
670,18	-11,95
670,371	20,82
670,563	37,2
670,754	18,77
670,945	12,63
671,136	43,35
671,327	-18,09
671,518	57,68
671,709	0,34
671,9	-38,57
672,091	18,77
672,282	33,11
672,473	67,92
672,664	-20,14
672,855	-1,71
673,046	22,87
673,237	-48,81
673,428	-46,76
673,619	-20,14
673,809	-3,75
674	31,06
674,191	-40,62
674,382	53,59
674,573	12,63
674,764	37,2
674,954	-11,95
675,145	18,77
675,336	-81,58
675,527	22,87
675,717	-28,33
675,908	-20,14
676,099	10,58
676,289	6,49
676,48	26,96
676,671	67,92
676,861	8,53
677,052	-38,57
677,243	45,4
677,433	-5,8
677,624	10,58
677,814	-46,76
678,005	-24,23
678,195	63,83
678,386	-18,09
678,576	18,77
678,767	26,96
678,957	4,44
679,148	110,93
679,338	31,06
679,529	26,96
679,719	22,87
679,909	37,2
680,1	67,92
680,29	-11,95
680,481	14,68
680,671	41,3
680,861	24,92
681,052	-30,38
681,242	51,54
681,432	-3,75
681,622	2,39
681,813	-30,38
682,003	-30,38
682,193	37,2
682,383	53,59
682,573	18,77
682,764	18,77
682,954	-20,14
683,144	37,2
683,334	22,87
683,524	37,2
683,714	39,25
683,904	26,96
684,094	-9,9
684,284	86,36
684,474	12,63
684,664	-13,99
684,854	43,35
685,044	14,68
685,234	2,39
685,424	29,01
685,614	18,77
685,804	-28,33
685,994	22,87
686,184	2,39
686,374	43,35
686,564	57,68
686,753	74,07
686,943	43,35
687,133	-26,28
687,323	0,34
687,513	35,16
687,702	4,44
687,892	45,4
688,082	-3,75
688,272	-26,28
688,461	53,59
688,651	59,73
688,841	-28,33
689,03	-22,19
689,22	6,49
689,41	-5,8
689,599	-18,09
689,789	39,25
689,979	-13,99
690,168	-36,52
690,358	43,35
690,547	-52,91
690,737	-9,9
690,926	4,44
691,116	-5,8
691,305	43,35
691,495	-30,38
691,684	47,44
691,874	33,11
692,063	53,59
692,252	33,11
692,442	-34,47
692,631	-11,95
692,82	0,34
693,01	-11,95
693,199	26,96
693,388	94,55
693,578	4,44
693,767	61,78
693,956	-44,71
694,146	18,77
694,335	-9,9
694,524	18,77
694,713	-3,75
694,902	2,39
695,092	29,01
695,281	82,26
695,47	49,49
695,659	10,58
695,848	10,58
696,037	22,87
696,226	37,2
696,415	14,68
696,604	-13,99
696,793	37,2
696,982	49,49
697,171	10,58
697,36	37,2
697,549	20,82
697,738	10,58
697,927	-48,81
698,116	-5,8
698,305	-89,77
698,494	4,44
698,683	86,36
698,872	72,02
699,061	-22,19
699,25	84,31
699,438	8,53
699,627	-16,04
699,816	22,87
700,005	33,11
700,193	88,4
700,382	10,58
700,571	84,31
700,76	-24,23
700,948	51,54
701,137	67,92
701,326	49,49
701,514	-30,38
701,703	45,4
701,892	-3,75
702,08	-11,95
702,269	12,63
702,457	10,58
702,646	8,53
702,834	67,92
703,023	-79,53
703,212	59,73
703,4	29,01
703,589	24,92
703,777	33,11
703,965	14,68
704,154	2,39
704,342	-13,99
704,531	-77,48
704,719	-13,99
704,907	10,58
705,096	20,82
705,284	69,97
705,472	31,06
705,661	4,44
705,849	-20,14
706,037	-1,71
706,226	18,77
706,414	0,34
706,602	-85,67
706,79	39,25
706,979	76,12
707,167	-9,9
707,355	-28,33
707,543	2,39
707,731	10,58
707,919	-38,57
708,107	-11,95
708,296	22,87
708,484	-18,09
708,672	29,01
708,86	29,01
709,048	18,77
709,236	-18,09
709,424	20,82
709,612	18,77
709,8	10,58
709,988	35,16
710,176	-1,71
710,364	67,92
710,551	45,4
710,739	26,96
710,927	33,11
711,115	106,84
711,303	-18,09
711,491	47,44
711,679	-26,28
711,866	51,54
712,054	18,77
712,242	43,35
712,43	86,36
712,617	43,35
712,805	-61,1
712,993	37,2
713,181	-1,71
713,368	-20,14
713,556	-93,87
713,744	69,97
713,931	29,01
714,119	26,96
714,306	35,16
714,494	-20,14
714,682	-13,99
714,869	26,96
715,057	2,39
715,244	-42,67
715,432	-22,19
715,619	37,2
715,807	45,4
715,994	29,01
716,182	14,68
716,369	-5,8
716,556	16,73
716,744	41,3
716,931	-40,62
717,119	31,06
717,306	-38,57
717,493	2,39
717,681	-7,85
717,868	29,01
718,055	2,39
718,242	-63,15
718,43	-44,71
718,617	2,39
718,804	-9,9
718,991	22,87
719,179	63,83
719,366	117,08
719,553	26,96
719,74	16,73
719,927	-28,33
720,114	4,44
720,301	10,58
720,488	26,96
720,676	24,92
720,863	26,96
721,05	-73,39
721,237	55,64
721,424	-22,19
721,611	37,2
721,798	67,92
721,985	-30,38
722,172	33,11
722,358	10,58
722,545	-30,38
722,732	61,78
722,919	26,96
723,106	61,78
723,293	22,87
723,48	4,44
723,667	51,54
723,853	59,73
724,04	37,2
724,227	-13,99
724,414	45,4
724,6	26,96
724,787	-22,19
724,974	-42,67
725,161	-46,76
725,347	45,4
725,534	18,77
725,72	-5,8
725,907	51,54
726,094	-9,9
726,28	59,73
726,467	2,39
726,653	-5,8
726,84	31,06
727,027	14,68
727,213	33,11
727,4	33,11
727,586	53,59
727,773	-54,95
727,959	24,92
728,145	10,58
728,332	18,77
728,518	20,82
728,705	-22,19
728,891	37,2
729,077	-44,71
729,264	14,68
729,45	-1,71
729,636	72,02
729,823	16,73
730,009	33,11
730,195	76,12
730,382	31,06
730,568	39,25
730,754	18,77
730,94	49,49
731,126	-20,14
731,313	43,35
731,499	94,55
731,685	43,35
731,871	6,49
732,057	-22,19
732,243	-11,95
732,429	20,82
732,615	-13,99
732,801	14,68
732,987	55,64
733,173	-5,8
733,359	18,77
733,545	2,39
733,731	-75,43
733,917	0,34
734,103	31,06
734,289	29,01
734,475	-26,28
734,661	18,77
734,847	20,82
735,033	61,78
735,219	53,59
735,404	18,77
735,59	-22,19
735,776	-5,8
735,962	26,96
736,148	-42,67
736,333	43,35
736,519	20,82
736,705	2,39
736,89	26,96
737,076	49,49
737,262	35,16
737,447	-34,47
737,633	-28,33
737,819	31,06
738,004	31,06
738,19	31,06
738,375	39,25
738,561	49,49
738,747	-24,23
738,932	-20,14
739,118	67,92
739,303	-34,47
739,489	-59,05
739,674	-16,04
739,859	22,87
740,045	55,64
740,23	12,63
740,416	-28,33
740,601	-1,71
740,786	4,44
740,972	45,4
741,157	67,92
741,342	26,96
741,528	-46,76
741,713	35,16
741,898	22,87
742,084	47,44
742,269	-40,62
742,454	51,54
742,639	61,78
742,824	-3,75
743,01	37,2
743,195	65,88
743,38	-38,57
743,565	57,68
743,75	14,68
743,935	-28,33
744,12	-22,19
744,305	49,49
744,49	63,83
744,675	6,49
744,86	-20,14
745,045	76,12
745,23	29,01
745,415	26,96
745,6	4,44
745,785	76,12
745,97	-1,71
746,155	20,82
746,34	-50,86
746,525	-9,9
746,71	59,73
746,895	43,35
747,079	-46,76
747,264	112,98
747,449	45,4
747,634	59,73
747,819	59,73
748,003	-1,71
748,188	-54,95
748,373	12,63
748,557	18,77
748,742	86,36
748,927	-5,8
749,111	51,54
749,296	100,69
749,481	49,49
749,665	14,68
749,85	-50,86
750,034	18,77
750,219	78,16
750,404	4,44
750,588	39,25
750,773	-18,09
750,957	39,25
751,141	53,59
751,326	67,92
751,51	12,63
751,695	69,97
751,879	35,16
752,064	12,63
752,248	35,16
752,432	-32,43
752,617	72,02
752,801	-13,99
752,985	-28,33
753,17	90,45
753,354	14,68
753,538	10,58
753,722	18,77
753,907	-5,8
754,091	-3,75
754,275	26,96
754,459	-46,76
754,643	43,35
754,828	24,92
755,012	6,49
755,196	16,73
755,38	4,44
755,564	-11,95
755,748	53,59
755,932	92,5
756,116	12,63
756,3	26,96
756,484	-11,95
756,668	65,88
756,852	-13,99
757,036	14,68
757,22	10,58
757,404	59,73
757,588	-11,95
757,772	-16,04
757,956	63,83
758,14	-13,99
758,323	90,45
758,507	39,25
758,691	37,2
758,875	-5,8
759,059	8,53
759,242	-11,95
759,426	47,44
759,61	47,44
759,794	-38,57
759,977	2,39
760,161	12,63
760,345	10,58
760,528	12,63
760,712	10,58
760,895	-34,47
761,079	6,49
761,263	49,49
761,446	6,49
761,63	63,83
761,813	14,68
761,997	-69,29
762,18	-36,52
762,364	47,44
762,547	4,44
762,731	-18,09
762,914	-63,15
763,098	10,58
763,281	22,87
763,464	80,21
763,648	20,82
763,831	-5,8
764,015	20,82
764,198	-36,52
764,381	49,49
764,564	-3,75
764,748	37,2
764,931	10,58
765,114	-3,75
765,297	26,96
765,481	-65,19
765,664	-1,71
765,847	35,16
766,03	10,58
766,213	14,68
766,397	-7,85
766,58	-5,8
766,763	-34,47
766,946	37,2
767,129	26,96
767,312	-24,23
767,495	-44,71
767,678	59,73
767,861	8,53
768,044	55,64
768,227	12,63
768,41	-38,57
768,593	72,02
768,776	4,44
768,959	-11,95
769,142	45,4
769,324	22,87
769,507	20,82
769,69	37,2
769,873	14,68
770,056	74,07
770,239	55,64
770,421	26,96
770,604	-34,47
770,787	-1,71
770,97	37,2
771,152	31,06
771,335	18,77
771,518	-38,57
771,7	53,59
771,883	4,44
772,066	29,01
772,248	88,4
772,431	24,92
772,613	8,53
772,796	51,54
772,978	31,06
773,161	-22,19
773,343	-11,95
773,526	-5,8
773,708	-34,47
773,891	-54,95
774,073	12,63
774,256	24,92
774,438	22,87
774,621	-42,67
774,803	-3,75
774,985	12,63
775,168	-7,85
775,35	16,73
775,532	0,34
775,715	-52,91
775,897	-20,14
776,079	22,87
776,261	63,83
776,444	12,63
776,626	-7,85
776,808	55,64
776,99	-18,09
777,173	45,4
777,355	-30,38
777,537	-30,38
777,719	22,87
777,901	-63,15
778,083	29,01
778,265	4,44
778,447	-11,95
778,629	2,39
778,811	-30,38
778,993	10,58
779,175	2,39
779,357	51,54
779,539	-13,99
779,721	-22,19
779,903	14,68
780,085	-42,67
780,267	65,88
780,449	-16,04
780,631	-18,09
780,812	18,77
780,994	14,68
781,176	-13,99
781,358	8,53
781,54	26,96
781,721	22,87
781,903	37,2
782,085	-16,04
782,267	0,34
782,448	-69,29
782,63	33,11
782,812	-48,81
782,993	43,35
783,175	51,54
783,357	37,2
783,538	14,68
783,72	100,69
783,901	-42,67
784,083	51,54
784,264	-34,47
784,446	63,83
784,627	-1,71
784,809	-48,81
784,99	26,96
785,172	22,87
785,353	35,16
785,535	33,11
785,716	31,06
785,897	-48,81
786,079	-22,19
786,26	18,77
786,441	-13,99
786,623	-9,9
786,804	90,45
786,985	29,01
787,167	86,36
787,348	39,25
787,529	-3,75
787,71	41,3
787,891	2,39
788,073	69,97
788,254	2,39
788,435	-9,9
788,616	67,92
788,797	10,58
788,978	10,58
789,159	-13,99
789,34	102,74
789,522	-42,67
789,703	14,68
789,884	-5,8
790,065	14,68
790,246	-22,19
790,427	37,2
790,607	-5,8
790,788	8,53
790,969	84,31
791,15	22,87
791,331	-18,09
791,512	14,68
791,693	-3,75
791,874	-3,75
792,054	16,73
792,235	35,16
792,416	-48,81
792,597	53,59
792,778	12,63
792,958	35,16
793,139	-24,23
793,32	72,02
793,5	-5,8
793,681	-30,38
793,862	16,73
794,042	33,11
794,223	2,39
794,404	-18,09
794,584	26,96
794,765	-24,23
794,945	33,11
795,126	29,01
795,306	20,82
795,487	-3,75
795,667	61,78
795,848	-54,95
796,028	31,06
796,209	12,63
796,389	18,77
796,57	69,97
796,75	18,77
796,93	47,44
797,111	0,34
797,291	-7,85
797,471	61,78
797,652	55,64
797,832	18,77
798,012	41,3
798,192	4,44
798,373	61,78
798,553	-79,53
798,733	29,01
798,913	-13,99
799,093	14,68
799,274	26,96
799,454	8,53
799,634	0,34
799,814	18,77
799,994	12,63
800,174	-1,71
800,354	67,92
800,534	-1,71
800,714	63,83
800,894	76,12
801,074	0,34
801,254	-34,47
801,434	2,39
801,614	59,73
801,794	-36,52
801,974	12,63
802,154	14,68
802,334	-5,8
802,514	-22,19
802,693	-13,99
802,873	0,34
803,053	8,53
803,233	-95,91
803,413	-13,99
803,592	6,49
803,772	49,49
803,952	-9,9
804,131	4,44
804,311	67,92
804,491	37,2
804,67	55,64
804,85	-1,71
805,03	14,68
805,209	35,16
805,389	98,64
805,568	102,74
805,748	14,68
805,928	33,11
806,107	0,34
806,287	-9,9
806,466	-38,57
806,646	-46,76
806,825	8,53
807,004	29,01
807,184	-38,57
807,363	88,4
807,543	-20,14
807,722	24,92
807,901	-30,38
808,081	-7,85
808,26	22,87
808,439	-11,95
808,619	-50,86
808,798	20,82
808,977	12,63
809,156	6,49
809,336	-18,09
809,515	-11,95
809,694	-7,85
809,873	6,49
810,052	8,53
810,231	51,54
810,411	10,58
810,59	14,68
810,769	26,96
810,948	51,54
811,127	14,68
811,306	-13,99
811,485	16,73
811,664	-38,57
811,843	37,2
812,022	-30,38
812,201	14,68
812,38	-16,04
812,559	35,16
812,737	-28,33
812,916	26,96
813,095	33,11
813,274	-32,43
813,453	-40,62
813,632	2,39
813,811	-40,62
813,989	20,82
814,168	18,77
814,347	4,44
814,526	125,27
814,704	6,49
814,883	22,87
815,062	22,87
815,24	2,39
815,419	8,53
815,598	41,3
815,776	-18,09
815,955	8,53
816,133	-48,81
816,312	6,49
816,49	4,44
816,669	78,16
816,847	47,44
817,026	31,06
817,204	8,53
817,383	0,34
817,561	26,96
817,74	43,35
817,918	-34,47
818,097	26,96
818,275	20,82
818,453	14,68
818,632	-13,99
818,81	72,02
818,988	-24,23
819,167	18,77
819,345	-13,99
819,523	47,44
819,701	-18,09
819,879	35,16
820,058	-36,52
820,236	6,49
820,414	69,97
820,592	6,49
820,77	80,21
820,948	-1,71
821,127	35,16
821,305	26,96
821,483	10,58
821,661	16,73
821,839	45,4
822,017	14,68
822,195	0,34
822,373	14,68
822,551	-18,09
822,729	45,4
822,907	-22,19
823,085	18,77
823,262	10,58
823,44	74,07
823,618	6,49
823,796	-11,95
823,974	-3,75
824,152	-57
824,329	-1,71
824,507	133,46
824,685	-28,33
824,863	80,21
825,04	8,53
825,218	22,87
825,396	35,16
825,574	37,2
825,751	-11,95
825,929	-13,99
826,107	-24,23
826,284	26,96
826,462	-20,14
826,639	35,16
826,817	35,16
826,994	80,21
827,172	-48,81
827,349	65,88
827,527	-63,15
827,704	39,25
827,882	-3,75
828,059	51,54
828,237	35,16
828,414	-18,09
828,591	-38,57
828,769	59,73
828,946	-20,14
829,124	33,11
829,301	43,35
829,478	18,77
829,655	-20,14
829,833	24,92
830,01	-24,23
830,187	-69,29
830,364	4,44
830,542	65,88
830,719	-32,43
830,896	26,96
831,073	-20,14
831,25	-9,9
831,427	43,35
831,604	39,25
831,782	-3,75
831,959	94,55
832,136	35,16
832,313	49,49
832,49	-26,28
832,667	92,5
832,844	43,35
833,021	51,54
833,198	26,96
833,374	39,25
833,551	4,44
833,728	-5,8
833,905	-20,14
834,082	-48,81
834,259	-61,1
834,436	37,2
834,612	-22,19
834,789	76,12
834,966	45,4
835,143	-24,23
835,319	4,44
835,496	20,82
835,673	59,73
835,85	43,35
836,026	-9,9
836,203	59,73
836,38	24,92
836,556	-20,14
836,733	45,4
836,909	-38,57
837,086	4,44
837,262	-3,75
837,439	49,49
837,616	6,49
837,792	4,44
837,968	78,16
838,145	2,39
838,321	-44,71
838,498	92,5
838,674	-32,43
838,851	-3,75
839,027	10,58
839,203	-18,09
839,38	14,68
839,556	-73,39
839,732	26,96
839,909	-13,99
840,085	-7,85
840,261	-13,99
840,437	-18,09
840,614	14,68
840,79	51,54
840,966	2,39
841,142	43,35
841,318	67,92
841,494	22,87
841,671	-18,09
841,847	18,77
842,023	2,39
842,199	78,16
842,375	10,58
842,551	8,53
842,727	-28,33
842,903	18,77
843,079	-36,52
843,255	-46,76
843,431	33,11
843,607	26,96
843,783	55,64
843,959	-38,57
844,134	16,73
844,31	51,54
844,486	-22,19
844,662	31,06
844,838	-16,04
845,013	22,87
845,189	51,54
845,365	-63,15
845,541	-13,99
845,716	2,39
845,892	6,49
846,068	2,39
846,244	20,82
846,419	47,44
846,595	-7,85
846,77	45,4
846,946	29,01
847,122	49,49
847,297	20,82
847,473	69,97
847,648	8,53
847,824	20,82
847,999	-22,19
848,175	-30,38
848,35	22,87
848,526	-18,09
848,701	-7,85
848,876	6,49
849,052	12,63
849,227	0,34
849,403	-26,28
849,578	-13,99
849,753	-46,76
849,929	20,82
850,104	26,96
850,279	-9,9
850,454	8,53
850,63	35,16
850,805	6,49
850,98	18,77
851,155	2,39
851,33	-24,23
851,505	-61,1
851,681	31,06
851,856	10,58
852,031	59,73
852,206	29,01
852,381	100,69
852,556	-63,15
852,731	88,4
852,906	18,77
853,081	14,68
853,256	-20,14
853,431	-44,71
853,606	-3,75
853,781	22,87
853,956	-24,23
854,131	49,49
854,305	-18,09
854,48	10,58
854,655	-3,75
854,83	29,01
855,005	20,82
855,18	-22,19
855,354	84,31
855,529	22,87
855,704	22,87
855,879	49,49
856,053	2,39
856,228	4,44
856,403	72,02
856,577	39,25
856,752	82,26
856,926	22,87
857,101	31,06
857,276	18,77
857,45	2,39
857,625	2,39
857,799	51,54
857,974	61,78
858,148	-28,33
858,323	-5,8
858,497	-11,95
858,672	-1,71
858,846	4,44
859,02	90,45
859,195	-30,38
859,369	26,96
859,543	57,68
859,718	33,11
859,892	84,31
860,066	80,21
860,241	-16,04
860,415	80,21
860,589	-13,99
860,763	31,06
860,938	16,73
861,112	35,16
861,286	-5,8
861,46	-7,85
861,634	82,26
861,808	-18,09
861,982	20,82
862,157	-20,14
862,331	18,77
862,505	69,97
862,679	43,35
862,853	14,68
863,027	35,16
863,201	84,31
863,375	29,01
863,549	-61,1
863,722	51,54
863,896	22,87
864,07	-24,23
864,244	-13,99
864,418	31,06
864,592	14,68
864,766	18,77
864,939	10,58
865,113	72,02
865,287	6,49
865,461	-32,43
865,634	51,54
865,808	-13,99
865,982	0,34
866,156	-48,81
866,329	35,16
866,503	8,53
866,676	14,68
866,85	-42,67
867,024	-13,99
867,197	55,64
867,371	-13,99
867,544	47,44
867,718	41,3
867,891	-40,62
868,065	-5,8
868,238	0,34
868,412	31,06
868,585	43,35
868,759	31,06
868,932	18,77
869,105	-3,75
869,279	-13,99
869,452	0,34
869,625	10,58
869,799	-30,38
869,972	35,16
870,145	4,44
870,319	-7,85
870,492	-69,29
870,665	69,97
870,838	20,82
871,011	26,96
871,185	-67,24
871,358	-13,99
871,531	49,49
871,704	31,06
871,877	10,58
872,05	39,25
872,223	-28,33
872,396	45,4
872,569	18,77
872,742	-24,23
872,915	16,73
873,088	37,2
873,261	29,01
873,434	33,11
873,607	-11,95
873,78	-16,04
873,953	-20,14
874,126	-16,04
874,299	20,82
874,471	20,82
874,644	55,64
874,817	49,49
874,99	39,25
875,163	72,02
875,335	-5,8
875,508	-50,86
875,681	-13,99
875,853	-63,15
876,026	41,3
876,199	-40,62
876,371	51,54
876,544	18,77
876,717	14,68
876,889	-34,47
877,062	-1,71
877,234	90,45
877,407	78,16
877,579	-28,33
877,752	51,54
877,924	-61,1
878,097	69,97
878,269	-20,14
878,442	35,16
878,614	10,58
878,786	33,11
878,959	43,35
879,131	24,92
879,303	-5,8
879,476	18,77
879,648	14,68
879,82	8,53
879,993	63,83
880,165	26,96
880,337	-24,23
880,509	18,77
880,681	-18,09
880,854	-40,62
881,026	4,44
881,198	-38,57
881,37	26,96
881,542	43,35
881,714	-1,71
881,886	45,4
882,058	-63,15
882,23	37,2
882,402	8,53
882,574	-11,95
882,746	26,96
882,918	12,63
883,09	39,25
883,262	16,73
883,434	29,01
883,606	102,74
883,778	31,06
883,95	47,44
884,122	43,35
884,293	43,35
884,465	4,44
884,637	-7,85
884,809	51,54
884,98	14,68
885,152	-13,99
885,324	-28,33
885,496	-22,19
885,667	53,59
885,839	43,35
886,011	26,96
886,182	0,34
886,354	-42,67
886,525	31,06
886,697	14,68
886,869	14,68
887,04	-3,75
887,212	61,78
887,383	2,39
887,555	35,16
887,726	12,63
887,897	33,11
888,069	-30,38
888,24	-9,9
888,412	8,53
888,583	-44,71
888,754	31,06
888,926	-9,9
889,097	22,87
889,268	-42,67
889,44	45,4
889,611	-1,71
889,782	22,87
889,953	20,82
890,125	35,16
890,296	4,44
890,467	18,77
890,638	0,34
890,809	10,58
890,98	-44,71
891,151	80,21
891,323	2,39
891,494	43,35
891,665	4,44
891,836	-13,99
892,007	-13,99
892,178	57,68
892,349	57,68
892,52	39,25
892,691	92,5
892,862	47,44
893,032	18,77
893,203	20,82
893,374	22,87
893,545	33,11
893,716	26,96
893,887	6,49
894,057	10,58
894,228	10,58
894,399	-26,28
894,57	39,25
894,74	33,11
894,911	29,01
895,082	-26,28
895,253	72,02
895,423	29,01
895,594	18,77
895,764	67,92
895,935	26,96
896,106	51,54
896,276	26,96
896,447	10,58
896,617	-22,19
896,788	10,58
896,958	14,68
897,129	-7,85
897,299	18,77
897,47	-44,71
897,64	76,12
897,81	-24,23
897,981	-7,85
898,151	39,25
898,322	57,68
898,492	-81,58
898,662	18,77
898,832	-79,53
899,003	-38,57
899,173	-7,85
899,343	2,39
899,513	14,68
