Data from filtre 532_USB4F104151__9__11-57-42-412.txt Node

Date: Wed Apr 15 11:57:42 EDT 2026
User: LaboPhy
Spectrometer: USB4F10415
Trigger mode: 4
Integration Time (sec): 3,000000E-3
Scans to average: 1
Electric dark correction enabled: true
Nonlinearity correction enabled: false
Boxcar width: 0
XAxis mode: Wavelengths
Number of Pixels in Spectrum: 3648
>>>>>Begin Spectral Data<<<<<
178,204	5,97
178,424	5,97
178,644	5,97
178,864	14,17
179,084	30,55
179,304	-10,41
179,524	-30,89
179,744	-18,6
179,964	22,36
180,184	-0,17
180,404	77,65
180,624	-55,47
180,844	57,17
181,064	-14,51
181,283	-26,79
181,503	14,17
181,723	-14,51
181,943	-39,08
182,163	18,26
182,383	-18,6
182,602	30,55
182,822	42,84
183,042	8,02
183,262	-24,75
183,482	38,74
183,701	-59,56
183,921	20,31
184,141	14,17
184,361	-18,6
184,58	14,17
184,8	48,98
185,02	-59,56
185,239	48,98
185,459	67,41
185,679	110,42
185,898	14,17
186,118	26,45
186,338	-28,84
186,557	32,6
186,777	22,36
186,997	20,31
187,216	57,17
187,436	30,55
187,655	79,7
187,875	30,55
188,095	-4,27
188,314	28,5
188,534	63,32
188,753	-8,36
188,973	59,22
189,192	-4,27
189,412	1,88
189,631	34,64
189,851	32,6
190,07	46,93
190,29	-32,94
190,509	14,17
190,729	-63,66
190,948	32,6
191,168	24,4
191,387	48,98
191,607	-16,55
191,826	44,88
192,045	5,97
192,265	-4,27
192,484	16,21
192,704	57,17
192,923	-2,22
193,142	16,21
193,362	5,97
193,581	22,36
193,8	-47,27
194,02	5,97
194,239	14,17
194,458	-8,36
194,678	14,17
194,897	14,17
195,116	-0,17
195,335	34,64
195,555	-14,51
195,774	-0,17
195,993	8,02
196,212	73,56
196,432	46,93
196,651	14,17
196,87	-16,55
197,089	46,93
197,308	91,99
197,528	38,74
197,747	-22,7
197,966	51,03
198,185	18,26
198,404	71,51
198,623	26,45
198,842	48,98
199,062	57,17
199,281	16,21
199,5	-20,65
199,719	48,98
199,938	24,4
200,157	100,18
200,376	51,03
200,595	65,36
200,814	-4,27
201,033	10,07
201,252	34,64
201,471	-22,7
201,69	-0,17
201,909	57,17
202,128	26,45
202,347	48,98
202,566	-55,47
202,785	26,45
203,004	-2,22
203,223	16,21
203,442	67,41
203,661	36,69
203,879	5,97
204,098	106,32
204,317	-43,18
204,536	46,93
204,755	3,93
204,974	-6,31
205,193	46,93
205,411	10,07
205,63	51,03
205,849	-4,27
206,068	-43,18
206,287	-16,55
206,505	-14,51
206,724	14,17
206,943	-8,36
207,162	-2,22
207,381	-10,41
207,599	-18,6
207,818	16,21
208,037	-22,7
208,255	42,84
208,474	-2,22
208,693	22,36
208,911	112,47
209,13	1,88
209,349	71,51
209,567	46,93
209,786	42,84
210,005	10,07
210,223	73,56
210,442	5,97
210,661	22,36
210,879	-30,89
211,098	38,74
211,316	81,75
211,535	42,84
211,753	-43,18
211,972	-22,7
212,191	-45,23
212,409	71,51
212,628	79,7
212,846	1,88
213,065	-6,31
213,283	55,12
213,502	-8,36
213,72	38,74
213,938	16,21
214,157	-8,36
214,375	98,13
214,594	53,08
214,812	1,88
215,031	30,55
215,249	1,88
215,467	38,74
215,686	-37,03
215,904	1,88
216,122	34,64
216,341	-14,51
216,559	-41,13
216,778	91,99
216,996	32,6
217,214	40,79
217,432	-57,51
217,651	63,32
217,869	24,4
218,087	89,94
218,306	-14,51
218,524	-8,36
218,742	71,51
218,96	-75,95
219,179	16,21
219,397	-28,84
219,615	30,55
219,833	10,07
220,051	32,6
220,27	34,64
220,488	106,32
220,706	55,12
220,924	30,55
221,142	8,02
221,36	61,27
221,578	32,6
221,796	71,51
222,015	36,69
222,233	55,12
222,451	40,79
222,669	-2,22
222,887	-2,22
223,105	20,31
223,323	38,74
223,541	38,74
223,759	5,97
223,977	32,6
224,195	14,17
224,413	-2,22
224,631	61,27
224,849	1,88
225,067	30,55
225,285	22,36
225,503	71,51
225,721	22,36
225,939	40,79
226,157	5,97
226,375	79,7
226,592	81,75
226,81	14,17
227,028	8,02
227,246	8,02
227,464	51,03
227,682	32,6
227,9	-0,17
228,117	-2,22
228,335	22,36
228,553	55,12
228,771	38,74
228,989	91,99
229,206	-34,99
229,424	71,51
229,642	12,12
229,86	71,51
230,077	32,6
230,295	-18,6
230,513	-18,6
230,731	51,03
230,948	14,17
231,166	8,02
231,384	46,93
231,601	61,27
231,819	44,88
232,037	-16,55
232,254	-12,46
232,472	24,4
232,689	-22,7
232,907	-8,36
233,125	48,98
233,342	53,08
233,56	73,56
233,777	-18,6
233,995	42,84
234,213	26,45
234,43	16,21
234,648	42,84
234,865	44,88
235,083	57,17
235,3	-30,89
235,518	63,32
235,735	8,02
235,953	63,32
236,17	55,12
236,388	61,27
236,605	32,6
236,822	-20,65
237,04	14,17
237,257	16,21
237,475	-24,75
237,692	96,08
237,909	-41,13
238,127	61,27
238,344	30,55
238,562	38,74
238,779	-10,41
238,996	22,36
239,214	-4,27
239,431	46,93
239,648	-34,99
239,865	5,97
240,083	28,5
240,3	18,26
240,517	75,6
240,735	46,93
240,952	63,32
241,169	46,93
241,386	30,55
241,603	12,12
241,821	-24,75
242,038	40,79
242,255	-24,75
242,472	38,74
242,689	-2,22
242,907	51,03
243,124	-41,13
243,341	1,88
243,558	57,17
243,775	112,47
243,992	-18,6
244,209	42,84
244,426	30,55
244,643	104,28
244,86	8,02
245,078	81,75
245,295	-8,36
245,512	-0,17
245,729	8,02
245,946	108,37
246,163	30,55
246,38	83,8
246,597	14,17
246,814	-41,13
247,031	1,88
247,248	18,26
247,464	48,98
247,681	-16,55
247,898	-2,22
248,115	67,41
248,332	73,56
248,549	69,46
248,766	24,4
248,983	87,89
249,2	-12,46
249,417	48,98
249,633	8,02
249,85	-32,94
250,067	24,4
250,284	34,64
250,501	10,07
250,717	57,17
250,934	-30,89
251,151	57,17
251,368	36,69
251,585	59,22
251,801	22,36
252,018	32,6
252,235	10,07
252,451	-12,46
252,668	8,02
252,885	18,26
253,102	-55,47
253,318	46,93
253,535	-34,99
253,752	-51,37
253,968	28,5
254,185	61,27
254,401	20,31
254,618	14,17
254,835	96,08
255,051	8,02
255,268	22,36
255,484	57,17
255,701	32,6
255,917	69,46
256,134	-39,08
256,351	22,36
256,567	1,88
256,784	-8,36
257	-2,22
257,217	-41,13
257,433	40,79
257,65	22,36
257,866	53,08
258,082	122,71
258,299	34,64
258,515	34,64
258,732	30,55
258,948	-22,7
259,165	-34,99
259,381	32,6
259,597	57,17
259,814	-55,47
260,03	-34,99
260,246	-8,36
260,463	-45,23
260,679	22,36
260,895	53,08
261,112	53,08
261,328	-14,51
261,544	44,88
261,761	-26,79
261,977	-22,7
262,193	-30,89
262,409	44,88
262,626	-39,08
262,842	57,17
263,058	51,03
263,274	-10,41
263,49	59,22
263,707	48,98
263,923	40,79
264,139	-43,18
264,355	51,03
264,571	-57,51
264,787	91,99
265,004	46,93
265,22	-2,22
265,436	40,79
265,652	3,93
265,868	28,5
266,084	53,08
266,3	-22,7
266,516	-80,04
266,732	65,36
266,948	22,36
267,164	-51,37
267,38	5,97
267,596	79,7
267,812	42,84
268,028	57,17
268,244	-6,31
268,46	75,6
268,676	-22,7
268,892	40,79
269,108	5,97
269,324	-49,32
269,54	3,93
269,756	100,18
269,972	22,36
270,188	-51,37
270,403	8,02
270,619	-4,27
270,835	-2,22
271,051	-16,55
271,267	-8,36
271,483	14,17
271,698	46,93
271,914	24,4
272,13	24,4
272,346	14,17
272,562	-16,55
272,777	16,21
272,993	69,46
273,209	-4,27
273,425	-8,36
273,64	30,55
273,856	73,56
274,072	-0,17
274,287	34,64
274,503	24,4
274,719	40,79
274,934	63,32
275,15	30,55
275,366	-24,75
275,581	-30,89
275,797	1,88
276,012	34,64
276,228	38,74
276,444	8,02
276,659	30,55
276,875	-34,99
277,09	10,07
277,306	5,97
277,521	48,98
277,737	-6,31
277,952	14,17
278,168	87,89
278,383	-2,22
278,599	-6,31
278,814	24,4
279,03	30,55
279,245	-6,31
279,461	-32,94
279,676	63,32
279,892	28,5
280,107	55,12
280,322	5,97
280,538	18,26
280,753	-16,55
280,969	-2,22
281,184	34,64
281,399	108,37
281,615	40,79
281,83	-26,79
282,045	44,88
282,26	73,56
282,476	22,36
282,691	46,93
282,906	42,84
283,122	-18,6
283,337	-34,99
283,552	55,12
283,767	-43,18
283,983	-2,22
284,198	59,22
284,413	94,04
284,628	69,46
284,843	12,12
285,058	-0,17
285,274	71,51
285,489	73,56
285,704	57,17
285,919	38,74
286,134	42,84
286,349	8,02
286,564	67,41
286,779	96,08
286,995	10,07
287,21	65,36
287,425	36,69
287,64	1,88
287,855	59,22
288,07	79,7
288,285	32,6
288,5	-16,55
288,715	51,03
288,93	-0,17
289,145	-16,55
289,36	10,07
289,575	24,4
289,79	30,55
290,004	-57,51
290,219	34,64
290,434	67,41
290,649	51,03
290,864	-18,6
291,079	63,32
291,294	71,51
291,509	46,93
291,724	-6,31
291,938	40,79
292,153	40,79
292,368	10,07
292,583	42,84
292,798	48,98
293,012	5,97
293,227	8,02
293,442	40,79
293,657	-6,31
293,871	1,88
294,086	48,98
294,301	30,55
294,516	26,45
294,73	-18,6
294,945	38,74
295,16	28,5
295,374	16,21
295,589	-4,27
295,804	34,64
296,018	61,27
296,233	-16,55
296,447	-65,71
296,662	24,4
296,877	26,45
297,091	-6,31
297,306	44,88
297,52	24,4
297,735	71,51
297,949	8,02
298,164	38,74
298,378	-67,75
298,593	59,22
298,807	-14,51
299,022	1,88
299,236	10,07
299,451	-2,22
299,665	-51,37
299,88	63,32
300,094	59,22
300,309	12,12
300,523	-12,46
300,737	48,98
300,952	-32,94
301,166	38,74
301,381	57,17
301,595	-53,42
301,809	-14,51
302,024	-24,75
302,238	-34,99
302,452	14,17
302,667	51,03
302,881	-34,99
303,095	67,41
303,309	20,31
303,524	24,4
303,738	67,41
303,952	-24,75
304,166	-12,46
304,381	-67,75
304,595	118,61
304,809	46,93
305,023	-28,84
305,237	-30,89
305,452	-34,99
305,666	75,6
305,88	24,4
306,094	-28,84
306,308	-14,51
306,522	40,79
306,736	51,03
306,95	-0,17
307,164	26,45
307,379	42,84
307,593	-26,79
307,807	53,08
308,021	36,69
308,235	91,99
308,449	22,36
308,663	10,07
308,877	20,31
309,091	16,21
309,305	-30,89
309,519	-10,41
309,733	30,55
309,947	-8,36
310,161	-16,55
310,374	-10,41
310,588	-20,65
310,802	40,79
311,016	34,64
311,23	12,12
311,444	51,03
311,658	-22,7
311,872	-8,36
312,085	12,12
312,299	-32,94
312,513	-34,99
312,727	20,31
312,941	12,12
313,154	-37,03
313,368	-0,17
313,582	10,07
313,796	-16,55
314,009	40,79
314,223	73,56
314,437	40,79
314,651	-41,13
314,864	22,36
315,078	36,69
315,292	48,98
315,505	-22,7
315,719	42,84
315,933	16,21
316,146	20,31
316,36	-14,51
316,573	-0,17
316,787	34,64
317,001	30,55
317,214	18,26
317,428	-47,27
317,641	24,4
317,855	-57,51
318,068	-22,7
318,282	40,79
318,495	24,4
318,709	-8,36
318,922	-6,31
319,136	-20,65
319,349	8,02
319,563	-22,7
319,776	1,88
319,99	-2,22
320,203	-26,79
320,417	87,89
320,63	-49,32
320,843	34,64
321,057	55,12
321,27	46,93
321,483	-18,6
321,697	32,6
321,91	38,74
322,124	32,6
322,337	28,5
322,55	26,45
322,763	-8,36
322,977	24,4
323,19	89,94
323,403	42,84
323,617	5,97
323,83	14,17
324,043	-10,41
324,256	81,75
324,469	24,4
324,683	24,4
324,896	38,74
325,109	57,17
325,322	10,07
325,535	22,36
325,748	20,31
325,962	55,12
326,175	118,61
326,388	51,03
326,601	79,7
326,814	-6,31
327,027	-12,46
327,24	24,4
327,453	-32,94
327,666	130,9
327,879	-4,27
328,092	-12,46
328,305	38,74
328,518	55,12
328,731	96,08
328,944	10,07
329,157	16,21
329,37	30,55
329,583	67,41
329,796	100,18
330,009	40,79
330,222	96,08
330,435	-0,17
330,648	57,17
330,861	-34,99
331,073	18,26
331,286	-6,31
331,499	-6,31
331,712	-20,65
331,925	-22,7
332,138	38,74
332,35	30,55
332,563	-12,46
332,776	55,12
332,989	34,64
333,202	18,26
333,414	-6,31
333,627	-18,6
333,84	57,17
334,053	8,02
334,265	8,02
334,478	40,79
334,691	22,36
334,903	36,69
335,116	26,45
335,329	10,07
335,541	51,03
335,754	26,45
335,966	-41,13
336,179	46,93
336,392	-14,51
336,604	38,74
336,817	38,74
337,029	89,94
337,242	8,02
337,454	40,79
337,667	3,93
337,88	-59,56
338,092	-32,94
338,305	-24,75
338,517	36,69
338,729	-34,99
338,942	89,94
339,154	-14,51
339,367	14,17
339,579	83,8
339,792	-2,22
340,004	30,55
340,217	-51,37
340,429	30,55
340,641	79,7
340,854	46,93
341,066	67,41
341,278	-55,47
341,491	63,32
341,703	-49,32
341,915	-2,22
342,128	14,17
342,34	5,97
342,552	67,41
342,764	30,55
342,977	-12,46
343,189	-8,36
343,401	42,84
343,613	3,93
343,826	40,79
344,038	63,32
344,25	22,36
344,462	57,17
344,674	-8,36
344,886	-10,41
345,099	16,21
345,311	-10,41
345,523	-2,22
345,735	46,93
345,947	-14,51
346,159	-16,55
346,371	-53,42
346,583	32,6
346,795	118,61
347,007	-0,17
347,219	57,17
347,431	63,32
347,643	34,64
347,855	34,64
348,067	-28,84
348,279	-16,55
348,491	30,55
348,703	22,36
348,915	42,84
349,127	22,36
349,339	55,12
349,551	51,03
349,763	40,79
349,975	18,26
350,187	-0,17
350,399	24,4
350,61	18,26
350,822	-2,22
351,034	8,02
351,246	55,12
351,458	30,55
351,669	46,93
351,881	-6,31
352,093	22,36
352,305	104,28
352,517	38,74
352,728	75,6
352,94	-2,22
353,152	55,12
353,363	67,41
353,575	-16,55
353,787	79,7
353,999	22,36
354,21	16,21
354,422	8,02
354,633	63,32
354,845	59,22
355,057	40,79
355,268	63,32
355,48	-18,6
355,692	46,93
355,903	5,97
356,115	-10,41
356,326	38,74
356,538	57,17
356,749	48,98
356,961	53,08
357,172	89,94
357,384	94,04
357,595	-43,18
357,807	-0,17
358,018	34,64
358,23	28,5
358,441	36,69
358,653	32,6
358,864	34,64
359,075	-24,75
359,287	83,8
359,498	-4,27
359,709	-26,79
359,921	-8,36
360,132	69,46
360,344	34,64
360,555	55,12
360,766	14,17
360,977	-77,99
361,189	24,4
361,4	30,55
361,611	63,32
361,823	22,36
362,034	61,27
362,245	42,84
362,456	69,46
362,667	65,36
362,879	16,21
363,09	34,64
363,301	-2,22
363,512	-0,17
363,723	128,85
363,935	-37,03
364,146	5,97
364,357	-41,13
364,568	34,64
364,779	-20,65
364,99	-57,51
365,201	-6,31
365,412	5,97
365,623	-0,17
365,834	65,36
366,045	5,97
366,256	38,74
366,467	-0,17
366,678	71,51
366,889	63,32
367,1	-37,03
367,311	-18,6
367,522	83,8
367,733	-8,36
367,944	-18,6
368,155	-51,37
368,366	18,26
368,577	85,84
368,788	114,52
368,999	-26,79
369,209	5,97
369,42	5,97
369,631	55,12
369,842	-39,08
370,053	10,07
370,264	28,5
370,474	34,64
370,685	10,07
370,896	12,12
371,107	16,21
371,317	30,55
371,528	22,36
371,739	-2,22
371,95	10,07
372,16	65,36
372,371	14,17
372,582	-18,6
372,792	-8,36
373,003	46,93
373,214	51,03
373,424	22,36
373,635	26,45
373,846	59,22
374,056	48,98
374,267	18,26
374,477	51,03
374,688	96,08
374,898	5,97
375,109	-20,65
375,319	46,93
375,53	-32,94
375,74	5,97
375,951	22,36
376,161	-2,22
376,372	30,55
376,582	-24,75
376,793	-2,22
377,003	-20,65
377,214	30,55
377,424	14,17
377,635	83,8
377,845	-8,36
378,055	22,36
378,266	20,31
378,476	22,36
378,686	22,36
378,897	38,74
379,107	-0,17
379,317	77,65
379,528	57,17
379,738	-2,22
379,948	-26,79
380,158	40,79
380,369	-53,42
380,579	30,55
380,789	-4,27
380,999	32,6
381,21	32,6
381,42	5,97
381,63	-26,79
381,84	55,12
382,05	-22,7
382,261	-34,99
382,471	-57,51
382,681	10,07
382,891	-30,89
383,101	-4,27
383,311	46,93
383,521	-26,79
383,731	55,12
383,941	34,64
384,151	57,17
384,361	59,22
384,571	20,31
384,781	-6,31
384,991	-30,89
385,201	44,88
385,411	26,45
385,621	22,36
385,831	110,42
386,041	46,93
386,251	16,21
386,461	63,32
386,671	-32,94
386,881	-47,27
387,091	69,46
387,301	46,93
387,511	26,45
387,72	38,74
387,93	8,02
388,14	-67,75
388,35	-8,36
388,56	30,55
388,769	106,32
388,979	-14,51
389,189	30,55
389,399	22,36
389,609	-22,7
389,818	-41,13
390,028	-2,22
390,238	-2,22
390,447	-57,51
390,657	81,75
390,867	36,69
391,076	51,03
391,286	55,12
391,496	5,97
391,705	30,55
391,915	-2,22
392,125	55,12
392,334	18,26
392,544	22,36
392,753	-12,46
392,963	-18,6
393,172	38,74
393,382	-84,14
393,591	24,4
393,801	16,21
394,01	69,46
394,22	-41,13
394,429	-10,41
394,639	91,99
394,848	12,12
395,058	34,64
395,267	55,12
395,477	-10,41
395,686	1,88
395,895	55,12
396,105	14,17
396,314	-20,65
396,524	44,88
396,733	38,74
396,942	75,6
397,152	-10,41
397,361	51,03
397,57	85,84
397,78	75,6
397,989	18,26
398,198	63,32
398,407	20,31
398,617	-8,36
398,826	-4,27
399,035	34,64
399,244	14,17
399,453	40,79
399,663	34,64
399,872	71,51
400,081	1,88
400,29	-28,84
400,499	1,88
400,708	48,98
400,917	38,74
401,127	3,93
401,336	-22,7
401,545	16,21
401,754	16,21
401,963	69,46
402,172	61,27
402,381	-6,31
402,59	106,32
402,799	-20,65
403,008	-32,94
403,217	3,93
403,426	-28,84
403,635	32,6
403,844	-10,41
404,053	91,99
404,262	22,36
404,471	30,55
404,68	22,36
404,888	67,41
405,097	114,52
405,306	1,88
405,515	55,12
405,724	-4,27
405,933	34,64
406,142	-8,36
406,35	14,17
406,559	-24,75
406,768	-49,32
406,977	3,93
407,185	-34,99
407,394	-10,41
407,603	40,79
407,812	-8,36
408,02	28,5
408,229	5,97
408,438	10,07
408,646	-12,46
408,855	14,17
409,064	22,36
409,272	-0,17
409,481	-6,31
409,69	46,93
409,898	-10,41
410,107	-10,41
410,315	46,93
410,524	12,12
410,733	8,02
410,941	12,12
411,15	73,56
411,358	30,55
411,567	55,12
411,775	-32,94
411,984	-0,17
412,192	-0,17
412,401	-22,7
412,609	16,21
412,818	5,97
413,026	1,88
413,234	1,88
413,443	-45,23
413,651	22,36
413,86	40,79
414,068	122,71
414,276	18,26
414,485	46,93
414,693	51,03
414,901	46,93
415,11	-41,13
415,318	20,31
415,526	14,17
415,734	75,6
415,943	63,32
416,151	18,26
416,359	57,17
416,567	122,71
416,776	18,26
416,984	3,93
417,192	-51,37
417,4	12,12
417,608	38,74
417,817	51,03
418,025	71,51
418,233	57,17
418,441	40,79
418,649	53,08
418,857	-30,89
419,065	14,17
419,273	1,88
419,481	65,36
419,689	-4,27
419,897	5,97
420,105	48,98
420,313	1,88
420,521	59,22
420,729	-0,17
420,937	-10,41
421,145	8,02
421,353	-0,17
421,561	24,4
421,769	1,88
421,977	30,55
422,185	-0,17
422,393	24,4
422,601	42,84
422,809	16,21
423,017	32,6
423,224	-8,36
423,432	-4,27
423,64	67,41
423,848	46,93
424,056	18,26
424,263	-6,31
424,471	-2,22
424,679	3,93
424,887	-10,41
425,094	8,02
425,302	-10,41
425,51	-34,99
425,718	-22,7
425,925	-2,22
426,133	108,37
426,341	46,93
426,548	-32,94
426,756	57,17
426,964	-20,65
427,171	-0,17
427,379	26,45
427,586	1,88
427,794	30,55
428,001	18,26
428,209	-18,6
428,417	-10,41
428,624	-26,79
428,832	-2,22
429,039	-57,51
429,247	-18,6
429,454	26,45
429,662	100,18
429,869	3,93
430,076	16,21
430,284	53,08
430,491	-26,79
430,699	-26,79
430,906	14,17
431,114	81,75
431,321	26,45
431,528	-2,22
431,736	14,17
431,943	-14,51
432,15	1,88
432,358	59,22
432,565	16,21
432,772	73,56
432,979	77,65
433,187	-16,55
433,394	42,84
433,601	-43,18
433,808	79,7
434,016	63,32
434,223	-16,55
434,43	65,36
434,637	-4,27
434,844	53,08
435,052	20,31
435,259	55,12
435,466	-32,94
435,673	63,32
435,88	-28,84
436,087	8,02
436,294	63,32
436,501	71,51
436,708	40,79
436,915	26,45
437,122	1,88
437,329	10,07
437,537	-18,6
437,743	65,36
437,95	16,21
438,157	46,93
438,364	32,6
438,571	79,7
438,778	10,07
438,985	14,17
439,192	-41,13
439,399	77,65
439,606	-32,94
439,813	22,36
440,02	38,74
440,227	34,64
440,433	5,97
440,64	46,93
440,847	-26,79
441,054	-6,31
441,261	79,7
441,467	5,97
441,674	-26,79
441,881	10,07
442,088	-30,89
442,294	-24,75
442,501	96,08
442,708	28,5
442,914	73,56
443,121	26,45
443,328	30,55
443,534	10,07
443,741	-8,36
443,948	57,17
444,154	26,45
444,361	38,74
444,568	-18,6
444,774	18,26
444,981	-0,17
445,187	30,55
445,394	22,36
445,6	26,45
445,807	14,17
446,013	55,12
446,22	-8,36
446,426	63,32
446,633	-34,99
446,839	-14,51
447,046	-4,27
447,252	91,99
447,459	46,93
447,665	-26,79
447,871	51,03
448,078	46,93
448,284	42,84
448,491	3,93
448,697	-2,22
448,903	-6,31
449,11	5,97
449,316	-8,36
449,522	20,31
449,728	32,6
449,935	71,51
450,141	96,08
450,347	28,5
450,553	22,36
450,76	42,84
450,966	83,8
451,172	40,79
451,378	28,5
451,584	-18,6
451,791	14,17
451,997	22,36
452,203	3,93
452,409	91,99
452,615	-4,27
452,821	32,6
453,027	46,93
453,233	28,5
453,44	38,74
453,646	51,03
453,852	77,65
454,058	32,6
454,264	71,51
454,47	63,32
454,676	22,36
454,882	-2,22
455,088	-55,47
455,294	-0,17
455,5	32,6
455,705	46,93
455,911	-18,6
456,117	5,97
456,323	145,24
456,529	12,12
456,735	51,03
456,941	22,36
457,147	30,55
457,352	-12,46
457,558	42,84
457,764	3,93
457,97	83,8
458,176	77,65
458,381	1,88
458,587	-6,31
458,793	-2,22
458,999	-26,79
459,204	3,93
459,41	24,4
459,616	22,36
459,821	-0,17
460,027	-45,23
460,233	-12,46
460,438	46,93
460,644	14,17
460,85	-14,51
461,055	22,36
461,261	1,88
461,466	32,6
461,672	71,51
461,878	-12,46
462,083	16,21
462,289	34,64
462,494	-0,17
462,7	-32,94
462,905	-77,99
463,111	30,55
463,316	42,84
463,522	18,26
463,727	36,69
463,932	-24,75
464,138	59,22
464,343	38,74
464,549	-10,41
464,754	-57,51
464,959	36,69
465,165	32,6
465,37	-49,32
465,575	14,17
465,781	22,36
465,986	-0,17
466,191	8,02
466,397	-0,17
466,602	18,26
466,807	-0,17
467,012	-39,08
467,218	-2,22
467,423	22,36
467,628	1,88
467,833	-14,51
468,038	8,02
468,244	24,4
468,449	46,93
468,654	3,93
468,859	-18,6
469,064	12,12
469,269	42,84
469,474	77,65
469,679	55,12
469,885	73,56
470,09	-26,79
470,295	26,45
470,5	30,55
470,705	63,32
470,91	24,4
471,115	8,02
471,32	24,4
471,525	46,93
471,73	5,97
471,935	30,55
472,139	75,6
472,344	63,32
472,549	5,97
472,754	77,65
472,959	-84,14
473,164	83,8
473,369	3,93
473,574	14,17
473,778	73,56
473,983	-8,36
474,188	-12,46
474,393	-14,51
474,598	10,07
474,802	79,7
475,007	10,07
475,212	-10,41
475,417	42,84
475,621	55,12
475,826	26,45
476,031	30,55
476,235	-57,51
476,44	5,97
476,645	32,6
476,849	8,02
477,054	32,6
477,259	-8,36
477,463	-0,17
477,668	16,21
477,872	67,41
478,077	46,93
478,282	-12,46
478,486	24,4
478,691	5,97
478,895	42,84
479,1	-43,18
479,304	24,4
479,509	44,88
479,713	98,13
479,918	83,8
480,122	14,17
480,326	-10,41
480,531	38,74
480,735	26,45
480,94	-10,41
481,144	71,51
481,348	61,27
481,553	63,32
481,757	5,97
481,961	5,97
482,166	-30,89
482,37	36,69
482,574	14,17
482,778	20,31
482,983	5,97
483,187	16,21
483,391	-45,23
483,595	44,88
483,8	57,17
484,004	-10,41
484,208	16,21
484,412	59,22
484,616	12,12
484,821	10,07
485,025	-34,99
485,229	38,74
485,433	3,93
485,637	-59,56
485,841	-2,22
486,045	42,84
486,249	30,55
486,453	59,22
486,657	14,17
486,861	48,98
487,065	-41,13
487,269	55,12
487,473	-2,22
487,677	14,17
487,881	30,55
488,085	-34,99
488,289	67,41
488,493	14,17
488,697	51,03
488,901	-2,22
489,105	-51,37
489,309	-10,41
489,512	1,88
489,716	-43,18
489,92	14,17
490,124	-41,13
490,328	63,32
490,531	-10,41
490,735	116,56
490,939	36,69
491,143	102,23
491,346	59,22
491,55	-10,41
491,754	24,4
491,958	18,26
492,161	22,36
492,365	-43,18
492,569	26,45
492,772	-16,55
492,976	-16,55
493,18	30,55
493,383	71,51
493,587	16,21
493,79	-2,22
493,994	-34,99
494,197	-10,41
494,401	28,5
494,605	28,5
494,808	73,56
495,012	-8,36
495,215	83,8
495,419	59,22
495,622	-6,31
495,825	1,88
496,029	30,55
496,232	-2,22
496,436	-51,37
496,639	48,98
496,843	38,74
497,046	40,79
497,249	8,02
497,453	20,31
497,656	89,94
497,859	14,17
498,063	20,31
498,266	65,36
498,469	3,93
498,673	8,02
498,876	-24,75
499,079	32,6
499,282	-16,55
499,485	-14,51
499,689	67,41
499,892	-8,36
500,095	-22,7
500,298	14,17
500,501	-28,84
500,705	-22,7
500,908	10,07
501,111	10,07
501,314	18,26
501,517	26,45
501,72	38,74
501,923	44,88
502,126	32,6
502,329	36,69
502,532	-28,84
502,735	-8,36
502,938	-2,22
503,141	55,12
503,344	-32,94
503,547	24,4
503,75	69,46
503,953	20,31
504,156	-22,7
504,359	-43,18
504,562	63,32
504,765	-10,41
504,968	75,6
505,17	-30,89
505,373	40,79
505,576	-24,75
505,779	32,6
505,982	55,12
506,185	-10,41
506,387	65,36
506,59	44,88
506,793	3,93
506,996	40,79
507,198	16,21
507,401	-30,89
507,604	32,6
507,807	38,74
508,009	42,84
508,212	30,55
508,415	73,56
508,617	26,45
508,82	87,89
509,022	32,6
509,225	-28,84
509,428	128,85
509,63	-6,31
509,833	-18,6
510,035	26,45
510,238	-22,7
510,44	20,31
510,643	24,4
510,845	20,31
511,048	26,45
511,25	-10,41
511,453	34,64
511,655	-2,22
511,858	5,97
512,06	-18,6
512,262	-41,13
512,465	-18,6
512,667	30,55
512,87	-30,89
513,072	14,17
513,274	28,5
513,477	-2,22
513,679	-4,27
513,881	46,93
514,084	20,31
514,286	28,5
514,488	38,74
514,69	-26,79
514,893	42,84
515,095	51,03
515,297	-2,22
515,499	-2,22
515,701	53,08
515,904	20,31
516,106	30,55
516,308	38,74
516,51	14,17
516,712	10,07
516,914	-75,95
517,116	-10,41
517,318	44,88
517,52	20,31
517,722	116,56
517,925	10,07
518,127	14,17
518,329	91,99
518,531	-4,27
518,733	48,98
518,935	44,88
519,136	-6,31
519,338	10,07
519,54	-8,36
519,742	38,74
519,944	38,74
520,146	3,93
520,348	-18,6
520,55	-26,79
520,752	59,22
520,954	-8,36
521,155	75,6
521,357	-28,84
521,559	46,93
521,761	48,98
521,963	38,74
522,164	48,98
522,366	48,98
522,568	65,36
522,77	24,4
522,971	51,03
523,173	106,32
523,375	59,22
523,576	51,03
523,778	112,47
523,98	55,12
524,181	98,13
524,383	73,56
524,584	128,85
524,786	192,34
524,988	200,53
525,189	309,07
525,391	468,81
525,592	644,94
525,794	1103,68
525,995	1537,85
526,197	2377,52
526,398	3159,85
526,6	4251,41
526,801	5582,59
527,003	7067,37
527,204	8416,98
527,406	10770,1
527,607	12732,05
527,808	15623,78
528,01	17569,35
528,211	20663,83
528,412	24163,81
528,614	27106,74
528,815	29525,39
529,016	33322,33
529,218	34960,7
529,419	38221,07
529,62	40121,59
529,822	42128,59
530,023	44383,41
530,224	46177,43
530,425	46775,44
530,626	48036,98
530,828	48458,87
531,029	50373,72
531,23	50160,73
531,431	50959,44
531,632	51518,53
531,833	51823,68
532,035	51620,93
532,236	52118,59
532,437	52360,25
532,638	51801,15
532,839	52644,91
533,04	53056,56
533,241	52169,79
533,442	53769,25
533,643	52902,96
533,844	52747,31
534,045	52753,46
534,246	52618,29
534,447	52823,09
534,648	52485,17
534,849	51995,71
535,05	51674,18
535,251	51801,15
535,451	50910,28
535,652	50527,31
535,853	49855,58
536,054	49468,51
536,255	47936,63
536,456	45903
536,657	45724,83
536,857	42925,25
537,058	40824,04
537,259	39240,96
537,46	36939,04
537,66	34338,12
537,861	31853,94
538,062	28999,07
538,263	26752,45
538,463	23811,56
538,664	21274,13
538,865	18382,4
539,065	16496,22
539,266	14067,33
539,466	12469,91
539,667	10266,3
539,868	8781,52
540,068	7061,23
540,269	6014,71
540,469	4765,45
540,67	3815,2
540,87	2713,39
541,071	2334,51
541,271	1621,82
541,472	1087,3
541,672	722,76
541,873	597,84
542,073	311,12
542,274	259,92
542,474	208,72
542,675	186,19
542,875	178
543,075	57,17
543,276	169,81
543,476	44,88
543,676	89,94
543,877	30,55
544,077	106,32
544,277	44,88
544,478	44,88
544,678	96,08
544,878	67,41
545,078	38,74
545,279	18,26
545,479	30,55
545,679	30,55
545,879	-0,17
546,079	77,65
546,28	14,17
546,48	67,41
546,68	30,55
546,88	32,6
547,08	24,4
547,28	40,79
547,48	5,97
547,68	79,7
547,88	51,03
548,081	5,97
548,281	14,17
548,481	8,02
548,681	36,69
548,881	-41,13
549,081	14,17
549,28	63,32
549,48	-2,22
549,68	65,36
549,88	14,17
550,08	85,84
550,28	16,21
550,48	-12,46
550,68	-10,41
550,88	-12,46
551,08	32,6
551,279	63,32
551,479	61,27
551,679	26,45
551,879	28,5
552,079	12,12
552,278	-30,89
552,478	55,12
552,678	-32,94
552,878	8,02
553,077	18,26
553,277	73,56
553,477	30,55
553,676	-26,79
553,876	-22,7
554,076	-26,79
554,275	30,55
554,475	38,74
554,674	51,03
554,874	42,84
555,074	1,88
555,273	51,03
555,473	79,7
555,672	-59,56
555,872	12,12
556,071	26,45
556,271	63,32
556,47	-51,37
556,67	-51,37
556,869	137,04
557,068	-18,6
557,268	114,52
557,467	22,36
557,667	-59,56
557,866	26,45
558,065	44,88
558,265	14,17
558,464	24,4
558,663	8,02
558,863	81,75
559,062	-8,36
559,261	14,17
559,461	57,17
559,66	-6,31
559,859	12,12
560,058	67,41
560,258	-47,27
560,457	26,45
560,656	30,55
560,855	65,36
561,054	36,69
561,253	26,45
561,453	3,93
561,652	55,12
561,851	55,12
562,05	5,97
562,249	-67,75
562,448	-47,27
562,647	71,51
562,846	14,17
563,045	22,36
563,244	61,27
563,443	20,31
563,642	20,31
563,841	-30,89
564,04	10,07
564,239	-18,6
564,438	30,55
564,637	36,69
564,836	26,45
565,035	32,6
565,234	81,75
565,432	36,69
565,631	26,45
565,83	1,88
566,029	26,45
566,228	116,56
566,427	69,46
566,625	48,98
566,824	16,21
567,023	22,36
567,222	1,88
567,42	-0,17
567,619	22,36
567,818	-16,55
568,016	-20,65
568,215	-18,6
568,414	14,17
568,612	-49,32
568,811	46,93
569,01	24,4
569,208	-4,27
569,407	57,17
569,605	59,22
569,804	-67,75
570,002	-45,23
570,201	14,17
570,4	-2,22
570,598	8,02
570,797	-59,56
570,995	36,69
571,193	-0,17
571,392	46,93
571,59	-30,89
571,789	8,02
571,987	24,4
572,186	46,93
572,384	55,12
572,582	48,98
572,781	32,6
572,979	14,17
573,177	-51,37
573,376	-2,22
573,574	91,99
573,772	34,64
573,971	-0,17
574,169	-26,79
574,367	65,36
574,565	-2,22
574,763	40,79
574,962	-57,51
575,16	30,55
575,358	12,12
575,556	40,79
575,754	8,02
575,952	24,4
576,151	51,03
576,349	81,75
576,547	18,26
576,745	12,12
576,943	-20,65
577,141	81,75
577,339	28,5
577,537	-26,79
577,735	-30,89
577,933	-2,22
578,131	51,03
578,329	-2,22
578,527	-53,42
578,725	-26,79
578,923	18,26
579,121	-30,89
579,319	30,55
579,516	30,55
579,714	10,07
579,912	22,36
580,11	32,6
580,308	-10,41
580,506	34,64
580,704	18,26
580,901	-26,79
581,099	24,4
581,297	38,74
581,495	-43,18
581,692	38,74
581,89	32,6
582,088	-45,23
582,285	-26,79
582,483	28,5
582,681	-34,99
582,878	-16,55
583,076	5,97
583,274	8,02
583,471	87,89
583,669	-8,36
583,866	-10,41
584,064	-2,22
584,262	10,07
584,459	-67,75
584,657	32,6
584,854	-0,17
585,052	-2,22
585,249	-12,46
585,447	8,02
585,644	20,31
585,841	-14,51
586,039	61,27
586,236	94,04
586,434	-28,84
586,631	10,07
586,828	51,03
587,026	83,8
587,223	24,4
587,42	38,74
587,618	-4,27
587,815	57,17
588,012	8,02
588,21	46,93
588,407	81,75
588,604	63,32
588,801	46,93
588,999	63,32
589,196	-24,75
589,393	46,93
589,59	18,26
589,787	-59,56
589,984	65,36
590,182	44,88
590,379	57,17
590,576	46,93
590,773	12,12
590,97	51,03
591,167	36,69
591,364	22,36
591,561	34,64
591,758	14,17
591,955	18,26
592,152	-24,75
592,349	40,79
592,546	100,18
592,743	14,17
592,94	-6,31
593,137	22,36
593,334	10,07
593,531	-28,84
593,727	-30,89
593,924	22,36
594,121	75,6
594,318	79,7
594,515	-18,6
594,712	18,26
594,908	44,88
595,105	-45,23
595,302	32,6
595,499	-30,89
595,696	5,97
595,892	-2,22
596,089	3,93
596,286	32,6
596,482	65,36
596,679	-4,27
596,876	24,4
597,072	22,36
597,269	55,12
597,466	14,17
597,662	65,36
597,859	57,17
598,055	5,97
598,252	22,36
598,448	14,17
598,645	36,69
598,841	1,88
599,038	-32,94
599,234	40,79
599,431	51,03
599,627	20,31
599,824	59,22
600,02	12,12
600,217	-0,17
600,413	34,64
600,609	67,41
600,806	51,03
601,002	36,69
601,198	32,6
601,395	-10,41
601,591	46,93
601,787	30,55
601,984	57,17
602,18	18,26
602,376	5,97
602,572	51,03
602,769	24,4
602,965	-26,79
603,161	30,55
603,357	59,22
603,553	14,17
603,75	46,93
603,946	-2,22
604,142	-45,23
604,338	-80,04
604,534	51,03
604,73	-20,65
604,926	-22,7
605,122	38,74
605,318	65,36
605,514	-8,36
605,71	106,32
605,906	16,21
606,102	96,08
606,298	3,93
606,494	-30,89
606,69	-8,36
606,886	-8,36
607,082	42,84
607,278	22,36
607,474	-24,75
607,67	85,84
607,866	-32,94
608,062	42,84
608,257	26,45
608,453	34,64
608,649	32,6
608,845	-0,17
609,041	40,79
609,236	51,03
609,432	108,37
609,628	32,6
609,824	-41,13
610,019	1,88
610,215	-32,94
610,411	79,7
610,606	14,17
610,802	75,6
610,998	57,17
611,193	40,79
611,389	-4,27
611,584	-51,37
611,78	87,89
611,976	-34,99
612,171	30,55
612,367	55,12
612,562	51,03
612,758	26,45
612,953	46,93
613,149	53,08
613,344	38,74
613,539	79,7
613,735	51,03
613,93	34,64
614,126	-6,31
614,321	-20,65
614,517	-34,99
614,712	26,45
614,907	38,74
615,103	30,55
615,298	71,51
615,493	40,79
615,688	14,17
615,884	22,36
616,079	14,17
616,274	5,97
616,47	-30,89
616,665	18,26
616,86	38,74
617,055	5,97
617,25	65,36
617,445	-0,17
617,641	10,07
617,836	32,6
618,031	87,89
618,226	-24,75
618,421	5,97
618,616	20,31
618,811	55,12
619,006	-16,55
619,201	24,4
619,396	1,88
619,591	22,36
619,786	-2,22
619,981	51,03
620,176	1,88
620,371	59,22
620,566	36,69
620,761	63,32
620,956	-2,22
621,151	-22,7
621,346	16,21
621,541	-30,89
621,735	22,36
621,93	-41,13
622,125	36,69
622,32	63,32
622,515	42,84
622,709	14,17
622,904	14,17
623,099	38,74
623,294	32,6
623,488	-26,79
623,683	81,75
623,878	20,31
624,072	1,88
624,267	71,51
624,462	30,55
624,656	-2,22
624,851	73,56
625,046	24,4
625,24	-16,55
625,435	61,27
625,629	-12,46
625,824	-16,55
626,018	32,6
626,213	67,41
626,407	-8,36
626,602	-2,22
626,796	14,17
626,991	30,55
627,185	32,6
627,38	48,98
627,574	73,56
627,768	75,6
627,963	12,12
628,157	69,46
628,352	-22,7
628,546	-2,22
628,74	22,36
628,935	73,56
629,129	12,12
629,323	-6,31
629,517	57,17
629,712	-39,08
629,906	55,12
630,1	18,26
630,294	14,17
630,489	44,88
630,683	-14,51
630,877	-26,79
631,071	38,74
631,265	69,46
631,459	-16,55
631,653	-61,61
631,848	5,97
632,042	38,74
632,236	-51,37
632,43	55,12
632,624	-2,22
632,818	67,41
633,012	48,98
633,206	51,03
633,4	-18,6
633,594	5,97
633,788	16,21
633,982	98,13
634,176	-6,31
634,369	79,7
634,563	32,6
634,757	10,07
634,951	-61,61
635,145	1,88
635,339	59,22
635,533	53,08
635,726	24,4
635,92	-34,99
636,114	-37,03
636,308	18,26
636,501	-37,03
636,695	14,17
636,889	26,45
637,083	32,6
637,276	14,17
637,47	1,88
637,664	20,31
637,857	26,45
638,051	-49,32
638,244	-55,47
638,438	-16,55
638,632	24,4
638,825	-37,03
639,019	38,74
639,212	22,36
639,406	-28,84
639,599	-24,75
639,793	40,79
639,986	30,55
640,18	22,36
640,373	-51,37
640,567	-18,6
640,76	34,64
640,954	79,7
641,147	55,12
641,34	57,17
641,534	51,03
641,727	5,97
641,92	-16,55
642,114	-6,31
642,307	46,93
642,5	-0,17
642,694	104,28
642,887	51,03
643,08	-59,56
643,273	-59,56
643,467	1,88
643,66	32,6
643,853	32,6
644,046	53,08
644,239	-43,18
644,432	22,36
644,626	5,97
644,819	94,04
645,012	8,02
645,205	-8,36
645,398	12,12
645,591	20,31
645,784	-6,31
645,977	55,12
646,17	20,31
646,363	48,98
646,556	-6,31
646,749	22,36
646,942	48,98
647,135	-10,41
647,328	-22,7
647,521	22,36
647,714	42,84
647,907	10,07
648,099	20,31
648,292	75,6
648,485	34,64
648,678	-2,22
648,871	53,08
649,064	8,02
649,256	12,12
649,449	-28,84
649,642	87,89
649,835	34,64
650,027	5,97
650,22	16,21
650,413	-24,75
650,605	65,36
650,798	26,45
650,991	1,88
651,183	30,55
651,376	18,26
651,568	59,22
651,761	34,64
651,954	-92,33
652,146	-67,75
652,339	14,17
652,531	16,21
652,724	-24,75
652,916	18,26
653,109	20,31
653,301	81,75
653,494	44,88
653,686	91,99
653,879	5,97
654,071	14,17
654,263	8,02
654,456	-26,79
654,648	67,41
654,84	40,79
655,033	-24,75
655,225	79,7
655,417	-26,79
655,61	12,12
655,802	26,45
655,994	32,6
656,186	-30,89
656,379	46,93
656,571	24,4
656,763	51,03
656,955	-59,56
657,148	51,03
657,34	32,6
657,532	34,64
657,724	26,45
657,916	75,6
658,108	22,36
658,3	38,74
658,492	5,97
658,684	-71,85
658,876	46,93
659,068	40,79
659,26	-8,36
659,452	32,6
659,644	22,36
659,836	61,27
660,028	-24,75
660,22	-28,84
660,412	51,03
660,604	8,02
660,796	30,55
660,988	-2,22
661,18	38,74
661,372	42,84
661,563	5,97
661,755	-24,75
661,947	8,02
662,139	-0,17
662,331	-20,65
662,522	22,36
662,714	40,79
662,906	-24,75
663,097	26,45
663,289	14,17
663,481	-34,99
663,673	71,51
663,864	40,79
664,056	14,17
664,247	16,21
664,439	-4,27
664,631	-4,27
664,822	71,51
665,014	67,41
665,205	59,22
665,397	22,36
665,588	14,17
665,78	1,88
665,971	48,98
666,163	18,26
666,354	30,55
666,546	38,74
666,737	38,74
666,929	67,41
667,12	55,12
667,311	5,97
667,503	-8,36
667,694	28,5
667,885	32,6
668,077	22,36
668,268	-6,31
668,459	-32,94
668,651	40,79
668,842	65,36
669,033	87,89
669,224	-30,89
669,416	-18,6
669,607	128,85
669,798	53,08
669,989	46,93
670,18	53,08
670,371	38,74
670,563	22,36
670,754	5,97
670,945	-22,7
671,136	8,02
671,327	5,97
671,518	-20,65
671,709	24,4
671,9	-14,51
672,091	48,98
672,282	-26,79
672,473	71,51
672,664	22,36
672,855	5,97
673,046	14,17
673,237	24,4
673,428	34,64
673,619	-26,79
673,809	-8,36
674	38,74
674,191	-24,75
674,382	14,17
674,573	-24,75
674,764	22,36
674,954	89,94
675,145	14,17
675,336	57,17
675,527	20,31
675,717	-80,04
675,908	12,12
676,099	-30,89
676,289	-10,41
676,48	1,88
676,671	79,7
676,861	12,12
677,052	30,55
677,243	-10,41
677,433	-2,22
677,624	-0,17
677,814	-34,99
678,005	8,02
678,195	26,45
678,386	-49,32
678,576	55,12
678,767	22,36
678,957	-14,51
679,148	61,27
679,338	89,94
679,529	22,36
679,719	38,74
679,909	14,17
680,1	22,36
680,29	-10,41
680,481	22,36
680,671	26,45
680,861	5,97
681,052	-39,08
681,242	18,26
681,432	65,36
681,622	36,69
681,813	194,39
682,003	12,12
682,193	14,17
682,383	22,36
682,573	14,17
682,764	51,03
682,954	10,07
683,144	51,03
683,334	1,88
683,524	-0,17
683,714	32,6
683,904	-14,51
684,094	-14,51
684,284	5,97
684,474	14,17
684,664	1,88
684,854	38,74
685,044	40,79
685,234	22,36
685,424	-20,65
685,614	-10,41
685,804	-45,23
685,994	16,21
686,184	51,03
686,374	30,55
686,564	24,4
686,753	14,17
686,943	-0,17
687,133	38,74
687,323	-8,36
687,513	-6,31
687,702	18,26
687,892	-0,17
688,082	14,17
688,272	44,88
688,461	-6,31
688,651	5,97
688,841	104,28
689,03	32,6
689,22	14,17
689,41	-6,31
689,599	108,37
689,789	20,31
689,979	26,45
690,168	24,4
690,358	116,56
690,547	24,4
690,737	71,51
690,926	42,84
691,116	55,12
691,305	-63,66
691,495	14,17
691,684	3,93
691,874	55,12
692,063	32,6
692,252	-26,79
692,442	26,45
692,631	-10,41
692,82	-39,08
693,01	5,97
693,199	-2,22
693,388	104,28
693,578	67,41
693,767	12,12
693,956	-0,17
694,146	71,51
694,335	8,02
694,524	5,97
694,713	-6,31
694,902	14,17
695,092	-34,99
695,281	18,26
695,47	28,5
695,659	67,41
695,848	38,74
696,037	8,02
696,226	110,42
696,415	30,55
696,604	-28,84
696,793	22,36
696,982	24,4
697,171	22,36
697,36	59,22
697,549	-65,71
697,738	24,4
697,927	38,74
698,116	1,88
698,305	24,4
698,494	98,13
698,683	16,21
698,872	5,97
699,061	46,93
699,25	18,26
699,438	26,45
699,627	-2,22
699,816	38,74
700,005	22,36
700,193	-12,46
700,382	8,02
700,571	-24,75
700,76	-6,31
700,948	96,08
701,137	48,98
701,326	73,56
701,514	-0,17
701,703	46,93
701,892	32,6
702,08	83,8
702,269	-18,6
702,457	-14,51
702,646	12,12
702,834	38,74
703,023	10,07
703,212	81,75
703,4	-57,51
703,589	-10,41
703,777	8,02
703,965	-32,94
704,154	-30,89
704,342	24,4
704,531	-39,08
704,719	79,7
704,907	53,08
705,096	-2,22
705,284	14,17
705,472	63,32
705,661	46,93
705,849	-10,41
706,037	48,98
706,226	34,64
706,414	-55,47
706,602	24,4
706,79	16,21
706,979	8,02
707,167	-28,84
707,355	32,6
707,543	-63,66
707,731	38,74
707,919	51,03
708,107	71,51
708,296	-39,08
708,484	34,64
708,672	30,55
708,86	96,08
709,048	26,45
709,236	55,12
709,424	-18,6
709,612	69,46
709,8	-2,22
709,988	30,55
710,176	40,79
710,364	22,36
710,551	63,32
710,739	8,02
710,927	57,17
711,115	59,22
711,303	-2,22
711,491	34,64
711,679	-24,75
711,866	34,64
712,054	-8,36
712,242	26,45
712,43	67,41
712,617	38,74
712,805	-53,42
712,993	89,94
713,181	-2,22
713,368	26,45
713,556	16,21
713,744	-8,36
713,931	46,93
714,119	26,45
714,306	5,97
714,494	32,6
714,682	26,45
714,869	14,17
715,057	-22,7
715,244	22,36
715,432	-26,79
715,619	57,17
715,807	-34,99
715,994	32,6
716,182	59,22
716,369	44,88
716,556	-0,17
716,744	22,36
716,931	1,88
717,119	69,46
717,306	-14,51
717,493	-18,6
717,681	46,93
717,868	10,07
718,055	8,02
718,242	8,02
718,43	18,26
718,617	28,5
718,804	28,5
718,991	32,6
719,179	-18,6
719,366	40,79
719,553	85,84
719,74	38,74
719,927	18,26
720,114	32,6
720,301	38,74
720,488	40,79
720,676	-8,36
720,863	12,12
721,05	-4,27
721,237	-26,79
721,424	28,5
721,611	57,17
721,798	-8,36
721,985	46,93
722,172	20,31
722,358	-0,17
722,545	1,88
722,732	30,55
722,919	55,12
723,106	38,74
723,293	-2,22
723,48	-37,03
723,667	-18,6
723,853	61,27
724,04	22,36
724,227	5,97
724,414	5,97
724,6	40,79
724,787	-49,32
724,974	-26,79
725,161	18,26
725,347	65,36
725,534	30,55
725,72	-30,89
725,907	44,88
726,094	-22,7
726,28	-32,94
726,467	32,6
726,653	-2,22
726,84	36,69
727,027	-47,27
727,213	63,32
727,4	42,84
727,586	112,47
727,773	22,36
727,959	-12,46
728,145	16,21
728,332	-37,03
728,518	-53,42
728,705	-6,31
728,891	8,02
729,077	48,98
729,264	-51,37
729,45	-24,75
729,636	22,36
729,823	57,17
730,009	53,08
730,195	57,17
730,382	-10,41
730,568	22,36
730,754	36,69
730,94	30,55
731,126	91,99
731,313	69,46
731,499	5,97
731,685	32,6
731,871	20,31
732,057	22,36
732,243	16,21
732,429	18,26
732,615	16,21
732,801	42,84
732,987	-55,47
733,173	-16,55
733,359	-82,09
733,545	38,74
733,731	14,17
733,917	89,94
734,103	-8,36
734,289	-22,7
734,475	-2,22
734,661	44,88
734,847	46,93
735,033	-24,75
735,219	57,17
735,404	51,03
735,59	-8,36
735,776	-34,99
735,962	1,88
736,148	87,89
736,333	1,88
736,519	-55,47
736,705	30,55
736,89	38,74
737,076	-18,6
737,262	-2,22
737,447	-0,17
737,633	-6,31
737,819	-32,94
738,004	71,51
738,19	12,12
738,375	20,31
738,561	-18,6
738,747	38,74
738,932	-26,79
739,118	46,93
739,303	-6,31
739,489	22,36
739,674	-10,41
739,859	46,93
740,045	40,79
740,23	75,6
740,416	32,6
740,601	32,6
740,786	16,21
740,972	14,17
741,157	-18,6
741,342	53,08
741,528	-10,41
741,713	42,84
741,898	12,12
742,084	22,36
742,269	-57,51
742,454	-2,22
742,639	-14,51
742,824	18,26
743,01	-4,27
743,195	81,75
743,38	14,17
743,565	-8,36
743,75	-6,31
743,935	1,88
744,12	38,74
744,305	16,21
744,49	-0,17
744,675	91,99
744,86	42,84
745,045	-30,89
745,23	-12,46
745,415	-32,94
745,6	-47,27
745,785	-77,99
745,97	-26,79
746,155	-26,79
746,34	-2,22
746,525	30,55
746,71	94,04
746,895	-6,31
747,079	48,98
747,264	12,12
747,449	1,88
747,634	24,4
747,819	-20,65
748,003	18,26
748,188	14,17
748,373	1,88
748,557	44,88
748,742	28,5
748,927	16,21
749,111	38,74
749,296	24,4
749,481	-10,41
749,665	87,89
749,85	22,36
750,034	-39,08
750,219	53,08
750,404	98,13
750,588	42,84
750,773	14,17
750,957	51,03
751,141	20,31
751,326	106,32
751,51	-14,51
751,695	46,93
751,879	8,02
752,064	10,07
752,248	38,74
752,432	38,74
752,617	34,64
752,801	-32,94
752,985	-10,41
753,17	38,74
753,354	22,36
753,538	63,32
753,722	36,69
753,907	30,55
754,091	44,88
754,275	1,88
754,459	-80,04
754,643	57,17
754,828	30,55
755,012	73,56
755,196	87,89
755,38	26,45
755,564	22,36
755,748	42,84
755,932	-26,79
756,116	-4,27
756,3	38,74
756,484	-45,23
756,668	1,88
756,852	32,6
757,036	-2,22
757,22	-32,94
757,404	22,36
757,588	-0,17
757,772	5,97
757,956	-41,13
758,14	59,22
758,323	-26,79
758,507	-14,51
758,691	46,93
758,875	8,02
759,059	36,69
759,242	44,88
759,426	14,17
759,61	-34,99
759,794	-16,55
759,977	-26,79
760,161	75,6
760,345	1,88
760,528	57,17
760,712	-0,17
760,895	-14,51
761,079	-18,6
761,263	63,32
761,446	79,7
761,63	26,45
761,813	63,32
761,997	-0,17
762,18	-26,79
762,364	24,4
762,547	-0,17
762,731	81,75
762,914	3,93
763,098	-30,89
763,281	-0,17
763,464	32,6
763,648	26,45
763,831	-0,17
764,015	-2,22
764,198	3,93
764,381	5,97
764,564	20,31
764,748	-73,9
764,931	28,5
765,114	1,88
765,297	42,84
765,481	42,84
765,664	26,45
765,847	1,88
766,03	100,18
766,213	57,17
766,397	44,88
766,58	-0,17
766,763	40,79
766,946	-2,22
767,129	16,21
767,312	-14,51
767,495	51,03
767,678	42,84
767,861	46,93
768,044	63,32
768,227	-6,31
768,41	16,21
768,593	12,12
768,776	71,51
768,959	24,4
769,142	30,55
769,324	46,93
769,507	30,55
769,69	24,4
769,873	14,17
770,056	5,97
770,239	34,64
770,421	-16,55
770,604	-18,6
770,787	8,02
770,97	8,02
771,152	79,7
771,335	-0,17
771,518	16,21
771,7	28,5
771,883	40,79
772,066	18,26
772,248	-18,6
772,431	8,02
772,613	10,07
772,796	59,22
772,978	18,26
773,161	77,65
773,343	73,56
773,526	-16,55
773,708	-2,22
773,891	-0,17
774,073	-30,89
774,256	34,64
774,438	-0,17
774,621	71,51
774,803	8,02
774,985	22,36
775,168	75,6
775,35	65,36
775,532	30,55
775,715	91,99
775,897	46,93
776,079	38,74
776,261	5,97
776,444	-73,9
776,626	34,64
776,808	-4,27
776,99	24,4
777,173	26,45
777,355	102,23
777,537	-10,41
777,719	46,93
777,901	59,22
778,083	-0,17
778,265	-41,13
778,447	65,36
778,629	53,08
778,811	32,6
778,993	-12,46
779,175	18,26
779,357	48,98
779,539	-26,79
779,721	14,17
779,903	-10,41
780,085	53,08
780,267	8,02
780,449	-10,41
780,631	38,74
780,812	51,03
780,994	-14,51
781,176	18,26
781,358	38,74
781,54	89,94
781,721	-30,89
781,903	28,5
782,085	-28,84
782,267	-2,22
782,448	24,4
782,63	5,97
782,812	79,7
782,993	36,69
783,175	63,32
783,357	26,45
783,538	-24,75
783,72	28,5
783,901	65,36
784,083	16,21
784,264	-0,17
784,446	-6,31
784,627	38,74
784,809	30,55
784,99	-12,46
785,172	5,97
785,353	120,66
785,535	-6,31
785,716	65,36
785,897	59,22
786,079	-55,47
786,26	-2,22
786,441	116,56
786,623	-10,41
786,804	8,02
786,985	3,93
787,167	-10,41
787,348	67,41
787,529	1,88
787,71	-24,75
787,891	16,21
788,073	-51,37
788,254	22,36
788,435	5,97
788,616	46,93
788,797	53,08
788,978	3,93
789,159	-18,6
789,34	91,99
789,522	22,36
789,703	-8,36
789,884	65,36
790,065	1,88
790,246	8,02
790,427	16,21
790,607	14,17
790,788	48,98
790,969	-43,18
791,15	22,36
791,331	26,45
791,512	42,84
791,693	-43,18
791,874	30,55
792,054	-14,51
792,235	73,56
792,416	28,5
792,597	5,97
792,778	38,74
792,958	16,21
793,139	5,97
793,32	63,32
793,5	14,17
793,681	10,07
793,862	85,84
794,042	87,89
794,223	26,45
794,404	42,84
794,584	-41,13
794,765	12,12
794,945	20,31
795,126	46,93
795,306	18,26
795,487	-8,36
795,667	-37,03
795,848	-2,22
796,028	46,93
796,209	71,51
796,389	71,51
796,57	32,6
796,75	40,79
796,93	-18,6
797,111	18,26
797,291	63,32
797,471	26,45
797,652	75,6
797,832	18,26
798,012	-22,7
798,192	-14,51
798,373	40,79
798,553	20,31
798,733	87,89
798,913	-34,99
799,093	44,88
799,274	5,97
799,454	-0,17
799,634	79,7
799,814	-0,17
799,994	-8,36
800,174	32,6
800,354	-65,71
800,534	12,12
800,714	-2,22
800,894	-14,51
801,074	-10,41
801,254	-26,79
801,434	26,45
801,614	79,7
801,794	5,97
801,974	22,36
802,154	-24,75
802,334	55,12
802,514	24,4
802,693	34,64
802,873	16,21
803,053	-10,41
803,233	77,65
803,413	85,84
803,592	-14,51
803,772	10,07
803,952	-0,17
804,131	-49,32
804,311	38,74
804,491	8,02
804,67	14,17
804,85	10,07
805,03	24,4
805,209	8,02
805,389	-63,66
805,568	-30,89
805,748	1,88
805,928	24,4
806,107	32,6
806,287	-22,7
806,466	-57,51
806,646	1,88
806,825	-8,36
807,004	-20,65
807,184	24,4
807,363	18,26
807,543	-4,27
807,722	55,12
807,901	38,74
808,081	46,93
808,26	40,79
808,439	34,64
808,619	22,36
808,798	38,74
808,977	30,55
809,156	14,17
809,336	22,36
809,515	34,64
809,694	53,08
809,873	114,52
810,052	10,07
810,231	57,17
810,411	-41,13
810,59	-14,51
810,769	-6,31
810,948	-16,55
811,127	-30,89
811,306	51,03
811,485	69,46
811,664	-14,51
811,843	-41,13
812,022	63,32
812,201	16,21
812,38	20,31
812,559	-49,32
812,737	-2,22
812,916	51,03
813,095	51,03
813,274	-14,51
813,453	77,65
813,632	-47,27
813,811	83,8
813,989	42,84
814,168	63,32
814,347	-63,66
814,526	-26,79
814,704	24,4
814,883	-0,17
815,062	-30,89
815,24	10,07
815,419	87,89
815,598	-18,6
815,776	-4,27
815,955	42,84
816,133	-2,22
816,312	81,75
816,49	-41,13
816,669	34,64
816,847	5,97
817,026	55,12
817,204	46,93
817,383	-10,41
817,561	77,65
817,74	73,56
817,918	22,36
818,097	38,74
818,275	-51,37
818,453	-18,6
818,632	22,36
818,81	46,93
818,988	132,95
819,167	26,45
819,345	-22,7
819,523	46,93
819,701	-30,89
819,879	20,31
820,058	-28,84
820,236	-2,22
820,414	14,17
820,592	51,03
820,77	71,51
820,948	34,64
821,127	-10,41
821,305	-32,94
821,483	-18,6
821,661	22,36
821,839	18,26
822,017	-10,41
822,195	-18,6
822,373	22,36
822,551	-2,22
822,729	44,88
822,907	30,55
823,085	1,88
823,262	44,88
823,44	-18,6
823,618	87,89
823,796	48,98
823,974	26,45
824,152	8,02
824,329	48,98
824,507	-26,79
824,685	30,55
824,863	59,22
825,04	3,93
825,218	79,7
825,396	51,03
825,574	-80,04
825,751	38,74
825,929	14,17
826,107	-28,84
826,284	24,4
826,462	48,98
826,639	42,84
826,817	-18,6
826,994	32,6
827,172	-26,79
827,349	8,02
827,527	-49,32
827,704	63,32
827,882	38,74
828,059	65,36
828,237	18,26
828,414	-39,08
828,591	32,6
828,769	120,66
828,946	-2,22
829,124	46,93
829,301	-26,79
829,478	36,69
829,655	-8,36
829,833	81,75
830,01	55,12
830,187	30,55
830,364	10,07
830,542	40,79
830,719	51,03
830,896	-16,55
831,073	22,36
831,25	16,21
831,427	-2,22
831,604	51,03
831,782	5,97
831,959	26,45
832,136	34,64
832,313	-0,17
832,49	65,36
832,667	-16,55
832,844	-69,8
833,021	18,26
833,198	-22,7
833,374	59,22
833,551	10,07
833,728	59,22
833,905	83,8
834,082	-30,89
834,259	1,88
834,436	14,17
834,612	20,31
834,789	46,93
834,966	16,21
835,143	14,17
835,319	12,12
835,496	114,52
835,673	32,6
835,85	59,22
836,026	73,56
836,203	-26,79
836,38	-18,6
836,556	-14,51
836,733	79,7
836,909	-6,31
837,086	3,93
837,262	-30,89
837,439	63,32
837,616	51,03
837,792	22,36
837,968	46,93
838,145	5,97
838,321	14,17
838,498	42,84
838,674	46,93
838,851	-61,61
839,027	-49,32
839,203	55,12
839,38	48,98
839,556	5,97
839,732	16,21
839,909	32,6
840,085	51,03
840,261	12,12
840,437	38,74
840,614	-20,65
840,79	8,02
840,966	57,17
841,142	-43,18
841,318	28,5
841,494	32,6
841,671	34,64
841,847	3,93
842,023	20,31
842,199	18,26
842,375	71,51
842,551	-39,08
842,727	24,4
842,903	-14,51
843,079	-18,6
843,255	-8,36
843,431	-8,36
843,607	46,93
843,783	-34,99
843,959	71,51
844,134	24,4
844,31	-20,65
844,486	16,21
844,662	57,17
844,838	20,31
845,013	40,79
845,189	-14,51
845,365	8,02
845,541	8,02
845,716	-51,37
845,892	34,64
846,068	51,03
846,244	-24,75
846,419	-28,84
846,595	42,84
846,77	-43,18
846,946	48,98
847,122	46,93
847,297	-22,7
847,473	34,64
847,648	32,6
847,824	26,45
847,999	38,74
848,175	34,64
848,35	36,69
848,526	67,41
848,701	46,93
848,876	-18,6
849,052	-4,27
849,227	30,55
849,403	-0,17
849,578	8,02
849,753	1,88
849,929	79,7
850,104	-10,41
850,279	40,79
850,454	3,93
850,63	34,64
850,805	-18,6
850,98	-6,31
851,155	-0,17
851,33	8,02
851,505	-6,31
851,681	-4,27
851,856	-0,17
852,031	75,6
852,206	30,55
852,381	22,36
852,556	26,45
852,731	30,55
852,906	40,79
853,081	32,6
853,256	10,07
853,431	63,32
853,606	87,89
853,781	38,74
853,956	-16,55
854,131	67,41
854,305	-14,51
854,48	16,21
854,655	5,97
854,83	-8,36
855,005	40,79
855,18	22,36
855,354	16,21
855,529	14,17
855,704	53,08
855,879	63,32
856,053	20,31
856,228	73,56
856,403	1,88
856,577	87,89
856,752	-53,42
856,926	22,36
857,101	28,5
857,276	-20,65
857,45	57,17
857,625	-51,37
857,799	91,99
857,974	-2,22
858,148	-4,27
858,323	-22,7
858,497	73,56
858,672	1,88
858,846	-28,84
859,02	-4,27
859,195	38,74
859,369	32,6
859,543	-57,51
859,718	-32,94
859,892	63,32
860,066	26,45
860,241	-4,27
860,415	30,55
860,589	34,64
860,763	40,79
860,938	75,6
861,112	5,97
861,286	-6,31
861,46	106,32
861,634	16,21
861,808	40,79
861,982	-73,9
862,157	38,74
862,331	-6,31
862,505	40,79
862,679	36,69
862,853	8,02
863,027	75,6
863,201	-8,36
863,375	42,84
863,549	-6,31
863,722	-0,17
863,896	53,08
864,07	40,79
864,244	-41,13
864,418	128,85
864,592	75,6
864,766	-22,7
864,939	-55,47
865,113	77,65
865,287	48,98
865,461	14,17
865,634	14,17
865,808	8,02
865,982	40,79
866,156	3,93
866,329	-8,36
866,503	42,84
866,676	42,84
866,85	112,47
867,024	91,99
867,197	87,89
867,371	26,45
867,544	14,17
867,718	34,64
867,891	53,08
868,065	18,26
868,238	3,93
868,412	18,26
868,585	30,55
868,759	-2,22
868,932	51,03
869,105	18,26
869,279	46,93
869,452	18,26
869,625	34,64
869,799	69,46
869,972	10,07
870,145	18,26
870,319	-45,23
870,492	5,97
870,665	87,89
870,838	36,69
871,011	89,94
871,185	-24,75
871,358	-45,23
871,531	57,17
871,704	18,26
871,877	-26,79
872,05	100,18
872,223	18,26
872,396	-4,27
872,569	8,02
872,742	59,22
872,915	36,69
873,088	30,55
873,261	-67,75
873,434	20,31
873,607	40,79
873,78	14,17
873,953	3,93
874,126	42,84
874,299	65,36
874,471	1,88
874,644	38,74
874,817	91,99
874,99	-4,27
875,163	26,45
875,335	57,17
875,508	65,36
875,681	26,45
875,853	12,12
876,026	-2,22
876,199	57,17
876,371	44,88
876,544	16,21
876,717	-28,84
876,889	40,79
877,062	67,41
877,234	-28,84
877,407	-2,22
877,579	71,51
877,752	71,51
877,924	51,03
878,097	87,89
878,269	44,88
878,442	22,36
878,614	38,74
878,786	51,03
878,959	87,89
879,131	-32,94
879,303	1,88
879,476	-2,22
879,648	26,45
879,82	118,61
879,993	-0,17
880,165	18,26
880,337	-8,36
880,509	16,21
880,681	-14,51
880,854	85,84
881,026	77,65
881,198	38,74
881,37	91,99
881,542	79,7
881,714	55,12
881,886	12,12
882,058	-65,71
882,23	16,21
882,402	32,6
882,574	53,08
882,746	22,36
882,918	-0,17
883,09	26,45
883,262	-73,9
883,434	-4,27
883,606	48,98
883,778	22,36
883,95	32,6
884,122	-18,6
884,293	-2,22
884,465	-12,46
884,637	14,17
884,809	1,88
884,98	24,4
885,152	-2,22
885,324	12,12
885,496	8,02
885,667	36,69
885,839	-43,18
886,011	-34,99
886,182	51,03
886,354	8,02
886,525	22,36
886,697	32,6
886,869	34,64
887,04	36,69
887,212	22,36
887,383	10,07
887,555	59,22
887,726	-2,22
887,897	51,03
888,069	-34,99
888,24	-22,7
888,412	30,55
888,583	53,08
888,754	30,55
888,926	-6,31
889,097	147,28
889,268	32,6
889,44	96,08
889,611	-2,22
889,782	44,88
889,953	-16,55
890,125	32,6
890,296	3,93
890,467	30,55
890,638	-18,6
890,809	40,79
890,98	1,88
891,151	-14,51
891,323	10,07
891,494	16,21
891,665	14,17
891,836	46,93
892,007	-34,99
892,178	3,93
892,349	20,31
892,52	1,88
892,691	26,45
892,862	5,97
893,032	32,6
893,203	46,93
893,374	-2,22
893,545	-10,41
893,716	-49,32
893,887	48,98
894,057	-34,99
894,228	73,56
894,399	-22,7
894,57	116,56
894,74	-24,75
894,911	67,41
895,082	-8,36
895,253	12,12
895,423	30,55
895,594	-22,7
895,764	-43,18
895,935	48,98
896,106	44,88
896,276	65,36
896,447	-4,27
896,617	71,51
896,788	18,26
896,958	28,5
897,129	3,93
897,299	-26,79
897,47	-41,13
897,64	14,17
897,81	-55,47
897,981	120,66
898,151	48,98
898,322	22,36
898,492	-47,27
898,662	46,93
898,832	-57,51
899,003	73,56
899,173	14,17
899,343	-24,75
899,513	69,46
