Data from filtre 532_USB4F104151__5__11-57-42-351.txt Node

Date: Wed Apr 15 11:57:42 EDT 2026
User: LaboPhy
Spectrometer: USB4F10415
Trigger mode: 4
Integration Time (sec): 3,000000E-3
Scans to average: 1
Electric dark correction enabled: true
Nonlinearity correction enabled: false
Boxcar width: 0
XAxis mode: Wavelengths
Number of Pixels in Spectrum: 3648
>>>>>Begin Spectral Data<<<<<
178,204	3,07
178,424	3,07
178,644	3,07
178,864	-64,51
179,084	19,46
179,304	-101,37
179,524	48,13
179,744	-11,26
179,964	54,27
180,184	52,22
180,404	27,65
180,624	-66,56
180,844	23,55
181,064	-60,42
181,283	-5,12
181,503	35,84
181,723	3,07
181,943	-62,46
182,163	-9,22
182,383	-17,41
182,602	-11,26
182,822	-19,46
183,042	21,5
183,262	-52,22
183,482	7,17
183,701	23,55
183,921	44,03
184,141	-82,94
184,361	39,94
184,58	48,13
184,8	17,41
185,02	-15,36
185,239	15,36
185,459	31,74
185,679	48,13
185,898	-27,65
186,118	-13,31
186,338	-3,07
186,557	19,46
186,777	-1,02
186,997	-17,41
187,216	-17,41
187,436	-62,46
187,655	11,26
187,875	21,5
188,095	44,03
188,314	-5,12
188,534	27,65
188,753	58,37
188,973	37,89
189,192	-7,17
189,412	-13,31
189,631	-13,31
189,851	-15,36
190,07	-13,31
190,29	-1,02
190,509	35,84
190,729	27,65
190,948	27,65
191,168	146,43
191,387	-13,31
191,607	25,6
191,826	-13,31
192,045	-68,61
192,265	29,7
192,484	-13,31
192,704	-27,65
192,923	-41,98
193,142	-1,02
193,362	31,74
193,581	-1,02
193,8	41,98
194,02	76,8
194,239	58,37
194,458	-7,17
194,678	-82,94
194,897	3,07
195,116	44,03
195,335	-29,7
195,555	5,12
195,774	3,07
195,993	15,36
196,212	13,31
196,432	-19,46
196,651	-46,08
196,87	113,66
197,089	15,36
197,308	31,74
197,528	3,07
197,747	-21,5
197,966	-13,31
198,185	-9,22
198,404	19,46
198,623	-17,41
198,842	15,36
199,062	7,17
199,281	44,03
199,5	-66,56
199,719	52,22
199,938	-31,74
200,157	19,46
200,376	-29,7
200,595	19,46
200,814	7,17
201,033	21,5
201,252	35,84
201,471	-41,98
201,69	46,08
201,909	35,84
202,128	58,37
202,347	11,26
202,566	17,41
202,785	-58,37
203,004	56,32
203,223	3,07
203,442	15,36
203,661	-3,07
203,879	78,85
204,098	-29,7
204,317	15,36
204,536	52,22
204,755	-1,02
204,974	82,94
205,193	35,84
205,411	50,18
205,63	-52,22
205,849	15,36
206,068	35,84
206,287	21,5
206,505	29,7
206,724	-25,6
206,943	27,65
207,162	-11,26
207,381	44,03
207,599	13,31
207,818	60,42
208,037	52,22
208,255	-19,46
208,474	87,04
208,693	-58,37
208,911	33,79
209,13	48,13
209,349	-33,79
209,567	5,12
209,786	-25,6
210,005	-50,18
210,223	-21,5
210,442	35,84
210,661	-39,94
210,879	29,7
211,098	19,46
211,316	-25,6
211,535	29,7
211,753	-13,31
211,972	44,03
212,191	-13,31
212,409	-31,74
212,628	-19,46
212,846	7,17
213,065	35,84
213,283	3,07
213,502	-58,37
213,72	-37,89
213,938	-5,12
214,157	54,27
214,375	-3,07
214,594	52,22
214,812	-15,36
215,031	-5,12
215,249	11,26
215,467	-15,36
215,686	-13,31
215,904	21,5
216,122	-19,46
216,341	44,03
216,559	-31,74
216,778	44,03
216,996	52,22
217,214	-5,12
217,432	3,07
217,651	-35,84
217,869	-1,02
218,087	7,17
218,306	-33,79
218,524	-50,18
218,742	7,17
218,96	84,99
219,179	-13,31
219,397	-1,02
219,615	29,7
219,833	33,79
220,051	-27,65
220,27	11,26
220,488	19,46
220,706	1,02
220,924	19,46
221,142	-15,36
221,36	11,26
221,578	-13,31
221,796	1,02
222,015	78,85
222,233	-21,5
222,451	78,85
222,669	-66,56
222,887	19,46
223,105	-37,89
223,323	-29,7
223,541	-15,36
223,759	29,7
223,977	-33,79
224,195	1,02
224,413	3,07
224,631	25,6
224,849	-13,31
225,067	52,22
225,285	-3,07
225,503	13,31
225,721	-11,26
225,939	31,74
226,157	39,94
226,375	-82,94
226,592	-54,27
226,81	31,74
227,028	-5,12
227,246	56,32
227,464	5,12
227,682	-13,31
227,9	58,37
228,117	-13,31
228,335	87,04
228,553	27,65
228,771	-78,85
228,989	-50,18
229,206	-25,6
229,424	27,65
229,642	35,84
229,86	-5,12
230,077	-64,51
230,295	5,12
230,513	3,07
230,731	25,6
230,948	-1,02
231,166	37,89
231,384	-7,17
231,601	74,75
231,819	31,74
232,037	15,36
232,254	5,12
232,472	-5,12
232,689	35,84
232,907	27,65
233,125	23,55
233,342	37,89
233,56	-37,89
233,777	3,07
233,995	-1,02
234,213	25,6
234,43	-48,13
234,648	-1,02
234,865	9,22
235,083	-3,07
235,3	-23,55
235,518	-82,94
235,735	13,31
235,953	-15,36
236,17	-13,31
236,388	27,65
236,605	5,12
236,822	52,22
237,04	-13,31
237,257	-15,36
237,475	29,7
237,692	37,89
237,909	-103,42
238,127	21,5
238,344	-13,31
238,562	23,55
238,779	80,89
238,996	-29,7
239,214	25,6
239,431	58,37
239,648	46,08
239,865	50,18
240,083	25,6
240,3	-1,02
240,517	-35,84
240,735	35,84
240,952	-1,02
241,169	3,07
241,386	-50,18
241,603	-52,22
241,821	-17,41
242,038	39,94
242,255	27,65
242,472	29,7
242,689	-48,13
242,907	-44,03
243,124	-23,55
243,341	27,65
243,558	19,46
243,775	11,26
243,992	-41,98
244,209	13,31
244,426	44,03
244,643	19,46
244,86	11,26
245,078	-44,03
245,295	-39,94
245,512	23,55
245,729	64,51
245,946	-11,26
246,163	66,56
246,38	9,22
246,597	52,22
246,814	-27,65
247,031	-3,07
247,248	-101,37
247,464	31,74
247,681	-46,08
247,898	-19,46
248,115	-46,08
248,332	-13,31
248,549	3,07
248,766	-15,36
248,983	29,7
249,2	-48,13
249,417	-25,6
249,633	-1,02
249,85	-41,98
250,067	27,65
250,284	23,55
250,501	-19,46
250,717	-3,07
250,934	19,46
251,151	62,46
251,368	-35,84
251,585	29,7
251,801	66,56
252,018	25,6
252,235	-44,03
252,451	-7,17
252,668	-41,98
252,885	11,26
253,102	-7,17
253,318	23,55
253,535	33,79
253,752	76,8
253,968	58,37
254,185	82,94
254,401	-5,12
254,618	46,08
254,835	33,79
255,051	113,66
255,268	-41,98
255,484	-19,46
255,701	11,26
255,917	27,65
256,134	-29,7
256,351	7,17
256,567	-21,5
256,784	19,46
257	-31,74
257,217	-13,31
257,433	-19,46
257,65	-5,12
257,866	-5,12
258,082	5,12
258,299	5,12
258,515	11,26
258,732	3,07
258,948	37,89
259,165	-5,12
259,381	3,07
259,597	19,46
259,814	52,22
260,03	37,89
260,246	23,55
260,463	-21,5
260,679	33,79
260,895	5,12
261,112	27,65
261,328	37,89
261,544	-3,07
261,761	27,65
261,977	-89,09
262,193	-23,55
262,409	11,26
262,626	-54,27
262,842	-5,12
263,058	46,08
263,274	70,65
263,49	11,26
263,707	68,61
263,923	11,26
264,139	50,18
264,355	23,55
264,571	3,07
264,787	33,79
265,004	23,55
265,22	29,7
265,436	9,22
265,652	-19,46
265,868	-25,6
266,084	3,07
266,3	44,03
266,516	-5,12
266,732	-72,7
266,948	11,26
267,164	-1,02
267,38	68,61
267,596	-3,07
267,812	56,32
268,028	19,46
268,244	-21,5
268,46	-31,74
268,676	68,61
268,892	3,07
269,108	37,89
269,324	3,07
269,54	-27,65
269,756	-13,31
269,972	39,94
270,188	35,84
270,403	-44,03
270,619	44,03
270,835	80,89
271,051	-7,17
271,267	99,33
271,483	35,84
271,698	27,65
271,914	-27,65
272,13	60,42
272,346	37,89
272,562	-11,26
272,777	76,8
272,993	-21,5
273,209	5,12
273,425	37,89
273,64	46,08
273,856	-33,79
274,072	-19,46
274,287	-7,17
274,503	27,65
274,719	-50,18
274,934	-19,46
275,15	-25,6
275,366	37,89
275,581	3,07
275,797	27,65
276,012	-21,5
276,228	52,22
276,444	-9,22
276,659	-11,26
276,875	52,22
277,09	-21,5
277,306	-1,02
277,521	-35,84
277,737	-11,26
277,952	9,22
278,168	72,7
278,383	31,74
278,599	3,07
278,814	48,13
279,03	19,46
279,245	48,13
279,461	-21,5
279,676	31,74
279,892	-19,46
280,107	-11,26
280,322	5,12
280,538	44,03
280,753	-46,08
280,969	7,17
281,184	-41,98
281,399	52,22
281,615	56,32
281,83	19,46
282,045	31,74
282,26	48,13
282,476	23,55
282,691	3,07
282,906	-9,22
283,122	-5,12
283,337	-37,89
283,552	21,5
283,767	-19,46
283,983	7,17
284,198	15,36
284,413	-31,74
284,628	-21,5
284,843	-19,46
285,058	3,07
285,274	-25,6
285,489	-7,17
285,704	-25,6
285,919	-1,02
286,134	7,17
286,349	37,89
286,564	23,55
286,779	64,51
286,995	-13,31
287,21	-13,31
287,425	39,94
287,64	-21,5
287,855	-19,46
288,07	-58,37
288,285	64,51
288,5	29,7
288,715	50,18
288,93	17,41
289,145	31,74
289,36	62,46
289,575	33,79
289,79	27,65
290,004	68,61
290,219	5,12
290,434	35,84
290,649	-17,41
290,864	60,42
291,079	7,17
291,294	54,27
291,509	-33,79
291,724	-23,55
291,938	11,26
292,153	3,07
292,368	23,55
292,583	21,5
292,798	-66,56
293,012	-29,7
293,227	-64,51
293,442	-21,5
293,657	27,65
293,871	68,61
294,086	25,6
294,301	-21,5
294,516	52,22
294,73	-11,26
294,945	9,22
295,16	46,08
295,374	-9,22
295,589	-5,12
295,804	-13,31
296,018	19,46
296,233	-37,89
296,447	46,08
296,662	39,94
296,877	21,5
297,091	-80,89
297,306	-13,31
297,52	-11,26
297,735	-5,12
297,949	-35,84
298,164	11,26
298,378	68,61
298,593	35,84
298,807	-5,12
299,022	31,74
299,236	-5,12
299,451	66,56
299,665	44,03
299,88	27,65
300,094	13,31
300,309	44,03
300,523	19,46
300,737	3,07
300,952	19,46
301,166	44,03
301,381	31,74
301,595	-19,46
301,809	-29,7
302,024	27,65
302,238	-21,5
302,452	7,17
302,667	7,17
302,881	52,22
303,095	-33,79
303,309	58,37
303,524	48,13
303,738	82,94
303,952	31,74
304,166	19,46
304,381	-15,36
304,595	-19,46
304,809	66,56
305,023	29,7
305,237	-9,22
305,452	62,46
305,666	41,98
305,88	31,74
306,094	-11,26
306,308	95,23
306,522	13,31
306,736	11,26
306,95	-27,65
307,164	56,32
307,379	-58,37
307,593	60,42
307,807	-11,26
308,021	39,94
308,235	-13,31
308,449	-1,02
308,663	11,26
308,877	41,98
309,091	-15,36
309,305	29,7
309,519	21,5
309,733	3,07
309,947	-35,84
310,161	9,22
310,374	15,36
310,588	31,74
310,802	31,74
311,016	-62,46
311,23	21,5
311,444	-21,5
311,658	-5,12
311,872	46,08
312,085	52,22
312,299	-70,65
312,513	13,31
312,727	-9,22
312,941	-9,22
313,154	80,89
313,368	-62,46
313,582	-17,41
313,796	-13,31
314,009	111,61
314,223	-17,41
314,437	52,22
314,651	19,46
314,864	-70,65
315,078	3,07
315,292	-11,26
315,505	35,84
315,719	35,84
315,933	60,42
316,146	3,07
316,36	33,79
316,573	-15,36
316,787	7,17
317,001	19,46
317,214	33,79
317,428	41,98
317,641	39,94
317,855	29,7
318,068	41,98
318,282	3,07
318,495	25,6
318,709	-9,22
318,922	-52,22
319,136	39,94
319,349	25,6
319,563	48,13
319,776	-17,41
319,99	-3,07
320,203	9,22
320,417	-13,31
320,63	-33,79
320,843	35,84
321,057	5,12
321,27	54,27
321,483	25,6
321,697	15,36
321,91	82,94
322,124	33,79
322,337	74,75
322,55	23,55
322,763	70,65
322,977	101,37
323,19	7,17
323,403	91,13
323,617	-39,94
323,83	39,94
324,043	-1,02
324,256	80,89
324,469	-29,7
324,683	-29,7
324,896	-11,26
325,109	15,36
325,322	11,26
325,535	-5,12
325,748	33,79
325,962	44,03
326,175	58,37
326,388	35,84
326,601	-15,36
326,814	44,03
327,027	15,36
327,24	35,84
327,453	-19,46
327,666	-21,5
327,879	41,98
328,092	-41,98
328,305	13,31
328,518	29,7
328,731	-35,84
328,944	-5,12
329,157	-48,13
329,37	31,74
329,583	-9,22
329,796	56,32
330,009	-21,5
330,222	-11,26
330,435	37,89
330,648	3,07
330,861	41,98
331,073	-5,12
331,286	3,07
331,499	31,74
331,712	-37,89
331,925	13,31
332,138	-35,84
332,35	27,65
332,563	46,08
332,776	3,07
332,989	31,74
333,202	-17,41
333,414	-13,31
333,627	37,89
333,84	-60,42
334,053	9,22
334,265	48,13
334,478	23,55
334,691	25,6
334,903	9,22
335,116	-1,02
335,329	-37,89
335,541	31,74
335,754	21,5
335,966	-11,26
336,179	21,5
336,392	31,74
336,604	9,22
336,817	-13,31
337,029	-13,31
337,242	29,7
337,454	46,08
337,667	-52,22
337,88	89,09
338,092	9,22
338,305	7,17
338,517	-3,07
338,729	13,31
338,942	17,41
339,154	-46,08
339,367	13,31
339,579	68,61
339,792	19,46
340,004	80,89
340,217	15,36
340,429	44,03
340,641	-3,07
340,854	-25,6
341,066	-11,26
341,278	29,7
341,491	-7,17
341,703	29,7
341,915	-39,94
342,128	3,07
342,34	48,13
342,552	72,7
342,764	21,5
342,977	60,42
343,189	-1,02
343,401	1,02
343,613	3,07
343,826	68,61
344,038	35,84
344,25	-7,17
344,462	13,31
344,674	-21,5
344,886	23,55
345,099	101,37
345,311	11,26
345,523	-64,51
345,735	11,26
345,947	3,07
346,159	41,98
346,371	54,27
346,583	-1,02
346,795	56,32
347,007	-37,89
347,219	68,61
347,431	-3,07
347,643	52,22
347,855	74,75
348,067	-11,26
348,279	33,79
348,491	-33,79
348,703	-9,22
348,915	-13,31
349,127	-64,51
349,339	13,31
349,551	58,37
349,763	31,74
349,975	11,26
350,187	-13,31
350,399	15,36
350,61	91,13
350,822	-66,56
351,034	-3,07
351,246	7,17
351,458	-29,7
351,669	-50,18
351,881	-29,7
352,093	15,36
352,305	-46,08
352,517	-1,02
352,728	-15,36
352,94	60,42
353,152	27,65
353,363	-5,12
353,575	52,22
353,787	52,22
353,999	39,94
354,21	7,17
354,422	-25,6
354,633	-35,84
354,845	-52,22
355,057	58,37
355,268	78,85
355,48	56,32
355,692	-25,6
355,903	-5,12
356,115	-27,65
356,326	-72,7
356,538	19,46
356,749	31,74
356,961	17,41
357,172	11,26
357,384	-3,07
357,595	64,51
357,807	54,27
358,018	11,26
358,23	-11,26
358,441	48,13
358,653	-13,31
358,864	-78,85
359,075	-35,84
359,287	-78,85
359,498	21,5
359,709	-19,46
359,921	11,26
360,132	48,13
360,344	78,85
360,555	54,27
360,766	66,56
360,977	7,17
361,189	-19,46
361,4	-33,79
361,611	11,26
361,823	-5,12
362,034	52,22
362,245	-1,02
362,456	-29,7
362,667	-39,94
362,879	39,94
363,09	-23,55
363,301	72,7
363,512	52,22
363,723	21,5
363,935	-7,17
364,146	44,03
364,357	-19,46
364,568	48,13
364,779	115,71
364,99	15,36
365,201	-29,7
365,412	-29,7
365,623	7,17
365,834	9,22
366,045	21,5
366,256	-5,12
366,467	-74,75
366,678	-25,6
366,889	-52,22
367,1	-19,46
367,311	-29,7
367,522	-3,07
367,733	-87,04
367,944	7,17
368,155	35,84
368,366	37,89
368,577	68,61
368,788	-13,31
368,999	37,89
369,209	11,26
369,42	21,5
369,631	44,03
369,842	-46,08
370,053	-3,07
370,264	-23,55
370,474	-15,36
370,685	44,03
370,896	1,02
371,107	-13,31
371,317	-9,22
371,528	11,26
371,739	-7,17
371,95	-29,7
372,16	-46,08
372,371	56,32
372,582	-11,26
372,792	-13,31
373,003	-7,17
373,214	25,6
373,424	19,46
373,635	64,51
373,846	3,07
374,056	19,46
374,267	-25,6
374,477	27,65
374,688	35,84
374,898	-21,5
375,109	-19,46
375,319	-5,12
375,53	29,7
375,74	-1,02
375,951	35,84
376,161	23,55
376,372	-21,5
376,582	-11,26
376,793	-29,7
377,003	-15,36
377,214	37,89
377,424	-3,07
377,635	-33,79
377,845	70,65
378,055	-11,26
378,266	5,12
378,476	3,07
378,686	-33,79
378,897	-3,07
379,107	-7,17
379,317	-11,26
379,528	44,03
379,738	27,65
379,948	3,07
380,158	48,13
380,369	-76,8
380,579	21,5
380,789	11,26
380,999	-19,46
381,21	-95,23
381,42	35,84
381,63	-52,22
381,84	-27,65
382,05	3,07
382,261	154,62
382,471	-31,74
382,681	-44,03
382,891	25,6
383,101	-35,84
383,311	5,12
383,521	23,55
383,731	60,42
383,941	-11,26
384,151	35,84
384,361	35,84
384,571	-13,31
384,781	37,89
384,991	13,31
385,201	-3,07
385,411	54,27
385,621	-72,7
385,831	-37,89
386,041	3,07
386,251	-52,22
386,461	39,94
386,671	17,41
386,881	-3,07
387,091	-9,22
387,301	-11,26
387,511	-15,36
387,72	-46,08
387,93	7,17
388,14	-23,55
388,35	-60,42
388,56	-33,79
388,769	39,94
388,979	-9,22
389,189	64,51
389,399	-78,85
389,609	27,65
389,818	-70,65
390,028	11,26
390,238	-21,5
390,447	23,55
390,657	19,46
390,867	19,46
391,076	35,84
391,286	29,7
391,496	-11,26
391,705	29,7
391,915	3,07
392,125	-5,12
392,334	-5,12
392,544	68,61
392,753	29,7
392,963	25,6
393,172	-13,31
393,382	-19,46
393,591	39,94
393,801	19,46
394,01	13,31
394,22	93,18
394,429	7,17
394,639	-1,02
394,848	15,36
395,058	-17,41
395,267	-13,31
395,477	-44,03
395,686	39,94
395,895	3,07
396,105	11,26
396,314	-64,51
396,524	-5,12
396,733	17,41
396,942	15,36
397,152	-46,08
397,361	-3,07
397,57	-27,65
397,78	23,55
397,989	35,84
398,198	-66,56
398,407	-54,27
398,617	11,26
398,826	33,79
399,035	27,65
399,244	60,42
399,453	-33,79
399,663	15,36
399,872	56,32
400,081	-13,31
400,29	48,13
400,499	23,55
400,708	3,07
400,917	46,08
401,127	-19,46
401,336	-50,18
401,545	-3,07
401,754	11,26
401,963	-7,17
402,172	13,31
402,381	52,22
402,59	3,07
402,799	78,85
403,008	-1,02
403,217	27,65
403,426	15,36
403,635	27,65
403,844	11,26
404,053	-11,26
404,262	9,22
404,471	3,07
404,68	-33,79
404,888	1,02
405,097	-62,46
405,306	54,27
405,515	-21,5
405,724	39,94
405,933	17,41
406,142	3,07
406,35	1,02
406,559	-5,12
406,768	-1,02
406,977	1,02
407,185	23,55
407,394	-21,5
407,603	-70,65
407,812	1,02
408,02	-17,41
408,229	87,04
408,438	9,22
408,646	9,22
408,855	9,22
409,064	48,13
409,272	-5,12
409,481	-25,6
409,69	-50,18
409,898	27,65
410,107	-52,22
410,315	-39,94
410,524	-13,31
410,733	21,5
410,941	48,13
411,15	60,42
411,358	13,31
411,567	-44,03
411,775	-5,12
411,984	15,36
412,192	-54,27
412,401	89,09
412,609	-17,41
412,818	5,12
413,026	-41,98
413,234	-25,6
413,443	-7,17
413,651	27,65
413,86	-44,03
414,068	44,03
414,276	-23,55
414,485	52,22
414,693	31,74
414,901	44,03
415,11	27,65
415,318	-21,5
415,526	-37,89
415,734	62,46
415,943	21,5
416,151	-19,46
416,359	13,31
416,567	13,31
416,776	13,31
416,984	84,99
417,192	-19,46
417,4	9,22
417,608	-15,36
417,817	-44,03
418,025	-3,07
418,233	-35,84
418,441	-60,42
418,649	95,23
418,857	-23,55
419,065	-9,22
419,273	19,46
419,481	-44,03
419,689	-44,03
419,897	-7,17
420,105	-17,41
420,313	27,65
420,521	35,84
420,729	70,65
420,937	72,7
421,145	23,55
421,353	3,07
421,561	-1,02
421,769	19,46
421,977	23,55
422,185	-50,18
422,393	60,42
422,601	60,42
422,809	134,14
423,017	58,37
423,224	41,98
423,432	-3,07
423,64	39,94
423,848	-13,31
424,056	21,5
424,263	-11,26
424,471	44,03
424,679	21,5
424,887	-37,89
425,094	21,5
425,302	-37,89
425,51	13,31
425,718	29,7
425,925	9,22
426,133	21,5
426,341	23,55
426,548	-5,12
426,756	-58,37
426,964	74,75
427,171	3,07
427,379	-9,22
427,586	13,31
427,794	-1,02
428,001	-27,65
428,209	-35,84
428,417	-15,36
428,624	-72,7
428,832	62,46
429,039	52,22
429,247	-23,55
429,454	13,31
429,662	33,79
429,869	13,31
430,076	-41,98
430,284	11,26
430,491	15,36
430,699	-13,31
430,906	-19,46
431,114	-37,89
431,321	-13,31
431,528	11,26
431,736	-29,7
431,943	27,65
432,15	-1,02
432,358	35,84
432,565	-70,65
432,772	-33,79
432,979	35,84
433,187	-3,07
433,394	-35,84
433,601	19,46
433,808	-80,89
434,016	46,08
434,223	13,31
434,43	-19,46
434,637	-7,17
434,844	-13,31
435,052	-17,41
435,259	52,22
435,466	89,09
435,673	3,07
435,88	27,65
436,087	27,65
436,294	27,65
436,501	31,74
436,708	-29,7
436,915	-84,99
437,122	31,74
437,329	29,7
437,537	-35,84
437,743	-35,84
437,95	-37,89
438,157	3,07
438,364	-21,5
438,571	-52,22
438,778	-39,94
438,985	21,5
439,192	11,26
439,399	-37,89
439,606	-9,22
439,813	54,27
440,02	27,65
440,227	72,7
440,433	13,31
440,64	37,89
440,847	3,07
441,054	11,26
441,261	-31,74
441,467	37,89
441,674	-15,36
441,881	50,18
442,088	3,07
442,294	87,04
442,501	-15,36
442,708	-13,31
442,914	-60,42
443,121	66,56
443,328	-27,65
443,534	89,09
443,741	-29,7
443,948	-1,02
444,154	-58,37
444,361	9,22
444,568	19,46
444,774	35,84
444,981	41,98
445,187	-15,36
445,394	19,46
445,6	-39,94
445,807	58,37
446,013	-17,41
446,22	15,36
446,426	76,8
446,633	17,41
446,839	31,74
447,046	-1,02
447,252	31,74
447,459	23,55
447,665	27,65
447,871	37,89
448,078	11,26
448,284	-13,31
448,491	-33,79
448,697	15,36
448,903	58,37
449,11	-1,02
449,316	-68,61
449,522	-9,22
449,728	-5,12
449,935	-3,07
450,141	-19,46
450,347	84,99
450,553	11,26
450,76	48,13
450,966	-19,46
451,172	13,31
451,378	41,98
451,584	23,55
451,791	29,7
451,997	-7,17
452,203	11,26
452,409	1,02
452,615	39,94
452,821	-78,85
453,027	44,03
453,233	68,61
453,44	35,84
453,646	-3,07
453,852	-46,08
454,058	-9,22
454,264	-91,13
454,47	-46,08
454,676	23,55
454,882	27,65
455,088	97,28
455,294	-48,13
455,5	-44,03
455,705	58,37
455,911	-21,5
456,117	-21,5
456,323	-15,36
456,529	17,41
456,735	44,03
456,941	-66,56
457,147	3,07
457,352	23,55
457,558	60,42
457,764	-27,65
457,97	68,61
458,176	-35,84
458,381	103,42
458,587	-33,79
458,793	44,03
458,999	5,12
459,204	-46,08
459,41	62,46
459,616	7,17
459,821	97,28
460,027	11,26
460,233	19,46
460,438	19,46
460,644	-11,26
460,85	84,99
461,055	-21,5
461,261	82,94
461,466	52,22
461,672	-25,6
461,878	35,84
462,083	23,55
462,289	-13,31
462,494	68,61
462,7	66,56
462,905	-5,12
463,111	-21,5
463,316	95,23
463,522	9,22
463,727	5,12
463,932	27,65
464,138	101,37
464,343	23,55
464,549	56,32
464,754	27,65
464,959	-27,65
465,165	46,08
465,37	-60,42
465,575	15,36
465,781	23,55
465,986	37,89
466,191	5,12
466,397	25,6
466,602	39,94
466,807	15,36
467,012	44,03
467,218	-33,79
467,423	76,8
467,628	-25,6
467,833	21,5
468,038	-13,31
468,244	-37,89
468,449	-29,7
468,654	-11,26
468,859	52,22
469,064	37,89
469,269	-1,02
469,474	23,55
469,679	-27,65
469,885	33,79
470,09	-3,07
470,295	52,22
470,5	35,84
470,705	19,46
470,91	27,65
471,115	-33,79
471,32	-62,46
471,525	-9,22
471,73	37,89
471,935	11,26
472,139	-5,12
472,344	-41,98
472,549	-19,46
472,754	76,8
472,959	56,32
473,164	-37,89
473,369	31,74
473,574	13,31
473,778	-3,07
473,983	-25,6
474,188	-84,99
474,393	13,31
474,598	74,75
474,802	46,08
475,007	-27,65
475,212	3,07
475,417	11,26
475,621	-5,12
475,826	27,65
476,031	-41,98
476,235	7,17
476,44	21,5
476,645	46,08
476,849	9,22
477,054	44,03
477,259	52,22
477,463	46,08
477,668	-19,46
477,872	21,5
478,077	-37,89
478,282	9,22
478,486	27,65
478,691	62,46
478,895	-68,61
479,1	21,5
479,304	-13,31
479,509	-13,31
479,713	1,02
479,918	-48,13
480,122	39,94
480,326	-23,55
480,531	15,36
480,735	54,27
480,94	31,74
481,144	37,89
481,348	7,17
481,553	9,22
481,757	-5,12
481,961	76,8
482,166	29,7
482,37	9,22
482,574	-37,89
482,778	-46,08
482,983	21,5
483,187	35,84
483,391	-46,08
483,595	7,17
483,8	52,22
484,004	15,36
484,208	60,42
484,412	-50,18
484,616	56,32
484,821	58,37
485,025	62,46
485,229	19,46
485,433	60,42
485,637	-1,02
485,841	-27,65
486,045	78,85
486,249	3,07
486,453	29,7
486,657	-37,89
486,861	-21,5
487,065	13,31
487,269	64,51
487,473	39,94
487,677	17,41
487,881	46,08
488,085	19,46
488,289	-62,46
488,493	-37,89
488,697	5,12
488,901	37,89
489,105	-13,31
489,309	11,26
489,512	23,55
489,716	39,94
489,92	-27,65
490,124	35,84
490,328	44,03
490,531	-37,89
490,735	-44,03
490,939	1,02
491,143	68,61
491,346	15,36
491,55	39,94
491,754	-31,74
491,958	7,17
492,161	33,79
492,365	46,08
492,569	-5,12
492,772	-23,55
492,976	27,65
493,18	-44,03
493,383	76,8
493,587	46,08
493,79	-46,08
493,994	27,65
494,197	17,41
494,401	13,31
494,605	-15,36
494,808	19,46
495,012	3,07
495,215	56,32
495,419	-17,41
495,622	-5,12
495,825	-3,07
496,029	-23,55
496,232	25,6
496,436	15,36
496,639	3,07
496,843	29,7
497,046	11,26
497,249	-9,22
497,453	17,41
497,656	13,31
497,859	-46,08
498,063	3,07
498,266	-80,89
498,469	-23,55
498,673	35,84
498,876	25,6
499,079	-31,74
499,282	7,17
499,485	11,26
499,689	3,07
499,892	-44,03
500,095	-35,84
500,298	46,08
500,501	-11,26
500,705	23,55
500,908	48,13
501,111	-35,84
501,314	-13,31
501,517	-33,79
501,72	-62,46
501,923	5,12
502,126	27,65
502,329	-15,36
502,532	19,46
502,735	-13,31
502,938	-3,07
503,141	-3,07
503,344	54,27
503,547	-35,84
503,75	23,55
503,953	17,41
504,156	35,84
504,359	-3,07
504,562	-5,12
504,765	7,17
504,968	21,5
505,17	5,12
505,373	3,07
505,576	5,12
505,779	-50,18
505,982	-3,07
506,185	23,55
506,387	-35,84
506,59	111,61
506,793	64,51
506,996	-11,26
507,198	35,84
507,401	-46,08
507,604	-11,26
507,807	76,8
508,009	54,27
508,212	52,22
508,415	-19,46
508,617	11,26
508,82	3,07
509,022	39,94
509,225	-13,31
509,428	19,46
509,63	27,65
509,833	3,07
510,035	64,51
510,238	-17,41
510,44	-48,13
510,643	-62,46
510,845	-70,65
511,048	-29,7
511,25	-13,31
511,453	15,36
511,655	-13,31
511,858	27,65
512,06	9,22
512,262	17,41
512,465	-48,13
512,667	44,03
512,87	3,07
513,072	60,42
513,274	13,31
513,477	15,36
513,679	-15,36
513,881	-33,79
514,084	-52,22
514,286	13,31
514,488	5,12
514,69	11,26
514,893	-21,5
515,095	37,89
515,297	21,5
515,499	3,07
515,701	-5,12
515,904	-25,6
516,106	60,42
516,308	-54,27
516,51	-11,26
516,712	-11,26
516,914	46,08
517,116	-46,08
517,318	21,5
517,52	39,94
517,722	-58,37
517,925	23,55
518,127	7,17
518,329	52,22
518,531	-7,17
518,733	31,74
518,935	23,55
519,136	31,74
519,338	72,7
519,54	-48,13
519,742	-95,23
519,944	29,7
520,146	-31,74
520,348	25,6
520,55	41,98
520,752	41,98
520,954	-5,12
521,155	31,74
521,357	50,18
521,559	11,26
521,761	58,37
521,963	-9,22
522,164	27,65
522,366	91,13
522,568	39,94
522,77	46,08
522,971	82,94
523,173	35,84
523,375	50,18
523,576	7,17
523,778	-60,42
523,98	101,37
524,181	130,05
524,383	138,24
524,584	44,03
524,786	203,77
524,988	242,68
525,189	259,07
525,391	535,54
525,592	666,61
525,794	943,09
525,995	1493,99
526,197	2257,89
526,398	2995,15
526,6	4479,93
526,801	5358,51
527,003	7111,57
527,204	8688,51
527,406	10818,39
527,607	13052,73
527,808	15360,79
528,01	17492,73
528,211	20759,24
528,412	23917,2
528,614	26819,17
528,815	29653,56
529,016	32905,74
529,218	35529,19
529,419	37968,32
529,62	40464,79
529,822	42226,04
530,023	43534,7
530,224	45930,82
530,425	46674,23
530,626	47892,77
530,828	48859,41
531,029	50669,82
531,23	50041,09
531,431	50925,81
531,632	51314,93
531,833	52177,12
532,035	51581,16
532,236	52109,54
532,437	52625,63
532,638	52179,17
532,839	52529,37
533,04	53119,19
533,241	52650,2
533,442	53690,57
533,643	53289,17
533,844	53190,87
534,045	53145,81
534,246	52383,97
534,447	52740,32
534,648	52680,92
534,849	52238,56
535,05	51683,56
535,251	52066,53
535,451	50960,63
535,652	51026,17
535,853	50123,01
536,054	49355,02
536,255	48068,9
536,456	46045,51
536,657	45945,15
536,857	43579,75
537,058	41093,52
537,259	39270,82
537,46	36762,06
537,66	34316,79
537,861	31859,23
538,062	28834,38
538,263	26837,61
538,463	23706,26
538,664	21088,96
538,865	18516,71
539,065	16384,77
539,266	13861,68
539,466	12381
539,667	10111,85
539,868	8840,06
540,068	7138,2
540,269	5925,8
540,469	4791,22
540,67	3922,88
540,87	2741,21
541,071	2192,35
541,271	1516,52
541,472	1084,4
541,672	658,42
541,873	578,55
542,073	412,67
542,274	357,37
542,474	183,29
542,675	191,49
542,875	175,1
543,075	123,9
543,276	134,14
543,476	35,84
543,676	119,81
543,877	-3,07
544,077	7,17
544,277	-52,22
544,478	-9,22
544,678	76,8
544,878	109,57
545,078	19,46
545,279	39,94
545,479	101,37
545,679	-15,36
545,879	48,13
546,079	-5,12
546,28	119,81
546,48	-7,17
546,68	41,98
546,88	70,65
547,08	19,46
547,28	-29,7
547,48	3,07
547,68	35,84
547,88	-39,94
548,081	72,7
548,281	7,17
548,481	25,6
548,681	27,65
548,881	-13,31
549,081	13,31
549,28	27,65
549,48	-27,65
549,68	-5,12
549,88	9,22
550,08	48,13
550,28	78,85
550,48	76,8
550,68	21,5
550,88	68,61
551,08	-52,22
551,279	17,41
551,479	-5,12
551,679	78,85
551,879	-29,7
552,079	11,26
552,278	-46,08
552,478	72,7
552,678	-17,41
552,878	11,26
553,077	-25,6
553,277	-50,18
553,477	-5,12
553,676	1,02
553,876	23,55
554,076	48,13
554,275	-48,13
554,475	21,5
554,674	-5,12
554,874	-27,65
555,074	39,94
555,273	-3,07
555,473	48,13
555,672	60,42
555,872	19,46
556,071	11,26
556,271	-21,5
556,47	-13,31
556,67	5,12
556,869	21,5
557,068	46,08
557,268	78,85
557,467	46,08
557,667	-29,7
557,866	35,84
558,065	-33,79
558,265	68,61
558,464	50,18
558,663	7,17
558,863	-11,26
559,062	-93,18
559,261	39,94
559,461	11,26
559,66	-5,12
559,859	3,07
560,058	-23,55
560,258	13,31
560,457	-19,46
560,656	107,52
560,855	5,12
561,054	66,56
561,253	7,17
561,453	-66,56
561,652	-7,17
561,851	-62,46
562,05	21,5
562,249	-19,46
562,448	39,94
562,647	-29,7
562,846	29,7
563,045	27,65
563,244	52,22
563,443	29,7
563,642	17,41
563,841	-41,98
564,04	33,79
564,239	-17,41
564,438	21,5
564,637	-13,31
564,836	7,17
565,035	52,22
565,234	-29,7
565,432	11,26
565,631	35,84
565,83	35,84
566,029	60,42
566,228	-19,46
566,427	-13,31
566,625	-48,13
566,824	-25,6
567,023	7,17
567,222	-37,89
567,42	1,02
567,619	-11,26
567,818	-27,65
568,016	78,85
568,215	93,18
568,414	37,89
568,612	-72,7
568,811	-23,55
569,01	-19,46
569,208	-52,22
569,407	1,02
569,605	3,07
569,804	-25,6
570,002	3,07
570,201	-9,22
570,4	9,22
570,598	35,84
570,797	15,36
570,995	23,55
571,193	41,98
571,392	-7,17
571,59	21,5
571,789	87,04
571,987	44,03
572,186	21,5
572,384	64,51
572,582	44,03
572,781	-50,18
572,979	21,5
573,177	39,94
573,376	-5,12
573,574	29,7
573,772	78,85
573,971	-19,46
574,169	11,26
574,367	19,46
574,565	37,89
574,763	72,7
574,962	-29,7
575,16	31,74
575,358	-7,17
575,556	54,27
575,754	44,03
575,952	27,65
576,151	-23,55
576,349	-13,31
576,547	-41,98
576,745	-13,31
576,943	5,12
577,141	7,17
577,339	-27,65
577,537	48,13
577,735	19,46
577,933	39,94
578,131	-9,22
578,329	-19,46
578,527	-37,89
578,725	60,42
578,923	-23,55
579,121	37,89
579,319	-9,22
579,516	46,08
579,714	-9,22
579,912	17,41
580,11	-91,13
580,308	87,04
580,506	-11,26
580,704	44,03
580,901	31,74
581,099	19,46
581,297	-54,27
581,495	39,94
581,692	39,94
581,89	27,65
582,088	-21,5
582,285	80,89
582,483	-62,46
582,681	21,5
582,878	-58,37
583,076	31,74
583,274	-11,26
583,471	-62,46
583,669	95,23
583,866	60,42
584,064	-56,32
584,262	-52,22
584,459	-13,31
584,657	-11,26
584,854	-25,6
585,052	21,5
585,249	-13,31
585,447	11,26
585,644	35,84
585,841	-21,5
586,039	52,22
586,236	3,07
586,434	56,32
586,631	29,7
586,828	31,74
587,026	3,07
587,223	27,65
587,42	35,84
587,618	56,32
587,815	35,84
588,012	-27,65
588,21	-29,7
588,407	-76,8
588,604	29,7
588,801	-48,13
588,999	3,07
589,196	23,55
589,393	33,79
589,59	29,7
589,787	-13,31
589,984	-52,22
590,182	46,08
590,379	-31,74
590,576	13,31
590,773	21,5
590,97	-19,46
591,167	-11,26
591,364	-15,36
591,561	58,37
591,758	35,84
591,955	70,65
592,152	13,31
592,349	-84,99
592,546	-66,56
592,743	-60,42
592,94	19,46
593,137	-74,75
593,334	-15,36
593,531	5,12
593,727	13,31
593,924	-54,27
594,121	19,46
594,318	-1,02
594,515	-27,65
594,712	56,32
594,908	37,89
595,105	-44,03
595,302	48,13
595,499	29,7
595,696	-52,22
595,892	-33,79
596,089	48,13
596,286	-27,65
596,482	33,79
596,679	25,6
596,876	87,04
597,072	31,74
597,269	-37,89
597,466	1,02
597,662	-35,84
597,859	3,07
598,055	5,12
598,252	-29,7
598,448	19,46
598,645	-1,02
598,841	39,94
599,038	46,08
599,234	-21,5
599,431	15,36
599,627	72,7
599,824	-33,79
600,02	-13,31
600,217	48,13
600,413	-5,12
600,609	-48,13
600,806	21,5
601,002	-17,41
601,198	17,41
601,395	-33,79
601,591	19,46
601,787	-13,31
601,984	11,26
602,18	-52,22
602,376	-11,26
602,572	3,07
602,769	-19,46
602,965	64,51
603,161	21,5
603,357	27,65
603,553	5,12
603,75	-5,12
603,946	37,89
604,142	-11,26
604,338	-23,55
604,534	-17,41
604,73	44,03
604,926	68,61
605,122	33,79
605,318	-31,74
605,514	-68,61
605,71	3,07
605,906	52,22
606,102	3,07
606,298	-41,98
606,494	31,74
606,69	33,79
606,886	-56,32
607,082	19,46
607,278	3,07
607,474	46,08
607,67	66,56
607,866	21,5
608,062	39,94
608,257	93,18
608,453	-25,6
608,649	3,07
608,845	15,36
609,041	39,94
609,236	21,5
609,432	-37,89
609,628	7,17
609,824	-46,08
610,019	-21,5
610,215	-41,98
610,411	-41,98
610,606	35,84
610,802	-13,31
610,998	1,02
611,193	-29,7
611,389	37,89
611,584	33,79
611,78	54,27
611,976	41,98
612,171	-11,26
612,367	58,37
612,562	7,17
612,758	21,5
612,953	19,46
613,149	72,7
613,344	3,07
613,539	52,22
613,735	31,74
613,93	31,74
614,126	66,56
614,321	7,17
614,517	31,74
614,712	25,6
614,907	-21,5
615,103	-33,79
615,298	-13,31
615,493	1,02
615,688	-58,37
615,884	7,17
616,079	-23,55
616,274	39,94
616,47	52,22
616,665	-21,5
616,86	27,65
617,055	29,7
617,25	19,46
617,445	-64,51
617,641	21,5
617,836	-21,5
618,031	68,61
618,226	1,02
618,421	-5,12
618,616	15,36
618,811	-17,41
619,006	48,13
619,201	54,27
619,396	11,26
619,591	-21,5
619,786	27,65
619,981	21,5
620,176	27,65
620,371	70,65
620,566	-46,08
620,761	27,65
620,956	19,46
621,151	23,55
621,346	3,07
621,541	54,27
621,735	-29,7
621,93	52,22
622,125	-50,18
622,32	52,22
622,515	-21,5
622,709	-9,22
622,904	19,46
623,099	-29,7
623,294	62,46
623,488	-13,31
623,683	13,31
623,878	56,32
624,072	37,89
624,267	-13,31
624,462	-1,02
624,656	62,46
624,851	-3,07
625,046	15,36
625,24	72,7
625,435	-66,56
625,629	-44,03
625,824	21,5
626,018	39,94
626,213	-46,08
626,407	-1,02
626,602	48,13
626,796	-3,07
626,991	27,65
627,185	-3,07
627,38	5,12
627,574	-11,26
627,768	44,03
627,963	-82,94
628,157	7,17
628,352	15,36
628,546	-11,26
628,74	19,46
628,935	3,07
629,129	13,31
629,323	-66,56
629,517	-1,02
629,712	1,02
629,906	-78,85
630,1	-37,89
630,294	11,26
630,489	11,26
630,683	3,07
630,877	33,79
631,071	9,22
631,265	21,5
631,459	-11,26
631,653	-5,12
631,848	-17,41
632,042	74,75
632,236	3,07
632,43	3,07
632,624	-44,03
632,818	11,26
633,012	52,22
633,206	60,42
633,4	44,03
633,594	-48,13
633,788	60,42
633,982	-13,31
634,176	-9,22
634,369	27,65
634,563	58,37
634,757	58,37
634,951	46,08
635,145	23,55
635,339	19,46
635,533	52,22
635,726	-37,89
635,92	-13,31
636,114	29,7
636,308	-46,08
636,501	17,41
636,695	-41,98
636,889	3,07
637,083	19,46
637,276	-64,51
637,47	-23,55
637,664	19,46
637,857	-33,79
638,051	33,79
638,244	93,18
638,438	3,07
638,632	35,84
638,825	-87,04
639,019	3,07
639,212	15,36
639,406	7,17
639,599	-3,07
639,793	-13,31
639,986	19,46
640,18	33,79
640,373	23,55
640,567	27,65
640,76	-9,22
640,954	48,13
641,147	-29,7
641,34	-60,42
641,534	68,61
641,727	-46,08
641,92	29,7
642,114	19,46
642,307	-41,98
642,5	-11,26
642,694	15,36
642,887	29,7
643,08	-13,31
643,273	29,7
643,467	-54,27
643,66	35,84
643,853	21,5
644,046	-33,79
644,239	-1,02
644,432	13,31
644,626	7,17
644,819	25,6
645,012	23,55
645,205	29,7
645,398	11,26
645,591	-31,74
645,784	-11,26
645,977	5,12
646,17	-33,79
646,363	-62,46
646,556	15,36
646,749	29,7
646,942	7,17
647,135	37,89
647,328	9,22
647,521	58,37
647,714	60,42
647,907	29,7
648,099	5,12
648,292	13,31
648,485	19,46
648,678	-5,12
648,871	3,07
649,064	50,18
649,256	15,36
649,449	11,26
649,642	13,31
649,835	37,89
650,027	56,32
650,22	31,74
650,413	46,08
650,605	48,13
650,798	11,26
650,991	-19,46
651,183	-9,22
651,376	37,89
651,568	7,17
651,761	52,22
651,954	-5,12
652,146	3,07
652,339	31,74
652,531	39,94
652,724	21,5
652,916	-9,22
653,109	52,22
653,301	1,02
653,494	48,13
653,686	60,42
653,879	-9,22
654,071	29,7
654,263	19,46
654,456	68,61
654,648	-27,65
654,84	-9,22
655,033	-27,65
655,225	7,17
655,417	60,42
655,61	72,7
655,802	31,74
655,994	-33,79
656,186	121,85
656,379	-41,98
656,571	48,13
656,763	5,12
656,955	76,8
657,148	-62,46
657,34	13,31
657,532	-17,41
657,724	-37,89
657,916	-46,08
658,108	19,46
658,3	5,12
658,492	-70,65
658,684	-11,26
658,876	-29,7
659,068	7,17
659,26	19,46
659,452	3,07
659,644	29,7
659,836	39,94
660,028	37,89
660,22	-50,18
660,412	5,12
660,604	-48,13
660,796	19,46
660,988	27,65
661,18	-9,22
661,372	87,04
661,563	39,94
661,755	17,41
661,947	-5,12
662,139	35,84
662,331	-21,5
662,522	39,94
662,714	-33,79
662,906	-19,46
663,097	7,17
663,289	7,17
663,481	21,5
663,673	27,65
663,864	-1,02
664,056	-27,65
664,247	-5,12
664,439	46,08
664,631	29,7
664,822	37,89
665,014	-56,32
665,205	82,94
665,397	-35,84
665,588	35,84
665,78	-9,22
665,971	3,07
666,163	-11,26
666,354	54,27
666,546	-5,12
666,737	35,84
666,929	21,5
667,12	-11,26
667,311	33,79
667,503	-13,31
667,694	-25,6
667,885	80,89
668,077	5,12
668,268	-21,5
668,459	-29,7
668,651	62,46
668,842	44,03
669,033	21,5
669,224	17,41
669,416	64,51
669,607	15,36
669,798	-3,07
669,989	13,31
670,18	-37,89
670,371	52,22
670,563	72,7
670,754	50,18
670,945	74,75
671,136	-37,89
671,327	-109,57
671,518	3,07
671,709	72,7
671,9	91,13
672,091	7,17
672,282	-13,31
672,473	-58,37
672,664	-13,31
672,855	3,07
673,046	56,32
673,237	23,55
673,428	-7,17
673,619	19,46
673,809	-17,41
674	29,7
674,191	87,04
674,382	-11,26
674,573	-87,04
674,764	35,84
674,954	13,31
675,145	44,03
675,336	-87,04
675,527	-1,02
675,717	44,03
675,908	21,5
676,099	33,79
676,289	48,13
676,48	-21,5
676,671	64,51
676,861	-27,65
677,052	-1,02
677,243	35,84
677,433	17,41
677,624	21,5
677,814	-5,12
678,005	31,74
678,195	19,46
678,386	-48,13
678,576	19,46
678,767	23,55
678,957	13,31
679,148	7,17
679,338	60,42
679,529	15,36
679,719	-50,18
679,909	-27,65
680,1	19,46
680,29	82,94
680,481	-5,12
680,671	-48,13
680,861	44,03
681,052	1,02
681,242	-5,12
681,432	58,37
681,622	56,32
681,813	44,03
682,003	23,55
682,193	-19,46
682,383	35,84
682,573	3,07
682,764	23,55
682,954	56,32
683,144	-37,89
683,334	23,55
683,524	19,46
683,714	46,08
683,904	-58,37
684,094	-68,61
684,284	27,65
684,474	3,07
684,664	-21,5
684,854	-48,13
685,044	-3,07
685,234	23,55
685,424	21,5
685,614	19,46
685,804	25,6
685,994	-5,12
686,184	46,08
686,374	-17,41
686,564	29,7
686,753	15,36
686,943	5,12
687,133	-25,6
687,323	-19,46
687,513	54,27
687,702	13,31
687,892	35,84
688,082	-37,89
688,272	29,7
688,461	52,22
688,651	23,55
688,841	3,07
689,03	-62,46
689,22	31,74
689,41	56,32
689,599	56,32
689,789	-33,79
689,979	25,6
690,168	35,84
690,358	13,31
690,547	-7,17
690,737	-27,65
690,926	-11,26
691,116	11,26
691,305	-35,84
691,495	35,84
691,684	-11,26
691,874	-56,32
692,063	15,36
692,252	37,89
692,442	-5,12
692,631	39,94
692,82	-76,8
693,01	-33,79
693,199	25,6
693,388	-11,26
693,578	-39,94
693,767	-50,18
693,956	-15,36
694,146	-5,12
694,335	-17,41
694,524	3,07
694,713	41,98
694,902	-23,55
695,092	-37,89
695,281	11,26
695,47	68,61
695,659	-68,61
695,848	-3,07
696,037	9,22
696,226	-11,26
696,415	76,8
696,604	7,17
696,793	11,26
696,982	-23,55
697,171	-33,79
697,36	-15,36
697,549	13,31
697,738	3,07
697,927	29,7
698,116	-19,46
698,305	-35,84
698,494	-41,98
698,683	-27,65
698,872	50,18
699,061	31,74
699,25	19,46
699,438	41,98
699,627	25,6
699,816	-1,02
700,005	52,22
700,193	41,98
700,382	-29,7
700,571	-9,22
700,76	-41,98
700,948	41,98
701,137	11,26
701,326	87,04
701,514	35,84
701,703	-11,26
701,892	27,65
702,08	-3,07
702,269	-68,61
702,457	93,18
702,646	78,85
702,834	13,31
703,023	-21,5
703,212	35,84
703,4	11,26
703,589	27,65
703,777	-17,41
703,965	99,33
704,154	-54,27
704,342	-1,02
704,531	-44,03
704,719	-13,31
704,907	-5,12
705,096	-46,08
705,284	-11,26
705,472	46,08
705,661	9,22
705,849	-27,65
706,037	-25,6
706,226	15,36
706,414	-70,65
706,602	13,31
706,79	-62,46
706,979	-5,12
707,167	7,17
707,355	46,08
707,543	44,03
707,731	44,03
707,919	3,07
708,107	33,79
708,296	3,07
708,484	72,7
708,672	-9,22
708,86	-17,41
709,048	-21,5
709,236	5,12
709,424	19,46
709,612	35,84
709,8	-62,46
709,988	19,46
710,176	9,22
710,364	-58,37
710,551	-68,61
710,739	-1,02
710,927	60,42
711,115	19,46
711,303	-13,31
711,491	-5,12
711,679	1,02
711,866	54,27
712,054	-101,37
712,242	19,46
712,43	-46,08
712,617	48,13
712,805	13,31
712,993	27,65
713,181	21,5
713,368	-41,98
713,556	-29,7
713,744	-5,12
713,931	-17,41
714,119	-33,79
714,306	-27,65
714,494	13,31
714,682	27,65
714,869	-17,41
715,057	-33,79
715,244	-46,08
715,432	5,12
715,619	3,07
715,807	23,55
715,994	11,26
716,182	52,22
716,369	80,89
716,556	41,98
716,744	-9,22
716,931	-5,12
717,119	44,03
717,306	13,31
717,493	62,46
717,681	-35,84
717,868	60,42
718,055	41,98
718,242	107,52
718,43	68,61
718,617	37,89
718,804	-29,7
718,991	15,36
719,179	-19,46
719,366	-48,13
719,553	50,18
719,74	52,22
719,927	-3,07
720,114	13,31
720,301	-17,41
720,488	84,99
720,676	37,89
720,863	-15,36
721,05	7,17
721,237	5,12
721,424	29,7
721,611	60,42
721,798	-39,94
721,985	-13,31
722,172	-13,31
722,358	-27,65
722,545	56,32
722,732	-11,26
722,919	23,55
723,106	-3,07
723,293	-39,94
723,48	44,03
723,667	-23,55
723,853	78,85
724,04	-5,12
724,227	-5,12
724,414	-13,31
724,6	-35,84
724,787	33,79
724,974	-21,5
725,161	-5,12
725,347	23,55
725,534	-35,84
725,72	66,56
725,907	60,42
726,094	-7,17
726,28	-3,07
726,467	11,26
726,653	29,7
726,84	56,32
727,027	9,22
727,213	-95,23
727,4	13,31
727,586	-5,12
727,773	29,7
727,959	3,07
728,145	-23,55
728,332	3,07
728,518	-17,41
728,705	19,46
728,891	23,55
729,077	-25,6
729,264	29,7
729,45	29,7
729,636	13,31
729,823	-39,94
730,009	41,98
730,195	-19,46
730,382	23,55
730,568	-41,98
730,754	15,36
730,94	5,12
731,126	21,5
731,313	9,22
731,499	-35,84
731,685	3,07
731,871	-60,42
732,057	7,17
732,243	-37,89
732,429	19,46
732,615	-46,08
732,801	48,13
732,987	13,31
733,173	-3,07
733,359	-21,5
733,545	-29,7
733,731	-3,07
733,917	-1,02
734,103	-15,36
734,289	44,03
734,475	3,07
734,661	56,32
734,847	-27,65
735,033	46,08
735,219	-54,27
735,404	31,74
735,59	-25,6
735,776	-33,79
735,962	62,46
736,148	-5,12
736,333	19,46
736,519	-54,27
736,705	62,46
736,89	17,41
737,076	-5,12
737,262	-3,07
737,447	-13,31
737,633	-54,27
737,819	-44,03
738,004	111,61
738,19	-27,65
738,375	-27,65
738,561	9,22
738,747	-17,41
738,932	-25,6
739,118	56,32
739,303	15,36
739,489	3,07
739,674	-13,31
739,859	3,07
740,045	1,02
740,23	-7,17
740,416	21,5
740,601	31,74
740,786	-17,41
740,972	25,6
741,157	5,12
741,342	37,89
741,528	11,26
741,713	27,65
741,898	44,03
742,084	-3,07
742,269	5,12
742,454	7,17
742,639	-5,12
742,824	21,5
743,01	1,02
743,195	41,98
743,38	-25,6
743,565	13,31
743,75	11,26
743,935	-5,12
744,12	-17,41
744,305	23,55
744,49	15,36
744,675	39,94
744,86	74,75
745,045	11,26
745,23	-21,5
745,415	64,51
745,6	-15,36
745,785	50,18
745,97	-52,22
746,155	-11,26
746,34	21,5
746,525	-1,02
746,71	46,08
746,895	-19,46
747,079	27,65
747,264	-3,07
747,449	66,56
747,634	27,65
747,819	-5,12
748,003	21,5
748,188	5,12
748,373	-5,12
748,557	19,46
748,742	66,56
748,927	-50,18
749,111	-13,31
749,296	17,41
749,481	13,31
749,665	-25,6
749,85	15,36
750,034	31,74
750,219	52,22
750,404	-15,36
750,588	-5,12
750,773	48,13
750,957	5,12
751,141	-27,65
751,326	3,07
751,51	-21,5
751,695	3,07
751,879	-35,84
752,064	-21,5
752,248	-11,26
752,432	87,04
752,617	-54,27
752,801	-46,08
752,985	-7,17
753,17	-9,22
753,354	64,51
753,538	62,46
753,722	15,36
753,907	17,41
754,091	54,27
754,275	33,79
754,459	31,74
754,643	-11,26
754,828	-29,7
755,012	70,65
755,196	21,5
755,38	-74,75
755,564	93,18
755,748	11,26
755,932	-9,22
756,116	-60,42
756,3	-5,12
756,484	25,6
756,668	35,84
756,852	44,03
757,036	19,46
757,22	109,57
757,404	19,46
757,588	113,66
757,772	-39,94
757,956	-19,46
758,14	-9,22
758,323	15,36
758,507	-76,8
758,691	-3,07
758,875	3,07
759,059	39,94
759,242	-9,22
759,426	25,6
759,61	21,5
759,794	17,41
759,977	27,65
760,161	46,08
760,345	-35,84
760,528	-13,31
760,712	-29,7
760,895	39,94
761,079	25,6
761,263	13,31
761,446	-7,17
761,63	-3,07
761,813	41,98
761,997	54,27
762,18	46,08
762,364	-7,17
762,547	-3,07
762,731	-17,41
762,914	-35,84
763,098	-37,89
763,281	31,74
763,464	-39,94
763,648	3,07
763,831	-54,27
764,015	25,6
764,198	19,46
764,381	31,74
764,564	21,5
764,748	11,26
764,931	62,46
765,114	7,17
765,297	-31,74
765,481	60,42
765,664	-50,18
765,847	-48,13
766,03	-1,02
766,213	-60,42
766,397	3,07
766,58	23,55
766,763	7,17
766,946	-54,27
767,129	19,46
767,312	11,26
767,495	62,46
767,678	-56,32
767,861	11,26
768,044	33,79
768,227	-19,46
768,41	17,41
768,593	3,07
768,776	5,12
768,959	-5,12
769,142	52,22
769,324	-27,65
769,507	-13,31
769,69	60,42
769,873	5,12
770,056	-11,26
770,239	50,18
770,421	37,89
770,604	-27,65
770,787	-5,12
770,97	-58,37
771,152	35,84
771,335	3,07
771,518	-17,41
771,7	54,27
771,883	-58,37
772,066	35,84
772,248	64,51
772,431	33,79
772,613	78,85
772,796	-48,13
772,978	62,46
773,161	-52,22
773,343	-91,13
773,526	-21,5
773,708	-29,7
773,891	27,65
774,073	-15,36
774,256	-11,26
774,438	-56,32
774,621	29,7
774,803	37,89
774,985	21,5
775,168	35,84
775,35	-5,12
775,532	3,07
775,715	-25,6
775,897	-5,12
776,079	70,65
776,261	-11,26
776,444	31,74
776,626	15,36
776,808	-56,32
776,99	56,32
777,173	19,46
777,355	76,8
777,537	-25,6
777,719	-21,5
777,901	-15,36
778,083	39,94
778,265	48,13
778,447	39,94
778,629	35,84
778,811	46,08
778,993	-41,98
779,175	-62,46
779,357	-9,22
779,539	68,61
779,721	-1,02
779,903	17,41
780,085	-5,12
780,267	-27,65
780,449	62,46
780,631	37,89
780,812	-17,41
780,994	35,84
781,176	-37,89
781,358	37,89
781,54	39,94
781,721	46,08
781,903	-66,56
782,085	-5,12
782,267	-35,84
782,448	-29,7
782,63	-13,31
782,812	-54,27
782,993	15,36
783,175	46,08
783,357	-72,7
783,538	-29,7
783,72	1,02
783,901	13,31
784,083	3,07
784,264	21,5
784,446	60,42
784,627	7,17
784,809	11,26
784,99	3,07
785,172	-5,12
785,353	27,65
785,535	-25,6
785,716	60,42
785,897	-37,89
786,079	-31,74
786,26	52,22
786,441	-11,26
786,623	31,74
786,804	-41,98
786,985	-13,31
787,167	-11,26
787,348	-39,94
787,529	9,22
787,71	27,65
787,891	13,31
788,073	-82,94
788,254	-39,94
788,435	-44,03
788,616	-11,26
788,797	-37,89
788,978	-41,98
789,159	-3,07
789,34	52,22
789,522	41,98
789,703	-41,98
789,884	64,51
790,065	27,65
790,246	7,17
790,427	-54,27
790,607	35,84
790,788	31,74
790,969	-1,02
791,15	35,84
791,331	-46,08
791,512	-46,08
791,693	29,7
791,874	37,89
792,054	3,07
792,235	62,46
792,416	-44,03
792,597	35,84
792,778	11,26
792,958	-9,22
793,139	-27,65
793,32	62,46
793,5	-5,12
793,681	-21,5
793,862	29,7
794,042	5,12
794,223	-68,61
794,404	27,65
794,584	44,03
794,765	5,12
794,945	-13,31
795,126	29,7
795,306	15,36
795,487	3,07
795,667	-13,31
795,848	60,42
796,028	25,6
796,209	54,27
796,389	27,65
796,57	39,94
796,75	-3,07
796,93	5,12
797,111	1,02
797,291	-5,12
797,471	-11,26
797,652	-35,84
797,832	-21,5
798,012	35,84
798,192	-68,61
798,373	-29,7
798,553	15,36
798,733	29,7
798,913	54,27
799,093	27,65
799,274	72,7
799,454	19,46
799,634	7,17
799,814	48,13
799,994	-11,26
800,174	-5,12
800,354	3,07
800,534	29,7
800,714	29,7
800,894	-9,22
801,074	-58,37
801,254	-9,22
801,434	31,74
801,614	-7,17
801,794	-35,84
801,974	44,03
802,154	29,7
802,334	35,84
802,514	37,89
802,693	-54,27
802,873	-5,12
803,053	46,08
803,233	7,17
803,413	-29,7
803,592	-17,41
803,772	46,08
803,952	9,22
804,131	13,31
804,311	-60,42
804,491	25,6
804,67	39,94
804,85	-37,89
805,03	27,65
805,209	-29,7
805,389	15,36
805,568	60,42
805,748	27,65
805,928	39,94
806,107	-11,26
806,287	-11,26
806,466	23,55
806,646	-1,02
806,825	29,7
807,004	29,7
807,184	23,55
807,363	11,26
807,543	27,65
807,722	37,89
807,901	-9,22
808,081	15,36
808,26	19,46
808,439	21,5
808,619	-27,65
808,798	-5,12
808,977	-3,07
809,156	-11,26
809,336	-72,7
809,515	-11,26
809,694	-99,33
809,873	58,37
810,052	44,03
810,231	-1,02
810,411	58,37
810,59	19,46
810,769	3,07
810,948	-62,46
811,127	68,61
811,306	-48,13
811,485	29,7
811,664	11,26
811,843	23,55
812,022	37,89
812,201	27,65
812,38	-80,89
812,559	23,55
812,737	-17,41
812,916	25,6
813,095	-39,94
813,274	29,7
813,453	-15,36
813,632	37,89
813,811	-5,12
813,989	15,36
814,168	37,89
814,347	-7,17
814,526	-93,18
814,704	-5,12
814,883	-33,79
815,062	11,26
815,24	-41,98
815,419	-21,5
815,598	5,12
815,776	9,22
815,955	-17,41
816,133	29,7
816,312	44,03
816,49	-23,55
816,669	-44,03
816,847	-23,55
817,026	101,37
817,204	-95,23
817,383	-46,08
817,561	-70,65
817,74	60,42
817,918	21,5
818,097	-5,12
818,275	-7,17
818,453	21,5
818,632	-44,03
818,81	-66,56
818,988	-11,26
819,167	-13,31
819,345	17,41
819,523	-9,22
819,701	11,26
819,879	-21,5
820,058	-52,22
820,236	21,5
820,414	27,65
820,592	-13,31
820,77	70,65
820,948	-25,6
821,127	33,79
821,305	35,84
821,483	-13,31
821,661	13,31
821,839	15,36
822,017	-39,94
822,195	15,36
822,373	44,03
822,551	25,6
822,729	7,17
822,907	-5,12
823,085	11,26
823,262	48,13
823,44	5,12
823,618	-5,12
823,796	39,94
823,974	13,31
824,152	35,84
824,329	-37,89
824,507	19,46
824,685	39,94
824,863	1,02
825,04	-9,22
825,218	152,57
825,396	-54,27
825,574	46,08
825,751	-21,5
825,929	9,22
826,107	19,46
826,284	11,26
826,462	9,22
826,639	-60,42
826,817	-7,17
826,994	29,7
827,172	-19,46
827,349	-3,07
827,527	13,31
827,704	3,07
827,882	37,89
828,059	44,03
828,237	-87,04
828,414	72,7
828,591	27,65
828,769	29,7
828,946	-15,36
829,124	-5,12
829,301	84,99
829,478	60,42
829,655	-27,65
829,833	-21,5
830,01	3,07
830,187	5,12
830,364	33,79
830,542	35,84
830,719	-9,22
830,896	9,22
831,073	-21,5
831,25	1,02
831,427	-11,26
831,604	3,07
831,782	29,7
831,959	76,8
832,136	-1,02
832,313	-23,55
832,49	-13,31
832,667	5,12
832,844	21,5
833,021	-11,26
833,198	13,31
833,374	-15,36
833,551	-17,41
833,728	-46,08
833,905	-41,98
834,082	99,33
834,259	11,26
834,436	19,46
834,612	-58,37
834,789	29,7
834,966	27,65
835,143	19,46
835,319	97,28
835,496	78,85
835,673	3,07
835,85	17,41
836,026	-56,32
836,203	-7,17
836,38	-1,02
836,556	-46,08
836,733	-56,32
836,909	74,75
837,086	-37,89
837,262	29,7
837,439	11,26
837,616	52,22
837,792	60,42
837,968	54,27
838,145	5,12
838,321	27,65
838,498	1,02
838,674	23,55
838,851	-33,79
839,027	-5,12
839,203	68,61
839,38	27,65
839,556	44,03
839,732	-3,07
839,909	-1,02
840,085	72,7
840,261	5,12
840,437	-54,27
840,614	60,42
840,79	-19,46
840,966	-37,89
841,142	-35,84
841,318	-35,84
841,494	9,22
841,671	33,79
841,847	11,26
842,023	54,27
842,199	11,26
842,375	-25,6
842,551	-93,18
842,727	89,09
842,903	-70,65
843,079	41,98
843,255	58,37
843,431	-21,5
843,607	3,07
843,783	-33,79
843,959	13,31
844,134	-25,6
844,31	37,89
844,486	15,36
844,662	27,65
844,838	13,31
845,013	23,55
845,189	-64,51
845,365	52,22
845,541	7,17
845,716	39,94
845,892	35,84
846,068	-3,07
846,244	27,65
846,419	-5,12
846,595	-9,22
846,77	17,41
846,946	9,22
847,122	19,46
847,297	-5,12
847,473	25,6
847,648	29,7
847,824	-37,89
847,999	19,46
848,175	-58,37
848,35	-21,5
848,526	11,26
848,701	-58,37
848,876	-3,07
849,052	-35,84
849,227	11,26
849,403	11,26
849,578	37,89
849,753	13,31
849,929	109,57
850,104	-9,22
850,279	11,26
850,454	48,13
850,63	-33,79
850,805	48,13
850,98	-17,41
851,155	15,36
851,33	-7,17
851,505	31,74
851,681	76,8
851,856	-11,26
852,031	29,7
852,206	21,5
852,381	-13,31
852,556	-54,27
852,731	23,55
852,906	-29,7
853,081	48,13
853,256	-3,07
853,431	35,84
853,606	-21,5
853,781	35,84
853,956	29,7
854,131	3,07
854,305	13,31
854,48	13,31
854,655	23,55
854,83	46,08
855,005	21,5
855,18	-64,51
855,354	46,08
855,529	37,89
855,704	44,03
855,879	21,5
856,053	-27,65
856,228	44,03
856,403	19,46
856,577	15,36
856,752	-87,04
856,926	29,7
857,101	-11,26
857,276	58,37
857,45	27,65
857,625	3,07
857,799	3,07
857,974	48,13
858,148	37,89
858,323	3,07
858,497	15,36
858,672	76,8
858,846	-37,89
859,02	35,84
859,195	31,74
859,369	-27,65
859,543	93,18
859,718	11,26
859,892	-15,36
860,066	-5,12
860,241	29,7
860,415	5,12
860,589	56,32
860,763	19,46
860,938	5,12
861,112	44,03
861,286	31,74
861,46	25,6
861,634	-13,31
861,808	7,17
861,982	13,31
862,157	-39,94
862,331	11,26
862,505	-70,65
862,679	-48,13
862,853	103,42
863,027	-11,26
863,201	82,94
863,375	-35,84
863,549	5,12
863,722	23,55
863,896	35,84
864,07	-19,46
864,244	5,12
864,418	-84,99
864,592	-19,46
864,766	-17,41
864,939	62,46
865,113	-21,5
865,287	50,18
865,461	-1,02
865,634	-54,27
865,808	-3,07
865,982	11,26
866,156	-9,22
866,329	-1,02
866,503	-9,22
866,676	-39,94
866,85	62,46
867,024	15,36
867,197	44,03
867,371	62,46
867,544	5,12
867,718	48,13
867,891	-5,12
868,065	7,17
868,238	-11,26
868,412	-23,55
868,585	-5,12
868,759	1,02
868,932	60,42
869,105	-70,65
869,279	39,94
869,452	5,12
869,625	19,46
869,799	-23,55
869,972	19,46
870,145	23,55
870,319	70,65
870,492	-5,12
870,665	19,46
870,838	-13,31
871,011	35,84
871,185	62,46
871,358	25,6
871,531	25,6
871,704	35,84
871,877	15,36
872,05	35,84
872,223	27,65
872,396	-39,94
872,569	-13,31
872,742	37,89
872,915	13,31
873,088	-25,6
873,261	5,12
873,434	-35,84
873,607	5,12
873,78	-56,32
873,953	-52,22
874,126	-13,31
874,299	-27,65
874,471	-9,22
874,644	19,46
874,817	-13,31
874,99	-19,46
875,163	23,55
875,335	-35,84
875,508	-84,99
875,681	-27,65
875,853	-7,17
876,026	-5,12
876,199	111,61
876,371	-60,42
876,544	-62,46
876,717	-29,7
876,889	19,46
877,062	46,08
877,234	5,12
877,407	-21,5
877,579	-9,22
877,752	19,46
877,924	-31,74
878,097	44,03
878,269	11,26
878,442	35,84
878,614	3,07
878,786	3,07
878,959	-7,17
879,131	27,65
879,303	64,51
879,476	39,94
879,648	-9,22
879,82	66,56
879,993	27,65
880,165	3,07
880,337	-44,03
880,509	1,02
880,681	-29,7
880,854	-7,17
881,026	-5,12
881,198	-21,5
881,37	29,7
881,542	-1,02
881,714	-27,65
881,886	29,7
882,058	78,85
882,23	3,07
882,402	-21,5
882,574	19,46
882,746	-5,12
882,918	29,7
883,09	-13,31
883,262	44,03
883,434	25,6
883,606	-46,08
883,778	-39,94
883,95	29,7
884,122	82,94
884,293	50,18
884,465	-62,46
884,637	-5,12
884,809	-62,46
884,98	-41,98
885,152	-23,55
885,324	-107,52
885,496	-68,61
885,667	-11,26
885,839	-29,7
886,011	1,02
886,182	66,56
886,354	19,46
886,525	9,22
886,697	-9,22
886,869	7,17
887,04	3,07
887,212	1,02
887,383	70,65
887,555	15,36
887,726	19,46
887,897	-91,13
888,069	44,03
888,24	-44,03
888,412	-78,85
888,583	25,6
888,754	17,41
888,926	21,5
889,097	70,65
889,268	23,55
889,44	33,79
889,611	-9,22
889,782	-7,17
889,953	-15,36
890,125	11,26
890,296	-29,7
890,467	23,55
890,638	-25,6
890,809	-78,85
890,98	-41,98
891,151	-3,07
891,323	-50,18
891,494	-21,5
891,665	9,22
891,836	13,31
892,007	68,61
892,178	-46,08
892,349	27,65
892,52	31,74
892,691	7,17
892,862	-7,17
893,032	7,17
893,203	-13,31
893,374	-1,02
893,545	15,36
893,716	33,79
893,887	66,56
894,057	-29,7
894,228	-60,42
894,399	-37,89
894,57	3,07
894,74	3,07
894,911	39,94
895,082	23,55
895,253	13,31
895,423	33,79
895,594	-15,36
895,764	37,89
895,935	52,22
896,106	-35,84
896,276	-13,31
896,447	11,26
896,617	35,84
896,788	-62,46
896,958	7,17
897,129	-68,61
897,299	87,04
897,47	-39,94
897,64	82,94
897,81	54,27
897,981	62,46
898,151	-11,26
898,322	-37,89
898,492	29,7
898,662	23,55
898,832	-48,13
899,003	19,46
899,173	17,41
899,343	-11,26
899,513	-68,61
