Data from filtre 532_USB4F104151__7__11-57-42-381.txt Node

Date: Wed Apr 15 11:57:42 EDT 2026
User: LaboPhy
Spectrometer: USB4F10415
Trigger mode: 4
Integration Time (sec): 3,000000E-3
Scans to average: 1
Electric dark correction enabled: true
Nonlinearity correction enabled: false
Boxcar width: 0
XAxis mode: Wavelengths
Number of Pixels in Spectrum: 3648
>>>>>Begin Spectral Data<<<<<
178,204	19,46
178,424	19,46
178,644	19,46
178,864	-1,02
179,084	15,36
179,304	-29,7
179,524	9,22
179,744	-17,41
179,964	-105,47
180,184	52,22
180,404	46,08
180,624	15,36
180,844	50,18
181,064	37,89
181,283	-5,12
181,503	-27,65
181,723	-25,6
181,943	19,46
182,163	-50,18
182,383	33,79
182,602	-17,41
182,822	-33,79
183,042	-70,65
183,262	-21,5
183,482	-29,7
183,701	-21,5
183,921	-19,46
184,141	7,17
184,361	46,08
184,58	-21,5
184,8	29,7
185,02	11,26
185,239	-21,5
185,459	23,55
185,679	-31,74
185,898	-11,26
186,118	52,22
186,338	-33,79
186,557	46,08
186,777	-3,07
186,997	-54,27
187,216	-35,84
187,436	17,41
187,655	19,46
187,875	31,74
188,095	15,36
188,314	27,65
188,534	-35,84
188,753	27,65
188,973	-46,08
189,192	11,26
189,412	58,37
189,631	-21,5
189,851	-27,65
190,07	78,85
190,29	-13,31
190,509	44,03
190,729	-21,5
190,948	60,42
191,168	68,61
191,387	44,03
191,607	-37,89
191,826	-46,08
192,045	5,12
192,265	11,26
192,484	44,03
192,704	3,07
192,923	31,74
193,142	25,6
193,362	27,65
193,581	60,42
193,8	5,12
194,02	41,98
194,239	-52,22
194,458	-27,65
194,678	-13,31
194,897	1,02
195,116	-64,51
195,335	-5,12
195,555	27,65
195,774	3,07
195,993	48,13
196,212	-9,22
196,432	23,55
196,651	17,41
196,87	52,22
197,089	23,55
197,308	25,6
197,528	1,02
197,747	44,03
197,966	21,5
198,185	35,84
198,404	-31,74
198,623	-21,5
198,842	-27,65
199,062	13,31
199,281	-21,5
199,5	-54,27
199,719	-11,26
199,938	27,65
200,157	-9,22
200,376	-1,02
200,595	44,03
200,814	-39,94
201,033	3,07
201,252	68,61
201,471	-5,12
201,69	-27,65
201,909	35,84
202,128	-82,94
202,347	-19,46
202,566	-87,04
202,785	-23,55
203,004	-13,31
203,223	3,07
203,442	93,18
203,661	-37,89
203,879	-35,84
204,098	3,07
204,317	3,07
204,536	27,65
204,755	-134,14
204,974	41,98
205,193	39,94
205,411	3,07
205,63	-35,84
205,849	-21,5
206,068	76,8
206,287	-25,6
206,505	9,22
206,724	19,46
206,943	11,26
207,162	21,5
207,381	-95,23
207,599	35,84
207,818	-33,79
208,037	-17,41
208,255	84,99
208,474	23,55
208,693	25,6
208,911	27,65
209,13	-60,42
209,349	95,23
209,567	3,07
209,786	11,26
210,005	-35,84
210,223	-33,79
210,442	-11,26
210,661	33,79
210,879	-21,5
211,098	11,26
211,316	-62,46
211,535	3,07
211,753	-72,7
211,972	-5,12
212,191	52,22
212,409	93,18
212,628	-41,98
212,846	-23,55
213,065	-9,22
213,283	-39,94
213,502	-70,65
213,72	-13,31
213,938	-19,46
214,157	3,07
214,375	-27,65
214,594	-44,03
214,812	15,36
215,031	27,65
215,249	-52,22
215,467	-56,32
215,686	-13,31
215,904	-13,31
216,122	-68,61
216,341	54,27
216,559	7,17
216,778	3,07
216,996	56,32
217,214	7,17
217,432	58,37
217,651	-39,94
217,869	-50,18
218,087	-7,17
218,306	-29,7
218,524	68,61
218,742	-19,46
218,96	17,41
219,179	-3,07
219,397	3,07
219,615	-60,42
219,833	35,84
220,051	21,5
220,27	3,07
220,488	-9,22
220,706	41,98
220,924	5,12
221,142	109,57
221,36	-39,94
221,578	7,17
221,796	-35,84
222,015	-17,41
222,233	52,22
222,451	50,18
222,669	-23,55
222,887	-35,84
223,105	54,27
223,323	19,46
223,541	33,79
223,759	54,27
223,977	-60,42
224,195	19,46
224,413	-52,22
224,631	-7,17
224,849	-9,22
225,067	-29,7
225,285	15,36
225,503	-56,32
225,721	52,22
225,939	-35,84
226,157	-52,22
226,375	48,13
226,592	-21,5
226,81	21,5
227,028	48,13
227,246	15,36
227,464	-1,02
227,682	91,13
227,9	-52,22
228,117	23,55
228,335	-5,12
228,553	17,41
228,771	37,89
228,989	7,17
229,206	-44,03
229,424	60,42
229,642	-50,18
229,86	-25,6
230,077	-13,31
230,295	-13,31
230,513	7,17
230,731	5,12
230,948	-25,6
231,166	15,36
231,384	27,65
231,601	13,31
231,819	-35,84
232,037	21,5
232,254	19,46
232,472	56,32
232,689	5,12
232,907	23,55
233,125	-5,12
233,342	7,17
233,56	-13,31
233,777	5,12
233,995	-19,46
234,213	-101,37
234,43	3,07
234,648	27,65
234,865	-74,75
235,083	33,79
235,3	11,26
235,518	3,07
235,735	19,46
235,953	-46,08
236,17	23,55
236,388	58,37
236,605	-17,41
236,822	3,07
237,04	31,74
237,257	-9,22
237,475	-27,65
237,692	84,99
237,909	15,36
238,127	27,65
238,344	-33,79
238,562	5,12
238,779	13,31
238,996	-19,46
239,214	-13,31
239,431	25,6
239,648	-9,22
239,865	-5,12
240,083	27,65
240,3	15,36
240,517	-13,31
240,735	21,5
240,952	13,31
241,169	19,46
241,386	-1,02
241,603	-27,65
241,821	-33,79
242,038	25,6
242,255	-11,26
242,472	-11,26
242,689	35,84
242,907	-3,07
243,124	-5,12
243,341	17,41
243,558	13,31
243,775	27,65
243,992	5,12
244,209	-5,12
244,426	-41,98
244,643	13,31
244,86	-3,07
245,078	-46,08
245,295	-21,5
245,512	-11,26
245,729	-37,89
245,946	13,31
246,163	-3,07
246,38	19,46
246,597	-13,31
246,814	13,31
247,031	21,5
247,248	3,07
247,464	17,41
247,681	-27,65
247,898	3,07
248,115	62,46
248,332	21,5
248,549	-1,02
248,766	-64,51
248,983	41,98
249,2	-31,74
249,417	27,65
249,633	-17,41
249,85	-68,61
250,067	52,22
250,284	15,36
250,501	-1,02
250,717	35,84
250,934	-44,03
251,151	-5,12
251,368	46,08
251,585	15,36
251,801	3,07
252,018	19,46
252,235	54,27
252,451	70,65
252,668	-19,46
252,885	37,89
253,102	7,17
253,318	31,74
253,535	-13,31
253,752	31,74
253,968	44,03
254,185	19,46
254,401	-29,7
254,618	-103,42
254,835	-1,02
255,051	60,42
255,268	-1,02
255,484	31,74
255,701	21,5
255,917	19,46
256,134	-17,41
256,351	-82,94
256,567	-91,13
256,784	39,94
257	-7,17
257,217	13,31
257,433	15,36
257,65	-27,65
257,866	-50,18
258,082	-27,65
258,299	19,46
258,515	66,56
258,732	-44,03
258,948	-25,6
259,165	-41,98
259,381	35,84
259,597	23,55
259,814	5,12
260,03	-13,31
260,246	-31,74
260,463	-13,31
260,679	13,31
260,895	-46,08
261,112	-58,37
261,328	31,74
261,544	-7,17
261,761	-27,65
261,977	7,17
262,193	-29,7
262,409	19,46
262,626	19,46
262,842	3,07
263,058	-3,07
263,274	44,03
263,49	-46,08
263,707	-44,03
263,923	-35,84
264,139	21,5
264,355	13,31
264,571	50,18
264,787	27,65
265,004	-54,27
265,22	11,26
265,436	-21,5
265,652	13,31
265,868	15,36
266,084	35,84
266,3	13,31
266,516	-41,98
266,732	21,5
266,948	-37,89
267,164	35,84
267,38	-25,6
267,596	58,37
267,812	-27,65
268,028	-17,41
268,244	-13,31
268,46	17,41
268,676	41,98
268,892	41,98
269,108	-19,46
269,324	54,27
269,54	-60,42
269,756	-19,46
269,972	-23,55
270,188	84,99
270,403	-103,42
270,619	-13,31
270,835	3,07
271,051	-82,94
271,267	-39,94
271,483	5,12
271,698	13,31
271,914	19,46
272,13	-15,36
272,346	21,5
272,562	37,89
272,777	13,31
272,993	7,17
273,209	44,03
273,425	-29,7
273,64	-3,07
273,856	37,89
274,072	13,31
274,287	29,7
274,503	1,02
274,719	-35,84
274,934	-19,46
275,15	-27,65
275,366	-39,94
275,581	21,5
275,797	35,84
276,012	-21,5
276,228	-5,12
276,444	-11,26
276,659	-46,08
276,875	25,6
277,09	21,5
277,306	-25,6
277,521	87,04
277,737	27,65
277,952	21,5
278,168	-23,55
278,383	-54,27
278,599	-3,07
278,814	5,12
279,03	39,94
279,245	-11,26
279,461	-5,12
279,676	52,22
279,892	44,03
280,107	48,13
280,322	76,8
280,538	76,8
280,753	46,08
280,969	-35,84
281,184	-56,32
281,399	3,07
281,615	-15,36
281,83	21,5
282,045	27,65
282,26	-31,74
282,476	-46,08
282,691	-39,94
282,906	52,22
283,122	3,07
283,337	-52,22
283,552	41,98
283,767	-1,02
283,983	-19,46
284,198	27,65
284,413	17,41
284,628	-3,07
284,843	-5,12
285,058	31,74
285,274	-9,22
285,489	-17,41
285,704	31,74
285,919	23,55
286,134	-5,12
286,349	1,02
286,564	46,08
286,779	-35,84
286,995	80,89
287,21	-31,74
287,425	19,46
287,64	15,36
287,855	52,22
288,07	-21,5
288,285	-29,7
288,5	46,08
288,715	-29,7
288,93	-5,12
289,145	15,36
289,36	3,07
289,575	-35,84
289,79	11,26
290,004	-27,65
290,219	21,5
290,434	84,99
290,649	-23,55
290,864	-21,5
291,079	3,07
291,294	70,65
291,509	7,17
291,724	39,94
291,938	-46,08
292,153	-31,74
292,368	11,26
292,583	21,5
292,798	-13,31
293,012	-35,84
293,227	-21,5
293,442	13,31
293,657	23,55
293,871	35,84
294,086	-44,03
294,301	50,18
294,516	64,51
294,73	-60,42
294,945	-21,5
295,16	-3,07
295,374	11,26
295,589	21,5
295,804	29,7
296,018	35,84
296,233	7,17
296,447	1,02
296,662	-25,6
296,877	46,08
297,091	17,41
297,306	-15,36
297,52	9,22
297,735	-21,5
297,949	19,46
298,164	11,26
298,378	11,26
298,593	21,5
298,807	-1,02
299,022	-17,41
299,236	-11,26
299,451	-44,03
299,665	11,26
299,88	-17,41
300,094	-115,71
300,309	23,55
300,523	-68,61
300,737	60,42
300,952	-62,46
301,166	25,6
301,381	54,27
301,595	-44,03
301,809	-29,7
302,024	35,84
302,238	-17,41
302,452	-60,42
302,667	7,17
302,881	-13,31
303,095	-33,79
303,309	13,31
303,524	-29,7
303,738	-33,79
303,952	17,41
304,166	5,12
304,381	-19,46
304,595	56,32
304,809	-25,6
305,023	19,46
305,237	-13,31
305,452	29,7
305,666	31,74
305,88	-21,5
306,094	25,6
306,308	37,89
306,522	56,32
306,736	-46,08
306,95	-21,5
307,164	1,02
307,379	-82,94
307,593	-3,07
307,807	-48,13
308,021	-33,79
308,235	-33,79
308,449	-70,65
308,663	21,5
308,877	-50,18
309,091	-62,46
309,305	-54,27
309,519	-19,46
309,733	-58,37
309,947	-44,03
310,161	-1,02
310,374	-44,03
310,588	11,26
310,802	-25,6
311,016	29,7
311,23	50,18
311,444	5,12
311,658	-29,7
311,872	-50,18
312,085	-62,46
312,299	-64,51
312,513	44,03
312,727	-33,79
312,941	3,07
313,154	-5,12
313,368	-48,13
313,582	-1,02
313,796	21,5
314,009	-15,36
314,223	15,36
314,437	-52,22
314,651	9,22
314,864	3,07
315,078	5,12
315,292	84,99
315,505	35,84
315,719	68,61
315,933	44,03
316,146	-68,61
316,36	-78,85
316,573	58,37
316,787	44,03
317,001	35,84
317,214	-56,32
317,428	-44,03
317,641	-15,36
317,855	-5,12
318,068	-23,55
318,282	-5,12
318,495	1,02
318,709	19,46
318,922	-91,13
319,136	23,55
319,349	-78,85
319,563	21,5
319,776	-54,27
319,99	35,84
320,203	7,17
320,417	33,79
320,63	56,32
320,843	-17,41
321,057	-31,74
321,27	-15,36
321,483	-39,94
321,697	-50,18
321,91	21,5
322,124	-5,12
322,337	37,89
322,55	9,22
322,763	46,08
322,977	-46,08
323,19	-27,65
323,403	-74,75
323,617	-27,65
323,83	11,26
324,043	39,94
324,256	27,65
324,469	-1,02
324,683	5,12
324,896	15,36
325,109	11,26
325,322	-5,12
325,535	78,85
325,748	-41,98
325,962	-84,99
326,175	3,07
326,388	66,56
326,601	-35,84
326,814	-7,17
327,027	39,94
327,24	76,8
327,453	-27,65
327,666	82,94
327,879	80,89
328,092	68,61
328,305	13,31
328,518	15,36
328,731	3,07
328,944	5,12
329,157	119,81
329,37	-46,08
329,583	-62,46
329,796	-29,7
330,009	17,41
330,222	89,09
330,435	46,08
330,648	-1,02
330,861	-84,99
331,073	117,76
331,286	-39,94
331,499	3,07
331,712	7,17
331,925	-1,02
332,138	-35,84
332,35	44,03
332,563	-19,46
332,776	-46,08
332,989	48,13
333,202	13,31
333,414	-66,56
333,627	9,22
333,84	-3,07
334,053	-9,22
334,265	-21,5
334,478	-5,12
334,691	-11,26
334,903	25,6
335,116	25,6
335,329	37,89
335,541	-31,74
335,754	19,46
335,966	-37,89
336,179	21,5
336,392	7,17
336,604	-13,31
336,817	-48,13
337,029	-1,02
337,242	-99,33
337,454	19,46
337,667	-54,27
337,88	-74,75
338,092	-3,07
338,305	-37,89
338,517	-13,31
338,729	64,51
338,942	-54,27
339,154	-5,12
339,367	-29,7
339,579	-58,37
339,792	-70,65
340,004	-72,7
340,217	-3,07
340,429	27,65
340,641	3,07
340,854	7,17
341,066	-41,98
341,278	-23,55
341,491	-7,17
341,703	-3,07
341,915	-29,7
342,128	19,46
342,34	-15,36
342,552	3,07
342,764	21,5
342,977	84,99
343,189	-5,12
343,401	-54,27
343,613	-70,65
343,826	-13,31
344,038	-29,7
344,25	-37,89
344,462	-29,7
344,674	-41,98
344,886	-76,8
345,099	-68,61
345,311	23,55
345,523	27,65
345,735	7,17
345,947	15,36
346,159	-11,26
346,371	-13,31
346,583	-29,7
346,795	5,12
347,007	-46,08
347,219	-23,55
347,431	-9,22
347,643	27,65
347,855	-70,65
348,067	-27,65
348,279	27,65
348,491	5,12
348,703	-35,84
348,915	-19,46
349,127	-72,7
349,339	-13,31
349,551	21,5
349,763	27,65
349,975	-50,18
350,187	15,36
350,399	37,89
350,61	5,12
350,822	-27,65
351,034	23,55
351,246	23,55
351,458	-46,08
351,669	17,41
351,881	52,22
352,093	29,7
352,305	35,84
352,517	35,84
352,728	-5,12
352,94	-7,17
353,152	-35,84
353,363	25,6
353,575	-3,07
353,787	-23,55
353,999	13,31
354,21	-5,12
354,422	11,26
354,633	-46,08
354,845	35,84
355,057	-27,65
355,268	-3,07
355,48	64,51
355,692	54,27
355,903	23,55
356,115	-27,65
356,326	29,7
356,538	3,07
356,749	-19,46
356,961	35,84
357,172	-21,5
357,384	41,98
357,595	-3,07
357,807	-1,02
358,018	-48,13
358,23	29,7
358,441	52,22
358,653	48,13
358,864	-62,46
359,075	-3,07
359,287	-1,02
359,498	-31,74
359,709	-11,26
359,921	-1,02
360,132	7,17
360,344	-89,09
360,555	-97,28
360,766	31,74
360,977	-15,36
361,189	-25,6
361,4	-25,6
361,611	-44,03
361,823	21,5
362,034	-13,31
362,245	-52,22
362,456	9,22
362,667	17,41
362,879	-17,41
363,09	-5,12
363,301	11,26
363,512	-23,55
363,723	44,03
363,935	-29,7
364,146	-19,46
364,357	-5,12
364,568	-23,55
364,779	-21,5
364,99	-41,98
365,201	44,03
365,412	-5,12
365,623	-13,31
365,834	39,94
366,045	7,17
366,256	-15,36
366,467	54,27
366,678	70,65
366,889	37,89
367,1	-52,22
367,311	-3,07
367,522	60,42
367,733	109,57
367,944	-1,02
368,155	-50,18
368,366	-23,55
368,577	17,41
368,788	68,61
368,999	44,03
369,209	-13,31
369,42	54,27
369,631	-35,84
369,842	-13,31
370,053	41,98
370,264	-44,03
370,474	27,65
370,685	27,65
370,896	35,84
371,107	37,89
371,317	17,41
371,528	-39,94
371,739	37,89
371,95	-3,07
372,16	-48,13
372,371	19,46
372,582	-84,99
372,792	-44,03
373,003	5,12
373,214	37,89
373,424	33,79
373,635	-7,17
373,846	-29,7
374,056	15,36
374,267	29,7
374,477	3,07
374,688	89,09
374,898	33,79
375,109	-19,46
375,319	19,46
375,53	-5,12
375,74	-60,42
375,951	11,26
376,161	56,32
376,372	-44,03
376,582	-25,6
376,793	3,07
377,003	-21,5
377,214	-13,31
377,424	15,36
377,635	25,6
377,845	68,61
378,055	35,84
378,266	-1,02
378,476	21,5
378,686	-29,7
378,897	-5,12
379,107	19,46
379,317	-101,37
379,528	13,31
379,738	68,61
379,948	76,8
380,158	17,41
380,369	-91,13
380,579	64,51
380,789	-1,02
380,999	1,02
381,21	41,98
381,42	-82,94
381,63	-17,41
381,84	44,03
382,05	19,46
382,261	-50,18
382,471	-37,89
382,681	-1,02
382,891	-29,7
383,101	-46,08
383,311	-37,89
383,521	44,03
383,731	23,55
383,941	44,03
384,151	-3,07
384,361	3,07
384,571	13,31
384,781	68,61
384,991	7,17
385,201	44,03
385,411	-15,36
385,621	-3,07
385,831	-60,42
386,041	39,94
386,251	-11,26
386,461	37,89
386,671	54,27
386,881	52,22
387,091	7,17
387,301	-29,7
387,511	37,89
387,72	11,26
387,93	-11,26
388,14	-1,02
388,35	54,27
388,56	60,42
388,769	-31,74
388,979	27,65
389,189	-7,17
389,399	-46,08
389,609	-74,75
389,818	39,94
390,028	-44,03
390,238	3,07
390,447	70,65
390,657	7,17
390,867	1,02
391,076	5,12
391,286	-17,41
391,496	39,94
391,705	39,94
391,915	33,79
392,125	-54,27
392,334	54,27
392,544	-29,7
392,753	-66,56
392,963	39,94
393,172	33,79
393,382	50,18
393,591	19,46
393,801	-7,17
394,01	3,07
394,22	-9,22
394,429	80,89
394,639	33,79
394,848	-46,08
395,058	-19,46
395,267	74,75
395,477	-109,57
395,686	35,84
395,895	15,36
396,105	27,65
396,314	60,42
396,524	-1,02
396,733	15,36
396,942	27,65
397,152	3,07
397,361	-29,7
397,57	-13,31
397,78	37,89
397,989	-39,94
398,198	-27,65
398,407	-1,02
398,617	-9,22
398,826	-44,03
399,035	-9,22
399,244	-44,03
399,453	-23,55
399,663	-50,18
399,872	3,07
400,081	-37,89
400,29	29,7
400,499	-39,94
400,708	3,07
400,917	3,07
401,127	5,12
401,336	-9,22
401,545	-21,5
401,754	-19,46
401,963	3,07
402,172	-41,98
402,381	-52,22
402,59	-37,89
402,799	-56,32
403,008	-9,22
403,217	1,02
403,426	39,94
403,635	21,5
403,844	-64,51
404,053	-15,36
404,262	-60,42
404,471	15,36
404,68	-44,03
404,888	52,22
405,097	64,51
405,306	9,22
405,515	-11,26
405,724	29,7
405,933	-41,98
406,142	89,09
406,35	-50,18
406,559	25,6
406,768	33,79
406,977	-19,46
407,185	-54,27
407,394	13,31
407,603	11,26
407,812	-9,22
408,02	5,12
408,229	13,31
408,438	-25,6
408,646	33,79
408,855	-21,5
409,064	5,12
409,272	-50,18
409,481	3,07
409,69	-1,02
409,898	-11,26
410,107	15,36
410,315	-58,37
410,524	-54,27
410,733	-46,08
410,941	-9,22
411,15	25,6
411,358	-64,51
411,567	31,74
411,775	11,26
411,984	-29,7
412,192	27,65
412,401	-27,65
412,609	27,65
412,818	11,26
413,026	3,07
413,234	-17,41
413,443	-1,02
413,651	31,74
413,86	5,12
414,068	9,22
414,276	1,02
414,485	46,08
414,693	29,7
414,901	-5,12
415,11	-95,23
415,318	52,22
415,526	-82,94
415,734	52,22
415,943	-50,18
416,151	-29,7
416,359	-56,32
416,567	35,84
416,776	-27,65
416,984	37,89
417,192	19,46
417,4	50,18
417,608	-17,41
417,817	-41,98
418,025	60,42
418,233	-52,22
418,441	11,26
418,649	-44,03
418,857	-48,13
419,065	-13,31
419,273	-44,03
419,481	-21,5
419,689	-5,12
419,897	48,13
420,105	15,36
420,313	-3,07
420,521	29,7
420,729	21,5
420,937	15,36
421,145	41,98
421,353	-11,26
421,561	13,31
421,769	-31,74
421,977	-54,27
422,185	-21,5
422,393	52,22
422,601	-3,07
422,809	11,26
423,017	5,12
423,224	23,55
423,432	-72,7
423,64	-46,08
423,848	48,13
424,056	-78,85
424,263	-27,65
424,471	-11,26
424,679	-17,41
424,887	39,94
425,094	58,37
425,302	48,13
425,51	58,37
425,718	27,65
425,925	-21,5
426,133	-52,22
426,341	-58,37
426,548	7,17
426,756	27,65
426,964	11,26
427,171	-21,5
427,379	35,84
427,586	-15,36
427,794	84,99
428,001	27,65
428,209	29,7
428,417	21,5
428,624	15,36
428,832	-44,03
429,039	60,42
429,247	-21,5
429,454	-27,65
429,662	25,6
429,869	-3,07
430,076	-3,07
430,284	46,08
430,491	-23,55
430,699	19,46
430,906	31,74
431,114	-13,31
431,321	-13,31
431,528	-60,42
431,736	-44,03
431,943	25,6
432,15	-21,5
432,358	44,03
432,565	15,36
432,772	19,46
432,979	-11,26
433,187	19,46
433,394	-44,03
433,601	5,12
433,808	-33,79
434,016	-37,89
434,223	72,7
434,43	5,12
434,637	29,7
434,844	48,13
435,052	27,65
435,259	-54,27
435,466	9,22
435,673	54,27
435,88	35,84
436,087	68,61
436,294	-9,22
436,501	-117,76
436,708	-19,46
436,915	-41,98
437,122	-5,12
437,329	-44,03
437,537	58,37
437,743	-13,31
437,95	-1,02
438,157	-15,36
438,364	27,65
438,571	-3,07
438,778	-11,26
438,985	80,89
439,192	-29,7
439,399	7,17
439,606	7,17
439,813	29,7
440,02	39,94
440,227	3,07
440,433	-21,5
440,64	-17,41
440,847	-13,31
441,054	1,02
441,261	-29,7
441,467	21,5
441,674	3,07
441,881	7,17
442,088	-48,13
442,294	-70,65
442,501	-33,79
442,708	-78,85
442,914	-7,17
443,121	-50,18
443,328	-13,31
443,534	-17,41
443,741	-41,98
443,948	13,31
444,154	-56,32
444,361	-60,42
444,568	-9,22
444,774	29,7
444,981	-41,98
445,187	-29,7
445,394	-74,75
445,6	101,37
445,807	-21,5
446,013	-27,65
446,22	52,22
446,426	21,5
446,633	17,41
446,839	-31,74
447,046	23,55
447,252	-13,31
447,459	-29,7
447,665	-66,56
447,871	-70,65
448,078	-37,89
448,284	-46,08
448,491	52,22
448,697	39,94
448,903	46,08
449,11	46,08
449,316	-13,31
449,522	44,03
449,728	-5,12
449,935	9,22
450,141	-1,02
450,347	-27,65
450,553	68,61
450,76	11,26
450,966	-46,08
451,172	-11,26
451,378	3,07
451,584	78,85
451,791	-29,7
451,997	-35,84
452,203	-48,13
452,409	52,22
452,615	23,55
452,821	-1,02
453,027	-3,07
453,233	-17,41
453,44	13,31
453,646	-29,7
453,852	41,98
454,058	5,12
454,264	7,17
454,47	15,36
454,676	-17,41
454,882	27,65
455,088	54,27
455,294	-35,84
455,5	62,46
455,705	-13,31
455,911	-46,08
456,117	-82,94
456,323	23,55
456,529	-9,22
456,735	17,41
456,941	7,17
457,147	37,89
457,352	29,7
457,558	-93,18
457,764	44,03
457,97	11,26
458,176	-9,22
458,381	41,98
458,587	19,46
458,793	17,41
458,999	-50,18
459,204	-33,79
459,41	11,26
459,616	33,79
459,821	46,08
460,027	-46,08
460,233	-7,17
460,438	39,94
460,644	68,61
460,85	-13,31
461,055	-29,7
461,261	1,02
461,466	21,5
461,672	-35,84
461,878	-21,5
462,083	54,27
462,289	-93,18
462,494	13,31
462,7	-44,03
462,905	-23,55
463,111	-27,65
463,316	-17,41
463,522	11,26
463,727	-3,07
463,932	87,04
464,138	21,5
464,343	-13,31
464,549	74,75
464,754	1,02
464,959	-29,7
465,165	37,89
465,37	-5,12
465,575	44,03
465,781	44,03
465,986	-13,31
466,191	-23,55
466,397	-9,22
466,602	-11,26
466,807	-76,8
467,012	23,55
467,218	19,46
467,423	70,65
467,628	1,02
467,833	35,84
468,038	11,26
468,244	29,7
468,449	-46,08
468,654	-54,27
468,859	91,13
469,064	27,65
469,269	-46,08
469,474	-13,31
469,679	-35,84
469,885	5,12
470,09	95,23
470,295	7,17
470,5	-41,98
470,705	-21,5
470,91	74,75
471,115	23,55
471,32	78,85
471,525	-27,65
471,73	-33,79
471,935	15,36
472,139	-3,07
472,344	-37,89
472,549	-44,03
472,754	-21,5
472,959	-5,12
473,164	-19,46
473,369	3,07
473,574	-13,31
473,778	37,89
473,983	-3,07
474,188	33,79
474,393	56,32
474,598	-13,31
474,802	-27,65
475,007	-46,08
475,212	58,37
475,417	-1,02
475,621	29,7
475,826	62,46
476,031	84,99
476,235	-46,08
476,44	-11,26
476,645	-66,56
476,849	-19,46
477,054	-89,09
477,259	-19,46
477,463	37,89
477,668	35,84
477,872	-15,36
478,077	9,22
478,282	5,12
478,486	35,84
478,691	-19,46
478,895	15,36
479,1	7,17
479,304	62,46
479,509	-29,7
479,713	-7,17
479,918	-76,8
480,122	39,94
480,326	3,07
480,531	-11,26
480,735	-17,41
480,94	37,89
481,144	35,84
481,348	3,07
481,553	-35,84
481,757	5,12
481,961	35,84
482,166	89,09
482,37	-37,89
482,574	27,65
482,778	-17,41
482,983	29,7
483,187	11,26
483,391	44,03
483,595	-5,12
483,8	-7,17
484,004	11,26
484,208	-31,74
484,412	-15,36
484,616	-1,02
484,821	41,98
485,025	-41,98
485,229	3,07
485,433	7,17
485,637	19,46
485,841	-33,79
486,045	-29,7
486,249	76,8
486,453	3,07
486,657	3,07
486,861	-7,17
487,065	68,61
487,269	-72,7
487,473	29,7
487,677	31,74
487,881	7,17
488,085	-46,08
488,289	68,61
488,493	29,7
488,697	11,26
488,901	21,5
489,105	84,99
489,309	-11,26
489,512	19,46
489,716	-9,22
489,92	3,07
490,124	-1,02
490,328	11,26
490,531	-21,5
490,735	-13,31
490,939	44,03
491,143	15,36
491,346	-15,36
491,55	52,22
491,754	1,02
491,958	-19,46
492,161	15,36
492,365	-25,6
492,569	82,94
492,772	-15,36
492,976	-107,52
493,18	19,46
493,383	-17,41
493,587	37,89
493,79	-21,5
493,994	-5,12
494,197	7,17
494,401	-50,18
494,605	-64,51
494,808	54,27
495,012	17,41
495,215	5,12
495,419	-13,31
495,622	60,42
495,825	21,5
496,029	-21,5
496,232	-39,94
496,436	-50,18
496,639	-23,55
496,843	-29,7
497,046	-5,12
497,249	21,5
497,453	-21,5
497,656	3,07
497,859	13,31
498,063	-11,26
498,266	-44,03
498,469	-46,08
498,673	5,12
498,876	-48,13
499,079	-62,46
499,282	5,12
499,485	31,74
499,689	-21,5
499,892	-35,84
500,095	41,98
500,298	-56,32
500,501	-25,6
500,705	33,79
500,908	56,32
501,111	9,22
501,314	21,5
501,517	-27,65
501,72	-3,07
501,923	-15,36
502,126	-27,65
502,329	29,7
502,532	-31,74
502,735	11,26
502,938	-58,37
503,141	27,65
503,344	-1,02
503,547	13,31
503,75	-39,94
503,953	21,5
504,156	3,07
504,359	11,26
504,562	3,07
504,765	-3,07
504,968	39,94
505,17	-13,31
505,373	37,89
505,576	15,36
505,779	23,55
505,982	35,84
506,185	1,02
506,387	37,89
506,59	29,7
506,793	-15,36
506,996	3,07
507,198	-11,26
507,401	21,5
507,604	-52,22
507,807	-13,31
508,009	-5,12
508,212	19,46
508,415	-50,18
508,617	-17,41
508,82	-50,18
509,022	19,46
509,225	52,22
509,428	-13,31
509,63	-13,31
509,833	29,7
510,035	-11,26
510,238	52,22
510,44	-3,07
510,643	7,17
510,845	-41,98
511,048	56,32
511,25	-25,6
511,453	66,56
511,655	-37,89
511,858	-11,26
512,06	21,5
512,262	46,08
512,465	-3,07
512,667	-17,41
512,87	1,02
513,072	31,74
513,274	-5,12
513,477	-19,46
513,679	21,5
513,881	-5,12
514,084	-17,41
514,286	31,74
514,488	-3,07
514,69	25,6
514,893	-82,94
515,095	29,7
515,297	5,12
515,499	-11,26
515,701	5,12
515,904	37,89
516,106	11,26
516,308	27,65
516,51	-35,84
516,712	-39,94
516,914	-13,31
517,116	44,03
517,318	29,7
517,52	-52,22
517,722	15,36
517,925	72,7
518,127	33,79
518,329	-13,31
518,531	-13,31
518,733	-21,5
518,935	-13,31
519,136	15,36
519,338	1,02
519,54	19,46
519,742	39,94
519,944	9,22
520,146	-50,18
520,348	-21,5
520,55	-25,6
520,752	-5,12
520,954	-23,55
521,155	29,7
521,357	-9,22
521,559	37,89
521,761	-37,89
521,963	7,17
522,164	-5,12
522,366	15,36
522,568	21,5
522,77	125,95
522,971	35,84
523,173	-11,26
523,375	89,09
523,576	13,31
523,778	62,46
523,98	15,36
524,181	76,8
524,383	56,32
524,584	62,46
524,786	109,57
524,988	193,53
525,189	187,39
525,391	445,43
525,592	709,62
525,794	1184,75
525,995	1571,82
526,197	2358,24
526,398	3107,79
526,6	4398,01
526,801	5278,64
527,003	7097,24
527,204	8762,23
527,406	10720,09
527,607	12731,2
527,808	15280,92
528,01	17648,37
528,211	21039,81
528,412	24027,79
528,614	27064,93
528,815	29813,31
529,016	33270,28
529,218	35154,41
529,419	37902,78
529,62	39895,46
529,822	42185,08
530,023	44231,01
530,224	45457,74
530,425	46774,58
530,626	48193,82
530,828	48613,66
531,029	50876,66
531,23	50526,46
531,431	51656,94
531,632	51028,21
531,833	52103,4
532,035	51609,84
532,236	52441,31
532,437	52785,37
532,638	52367,58
532,839	52605,15
533,04	53182,68
533,241	51974,37
533,442	52994,26
533,643	53221,59
533,844	53199,06
534,045	53125,33
534,246	52414,69
534,447	52887,77
534,648	52642,01
534,849	52314,34
535,05	51871,98
535,251	51884,26
535,451	51120,37
535,652	50880,76
535,853	50233,6
536,054	48773,4
536,255	48126,24
536,456	45959,49
536,657	45349,2
536,857	43266,41
537,058	41212,3
537,259	39262,63
537,46	37085,64
537,66	34066,94
537,861	31695,39
538,062	29141,57
538,263	26690,15
538,463	23448,22
538,664	21195,45
538,865	18604,77
539,065	16585,47
539,266	13675,31
539,466	12503,87
539,667	10361,7
539,868	8817,53
540,068	7127,96
540,269	6034,34
540,469	4938,68
540,67	3736,52
540,87	2853,84
541,071	2163,68
541,271	1518,57
541,472	1088,5
541,672	715,77
541,873	488,44
542,073	398,33
542,274	289,79
542,474	207,87
542,675	187,39
542,875	125,95
543,075	60,42
543,276	105,47
543,476	84,99
543,676	101,37
543,877	-31,74
544,077	3,07
544,277	39,94
544,478	111,61
544,678	13,31
544,878	33,79
545,078	11,26
545,279	107,52
545,479	35,84
545,679	-13,31
545,879	54,27
546,079	13,31
546,28	13,31
546,48	19,46
546,68	48,13
546,88	41,98
547,08	-13,31
547,28	46,08
547,48	56,32
547,68	-13,31
547,88	68,61
548,081	-21,5
548,281	21,5
548,481	9,22
548,681	-27,65
548,881	-128
549,081	-1,02
549,28	17,41
549,48	3,07
549,68	19,46
549,88	41,98
550,08	15,36
550,28	15,36
550,48	13,31
550,68	21,5
550,88	-48,13
551,08	-70,65
551,279	29,7
551,479	-17,41
551,679	93,18
551,879	3,07
552,079	-37,89
552,278	-15,36
552,478	68,61
552,678	-48,13
552,878	3,07
553,077	54,27
553,277	76,8
553,477	29,7
553,676	-25,6
553,876	5,12
554,076	35,84
554,275	-5,12
554,475	41,98
554,674	44,03
554,874	35,84
555,074	5,12
555,273	44,03
555,473	60,42
555,672	109,57
555,872	31,74
556,071	-3,07
556,271	19,46
556,47	-41,98
556,67	50,18
556,869	68,61
557,068	-7,17
557,268	5,12
557,467	-13,31
557,667	3,07
557,866	-13,31
558,065	-11,26
558,265	-19,46
558,464	35,84
558,663	15,36
558,863	44,03
559,062	-7,17
559,261	-1,02
559,461	11,26
559,66	-41,98
559,859	-41,98
560,058	-62,46
560,258	-66,56
560,457	5,12
560,656	7,17
560,855	-62,46
561,054	13,31
561,253	-17,41
561,453	31,74
561,652	3,07
561,851	-78,85
562,05	37,89
562,249	-1,02
562,448	3,07
562,647	50,18
562,846	5,12
563,045	-25,6
563,244	27,65
563,443	-13,31
563,642	-17,41
563,841	70,65
564,04	33,79
564,239	27,65
564,438	52,22
564,637	-15,36
564,836	-29,7
565,035	13,31
565,234	-33,79
565,432	-29,7
565,631	62,46
565,83	50,18
566,029	-35,84
566,228	-46,08
566,427	60,42
566,625	1,02
566,824	3,07
567,023	-23,55
567,222	5,12
567,42	-33,79
567,619	15,36
567,818	-3,07
568,016	-5,12
568,215	-35,84
568,414	-48,13
568,612	27,65
568,811	-5,12
569,01	48,13
569,208	-9,22
569,407	-9,22
569,605	3,07
569,804	17,41
570,002	13,31
570,201	64,51
570,4	5,12
570,598	19,46
570,797	-17,41
570,995	-19,46
571,193	-62,46
571,392	-33,79
571,59	64,51
571,789	7,17
571,987	-74,75
572,186	7,17
572,384	-35,84
572,582	-9,22
572,781	25,6
572,979	11,26
573,177	-19,46
573,376	-50,18
573,574	19,46
573,772	1,02
573,971	23,55
574,169	7,17
574,367	41,98
574,565	-29,7
574,763	52,22
574,962	-21,5
575,16	68,61
575,358	5,12
575,556	-13,31
575,754	-13,31
575,952	15,36
576,151	-21,5
576,349	115,71
576,547	70,65
576,745	-5,12
576,943	-19,46
577,141	19,46
577,339	-5,12
577,537	3,07
577,735	41,98
577,933	-35,84
578,131	5,12
578,329	-13,31
578,527	-1,02
578,725	3,07
578,923	-80,89
579,121	23,55
579,319	-7,17
579,516	-9,22
579,714	7,17
579,912	48,13
580,11	-37,89
580,308	11,26
580,506	-97,28
580,704	54,27
580,901	17,41
581,099	-29,7
581,297	-54,27
581,495	27,65
581,692	-13,31
581,89	70,65
582,088	-15,36
582,285	-3,07
582,483	37,89
582,681	-21,5
582,878	7,17
583,076	21,5
583,274	-11,26
583,471	-17,41
583,669	-21,5
583,866	-1,02
584,064	-11,26
584,262	21,5
584,459	9,22
584,657	-37,89
584,854	-46,08
585,052	13,31
585,249	13,31
585,447	80,89
585,644	-19,46
585,841	-13,31
586,039	-66,56
586,236	25,6
586,434	-1,02
586,631	52,22
586,828	25,6
587,026	-27,65
587,223	27,65
587,42	-5,12
587,618	7,17
587,815	46,08
588,012	-44,03
588,21	-50,18
588,407	15,36
588,604	35,84
588,801	-33,79
588,999	-27,65
589,196	25,6
589,393	15,36
589,59	-70,65
589,787	-7,17
589,984	-1,02
590,182	3,07
590,379	-7,17
590,576	-50,18
590,773	-17,41
590,97	33,79
591,167	3,07
591,364	-37,89
591,561	23,55
591,758	-11,26
591,955	-46,08
592,152	1,02
592,349	-37,89
592,546	19,46
592,743	46,08
592,94	-1,02
593,137	41,98
593,334	56,32
593,531	37,89
593,727	70,65
593,924	21,5
594,121	29,7
594,318	46,08
594,515	48,13
594,712	44,03
594,908	-27,65
595,105	-52,22
595,302	3,07
595,499	-41,98
595,696	-3,07
595,892	3,07
596,089	66,56
596,286	-5,12
596,482	-11,26
596,679	7,17
596,876	-25,6
597,072	23,55
597,269	48,13
597,466	46,08
597,662	-3,07
597,859	27,65
598,055	-9,22
598,252	-33,79
598,448	-27,65
598,645	35,84
598,841	31,74
599,038	-1,02
599,234	-21,5
599,431	-7,17
599,627	87,04
599,824	48,13
600,02	-13,31
600,217	15,36
600,413	-7,17
600,609	9,22
600,806	50,18
601,002	-17,41
601,198	-60,42
601,395	29,7
601,591	11,26
601,787	5,12
601,984	3,07
602,18	-66,56
602,376	-3,07
602,572	48,13
602,769	37,89
602,965	5,12
603,161	19,46
603,357	-39,94
603,553	-54,27
603,75	-74,75
603,946	-13,31
604,142	-64,51
604,338	-13,31
604,534	-13,31
604,73	-37,89
604,926	29,7
605,122	-44,03
605,318	-5,12
605,514	23,55
605,71	9,22
605,906	-23,55
606,102	-70,65
606,298	-25,6
606,494	1,02
606,69	-25,6
606,886	-21,5
607,082	9,22
607,278	-7,17
607,474	-17,41
607,67	5,12
607,866	19,46
608,062	27,65
608,257	5,12
608,453	-35,84
608,649	37,89
608,845	-115,71
609,041	33,79
609,236	68,61
609,432	44,03
609,628	27,65
609,824	-7,17
610,019	9,22
610,215	-3,07
610,411	-44,03
610,606	56,32
610,802	15,36
610,998	39,94
611,193	-1,02
611,389	31,74
611,584	-54,27
611,78	-44,03
611,976	-7,17
612,171	-29,7
612,367	-56,32
612,562	82,94
612,758	-5,12
612,953	-44,03
613,149	-21,5
613,344	39,94
613,539	-9,22
613,735	-35,84
613,93	-13,31
614,126	11,26
614,321	-58,37
614,517	46,08
614,712	-3,07
614,907	23,55
615,103	-13,31
615,298	84,99
615,493	17,41
615,688	52,22
615,884	-17,41
616,079	-11,26
616,274	3,07
616,47	46,08
616,665	-48,13
616,86	-21,5
617,055	-62,46
617,25	31,74
617,445	35,84
617,641	54,27
617,836	-46,08
618,031	7,17
618,226	-33,79
618,421	-1,02
618,616	19,46
618,811	-54,27
619,006	21,5
619,201	39,94
619,396	1,02
619,591	33,79
619,786	-9,22
619,981	-5,12
620,176	35,84
620,371	17,41
620,566	52,22
620,761	-5,12
620,956	-95,23
621,151	101,37
621,346	19,46
621,541	50,18
621,735	29,7
621,93	-54,27
622,125	3,07
622,32	-37,89
622,515	39,94
622,709	23,55
622,904	-17,41
623,099	19,46
623,294	-17,41
623,488	64,51
623,683	-46,08
623,878	41,98
624,072	7,17
624,267	-1,02
624,462	-17,41
624,656	-5,12
624,851	52,22
625,046	-1,02
625,24	7,17
625,435	17,41
625,629	-21,5
625,824	48,13
626,018	11,26
626,213	5,12
626,407	1,02
626,602	-27,65
626,796	-15,36
626,991	-21,5
627,185	5,12
627,38	-1,02
627,574	44,03
627,768	-29,7
627,963	-37,89
628,157	13,31
628,352	-13,31
628,546	-58,37
628,74	5,12
628,935	-11,26
629,129	13,31
629,323	-13,31
629,517	35,84
629,712	9,22
629,906	31,74
630,1	27,65
630,294	29,7
630,489	35,84
630,683	15,36
630,877	39,94
631,071	-39,94
631,265	35,84
631,459	11,26
631,653	-66,56
631,848	-17,41
632,042	5,12
632,236	66,56
632,43	35,84
632,624	56,32
632,818	64,51
633,012	-9,22
633,206	72,7
633,4	-72,7
633,594	35,84
633,788	-91,13
633,982	64,51
634,176	-5,12
634,369	31,74
634,563	15,36
634,757	-68,61
634,951	-35,84
635,145	-21,5
635,339	-5,12
635,533	35,84
635,726	56,32
635,92	-41,98
636,114	-37,89
636,308	-50,18
636,501	-19,46
636,695	27,65
636,889	41,98
637,083	-21,5
637,276	-9,22
637,47	-62,46
637,664	-17,41
637,857	-37,89
638,051	-11,26
638,244	31,74
638,438	-3,07
638,632	-1,02
638,825	-44,03
639,019	11,26
639,212	5,12
639,406	-3,07
639,599	-46,08
639,793	-1,02
639,986	52,22
640,18	-5,12
640,373	-74,75
640,567	-37,89
640,76	-54,27
640,954	-62,46
641,147	-19,46
641,34	48,13
641,534	-5,12
641,727	-37,89
641,92	7,17
642,114	21,5
642,307	35,84
642,5	74,75
642,694	7,17
642,887	31,74
643,08	17,41
643,273	19,46
643,467	52,22
643,66	-21,5
643,853	13,31
644,046	-19,46
644,239	23,55
644,432	-21,5
644,626	-56,32
644,819	29,7
645,012	-48,13
645,205	-29,7
645,398	-15,36
645,591	46,08
645,784	-29,7
645,977	46,08
646,17	37,89
646,363	-33,79
646,556	-41,98
646,749	44,03
646,942	-58,37
647,135	54,27
647,328	21,5
647,521	-21,5
647,714	-9,22
647,907	27,65
648,099	-46,08
648,292	21,5
648,485	-48,13
648,678	-7,17
648,871	-66,56
649,064	-29,7
649,256	-17,41
649,449	11,26
649,642	-82,94
649,835	7,17
650,027	-54,27
650,22	48,13
650,413	-7,17
650,605	5,12
650,798	-11,26
650,991	23,55
651,183	37,89
651,376	-54,27
651,568	-9,22
651,761	33,79
651,954	1,02
652,146	-23,55
652,339	19,46
652,531	-13,31
652,724	15,36
652,916	1,02
653,109	76,8
653,301	84,99
653,494	-54,27
653,686	-1,02
653,879	27,65
654,071	-66,56
654,263	13,31
654,456	-37,89
654,648	44,03
654,84	3,07
655,033	-19,46
655,225	-5,12
655,417	46,08
655,61	21,5
655,802	72,7
655,994	17,41
656,186	-5,12
656,379	-101,37
656,571	44,03
656,763	37,89
656,955	-15,36
657,148	41,98
657,34	41,98
657,532	35,84
657,724	-17,41
657,916	17,41
658,108	60,42
658,3	-19,46
658,492	23,55
658,684	3,07
658,876	15,36
659,068	-3,07
659,26	-13,31
659,452	-27,65
659,644	19,46
659,836	-5,12
660,028	-46,08
660,22	-3,07
660,412	-39,94
660,604	27,65
660,796	-27,65
660,988	27,65
661,18	23,55
661,372	-31,74
661,563	-15,36
661,755	-35,84
661,947	5,12
662,139	48,13
662,331	-29,7
662,522	19,46
662,714	-29,7
662,906	-9,22
663,097	11,26
663,289	-87,04
663,481	-37,89
663,673	13,31
663,864	29,7
664,056	-27,65
664,247	19,46
664,439	23,55
664,631	-11,26
664,822	-44,03
665,014	3,07
665,205	-35,84
665,397	21,5
665,588	-7,17
665,78	9,22
665,971	35,84
666,163	-25,6
666,354	37,89
666,546	-21,5
666,737	17,41
666,929	3,07
667,12	11,26
667,311	-25,6
667,503	5,12
667,694	17,41
667,885	-9,22
668,077	-17,41
668,268	-52,22
668,459	-5,12
668,651	-13,31
668,842	19,46
669,033	44,03
669,224	-11,26
669,416	66,56
669,607	11,26
669,798	27,65
669,989	-21,5
670,18	13,31
670,371	5,12
670,563	-21,5
670,754	29,7
670,945	37,89
671,136	-37,89
671,327	3,07
671,518	-19,46
671,709	-33,79
671,9	3,07
672,091	-29,7
672,282	-37,89
672,473	-35,84
672,664	-11,26
672,855	-1,02
673,046	-19,46
673,237	-13,31
673,428	1,02
673,619	-33,79
673,809	15,36
674	-13,31
674,191	-29,7
674,382	-13,31
674,573	-9,22
674,764	15,36
674,954	-44,03
675,145	-9,22
675,336	-13,31
675,527	46,08
675,717	-33,79
675,908	35,84
676,099	3,07
676,289	27,65
676,48	-15,36
676,671	7,17
676,861	-44,03
677,052	11,26
677,243	-41,98
677,433	-50,18
677,624	-93,18
677,814	-97,28
678,005	-27,65
678,195	19,46
678,386	-5,12
678,576	-3,07
678,767	50,18
678,957	-21,5
679,148	5,12
679,338	-52,22
679,529	-15,36
679,719	-11,26
679,909	-54,27
680,1	-27,65
680,29	-41,98
680,481	-7,17
680,671	-60,42
680,861	-50,18
681,052	-21,5
681,242	-33,79
681,432	17,41
681,622	-46,08
681,813	-9,22
682,003	9,22
682,193	19,46
682,383	-13,31
682,573	80,89
682,764	31,74
682,954	-9,22
683,144	-13,31
683,334	48,13
683,524	13,31
683,714	11,26
683,904	17,41
684,094	-41,98
684,284	27,65
684,474	-27,65
684,664	19,46
684,854	-19,46
685,044	-41,98
685,234	54,27
685,424	13,31
685,614	44,03
685,804	3,07
685,994	-87,04
686,184	-15,36
686,374	-9,22
686,564	-5,12
686,753	33,79
686,943	-9,22
687,133	-50,18
687,323	-1,02
687,513	17,41
687,702	-27,65
687,892	-44,03
688,082	-52,22
688,272	-13,31
688,461	-5,12
688,651	9,22
688,841	-27,65
689,03	-50,18
689,22	99,33
689,41	-17,41
689,599	-9,22
689,789	-25,6
689,979	11,26
690,168	-15,36
690,358	-1,02
690,547	21,5
690,737	5,12
690,926	15,36
691,116	11,26
691,305	-23,55
691,495	13,31
691,684	-23,55
691,874	-19,46
692,063	21,5
692,252	25,6
692,442	-52,22
692,631	15,36
692,82	-13,31
693,01	-37,89
693,199	27,65
693,388	33,79
693,578	-44,03
693,767	-9,22
693,956	-33,79
694,146	5,12
694,335	13,31
694,524	7,17
694,713	-9,22
694,902	9,22
695,092	-70,65
695,281	-60,42
695,47	3,07
695,659	-1,02
695,848	41,98
696,037	19,46
696,226	7,17
696,415	27,65
696,604	33,79
696,793	-37,89
696,982	3,07
697,171	-41,98
697,36	-31,74
697,549	25,6
697,738	-1,02
697,927	7,17
698,116	-33,79
698,305	-21,5
698,494	52,22
698,683	58,37
698,872	19,46
699,061	39,94
699,25	-29,7
699,438	-3,07
699,627	-29,7
699,816	19,46
700,005	-9,22
700,193	-58,37
700,382	-19,46
700,571	54,27
700,76	37,89
700,948	37,89
701,137	-7,17
701,326	-11,26
701,514	19,46
701,703	13,31
701,892	-46,08
702,08	119,81
702,269	-5,12
702,457	54,27
702,646	-17,41
702,834	56,32
703,023	76,8
703,212	21,5
703,4	1,02
703,589	-21,5
703,777	-21,5
703,965	-3,07
704,154	21,5
704,342	33,79
704,531	44,03
704,719	70,65
704,907	29,7
705,096	13,31
705,284	-21,5
705,472	27,65
705,661	52,22
705,849	19,46
706,037	-5,12
706,226	70,65
706,414	-29,7
706,602	27,65
706,79	52,22
706,979	19,46
707,167	52,22
707,355	-54,27
707,543	60,42
707,731	-25,6
707,919	-25,6
708,107	50,18
708,296	-5,12
708,484	-7,17
708,672	7,17
708,86	-3,07
709,048	-11,26
709,236	19,46
709,424	-48,13
709,612	37,89
709,8	-1,02
709,988	15,36
710,176	-5,12
710,364	3,07
710,551	-35,84
710,739	33,79
710,927	-23,55
711,115	23,55
711,303	80,89
711,491	-23,55
711,679	17,41
711,866	21,5
712,054	44,03
712,242	44,03
712,43	35,84
712,617	27,65
712,805	35,84
712,993	33,79
713,181	-21,5
713,368	15,36
713,556	-48,13
713,744	-44,03
713,931	19,46
714,119	-13,31
714,306	3,07
714,494	50,18
714,682	13,31
714,869	-19,46
715,057	-64,51
715,244	-48,13
715,432	29,7
715,619	62,46
715,807	50,18
715,994	31,74
716,182	-27,65
716,369	3,07
716,556	19,46
716,744	13,31
716,931	-37,89
717,119	58,37
717,306	19,46
717,493	-13,31
717,681	-5,12
717,868	-1,02
718,055	9,22
718,242	11,26
718,43	35,84
718,617	39,94
718,804	-19,46
718,991	31,74
719,179	-27,65
719,366	-11,26
719,553	15,36
719,74	-3,07
719,927	33,79
720,114	-31,74
720,301	-9,22
720,488	-25,6
720,676	-27,65
720,863	31,74
721,05	62,46
721,237	-39,94
721,424	-27,65
721,611	-37,89
721,798	-11,26
721,985	3,07
722,172	7,17
722,358	-9,22
722,545	64,51
722,732	5,12
722,919	-3,07
723,106	-29,7
723,293	35,84
723,48	-13,31
723,667	-27,65
723,853	27,65
724,04	-7,17
724,227	5,12
724,414	-41,98
724,6	3,07
724,787	-35,84
724,974	11,26
725,161	-29,7
725,347	-17,41
725,534	-29,7
725,72	1,02
725,907	33,79
726,094	-1,02
726,28	-82,94
726,467	19,46
726,653	-78,85
726,84	56,32
727,027	-37,89
727,213	29,7
727,4	5,12
727,586	54,27
727,773	-46,08
727,959	-52,22
728,145	-21,5
728,332	64,51
728,518	-33,79
728,705	-19,46
728,891	-56,32
729,077	19,46
729,264	68,61
729,45	-21,5
729,636	-5,12
729,823	-7,17
730,009	1,02
730,195	-5,12
730,382	-52,22
730,568	56,32
730,754	33,79
730,94	-37,89
731,126	19,46
731,313	68,61
731,499	-46,08
731,685	7,17
731,871	11,26
732,057	37,89
732,243	19,46
732,429	-21,5
732,615	58,37
732,801	-25,6
732,987	-13,31
733,173	19,46
733,359	-21,5
733,545	-37,89
733,731	-15,36
733,917	5,12
734,103	-27,65
734,289	19,46
734,475	3,07
734,661	27,65
734,847	-21,5
735,033	27,65
735,219	-27,65
735,404	-72,7
735,59	-93,18
735,776	-76,8
735,962	11,26
736,148	17,41
736,333	-5,12
736,519	-9,22
736,705	-60,42
736,89	27,65
737,076	21,5
737,262	27,65
737,447	-64,51
737,633	-1,02
737,819	3,07
738,004	-9,22
738,19	-46,08
738,375	15,36
738,561	-17,41
738,747	23,55
738,932	-31,74
739,118	-58,37
739,303	-9,22
739,489	-93,18
739,674	5,12
739,859	-3,07
740,045	-11,26
740,23	9,22
740,416	29,7
740,601	5,12
740,786	-46,08
740,972	3,07
741,157	-9,22
741,342	1,02
741,528	-99,33
741,713	-113,66
741,898	31,74
742,084	50,18
742,269	-17,41
742,454	-29,7
742,639	-21,5
742,824	19,46
743,01	13,31
743,195	27,65
743,38	5,12
743,565	27,65
743,75	41,98
743,935	27,65
744,12	29,7
744,305	11,26
744,49	1,02
744,675	-31,74
744,86	54,27
745,045	-25,6
745,23	-27,65
745,415	76,8
745,6	-27,65
745,785	54,27
745,97	11,26
746,155	39,94
746,34	-64,51
746,525	39,94
746,71	70,65
746,895	-29,7
747,079	56,32
747,264	-33,79
747,449	-31,74
747,634	84,99
747,819	1,02
748,003	39,94
748,188	-11,26
748,373	-33,79
748,557	-54,27
748,742	31,74
748,927	-7,17
749,111	-29,7
749,296	17,41
749,481	-17,41
749,665	35,84
749,85	-21,5
750,034	58,37
750,219	-21,5
750,404	-21,5
750,588	-21,5
750,773	-9,22
750,957	44,03
751,141	9,22
751,326	-27,65
751,51	-11,26
751,695	5,12
751,879	-1,02
752,064	-48,13
752,248	-11,26
752,432	52,22
752,617	-35,84
752,801	11,26
752,985	-29,7
753,17	-9,22
753,354	-21,5
753,538	-82,94
753,722	-15,36
753,907	64,51
754,091	76,8
754,275	84,99
754,459	41,98
754,643	11,26
754,828	-5,12
755,012	7,17
755,196	9,22
755,38	46,08
755,564	-66,56
755,748	44,03
755,932	-33,79
756,116	3,07
756,3	-5,12
756,484	-46,08
756,668	29,7
756,852	1,02
757,036	31,74
757,22	11,26
757,404	-9,22
757,588	-35,84
757,772	11,26
757,956	35,84
758,14	-48,13
758,323	3,07
758,507	27,65
758,691	76,8
758,875	80,89
759,059	-3,07
759,242	60,42
759,426	39,94
759,61	52,22
759,794	-97,28
759,977	3,07
760,161	-5,12
760,345	-3,07
760,528	78,85
760,712	-58,37
760,895	3,07
761,079	-33,79
761,263	3,07
761,446	27,65
761,63	68,61
761,813	-58,37
761,997	-48,13
762,18	-15,36
762,364	-74,75
762,547	-29,7
762,731	44,03
762,914	35,84
763,098	-29,7
763,281	-29,7
763,464	-37,89
763,648	-21,5
763,831	-50,18
764,015	-13,31
764,198	56,32
764,381	-21,5
764,564	-13,31
764,748	27,65
764,931	-5,12
765,114	64,51
765,297	13,31
765,481	1,02
765,664	35,84
765,847	-58,37
766,03	54,27
766,213	25,6
766,397	3,07
766,58	-5,12
766,763	1,02
766,946	-78,85
767,129	-21,5
767,312	-52,22
767,495	19,46
767,678	-35,84
767,861	35,84
768,044	21,5
768,227	82,94
768,41	35,84
768,593	7,17
768,776	31,74
768,959	46,08
769,142	-33,79
769,324	-13,31
769,507	39,94
769,69	5,12
769,873	-3,07
770,056	-13,31
770,239	15,36
770,421	-37,89
770,604	-31,74
770,787	-17,41
770,97	7,17
771,152	35,84
771,335	19,46
771,518	23,55
771,7	-11,26
771,883	27,65
772,066	-27,65
772,248	35,84
772,431	15,36
772,613	17,41
772,796	3,07
772,978	-13,31
773,161	29,7
773,343	27,65
773,526	-13,31
773,708	-37,89
773,891	-3,07
774,073	7,17
774,256	-1,02
774,438	19,46
774,621	-87,04
774,803	17,41
774,985	13,31
775,168	44,03
775,35	-82,94
775,532	1,02
775,715	27,65
775,897	-15,36
776,079	-5,12
776,261	25,6
776,444	-44,03
776,626	13,31
776,808	-1,02
776,99	-13,31
777,173	-70,65
777,355	35,84
777,537	27,65
777,719	-46,08
777,901	-25,6
778,083	-3,07
778,265	1,02
778,447	11,26
778,629	-17,41
778,811	-46,08
778,993	-70,65
779,175	-31,74
779,357	-17,41
779,539	33,79
779,721	5,12
779,903	23,55
780,085	-35,84
780,267	-44,03
780,449	62,46
780,631	37,89
780,812	-25,6
780,994	15,36
781,176	17,41
781,358	-41,98
781,54	50,18
781,721	56,32
781,903	-46,08
782,085	50,18
782,267	7,17
782,448	-62,46
782,63	35,84
782,812	15,36
782,993	1,02
783,175	31,74
783,357	3,07
783,538	39,94
783,72	-5,12
783,901	-15,36
784,083	29,7
784,264	-29,7
784,446	31,74
784,627	72,7
784,809	7,17
784,99	13,31
785,172	37,89
785,353	-5,12
785,535	15,36
785,716	-46,08
785,897	-21,5
786,079	13,31
786,26	64,51
786,441	-37,89
786,623	44,03
786,804	31,74
786,985	-13,31
787,167	-5,12
787,348	5,12
787,529	3,07
787,71	-33,79
787,891	13,31
788,073	-5,12
788,254	35,84
788,435	-19,46
788,616	9,22
788,797	27,65
788,978	17,41
789,159	-13,31
789,34	11,26
789,522	-37,89
789,703	-35,84
789,884	-35,84
790,065	44,03
790,246	-31,74
790,427	-5,12
790,607	64,51
790,788	23,55
790,969	37,89
791,15	23,55
791,331	-27,65
791,512	5,12
791,693	-5,12
791,874	-9,22
792,054	-1,02
792,235	-37,89
792,416	11,26
792,597	5,12
792,778	-29,7
792,958	31,74
793,139	56,32
793,32	-21,5
793,5	-48,13
793,681	23,55
793,862	-52,22
794,042	-50,18
794,223	-3,07
794,404	48,13
794,584	13,31
794,765	-29,7
794,945	-52,22
795,126	-5,12
795,306	-15,36
795,487	-1,02
795,667	39,94
795,848	56,32
796,028	-7,17
796,209	50,18
796,389	23,55
796,57	19,46
796,75	-56,32
796,93	9,22
797,111	7,17
797,291	-21,5
797,471	-41,98
797,652	-25,6
797,832	-21,5
798,012	60,42
798,192	-7,17
798,373	-41,98
798,553	44,03
798,733	3,07
798,913	-25,6
799,093	-78,85
799,274	-13,31
799,454	33,79
799,634	-21,5
799,814	-13,31
799,994	37,89
800,174	21,5
800,354	44,03
800,534	41,98
800,714	-46,08
800,894	68,61
801,074	31,74
801,254	-3,07
801,434	-23,55
801,614	-56,32
801,794	-60,42
801,974	52,22
802,154	46,08
802,334	-33,79
802,514	11,26
802,693	3,07
802,873	-21,5
803,053	15,36
803,233	-17,41
803,413	5,12
803,592	11,26
803,772	50,18
803,952	-37,89
804,131	-46,08
804,311	25,6
804,491	3,07
804,67	52,22
804,85	-44,03
805,03	27,65
805,209	-5,12
805,389	-13,31
805,568	31,74
805,748	-25,6
805,928	56,32
806,107	-23,55
806,287	31,74
806,466	-41,98
806,646	-15,36
806,825	-29,7
807,004	-33,79
807,184	29,7
807,363	-5,12
807,543	-13,31
807,722	13,31
807,901	11,26
808,081	5,12
808,26	-37,89
808,439	-5,12
808,619	-54,27
808,798	23,55
808,977	-11,26
809,156	23,55
809,336	-21,5
809,515	58,37
809,694	46,08
809,873	11,26
810,052	-7,17
810,231	11,26
810,411	52,22
810,59	-21,5
810,769	-5,12
810,948	-17,41
811,127	5,12
811,306	-1,02
811,485	15,36
811,664	37,89
811,843	-33,79
812,022	11,26
812,201	11,26
812,38	19,46
812,559	-13,31
812,737	111,61
812,916	1,02
813,095	-5,12
813,274	-37,89
813,453	-35,84
813,632	-29,7
813,811	-33,79
813,989	-56,32
814,168	-1,02
814,347	-41,98
814,526	-58,37
814,704	-3,07
814,883	44,03
815,062	-66,56
815,24	-17,41
815,419	-19,46
815,598	64,51
815,776	17,41
815,955	-78,85
816,133	-13,31
816,312	87,04
816,49	-3,07
816,669	-33,79
816,847	-1,02
817,026	-29,7
817,204	1,02
817,383	-44,03
817,561	-48,13
817,74	-37,89
817,918	11,26
818,097	11,26
818,275	-3,07
818,453	-33,79
818,632	19,46
818,81	27,65
818,988	-44,03
819,167	-11,26
819,345	11,26
819,523	-19,46
819,701	-99,33
819,879	-15,36
820,058	-1,02
820,236	-87,04
820,414	-62,46
820,592	-21,5
820,77	-66,56
820,948	-9,22
821,127	3,07
821,305	15,36
821,483	5,12
821,661	-31,74
821,839	-25,6
822,017	3,07
822,195	-5,12
822,373	-33,79
822,551	-5,12
822,729	60,42
822,907	11,26
823,085	13,31
823,262	-33,79
823,44	93,18
823,618	-66,56
823,796	62,46
823,974	-23,55
824,152	13,31
824,329	11,26
824,507	27,65
824,685	-13,31
824,863	15,36
825,04	-1,02
825,218	41,98
825,396	-31,74
825,574	-29,7
825,751	-21,5
825,929	21,5
826,107	11,26
826,284	46,08
826,462	35,84
826,639	78,85
826,817	-27,65
826,994	37,89
827,172	-21,5
827,349	27,65
827,527	35,84
827,704	-54,27
827,882	-17,41
828,059	-31,74
828,237	3,07
828,414	-35,84
828,591	-44,03
828,769	-17,41
828,946	-27,65
829,124	-35,84
829,301	9,22
829,478	-17,41
829,655	-19,46
829,833	-5,12
830,01	46,08
830,187	-3,07
830,364	3,07
830,542	9,22
830,719	-21,5
830,896	44,03
831,073	-3,07
831,25	-13,31
831,427	-74,75
831,604	-52,22
831,782	39,94
831,959	-44,03
832,136	-5,12
832,313	48,13
832,49	-54,27
832,667	52,22
832,844	23,55
833,021	23,55
833,198	25,6
833,374	52,22
833,551	-13,31
833,728	-21,5
833,905	56,32
834,082	19,46
834,259	-19,46
834,436	-13,31
834,612	21,5
834,789	-25,6
834,966	23,55
835,143	27,65
835,319	-13,31
835,496	78,85
835,673	19,46
835,85	11,26
836,026	21,5
836,203	-13,31
836,38	41,98
836,556	-41,98
836,733	1,02
836,909	-29,7
837,086	68,61
837,262	-35,84
837,439	-15,36
837,616	74,75
837,792	33,79
837,968	-46,08
838,145	-87,04
838,321	52,22
838,498	-60,42
838,674	-9,22
838,851	-41,98
839,027	-21,5
839,203	44,03
839,38	64,51
839,556	7,17
839,732	46,08
839,909	27,65
840,085	-3,07
840,261	-17,41
840,437	-33,79
840,614	37,89
840,79	-37,89
840,966	3,07
841,142	-29,7
841,318	31,74
841,494	-17,41
841,671	-19,46
841,847	82,94
842,023	27,65
842,199	-1,02
842,375	-31,74
842,551	-52,22
842,727	-111,61
842,903	-17,41
843,079	-9,22
843,255	19,46
843,431	72,7
843,607	1,02
843,783	-46,08
843,959	-29,7
844,134	-109,57
844,31	-25,6
844,486	-5,12
844,662	-37,89
844,838	-46,08
845,013	74,75
845,189	-13,31
845,365	37,89
845,541	7,17
845,716	11,26
845,892	-21,5
846,068	46,08
846,244	-7,17
846,419	-39,94
846,595	-5,12
846,77	-19,46
846,946	-44,03
847,122	60,42
847,297	-39,94
847,473	27,65
847,648	-33,79
847,824	1,02
847,999	37,89
848,175	19,46
848,35	29,7
848,526	15,36
848,701	-13,31
848,876	-3,07
849,052	27,65
849,227	-11,26
849,403	15,36
849,578	66,56
849,753	52,22
849,929	-54,27
850,104	-44,03
850,279	-15,36
850,454	-52,22
850,63	46,08
850,805	41,98
850,98	44,03
851,155	-58,37
851,33	-54,27
851,505	-5,12
851,681	3,07
851,856	-33,79
852,031	60,42
852,206	-5,12
852,381	46,08
852,556	46,08
852,731	13,31
852,906	-48,13
853,081	-54,27
853,256	-9,22
853,431	13,31
853,606	44,03
853,781	11,26
853,956	-3,07
854,131	-5,12
854,305	11,26
854,48	27,65
854,655	-35,84
854,83	5,12
855,005	-9,22
855,18	-1,02
855,354	-46,08
855,529	25,6
855,704	-21,5
855,879	-52,22
856,053	21,5
856,228	84,99
856,403	-23,55
856,577	29,7
856,752	-17,41
856,926	54,27
857,101	-35,84
857,276	-3,07
857,45	3,07
857,625	21,5
857,799	-91,13
857,974	5,12
858,148	-68,61
858,323	3,07
858,497	-62,46
858,672	19,46
858,846	19,46
859,02	-11,26
859,195	23,55
859,369	48,13
859,543	-58,37
859,718	7,17
859,892	9,22
860,066	11,26
860,241	-3,07
860,415	109,57
860,589	-29,7
860,763	44,03
860,938	-21,5
861,112	-27,65
861,286	-25,6
861,46	23,55
861,634	48,13
861,808	19,46
861,982	35,84
862,157	21,5
862,331	-58,37
862,505	-62,46
862,679	44,03
862,853	15,36
863,027	27,65
863,201	39,94
863,375	-62,46
863,549	-23,55
863,722	9,22
863,896	-3,07
864,07	62,46
864,244	7,17
864,418	-44,03
864,592	-31,74
864,766	-52,22
864,939	-37,89
865,113	-46,08
865,287	-29,7
865,461	54,27
865,634	60,42
865,808	-13,31
865,982	15,36
866,156	9,22
866,329	-19,46
866,503	-1,02
866,676	19,46
866,85	27,65
867,024	-29,7
867,197	-44,03
867,371	-1,02
867,544	-41,98
867,718	41,98
867,891	3,07
868,065	44,03
868,238	-62,46
868,412	-54,27
868,585	27,65
868,759	31,74
868,932	-39,94
869,105	46,08
869,279	-17,41
869,452	-15,36
869,625	-19,46
869,799	5,12
869,972	-21,5
870,145	19,46
870,319	-7,17
870,492	60,42
870,665	-25,6
870,838	52,22
871,011	-35,84
871,185	19,46
871,358	76,8
871,531	-3,07
871,704	-1,02
871,877	60,42
872,05	39,94
872,223	39,94
872,396	-52,22
872,569	15,36
872,742	3,07
872,915	44,03
873,088	27,65
873,261	-76,8
873,434	-29,7
873,607	62,46
873,78	11,26
873,953	35,84
874,126	11,26
874,299	50,18
874,471	-23,55
874,644	31,74
874,817	-1,02
874,99	35,84
875,163	-70,65
875,335	-48,13
875,508	9,22
875,681	31,74
875,853	25,6
876,026	-17,41
876,199	-62,46
876,371	27,65
876,544	-7,17
876,717	7,17
876,889	-13,31
877,062	-23,55
877,234	-68,61
877,407	91,13
877,579	33,79
877,752	29,7
877,924	-3,07
878,097	13,31
878,269	1,02
878,442	-33,79
878,614	-19,46
878,786	-50,18
878,959	-3,07
879,131	-29,7
879,303	29,7
879,476	68,61
879,648	7,17
879,82	62,46
879,993	-29,7
880,165	44,03
880,337	31,74
880,509	-3,07
880,681	19,46
880,854	-76,8
881,026	-9,22
881,198	1,02
881,37	15,36
881,542	-21,5
881,714	17,41
881,886	-60,42
882,058	-21,5
882,23	-23,55
882,402	7,17
882,574	-44,03
882,746	29,7
882,918	11,26
883,09	19,46
883,262	17,41
883,434	11,26
883,606	-21,5
883,778	19,46
883,95	56,32
884,122	-78,85
884,293	-33,79
884,465	-9,22
884,637	31,74
884,809	9,22
884,98	46,08
885,152	15,36
885,324	9,22
885,496	-19,46
885,667	21,5
885,839	-48,13
886,011	54,27
886,182	-37,89
886,354	-21,5
886,525	46,08
886,697	3,07
886,869	62,46
887,04	3,07
887,212	-25,6
887,383	27,65
887,555	31,74
887,726	-13,31
887,897	50,18
888,069	46,08
888,24	29,7
888,412	35,84
888,583	3,07
888,754	-78,85
888,926	-27,65
889,097	-17,41
889,268	-35,84
889,44	-19,46
889,611	15,36
889,782	7,17
889,953	-1,02
890,125	-39,94
890,296	-1,02
890,467	27,65
890,638	-25,6
890,809	-46,08
890,98	-13,31
891,151	27,65
891,323	19,46
891,494	33,79
891,665	-17,41
891,836	-1,02
892,007	-31,74
892,178	-11,26
892,349	-78,85
892,52	-11,26
892,691	1,02
892,862	56,32
893,032	-50,18
893,203	-5,12
893,374	39,94
893,545	52,22
893,716	-19,46
893,887	48,13
894,057	54,27
894,228	48,13
894,399	5,12
894,57	-54,27
894,74	52,22
894,911	-27,65
895,082	-23,55
895,253	54,27
895,423	44,03
895,594	-13,31
895,764	44,03
895,935	31,74
896,106	7,17
896,276	46,08
896,447	50,18
896,617	-44,03
896,788	-58,37
896,958	-29,7
897,129	31,74
897,299	29,7
897,47	19,46
897,64	-33,79
897,81	-39,94
897,981	-11,26
898,151	-15,36
898,322	19,46
898,492	1,02
898,662	60,42
898,832	11,26
899,003	-21,5
899,173	48,13
899,343	9,22
899,513	5,12
