Data from filtre 532_USB4F104151__8__11-57-42-399.txt Node

Date: Wed Apr 15 11:57:42 EDT 2026
User: LaboPhy
Spectrometer: USB4F10415
Trigger mode: 4
Integration Time (sec): 3,000000E-3
Scans to average: 1
Electric dark correction enabled: true
Nonlinearity correction enabled: false
Boxcar width: 0
XAxis mode: Wavelengths
Number of Pixels in Spectrum: 3648
>>>>>Begin Spectral Data<<<<<
178,204	-55,12
178,424	-55,12
178,644	-55,12
178,864	0,17
179,084	37,03
179,304	-36,69
179,524	61,61
179,744	-30,55
179,964	8,36
180,184	-14,17
180,404	-28,5
180,624	8,36
180,844	-24,4
181,064	16,55
181,283	34,99
181,503	-5,97
181,723	10,41
181,943	61,61
182,163	-42,84
182,383	-32,6
182,602	65,71
182,822	-30,55
183,042	-38,74
183,262	73,9
183,482	16,55
183,701	-14,17
183,921	34,99
184,141	-61,27
184,361	37,03
184,58	18,6
184,8	65,71
185,02	-3,93
185,239	0,17
185,459	20,65
185,679	4,27
185,898	22,7
186,118	-3,93
186,338	20,65
186,557	12,46
186,777	-32,6
186,997	-48,98
187,216	-20,31
187,436	57,51
187,655	32,94
187,875	106,67
188,095	-40,79
188,314	51,37
188,534	-5,97
188,753	34,99
188,973	4,27
189,192	12,46
189,412	32,94
189,631	18,6
189,851	12,46
190,07	-36,69
190,29	-10,07
190,509	73,9
190,729	-22,36
190,948	55,47
191,168	65,71
191,387	-8,02
191,607	0,17
191,826	-3,93
192,045	4,27
192,265	-12,12
192,484	-24,4
192,704	-12,12
192,923	57,51
193,142	32,94
193,362	-24,4
193,581	28,84
193,8	16,55
194,02	28,84
194,239	6,31
194,458	37,03
194,678	-28,5
194,897	34,99
195,116	24,75
195,335	14,51
195,555	-30,55
195,774	24,75
195,993	-10,07
196,212	-53,08
196,432	28,84
196,651	34,99
196,87	-10,07
197,089	8,36
197,308	51,37
197,528	20,65
197,747	-3,93
197,966	10,41
198,185	-14,17
198,404	51,37
198,623	-51,03
198,842	-40,79
199,062	8,36
199,281	49,32
199,5	20,65
199,719	4,27
199,938	94,38
200,157	32,94
200,376	-77,65
200,595	-38,74
200,814	-14,17
201,033	14,51
201,252	2,22
201,471	12,46
201,69	16,55
201,909	84,14
202,128	-63,32
202,347	32,94
202,566	41,13
202,785	-24,4
203,004	20,65
203,223	43,18
203,442	-10,07
203,661	-3,93
203,879	-40,79
204,098	32,94
204,317	6,31
204,536	32,94
204,755	41,13
204,974	30,89
205,193	-65,36
205,411	34,99
205,63	-22,36
205,849	69,8
206,068	12,46
206,287	-16,21
206,505	18,6
206,724	-42,84
206,943	-3,93
207,162	2,22
207,381	24,75
207,599	-57,17
207,818	53,42
208,037	-30,55
208,255	-22,36
208,474	2,22
208,693	-26,45
208,911	102,57
209,13	-30,55
209,349	37,03
209,567	-34,64
209,786	-10,07
210,005	-55,12
210,223	-1,88
210,442	-24,4
210,661	-5,97
210,879	16,55
211,098	18,6
211,316	-32,6
211,535	0,17
211,753	14,51
211,972	75,95
212,191	14,51
212,409	26,79
212,628	-22,36
212,846	0,17
213,065	-32,6
213,283	24,75
213,502	18,6
213,72	-14,17
213,938	-32,6
214,157	-32,6
214,375	41,13
214,594	-10,07
214,812	22,7
215,031	67,75
215,249	12,46
215,467	-24,4
215,686	-46,93
215,904	37,03
216,122	69,8
216,341	39,08
216,559	-14,17
216,778	-14,17
216,996	-32,6
217,214	-42,84
217,432	24,75
217,651	26,79
217,869	30,89
218,087	8,36
218,306	18,6
218,524	10,41
218,742	59,56
218,96	8,36
219,179	-8,02
219,397	69,8
219,615	12,46
219,833	12,46
220,051	-57,17
220,27	43,18
220,488	34,99
220,706	-8,02
220,924	-36,69
221,142	24,75
221,36	28,84
221,578	110,76
221,796	20,65
222,015	-55,12
222,233	-12,12
222,451	-32,6
222,669	12,46
222,887	47,27
223,105	-20,31
223,323	41,13
223,541	14,51
223,759	8,36
223,977	0,17
224,195	-67,41
224,413	32,94
224,631	65,71
224,849	16,55
225,067	24,75
225,285	-30,55
225,503	82,09
225,721	12,46
225,939	59,56
226,157	-16,21
226,375	-30,55
226,592	-8,02
226,81	67,75
227,028	-81,75
227,246	49,32
227,464	-16,21
227,682	-53,08
227,9	-36,69
228,117	-22,36
228,335	2,22
228,553	77,99
228,771	-16,21
228,989	16,55
229,206	-20,31
229,424	37,03
229,642	-77,65
229,86	34,99
230,077	18,6
230,295	26,79
230,513	30,89
230,731	-3,93
230,948	43,18
231,166	-32,6
231,384	-34,64
231,601	-5,97
231,819	28,84
232,037	-30,55
232,254	65,71
232,472	-24,4
232,689	10,41
232,907	24,75
233,125	-36,69
233,342	-5,97
233,56	-22,36
233,777	-8,02
233,995	16,55
234,213	26,79
234,43	-30,55
234,648	41,13
234,865	4,27
235,083	2,22
235,3	-24,4
235,518	67,75
235,735	4,27
235,953	75,95
236,17	88,23
236,388	16,55
236,605	-32,6
236,822	51,37
237,04	-53,08
237,257	24,75
237,475	28,84
237,692	34,99
237,909	-73,56
238,127	-40,79
238,344	-16,21
238,562	0,17
238,779	-16,21
238,996	10,41
239,214	-14,17
239,431	-46,93
239,648	-26,45
239,865	18,6
240,083	41,13
240,3	-36,69
240,517	18,6
240,735	22,7
240,952	-67,41
241,169	6,31
241,386	49,32
241,603	-48,98
241,821	8,36
242,038	-53,08
242,255	-40,79
242,472	51,37
242,689	-24,4
242,907	14,51
243,124	-57,17
243,341	-87,89
243,558	-12,12
243,775	-24,4
243,992	-36,69
244,209	-20,31
244,426	-20,31
244,643	-51,03
244,86	-10,07
245,078	-36,69
245,295	22,7
245,512	-14,17
245,729	47,27
245,946	55,47
246,163	-32,6
246,38	24,75
246,597	24,75
246,814	-8,02
247,031	-32,6
247,248	26,79
247,464	92,33
247,681	39,08
247,898	4,27
248,115	32,94
248,332	51,37
248,549	24,75
248,766	65,71
248,983	8,36
249,2	34,99
249,417	6,31
249,633	-51,03
249,85	24,75
250,067	-16,21
250,284	12,46
250,501	-87,89
250,717	-22,36
250,934	18,6
251,151	-5,97
251,368	43,18
251,585	-28,5
251,801	16,55
252,018	4,27
252,235	10,41
252,451	-8,02
252,668	61,61
252,885	-38,74
253,102	-71,51
253,318	59,56
253,535	-32,6
253,752	-16,21
253,968	-26,45
254,185	-18,26
254,401	-28,5
254,618	-8,02
254,835	-71,51
255,051	94,38
255,268	43,18
255,484	8,36
255,701	-8,02
255,917	10,41
256,134	12,46
256,351	-57,17
256,567	-46,93
256,784	-34,64
257	-40,79
257,217	26,79
257,433	-20,31
257,65	-16,21
257,866	75,95
258,082	-16,21
258,299	32,94
258,515	-30,55
258,732	-16,21
258,948	10,41
259,165	16,55
259,381	-12,12
259,597	0,17
259,814	-46,93
260,03	-8,02
260,246	24,75
260,463	37,03
260,679	-69,46
260,895	-32,6
261,112	-5,97
261,328	8,36
261,544	61,61
261,761	45,23
261,977	24,75
262,193	-30,55
262,409	28,84
262,626	-57,17
262,842	8,36
263,058	-24,4
263,274	51,37
263,49	28,84
263,707	-14,17
263,923	-10,07
264,139	10,41
264,355	61,61
264,571	0,17
264,787	-12,12
265,004	-5,97
265,22	24,75
265,436	-46,93
265,652	24,75
265,868	-22,36
266,084	20,65
266,3	8,36
266,516	2,22
266,732	61,61
266,948	-34,64
267,164	-5,97
267,38	57,51
267,596	-8,02
267,812	-57,17
268,028	39,08
268,244	-48,98
268,46	34,99
268,676	-14,17
268,892	-18,26
269,108	73,9
269,324	-73,56
269,54	24,75
269,756	-16,21
269,972	18,6
270,188	12,46
270,403	34,99
270,619	-12,12
270,835	34,99
271,051	-10,07
271,267	16,55
271,483	67,75
271,698	4,27
271,914	-40,79
272,13	-18,26
272,346	-38,74
272,562	49,32
272,777	16,55
272,993	-18,26
273,209	-1,88
273,425	-14,17
273,64	-32,6
273,856	8,36
274,072	24,75
274,287	34,99
274,503	10,41
274,719	-114,52
274,934	16,55
275,15	0,17
275,366	8,36
275,581	37,03
275,797	59,56
276,012	16,55
276,228	-22,36
276,444	-28,5
276,659	30,89
276,875	22,7
277,09	0,17
277,306	-42,84
277,521	49,32
277,737	-24,4
277,952	61,61
278,168	59,56
278,383	0,17
278,599	0,17
278,814	-81,75
279,03	-16,21
279,245	8,36
279,461	-30,55
279,676	4,27
279,892	12,46
280,107	24,75
280,322	-44,88
280,538	57,51
280,753	67,75
280,969	28,84
281,184	39,08
281,399	49,32
281,615	32,94
281,83	-38,74
282,045	37,03
282,26	-32,6
282,476	26,79
282,691	10,41
282,906	34,99
283,122	37,03
283,337	-14,17
283,552	14,51
283,767	39,08
283,983	43,18
284,198	86,19
284,413	-16,21
284,628	-30,55
284,843	39,08
285,058	8,36
285,274	-20,31
285,489	10,41
285,704	18,6
285,919	10,41
286,134	49,32
286,349	32,94
286,564	24,75
286,779	65,71
286,995	-3,93
287,21	26,79
287,425	37,03
287,64	-1,88
287,855	-5,97
288,07	-8,02
288,285	6,31
288,5	32,94
288,715	-24,4
288,93	45,23
289,145	-1,88
289,36	37,03
289,575	-48,98
289,79	0,17
290,004	-8,02
290,219	32,94
290,434	-40,79
290,649	-3,93
290,864	51,37
291,079	45,23
291,294	26,79
291,509	24,75
291,724	-55,12
291,938	34,99
292,153	43,18
292,368	-53,08
292,583	45,23
292,798	-48,98
293,012	67,75
293,227	26,79
293,442	-42,84
293,657	-28,5
293,871	32,94
294,086	61,61
294,301	51,37
294,516	-1,88
294,73	-30,55
294,945	12,46
295,16	26,79
295,374	32,94
295,589	49,32
295,804	-71,51
296,018	-8,02
296,233	-12,12
296,447	-22,36
296,662	24,75
296,877	-53,08
297,091	-18,26
297,306	-26,45
297,52	-22,36
297,735	-30,55
297,949	34,99
298,164	18,6
298,378	-22,36
298,593	-12,12
298,807	-53,08
299,022	-12,12
299,236	73,9
299,451	-5,97
299,665	-30,55
299,88	-12,12
300,094	49,32
300,309	-14,17
300,523	-3,93
300,737	-12,12
300,952	49,32
301,166	104,62
301,381	24,75
301,595	20,65
301,809	-16,21
302,024	-55,12
302,238	4,27
302,452	28,84
302,667	69,8
302,881	24,75
303,095	12,46
303,309	67,75
303,524	-28,5
303,738	45,23
303,952	2,22
304,166	8,36
304,381	-44,88
304,595	18,6
304,809	8,36
305,023	28,84
305,237	-34,64
305,452	-55,12
305,666	14,51
305,88	26,79
306,094	-5,97
306,308	49,32
306,522	18,6
306,736	26,79
306,95	10,41
307,164	-30,55
307,379	-5,97
307,593	-40,79
307,807	20,65
308,021	-16,21
308,235	-14,17
308,449	43,18
308,663	4,27
308,877	110,76
309,091	8,36
309,305	32,94
309,519	34,99
309,733	-63,32
309,947	0,17
310,161	-40,79
310,374	-63,32
310,588	-34,64
310,802	-40,79
311,016	-3,93
311,23	24,75
311,444	-16,21
311,658	-48,98
311,872	-14,17
312,085	24,75
312,299	49,32
312,513	34,99
312,727	8,36
312,941	-18,26
313,154	57,51
313,368	14,51
313,582	20,65
313,796	-1,88
314,009	43,18
314,223	0,17
314,437	-75,6
314,651	22,7
314,864	8,36
315,078	24,75
315,292	51,37
315,505	14,51
315,719	41,13
315,933	57,51
316,146	-40,79
316,36	-30,55
316,573	14,51
316,787	41,13
317,001	61,61
317,214	-61,27
317,428	-20,31
317,641	86,19
317,855	-26,45
318,068	30,89
318,282	55,47
318,495	-1,88
318,709	-12,12
318,922	37,03
319,136	2,22
319,349	-28,5
319,563	-79,7
319,776	6,31
319,99	16,55
320,203	-65,36
320,417	-5,97
320,63	24,75
320,843	69,8
321,057	49,32
321,27	-46,93
321,483	26,79
321,697	10,41
321,91	-53,08
322,124	-3,93
322,337	-32,6
322,55	-55,12
322,763	0,17
322,977	2,22
323,19	24,75
323,403	26,79
323,617	-57,17
323,83	-3,93
324,043	-48,98
324,256	-12,12
324,469	55,47
324,683	8,36
324,896	24,75
325,109	10,41
325,322	-38,74
325,535	86,19
325,748	-3,93
325,962	49,32
326,175	16,55
326,388	0,17
326,601	2,22
326,814	0,17
327,027	8,36
327,24	-16,21
327,453	-20,31
327,666	10,41
327,879	24,75
328,092	28,84
328,305	30,89
328,518	30,89
328,731	-38,74
328,944	65,71
329,157	20,65
329,37	-28,5
329,583	16,55
329,796	0,17
330,009	51,37
330,222	28,84
330,435	-16,21
330,648	86,19
330,861	-14,17
331,073	-32,6
331,286	28,84
331,499	8,36
331,712	16,55
331,925	-8,02
332,138	-22,36
332,35	67,75
332,563	24,75
332,776	37,03
332,989	-32,6
333,202	20,65
333,414	30,89
333,627	90,28
333,84	-30,55
334,053	-24,4
334,265	0,17
334,478	43,18
334,691	-18,26
334,903	20,65
335,116	34,99
335,329	34,99
335,541	14,51
335,754	37,03
335,966	34,99
336,179	-38,74
336,392	-36,69
336,604	-3,93
336,817	37,03
337,029	-18,26
337,242	-24,4
337,454	16,55
337,667	34,99
337,88	32,94
338,092	-75,6
338,305	77,99
338,517	-16,21
338,729	86,19
338,942	14,51
339,154	73,9
339,367	-26,45
339,579	45,23
339,792	47,27
340,004	16,55
340,217	-26,45
340,429	-48,98
340,641	63,66
340,854	12,46
341,066	22,7
341,278	8,36
341,491	59,56
341,703	84,14
341,915	-24,4
342,128	-40,79
342,34	-26,45
342,552	16,55
342,764	47,27
342,977	24,75
343,189	-8,02
343,401	12,46
343,613	26,79
343,826	0,17
344,038	22,7
344,25	-44,88
344,462	-24,4
344,674	43,18
344,886	-40,79
345,099	16,55
345,311	8,36
345,523	24,75
345,735	4,27
345,947	4,27
346,159	16,55
346,371	8,36
346,583	2,22
346,795	-26,45
347,007	26,79
347,219	41,13
347,431	24,75
347,643	98,47
347,855	43,18
348,067	-14,17
348,279	18,6
348,491	77,99
348,703	-3,93
348,915	2,22
349,127	-79,7
349,339	49,32
349,551	16,55
349,763	-40,79
349,975	-20,31
350,187	8,36
350,399	10,41
350,61	-36,69
350,822	-26,45
351,034	12,46
351,246	30,89
351,458	49,32
351,669	37,03
351,881	-38,74
352,093	37,03
352,305	-18,26
352,517	-18,26
352,728	-22,36
352,94	-22,36
353,152	43,18
353,363	-8,02
353,575	4,27
353,787	24,75
353,999	49,32
354,21	57,51
354,422	-57,17
354,633	12,46
354,845	28,84
355,057	-61,27
355,268	-42,84
355,48	39,08
355,692	-44,88
355,903	-16,21
356,115	-40,79
356,326	-10,07
356,538	-55,12
356,749	10,41
356,961	10,41
357,172	6,31
357,384	-40,79
357,595	-73,56
357,807	-51,03
358,018	0,17
358,23	-16,21
358,441	-16,21
358,653	-10,07
358,864	-30,55
359,075	14,51
359,287	34,99
359,498	16,55
359,709	-20,31
359,921	32,94
360,132	-8,02
360,344	12,46
360,555	41,13
360,766	22,7
360,977	14,51
361,189	49,32
361,4	-65,36
361,611	-1,88
361,823	-57,17
362,034	34,99
362,245	-46,93
362,456	-71,51
362,667	2,22
362,879	16,55
363,09	-8,02
363,301	14,51
363,512	8,36
363,723	-42,84
363,935	65,71
364,146	-5,97
364,357	80,04
364,568	80,04
364,779	14,51
364,99	49,32
365,201	20,65
365,412	34,99
365,623	-28,5
365,834	-20,31
366,045	-22,36
366,256	59,56
366,467	12,46
366,678	-5,97
366,889	-5,97
367,1	110,76
367,311	18,6
367,522	0,17
367,733	-28,5
367,944	-12,12
368,155	-5,97
368,366	49,32
368,577	-73,56
368,788	90,28
368,999	-51,03
369,209	-18,26
369,42	37,03
369,631	57,51
369,842	-8,02
370,053	8,36
370,264	26,79
370,474	0,17
370,685	-12,12
370,896	4,27
371,107	-30,55
371,317	16,55
371,528	-10,07
371,739	-26,45
371,95	-34,64
372,16	-26,45
372,371	4,27
372,582	-16,21
372,792	37,03
373,003	18,6
373,214	41,13
373,424	47,27
373,635	-44,88
373,846	-40,79
374,056	-24,4
374,267	0,17
374,477	-34,64
374,688	57,51
374,898	14,51
375,109	-40,79
375,319	41,13
375,53	-24,4
375,74	0,17
375,951	41,13
376,161	12,46
376,372	34,99
376,582	77,99
376,793	39,08
377,003	-5,97
377,214	26,79
377,424	-34,64
377,635	2,22
377,845	-24,4
378,055	43,18
378,266	-14,17
378,476	-18,26
378,686	-59,22
378,897	61,61
379,107	-8,02
379,317	32,94
379,528	4,27
379,738	32,94
379,948	-26,45
380,158	37,03
380,369	0,17
380,579	12,46
380,789	43,18
380,999	104,62
381,21	30,89
381,42	12,46
381,63	-22,36
381,84	43,18
382,05	12,46
382,261	20,65
382,471	20,65
382,681	32,94
382,891	-24,4
383,101	-42,84
383,311	43,18
383,521	-20,31
383,731	67,75
383,941	-26,45
384,151	6,31
384,361	-16,21
384,571	-3,93
384,781	18,6
384,991	-20,31
385,201	22,7
385,411	-12,12
385,621	-12,12
385,831	8,36
386,041	43,18
386,251	-10,07
386,461	2,22
386,671	16,55
386,881	34,99
387,091	6,31
387,301	-44,88
387,511	-30,55
387,72	-5,97
387,93	-10,07
388,14	57,51
388,35	-1,88
388,56	-24,4
388,769	-34,64
388,979	49,32
389,189	-77,65
389,399	20,65
389,609	0,17
389,818	-28,5
390,028	0,17
390,238	84,14
390,447	-18,26
390,657	26,79
390,867	6,31
391,076	-8,02
391,286	-87,89
391,496	-40,79
391,705	-28,5
391,915	-3,93
392,125	24,75
392,334	24,75
392,544	-8,02
392,753	43,18
392,963	-55,12
393,172	24,75
393,382	-28,5
393,591	-94,04
393,801	-1,88
394,01	24,75
394,22	-5,97
394,429	-18,26
394,639	43,18
394,848	10,41
395,058	59,56
395,267	2,22
395,477	14,51
395,686	-57,17
395,895	-53,08
396,105	51,37
396,314	14,51
396,524	20,65
396,733	41,13
396,942	0,17
397,152	-30,55
397,361	59,56
397,57	30,89
397,78	10,41
397,989	12,46
398,198	-18,26
398,407	22,7
398,617	30,89
398,826	-14,17
399,035	16,55
399,244	-57,17
399,453	30,89
399,663	18,6
399,872	20,65
400,081	-30,55
400,29	-8,02
400,499	10,41
400,708	-10,07
400,917	-14,17
401,127	-16,21
401,336	47,27
401,545	34,99
401,754	30,89
401,963	2,22
402,172	18,6
402,381	20,65
402,59	32,94
402,799	-26,45
403,008	41,13
403,217	0,17
403,426	-1,88
403,635	30,89
403,844	53,42
404,053	-22,36
404,262	-44,88
404,471	-24,4
404,68	34,99
404,888	-40,79
405,097	22,7
405,306	57,51
405,515	4,27
405,724	0,17
405,933	28,84
406,142	49,32
406,35	6,31
406,559	57,51
406,768	-40,79
406,977	24,75
407,185	-32,6
407,394	10,41
407,603	-36,69
407,812	34,99
408,02	-69,46
408,229	6,31
408,438	-10,07
408,646	-34,64
408,855	49,32
409,064	0,17
409,272	-16,21
409,481	18,6
409,69	-48,98
409,898	59,56
410,107	10,41
410,315	-89,94
410,524	-10,07
410,733	-32,6
410,941	-5,97
411,15	10,41
411,358	32,94
411,567	-10,07
411,775	-16,21
411,984	43,18
412,192	-24,4
412,401	65,71
412,609	16,55
412,818	4,27
413,026	32,94
413,234	26,79
413,443	86,19
413,651	-34,64
413,86	37,03
414,068	57,51
414,276	-83,8
414,485	28,84
414,693	32,94
414,901	14,51
415,11	2,22
415,318	10,41
415,526	2,22
415,734	26,79
415,943	34,99
416,151	32,94
416,359	41,13
416,567	-38,74
416,776	-34,64
416,984	-14,17
417,192	-34,64
417,4	20,65
417,608	-26,45
417,817	43,18
418,025	-44,88
418,233	37,03
418,441	26,79
418,649	75,95
418,857	-32,6
419,065	8,36
419,273	8,36
419,481	-34,64
419,689	20,65
419,897	-5,97
420,105	24,75
420,313	51,37
420,521	18,6
420,729	-14,17
420,937	8,36
421,145	-16,21
421,353	-24,4
421,561	57,51
421,769	71,85
421,977	-53,08
422,185	-57,17
422,393	-44,88
422,601	43,18
422,809	26,79
423,017	-1,88
423,224	-89,94
423,432	-12,12
423,64	30,89
423,848	8,36
424,056	-10,07
424,263	-5,97
424,471	-22,36
424,679	82,09
424,887	-40,79
425,094	57,51
425,302	75,95
425,51	67,75
425,718	47,27
425,925	-8,02
426,133	18,6
426,341	14,51
426,548	2,22
426,756	16,55
426,964	12,46
427,171	10,41
427,379	12,46
427,586	24,75
427,794	-24,4
428,001	14,51
428,209	8,36
428,417	6,31
428,624	0,17
428,832	-24,4
429,039	-81,75
429,247	-24,4
429,454	0,17
429,662	-63,32
429,869	10,41
430,076	-12,12
430,284	-30,55
430,491	10,41
430,699	77,99
430,906	-16,21
431,114	59,56
431,321	-34,64
431,528	-18,26
431,736	8,36
431,943	-8,02
432,15	-38,74
432,358	28,84
432,565	63,66
432,772	45,23
432,979	-36,69
433,187	0,17
433,394	28,84
433,601	37,03
433,808	37,03
434,016	16,55
434,223	-36,69
434,43	24,75
434,637	-12,12
434,844	-22,36
435,052	65,71
435,259	-24,4
435,466	-57,17
435,673	-12,12
435,88	4,27
436,087	-48,98
436,294	0,17
436,501	59,56
436,708	-5,97
436,915	-34,64
437,122	43,18
437,329	-57,17
437,537	92,33
437,743	-61,27
437,95	-32,6
438,157	2,22
438,364	-30,55
438,571	30,89
438,778	4,27
438,985	-1,88
439,192	18,6
439,399	28,84
439,606	-38,74
439,813	-16,21
440,02	-5,97
440,227	-8,02
440,433	28,84
440,64	49,32
440,847	10,41
441,054	-44,88
441,261	-126,8
441,467	-5,97
441,674	-8,02
441,881	61,61
442,088	16,55
442,294	16,55
442,501	-20,31
442,708	43,18
442,914	-16,21
443,121	30,89
443,328	-36,69
443,534	-26,45
443,741	12,46
443,948	-38,74
444,154	-26,45
444,361	32,94
444,568	-12,12
444,774	-8,02
444,981	-48,98
445,187	8,36
445,394	0,17
445,6	16,55
445,807	-32,6
446,013	-1,88
446,22	88,23
446,426	-5,97
446,633	10,41
446,839	34,99
447,046	-44,88
447,252	26,79
447,459	45,23
447,665	-10,07
447,871	53,42
448,078	24,75
448,284	-8,02
448,491	8,36
448,697	43,18
448,903	37,03
449,11	10,41
449,316	45,23
449,522	26,79
449,728	6,31
449,935	-40,79
450,141	-67,41
450,347	65,71
450,553	26,79
450,76	18,6
450,966	-1,88
451,172	-75,6
451,378	-3,93
451,584	49,32
451,791	-28,5
451,997	12,46
452,203	-3,93
452,409	-5,97
452,615	12,46
452,821	-8,02
453,027	49,32
453,233	28,84
453,44	39,08
453,646	-30,55
453,852	28,84
454,058	4,27
454,264	8,36
454,47	18,6
454,676	-5,97
454,882	-94,04
455,088	28,84
455,294	45,23
455,5	59,56
455,705	41,13
455,911	47,27
456,117	39,08
456,323	43,18
456,529	10,41
456,735	26,79
456,941	4,27
457,147	57,51
457,352	-12,12
457,558	22,7
457,764	-28,5
457,97	24,75
458,176	0,17
458,381	8,36
458,587	8,36
458,793	-24,4
458,999	30,89
459,204	49,32
459,41	6,31
459,616	59,56
459,821	-57,17
460,027	-71,51
460,233	-40,79
460,438	-71,51
460,644	-98,13
460,85	-32,6
461,055	-94,04
461,261	0,17
461,466	-46,93
461,672	-75,6
461,878	-46,93
462,083	-32,6
462,289	6,31
462,494	-30,55
462,7	12,46
462,905	-44,88
463,111	30,89
463,316	51,37
463,522	65,71
463,727	-38,74
463,932	-22,36
464,138	73,9
464,343	37,03
464,549	16,55
464,754	24,75
464,959	14,51
465,165	61,61
465,37	45,23
465,575	45,23
465,781	-14,17
465,986	-44,88
466,191	53,42
466,397	-30,55
466,602	-1,88
466,807	-5,97
467,012	18,6
467,218	45,23
467,423	69,8
467,628	30,89
467,833	49,32
468,038	-22,36
468,244	-38,74
468,449	4,27
468,654	-26,45
468,859	20,65
469,064	32,94
469,269	-22,36
469,474	49,32
469,679	-42,84
469,885	-24,4
470,09	28,84
470,295	49,32
470,5	24,75
470,705	20,65
470,91	61,61
471,115	-32,6
471,32	20,65
471,525	18,6
471,73	16,55
471,935	20,65
472,139	34,99
472,344	-40,79
472,549	32,94
472,754	0,17
472,959	32,94
473,164	53,42
473,369	-5,97
473,574	-28,5
473,778	-24,4
473,983	116,9
474,188	20,65
474,393	10,41
474,598	18,6
474,802	22,7
475,007	59,56
475,212	-3,93
475,417	-32,6
475,621	0,17
475,826	-24,4
476,031	-53,08
476,235	12,46
476,44	37,03
476,645	-3,93
476,849	30,89
477,054	-42,84
477,259	10,41
477,463	-1,88
477,668	12,46
477,872	-16,21
478,077	-8,02
478,282	39,08
478,486	-94,04
478,691	-36,69
478,895	32,94
479,1	4,27
479,304	-10,07
479,509	-3,93
479,713	57,51
479,918	30,89
480,122	-53,08
480,326	47,27
480,531	32,94
480,735	26,79
480,94	14,51
481,144	-5,97
481,348	4,27
481,553	-3,93
481,757	-8,02
481,961	-28,5
482,166	22,7
482,37	84,14
482,574	-22,36
482,778	-12,12
482,983	-36,69
483,187	-12,12
483,391	-12,12
483,595	82,09
483,8	75,95
484,004	10,41
484,208	8,36
484,412	4,27
484,616	22,7
484,821	8,36
485,025	16,55
485,229	-42,84
485,433	0,17
485,637	0,17
485,841	37,03
486,045	20,65
486,249	18,6
486,453	-30,55
486,657	-8,02
486,861	-44,88
487,065	-51,03
487,269	-57,17
487,473	-8,02
487,677	-36,69
487,881	0,17
488,085	-42,84
488,289	-24,4
488,493	16,55
488,697	94,38
488,901	-1,88
489,105	-5,97
489,309	-51,03
489,512	59,56
489,716	10,41
489,92	20,65
490,124	-28,5
490,328	-8,02
490,531	-96,08
490,735	32,94
490,939	37,03
491,143	59,56
491,346	-5,97
491,55	37,03
491,754	18,6
491,958	-5,97
492,161	67,75
492,365	12,46
492,569	8,36
492,772	10,41
492,976	37,03
493,18	-8,02
493,383	-1,88
493,587	8,36
493,79	45,23
493,994	-57,17
494,197	2,22
494,401	-40,79
494,605	-8,02
494,808	-16,21
495,012	20,65
495,215	32,94
495,419	-40,79
495,622	39,08
495,825	-32,6
496,029	84,14
496,232	43,18
496,436	-14,17
496,639	-18,26
496,843	98,47
497,046	-32,6
497,249	90,28
497,453	30,89
497,656	-28,5
497,859	55,47
498,063	80,04
498,266	26,79
498,469	-40,79
498,673	-3,93
498,876	-16,21
499,079	-59,22
499,282	-20,31
499,485	28,84
499,689	-14,17
499,892	10,41
500,095	-40,79
500,298	4,27
500,501	41,13
500,705	-12,12
500,908	-69,46
501,111	4,27
501,314	-1,88
501,517	-5,97
501,72	-55,12
501,923	10,41
502,126	-38,74
502,329	-10,07
502,532	69,8
502,735	-24,4
502,938	32,94
503,141	4,27
503,344	-24,4
503,547	-12,12
503,75	-77,65
503,953	-12,12
504,156	61,61
504,359	8,36
504,562	-34,64
504,765	32,94
504,968	16,55
505,17	45,23
505,373	-32,6
505,576	16,55
505,779	8,36
505,982	18,6
506,185	4,27
506,387	-55,12
506,59	-36,69
506,793	16,55
506,996	71,85
507,198	8,36
507,401	10,41
507,604	-73,56
507,807	2,22
508,009	18,6
508,212	90,28
508,415	47,27
508,617	-36,69
508,82	-48,98
509,022	16,55
509,225	-102,23
509,428	53,42
509,63	53,42
509,833	-30,55
510,035	-26,45
510,238	43,18
510,44	45,23
510,643	-24,4
510,845	-5,97
511,048	0,17
511,25	8,36
511,453	-10,07
511,655	10,41
511,858	-30,55
512,06	41,13
512,262	32,94
512,465	45,23
512,667	-32,6
512,87	-59,22
513,072	24,75
513,274	-8,02
513,477	-32,6
513,679	8,36
513,881	28,84
514,084	-5,97
514,286	-24,4
514,488	57,51
514,69	34,99
514,893	-8,02
515,095	57,51
515,297	34,99
515,499	8,36
515,701	-20,31
515,904	0,17
516,106	-44,88
516,308	34,99
516,51	26,79
516,712	67,75
516,914	14,51
517,116	-14,17
517,318	-3,93
517,52	-30,55
517,722	0,17
517,925	67,75
518,127	98,47
518,329	39,08
518,531	-3,93
518,733	-26,45
518,935	12,46
519,136	4,27
519,338	-5,97
519,54	28,84
519,742	-61,27
519,944	57,51
520,146	30,89
520,348	-32,6
520,55	-48,98
520,752	55,47
520,954	28,84
521,155	-14,17
521,357	8,36
521,559	67,75
521,761	14,51
521,963	49,32
522,164	-8,02
522,366	47,27
522,568	2,22
522,77	137,38
522,971	18,6
523,173	-16,21
523,375	-53,08
523,576	37,03
523,778	8,36
523,98	41,13
524,181	86,19
524,383	125,1
524,584	139,43
524,786	202,92
524,988	213,16
525,189	239,78
525,391	393,38
525,592	657,57
525,794	1015,96
525,995	1507,48
526,197	2257,03
526,398	3047,55
526,6	4374,63
526,801	5294,17
527,003	7231,55
527,204	8667,17
527,406	10952,71
527,607	12953,57
527,808	15491,01
528,01	17754,01
528,211	20559,73
528,412	24061,76
528,614	27019,02
528,815	29757,16
529,016	33558,19
529,218	35348,11
529,419	38162,02
529,62	40072,78
529,822	42429,99
530,023	44289,54
530,224	46050,8
530,425	46734,82
530,626	47998,41
530,828	48559,56
531,029	50750,88
531,23	49817,01
531,431	50886,05
531,632	51064,22
531,833	52336,01
532,035	52125,07
532,236	52604,3
532,437	52321,68
532,638	52092,3
532,839	52290,96
533,04	53112,19
533,241	52454,79
533,442	53456,25
533,643	52997,51
533,844	52964,74
534,045	53085,57
534,246	52710,79
534,447	52964,74
534,648	52522,38
534,849	52899,2
535,05	51967,38
535,251	51918,23
535,451	51289,5
535,652	50845,09
535,853	49425,85
536,054	48592,33
536,255	48109
536,456	46044,65
536,657	46001,64
536,857	43128,34
537,058	41020,98
537,259	39204,44
537,46	36916,86
537,66	34186,91
537,861	32081,6
538,062	29308,65
538,263	26670,87
538,463	23779,14
538,664	21442,4
538,865	18440,08
539,065	16678,83
539,266	14106,58
539,466	12285,94
539,667	10205,2
539,868	8962,08
540,068	7198,78
540,269	6031,44
540,469	4683,88
540,67	3805,3
540,87	2738,3
541,071	2248,84
541,271	1501,33
541,472	1144,99
541,672	737,44
541,873	495,78
542,073	346,28
542,274	235,69
542,474	190,63
542,675	86,19
542,875	168,1
543,075	90,28
543,276	82,09
543,476	82,09
543,676	106,67
543,877	26,79
544,077	82,09
544,277	84,14
544,478	24,75
544,678	61,61
544,878	-5,97
545,078	41,13
545,279	43,18
545,479	12,46
545,679	57,51
545,879	102,57
546,079	37,03
546,28	-28,5
546,48	12,46
546,68	41,13
546,88	88,23
547,08	80,04
547,28	73,9
547,48	-24,4
547,68	2,22
547,88	-44,88
548,081	57,51
548,281	69,8
548,481	47,27
548,681	34,99
548,881	16,55
549,081	-14,17
549,28	32,94
549,48	32,94
549,68	43,18
549,88	-3,93
550,08	106,67
550,28	-42,84
550,48	-3,93
550,68	18,6
550,88	32,94
551,08	0,17
551,279	92,33
551,479	-1,88
551,679	26,79
551,879	-65,36
552,079	-8,02
552,278	2,22
552,478	20,65
552,678	32,94
552,878	-10,07
553,077	-3,93
553,277	49,32
553,477	32,94
553,676	24,75
553,876	106,67
554,076	73,9
554,275	-3,93
554,475	10,41
554,674	41,13
554,874	20,65
555,074	-26,45
555,273	-40,79
555,473	49,32
555,672	45,23
555,872	-30,55
556,071	67,75
556,271	49,32
556,47	16,55
556,67	0,17
556,869	37,03
557,068	-30,55
557,268	43,18
557,467	24,75
557,667	77,99
557,866	69,8
558,065	-12,12
558,265	20,65
558,464	32,94
558,663	-26,45
558,863	34,99
559,062	-3,93
559,261	32,94
559,461	0,17
559,66	26,79
559,859	-65,36
560,058	51,37
560,258	65,71
560,457	57,51
560,656	63,66
560,855	45,23
561,054	22,7
561,253	8,36
561,453	59,56
561,652	2,22
561,851	-28,5
562,05	59,56
562,249	20,65
562,448	34,99
562,647	-24,4
562,846	-5,97
563,045	69,8
563,244	-3,93
563,443	-1,88
563,642	-24,4
563,841	16,55
564,04	-16,21
564,239	30,89
564,438	-10,07
564,637	6,31
564,836	-24,4
565,035	-38,74
565,234	16,55
565,432	4,27
565,631	-8,02
565,83	-14,17
566,029	32,94
566,228	-22,36
566,427	12,46
566,625	8,36
566,824	39,08
567,023	-24,4
567,222	-75,6
567,42	-24,4
567,619	75,95
567,818	6,31
568,016	18,6
568,215	-30,55
568,414	-22,36
568,612	53,42
568,811	24,75
569,01	28,84
569,208	-22,36
569,407	43,18
569,605	4,27
569,804	-38,74
570,002	18,6
570,201	14,51
570,4	0,17
570,598	-38,74
570,797	-8,02
570,995	-32,6
571,193	16,55
571,392	10,41
571,59	-8,02
571,789	-8,02
571,987	75,95
572,186	12,46
572,384	-48,98
572,582	8,36
572,781	-5,97
572,979	20,65
573,177	20,65
573,376	-8,02
573,574	49,32
573,772	65,71
573,971	8,36
574,169	16,55
574,367	16,55
574,565	37,03
574,763	8,36
574,962	0,17
575,16	32,94
575,358	24,75
575,556	-32,6
575,754	-42,84
575,952	30,89
576,151	30,89
576,349	32,94
576,547	-36,69
576,745	41,13
576,943	-34,64
577,141	10,41
577,339	73,9
577,537	-12,12
577,735	16,55
577,933	24,75
578,131	-38,74
578,329	-3,93
578,527	-8,02
578,725	32,94
578,923	26,79
579,121	34,99
579,319	-1,88
579,516	43,18
579,714	34,99
579,912	24,75
580,11	-48,98
580,308	-32,6
580,506	26,79
580,704	12,46
580,901	-16,21
581,099	4,27
581,297	-57,17
581,495	2,22
581,692	28,84
581,89	0,17
582,088	-48,98
582,285	-30,55
582,483	-16,21
582,681	37,03
582,878	84,14
583,076	24,75
583,274	16,55
583,471	10,41
583,669	41,13
583,866	18,6
584,064	-5,97
584,262	4,27
584,459	0,17
584,657	41,13
584,854	61,61
585,052	-10,07
585,249	-12,12
585,447	32,94
585,644	8,36
585,841	47,27
586,039	59,56
586,236	-10,07
586,434	-30,55
586,631	30,89
586,828	30,89
587,026	28,84
587,223	-73,56
587,42	0,17
587,618	-89,94
587,815	-34,64
588,012	-14,17
588,21	-5,97
588,407	98,47
588,604	-44,88
588,801	-14,17
588,999	57,51
589,196	-75,6
589,393	8,36
589,59	4,27
589,787	41,13
589,984	30,89
590,182	57,51
590,379	-40,79
590,576	-18,26
590,773	32,94
590,97	67,75
591,167	-8,02
591,364	-26,45
591,561	26,79
591,758	10,41
591,955	12,46
592,152	57,51
592,349	0,17
592,546	65,71
592,743	-5,97
592,94	-53,08
593,137	24,75
593,334	18,6
593,531	22,7
593,727	51,37
593,924	-24,4
594,121	-40,79
594,318	14,51
594,515	-3,93
594,712	-55,12
594,908	51,37
595,105	-20,31
595,302	-18,26
595,499	77,99
595,696	8,36
595,892	67,75
596,089	45,23
596,286	8,36
596,482	-53,08
596,679	14,51
596,876	20,65
597,072	49,32
597,269	96,43
597,466	-1,88
597,662	65,71
597,859	47,27
598,055	10,41
598,252	18,6
598,448	-12,12
598,645	-20,31
598,841	16,55
599,038	65,71
599,234	43,18
599,431	63,66
599,627	-3,93
599,824	-38,74
600,02	-5,97
600,217	18,6
600,413	-38,74
600,609	-51,03
600,806	37,03
601,002	8,36
601,198	-16,21
601,395	30,89
601,591	45,23
601,787	-12,12
601,984	28,84
602,18	-1,88
602,376	51,37
602,572	-12,12
602,769	53,42
602,965	-20,31
603,161	0,17
603,357	-14,17
603,553	-8,02
603,75	-57,17
603,946	-16,21
604,142	-94,04
604,338	14,51
604,534	6,31
604,73	73,9
604,926	47,27
605,122	-34,64
605,318	22,7
605,514	-16,21
605,71	20,65
605,906	-20,31
606,102	57,51
606,298	-10,07
606,494	18,6
606,69	26,79
606,886	-24,4
607,082	-3,93
607,278	-40,79
607,474	32,94
607,67	16,55
607,866	2,22
608,062	30,89
608,257	20,65
608,453	43,18
608,649	-20,31
608,845	0,17
609,041	34,99
609,236	-22,36
609,432	47,27
609,628	-14,17
609,824	47,27
610,019	4,27
610,215	14,51
610,411	0,17
610,606	55,47
610,802	-24,4
610,998	-67,41
611,193	6,31
611,389	-57,17
611,584	2,22
611,78	-32,6
611,976	-22,36
612,171	-34,64
612,367	10,41
612,562	112,81
612,758	-14,17
612,953	2,22
613,149	-24,4
613,344	-53,08
613,539	30,89
613,735	4,27
613,93	53,42
614,126	24,75
614,321	-51,03
614,517	45,23
614,712	-14,17
614,907	16,55
615,103	-24,4
615,298	-28,5
615,493	-44,88
615,688	16,55
615,884	0,17
616,079	24,75
616,274	26,79
616,47	2,22
616,665	-32,6
616,86	-24,4
617,055	12,46
617,25	43,18
617,445	-10,07
617,641	-8,02
617,836	-12,12
618,031	41,13
618,226	-61,27
618,421	43,18
618,616	-5,97
618,811	-16,21
619,006	55,47
619,201	55,47
619,396	-36,69
619,591	-1,88
619,786	47,27
619,981	4,27
620,176	28,84
620,371	41,13
620,566	-42,84
620,761	41,13
620,956	-24,4
621,151	34,99
621,346	63,66
621,541	47,27
621,735	14,51
621,93	-16,21
622,125	-20,31
622,32	26,79
622,515	-12,12
622,709	30,89
622,904	-20,31
623,099	-71,51
623,294	-12,12
623,488	34,99
623,683	-24,4
623,878	-24,4
624,072	-81,75
624,267	-32,6
624,462	28,84
624,656	-30,55
624,851	-69,46
625,046	-8,02
625,24	24,75
625,435	12,46
625,629	-12,12
625,824	24,75
626,018	43,18
626,213	-36,69
626,407	-38,74
626,602	-1,88
626,796	0,17
626,991	82,09
627,185	0,17
627,38	-1,88
627,574	-48,98
627,768	8,36
627,963	24,75
628,157	12,46
628,352	-91,99
628,546	0,17
628,74	16,55
628,935	22,7
629,129	-55,12
629,323	51,37
629,517	45,23
629,712	82,09
629,906	16,55
630,1	-16,21
630,294	-8,02
630,489	24,75
630,683	55,47
630,877	-10,07
631,071	-14,17
631,265	82,09
631,459	92,33
631,653	26,79
631,848	26,79
632,042	49,32
632,236	28,84
632,43	51,37
632,624	94,38
632,818	14,51
633,012	65,71
633,206	14,51
633,4	4,27
633,594	-44,88
633,788	-38,74
633,982	-16,21
634,176	28,84
634,369	-10,07
634,563	-38,74
634,757	-3,93
634,951	-34,64
635,145	53,42
635,339	114,86
635,533	-22,36
635,726	-24,4
635,92	-34,64
636,114	22,7
636,308	-1,88
636,501	20,65
636,695	24,75
636,889	-8,02
637,083	41,13
637,276	-40,79
637,47	-89,94
637,664	-44,88
637,857	-18,26
638,051	2,22
638,244	4,27
638,438	-57,17
638,632	22,7
638,825	-83,8
639,019	2,22
639,212	-75,6
639,406	2,22
639,599	24,75
639,793	-22,36
639,986	43,18
640,18	28,84
640,373	10,41
640,567	2,22
640,76	-5,97
640,954	2,22
641,147	55,47
641,34	55,47
641,534	-5,97
641,727	51,37
641,92	14,51
642,114	-73,56
642,307	32,94
642,5	-12,12
642,694	-57,17
642,887	-22,36
643,08	0,17
643,273	20,65
643,467	-8,02
643,66	22,7
643,853	-38,74
644,046	43,18
644,239	-34,64
644,432	10,41
644,626	22,7
644,819	16,55
645,012	98,47
645,205	-5,97
645,398	8,36
645,591	47,27
645,784	2,22
645,977	-10,07
646,17	-10,07
646,363	-87,89
646,556	59,56
646,749	-8,02
646,942	16,55
647,135	-22,36
647,328	53,42
647,521	-3,93
647,714	18,6
647,907	65,71
648,099	-57,17
648,292	43,18
648,485	-34,64
648,678	49,32
648,871	20,65
649,064	28,84
649,256	14,51
649,449	92,33
649,642	16,55
649,835	-8,02
650,027	51,37
650,22	4,27
650,413	-32,6
650,605	24,75
650,798	67,75
650,991	-5,97
651,183	-16,21
651,376	10,41
651,568	-3,93
651,761	-28,5
651,954	-12,12
652,146	61,61
652,339	-1,88
652,531	24,75
652,724	-48,98
652,916	45,23
653,109	65,71
653,301	-46,93
653,494	34,99
653,686	14,51
653,879	-12,12
654,071	-5,97
654,263	-46,93
654,456	57,51
654,648	-40,79
654,84	45,23
655,033	-12,12
655,225	0,17
655,417	8,36
655,61	-46,93
655,802	-42,84
655,994	8,36
656,186	-36,69
656,379	0,17
656,571	41,13
656,763	24,75
656,955	67,75
657,148	-5,97
657,34	82,09
657,532	16,55
657,724	-53,08
657,916	-1,88
658,108	-20,31
658,3	-16,21
658,492	-16,21
658,684	10,41
658,876	16,55
659,068	-10,07
659,26	-53,08
659,452	26,79
659,644	55,47
659,836	24,75
660,028	28,84
660,22	-30,55
660,412	12,46
660,604	2,22
660,796	-16,21
660,988	10,41
661,18	-28,5
661,372	39,08
661,563	24,75
661,755	37,03
661,947	-24,4
662,139	53,42
662,331	-5,97
662,522	8,36
662,714	12,46
662,906	37,03
663,097	-3,93
663,289	16,55
663,481	24,75
663,673	-3,93
663,864	96,43
664,056	-53,08
664,247	-36,69
664,439	14,51
664,631	-36,69
664,822	-30,55
665,014	-5,97
665,205	34,99
665,397	12,46
665,588	10,41
665,78	0,17
665,971	32,94
666,163	-53,08
666,354	49,32
666,546	26,79
666,737	53,42
666,929	55,47
667,12	49,32
667,311	-22,36
667,503	24,75
667,694	-40,79
667,885	-46,93
668,077	-1,88
668,268	45,23
668,459	2,22
668,651	-24,4
668,842	-16,21
669,033	98,47
669,224	-5,97
669,416	45,23
669,607	-32,6
669,798	-16,21
669,989	-12,12
670,18	16,55
670,371	-26,45
670,563	-81,75
670,754	-69,46
670,945	10,41
671,136	-30,55
671,327	51,37
671,518	-12,12
671,709	-20,31
671,9	2,22
672,091	-20,31
672,282	-5,97
672,473	26,79
672,664	10,41
672,855	-48,98
673,046	82,09
673,237	-26,45
673,428	-40,79
673,619	51,37
673,809	26,79
674	-32,6
674,191	65,71
674,382	-20,31
674,573	26,79
674,764	-5,97
674,954	49,32
675,145	43,18
675,336	-5,97
675,527	63,66
675,717	-16,21
675,908	24,75
676,099	-1,88
676,289	14,51
676,48	-69,46
676,671	-5,97
676,861	-36,69
677,052	49,32
677,243	-8,02
677,433	22,7
677,624	-46,93
677,814	-22,36
678,005	-69,46
678,195	49,32
678,386	-51,03
678,576	-14,17
678,767	-40,79
678,957	-1,88
679,148	-20,31
679,338	-16,21
679,529	37,03
679,719	-30,55
679,909	-55,12
680,1	34,99
680,29	53,42
680,481	80,04
680,671	-16,21
680,861	41,13
681,052	-12,12
681,242	65,71
681,432	-75,6
681,622	16,55
681,813	32,94
682,003	69,8
682,193	34,99
682,383	16,55
682,573	-22,36
682,764	-51,03
682,954	32,94
683,144	-71,51
683,334	-46,93
683,524	-10,07
683,714	-8,02
683,904	49,32
684,094	-30,55
684,284	24,75
684,474	-30,55
684,664	-22,36
684,854	-3,93
685,044	10,41
685,234	39,08
685,424	-34,64
685,614	-46,93
685,804	57,51
685,994	24,75
686,184	-16,21
686,374	-8,02
686,564	-57,17
686,753	-55,12
686,943	59,56
687,133	34,99
687,323	57,51
687,513	-26,45
687,702	73,9
687,892	37,03
688,082	49,32
688,272	-16,21
688,461	88,23
688,651	-22,36
688,841	-46,93
689,03	-57,17
689,22	104,62
689,41	51,37
689,599	20,65
689,789	-16,21
689,979	10,41
690,168	-16,21
690,358	37,03
690,547	-8,02
690,737	32,94
690,926	43,18
691,116	16,55
691,305	-1,88
691,495	-12,12
691,684	-26,45
691,874	16,55
692,063	41,13
692,252	49,32
692,442	53,42
692,631	4,27
692,82	-18,26
693,01	8,36
693,199	2,22
693,388	-1,88
693,578	4,27
693,767	-61,27
693,956	-30,55
694,146	32,94
694,335	-44,88
694,524	-20,31
694,713	-1,88
694,902	-8,02
695,092	-5,97
695,281	-22,36
695,47	43,18
695,659	-16,21
695,848	-42,84
696,037	0,17
696,226	12,46
696,415	-5,97
696,604	4,27
696,793	-3,93
696,982	49,32
697,171	-18,26
697,36	2,22
697,549	8,36
697,738	-20,31
697,927	-8,02
698,116	-5,97
698,305	4,27
698,494	26,79
698,683	82,09
698,872	-14,17
699,061	18,6
699,25	-57,17
699,438	30,89
699,627	32,94
699,816	-30,55
700,005	-38,74
700,193	24,75
700,382	41,13
700,571	22,7
700,76	43,18
700,948	37,03
701,137	24,75
701,326	123,05
701,514	57,51
701,703	12,46
701,892	6,31
702,08	-24,4
702,269	-5,97
702,457	61,61
702,646	4,27
702,834	-48,98
703,023	30,89
703,212	65,71
703,4	34,99
703,589	22,7
703,777	6,31
703,965	75,95
704,154	0,17
704,342	-22,36
704,531	-14,17
704,719	26,79
704,907	-65,36
705,096	-59,22
705,284	14,51
705,472	37,03
705,661	-71,51
705,849	59,56
706,037	12,46
706,226	30,89
706,414	8,36
706,602	18,6
706,79	16,55
706,979	-28,5
707,167	22,7
707,355	-65,36
707,543	-20,31
707,731	-20,31
707,919	-28,5
708,107	43,18
708,296	-40,79
708,484	-46,93
708,672	90,28
708,86	12,46
709,048	-1,88
709,236	-77,65
709,424	-65,36
709,612	24,75
709,8	-40,79
709,988	-16,21
710,176	-20,31
710,364	51,37
710,551	-98,13
710,739	59,56
710,927	16,55
711,115	-40,79
711,303	20,65
711,491	10,41
711,679	-26,45
711,866	-38,74
712,054	37,03
712,242	53,42
712,43	47,27
712,617	-24,4
712,805	34,99
712,993	10,41
713,181	-71,51
713,368	-104,28
713,556	-22,36
713,744	-12,12
713,931	6,31
714,119	98,47
714,306	-40,79
714,494	0,17
714,682	41,13
714,869	-8,02
715,057	57,51
715,244	24,75
715,432	16,55
715,619	-3,93
715,807	0,17
715,994	-1,88
716,182	-18,26
716,369	14,51
716,556	8,36
716,744	-1,88
716,931	0,17
717,119	57,51
717,306	41,13
717,493	-28,5
717,681	-40,79
717,868	24,75
718,055	6,31
718,242	26,79
718,43	18,6
718,617	59,56
718,804	32,94
718,991	-32,6
719,179	24,75
719,366	-44,88
719,553	12,46
719,74	90,28
719,927	2,22
720,114	59,56
720,301	-24,4
720,488	77,99
720,676	-12,12
720,863	-30,55
721,05	26,79
721,237	28,84
721,424	57,51
721,611	-24,4
721,798	49,32
721,985	-12,12
722,172	-73,56
722,358	34,99
722,545	49,32
722,732	-8,02
722,919	37,03
723,106	-5,97
723,293	-44,88
723,48	24,75
723,667	-77,65
723,853	32,94
724,04	12,46
724,227	0,17
724,414	-48,98
724,6	2,22
724,787	-38,74
724,974	69,8
725,161	12,46
725,347	37,03
725,534	12,46
725,72	-18,26
725,907	-10,07
726,094	49,32
726,28	-30,55
726,467	73,9
726,653	-61,27
726,84	49,32
727,027	-16,21
727,213	-34,64
727,4	-10,07
727,586	-40,79
727,773	30,89
727,959	4,27
728,145	34,99
728,332	-63,32
728,518	16,55
728,705	-48,98
728,891	37,03
729,077	12,46
729,264	24,75
729,45	41,13
729,636	-24,4
729,823	2,22
730,009	39,08
730,195	10,41
730,382	2,22
730,568	73,9
730,754	4,27
730,94	-3,93
731,126	24,75
731,313	-104,28
731,499	49,32
731,685	49,32
731,871	-38,74
732,057	10,41
732,243	-32,6
732,429	16,55
732,615	0,17
732,801	-14,17
732,987	-26,45
733,173	-32,6
733,359	34,99
733,545	90,28
733,731	45,23
733,917	28,84
734,103	82,09
734,289	18,6
734,475	4,27
734,661	22,7
734,847	8,36
735,033	6,31
735,219	-3,93
735,404	26,79
735,59	-26,45
735,776	73,9
735,962	-34,64
736,148	90,28
736,333	-38,74
736,519	24,75
736,705	32,94
736,89	24,75
737,076	-46,93
737,262	0,17
737,447	-40,79
737,633	-46,93
737,819	-48,98
738,004	8,36
738,19	-26,45
738,375	24,75
738,561	57,51
738,747	-8,02
738,932	10,41
739,118	8,36
739,303	37,03
739,489	94,38
739,674	69,8
739,859	-20,31
740,045	-26,45
740,23	37,03
740,416	-14,17
740,601	45,23
740,786	-63,32
740,972	32,94
741,157	92,33
741,342	-65,36
741,528	-3,93
741,713	106,67
741,898	-22,36
742,084	-32,6
742,269	-44,88
742,454	18,6
742,639	-20,31
742,824	8,36
743,01	18,6
743,195	16,55
743,38	12,46
743,565	4,27
743,75	-94,04
743,935	24,75
744,12	-5,97
744,305	8,36
744,49	37,03
744,675	8,36
744,86	49,32
745,045	-46,93
745,23	49,32
745,415	49,32
745,6	45,23
745,785	-16,21
745,97	4,27
746,155	69,8
746,34	10,41
746,525	26,79
746,71	37,03
746,895	4,27
747,079	-16,21
747,264	-22,36
747,449	34,99
747,634	-3,93
747,819	20,65
748,003	37,03
748,188	-28,5
748,373	-8,02
748,557	37,03
748,742	16,55
748,927	20,65
749,111	20,65
749,296	0,17
749,481	-32,6
749,665	2,22
749,85	-28,5
750,034	-10,07
750,219	8,36
750,404	32,94
750,588	-44,88
750,773	-1,88
750,957	24,75
751,141	-30,55
751,326	24,75
751,51	-26,45
751,695	-12,12
751,879	-20,31
752,064	-12,12
752,248	30,89
752,432	-40,79
752,617	41,13
752,801	2,22
752,985	-46,93
753,17	0,17
753,354	-24,4
753,538	-18,26
753,722	43,18
753,907	-24,4
754,091	-5,97
754,275	8,36
754,459	-40,79
754,643	-48,98
754,828	-30,55
755,012	55,47
755,196	-16,21
755,38	16,55
755,564	-51,03
755,748	8,36
755,932	10,41
756,116	-65,36
756,3	-10,07
756,484	43,18
756,668	-8,02
756,852	-26,45
757,036	0,17
757,22	0,17
757,404	65,71
757,588	45,23
757,772	4,27
757,956	65,71
758,14	-12,12
758,323	41,13
758,507	-16,21
758,691	16,55
758,875	-12,12
759,059	34,99
759,242	-57,17
759,426	-34,64
759,61	10,41
759,794	59,56
759,977	-57,17
760,161	32,94
760,345	-20,31
760,528	65,71
760,712	8,36
760,895	18,6
761,079	-98,13
761,263	39,08
761,446	-61,27
761,63	75,95
761,813	-16,21
761,997	-16,21
762,18	10,41
762,364	32,94
762,547	6,31
762,731	18,6
762,914	22,7
763,098	0,17
763,281	-69,46
763,464	-40,79
763,648	20,65
763,831	-22,36
764,015	-22,36
764,198	-20,31
764,381	32,94
764,564	80,04
764,748	-3,93
764,931	34,99
765,114	8,36
765,297	55,47
765,481	28,84
765,664	-12,12
765,847	-53,08
766,03	63,66
766,213	-16,21
766,397	0,17
766,58	-30,55
766,763	34,99
766,946	-55,12
767,129	49,32
767,312	-10,07
767,495	0,17
767,678	41,13
767,861	49,32
768,044	-65,36
768,227	37,03
768,41	-8,02
768,593	-14,17
768,776	28,84
768,959	82,09
769,142	-16,21
769,324	20,65
769,507	88,23
769,69	51,37
769,873	-3,93
770,056	55,47
770,239	-20,31
770,421	61,61
770,604	-28,5
770,787	26,79
770,97	67,75
771,152	-46,93
771,335	-8,02
771,518	51,37
771,7	-16,21
771,883	-22,36
772,066	96,43
772,248	-12,12
772,431	-24,4
772,613	-55,12
772,796	-40,79
772,978	43,18
773,161	-30,55
773,343	-12,12
773,526	12,46
773,708	-63,32
773,891	8,36
774,073	67,75
774,256	-69,46
774,438	4,27
774,621	24,75
774,803	14,51
774,985	-16,21
775,168	43,18
775,35	-16,21
775,532	63,66
775,715	8,36
775,897	-28,5
776,079	-38,74
776,261	53,42
776,444	-8,02
776,626	-12,12
776,808	53,42
776,99	55,47
777,173	26,79
777,355	37,03
777,537	-20,31
777,719	4,27
777,901	-26,45
778,083	-24,4
778,265	41,13
778,447	2,22
778,629	10,41
778,811	47,27
778,993	-10,07
779,175	73,9
779,357	41,13
779,539	2,22
779,721	-8,02
779,903	84,14
780,085	-1,88
780,267	22,7
780,449	-16,21
780,631	106,67
780,812	-48,98
780,994	41,13
781,176	2,22
781,358	22,7
781,54	-16,21
781,721	12,46
781,903	-24,4
782,085	6,31
782,267	65,71
782,448	8,36
782,63	-36,69
782,812	10,41
782,993	-3,93
783,175	18,6
783,357	26,79
783,538	16,55
783,72	37,03
783,901	-44,88
784,083	-40,79
784,264	-55,12
784,446	-3,93
784,627	-32,6
784,809	41,13
784,99	0,17
785,172	-10,07
785,353	10,41
785,535	-53,08
785,716	16,55
785,897	-55,12
786,079	-24,4
786,26	71,85
786,441	45,23
786,623	-77,65
786,804	-30,55
786,985	61,61
787,167	4,27
787,348	-5,97
787,529	-44,88
787,71	6,31
787,891	-38,74
788,073	-26,45
788,254	49,32
788,435	12,46
788,616	37,03
788,797	0,17
788,978	-18,26
789,159	49,32
789,34	16,55
789,522	-16,21
789,703	-5,97
789,884	-79,7
790,065	20,65
790,246	-46,93
790,427	18,6
790,607	71,85
790,788	-14,17
790,969	-3,93
791,15	18,6
791,331	-63,32
791,512	-5,97
791,693	-32,6
791,874	47,27
792,054	-3,93
792,235	-3,93
792,416	51,37
792,597	18,6
792,778	-46,93
792,958	-36,69
793,139	88,23
793,32	14,51
793,5	-48,98
793,681	86,19
793,862	86,19
794,042	34,99
794,223	-38,74
794,404	24,75
794,584	0,17
794,765	0,17
794,945	12,46
795,126	22,7
795,306	37,03
795,487	45,23
795,667	65,71
795,848	-5,97
796,028	-8,02
796,209	63,66
796,389	16,55
796,57	-20,31
796,75	16,55
796,93	-26,45
797,111	53,42
797,291	-46,93
797,471	-65,36
797,652	-12,12
797,832	49,32
798,012	4,27
798,192	-57,17
798,373	-73,56
798,553	-8,02
798,733	-26,45
798,913	-8,02
799,093	-85,84
799,274	-46,93
799,454	16,55
799,634	4,27
799,814	67,75
799,994	6,31
800,174	12,46
800,354	51,37
800,534	-22,36
800,714	-85,84
800,894	-20,31
801,074	39,08
801,254	37,03
801,434	-10,07
801,614	6,31
801,794	-18,26
801,974	12,46
802,154	65,71
802,334	-14,17
802,514	20,65
802,693	43,18
802,873	28,84
803,053	18,6
803,233	-67,41
803,413	26,79
803,592	-30,55
803,772	-57,17
803,952	8,36
804,131	-55,12
804,311	-36,69
804,491	34,99
804,67	-24,4
804,85	-5,97
805,03	16,55
805,209	10,41
805,389	2,22
805,568	-10,07
805,748	-16,21
805,928	28,84
806,107	-38,74
806,287	-22,36
806,466	32,94
806,646	24,75
806,825	-20,31
807,004	-22,36
807,184	-26,45
807,363	37,03
807,543	-55,12
807,722	18,6
807,901	8,36
808,081	-69,46
808,26	2,22
808,439	-5,97
808,619	24,75
808,798	34,99
808,977	-65,36
809,156	-5,97
809,336	-100,18
809,515	20,65
809,694	-1,88
809,873	-40,79
810,052	-22,36
810,231	82,09
810,411	26,79
810,59	-18,26
810,769	28,84
810,948	-16,21
811,127	2,22
811,306	-3,93
811,485	-16,21
811,664	57,51
811,843	39,08
812,022	-48,98
812,201	57,51
812,38	18,6
812,559	-81,75
812,737	0,17
812,916	32,94
813,095	18,6
813,274	-55,12
813,453	-65,36
813,632	-10,07
813,811	59,56
813,989	-42,84
814,168	32,94
814,347	14,51
814,526	-16,21
814,704	-32,6
814,883	53,42
815,062	28,84
815,24	28,84
815,419	-8,02
815,598	18,6
815,776	-14,17
815,955	-12,12
816,133	59,56
816,312	18,6
816,49	26,79
816,669	2,22
816,847	-1,88
817,026	-57,17
817,204	65,71
817,383	-16,21
817,561	0,17
817,74	43,18
817,918	-1,88
818,097	-14,17
818,275	75,95
818,453	65,71
818,632	-57,17
818,81	24,75
818,988	57,51
819,167	32,94
819,345	-51,03
819,523	0,17
819,701	-44,88
819,879	41,13
820,058	-32,6
820,236	65,71
820,414	86,19
820,592	-42,84
820,77	41,13
820,948	-10,07
821,127	16,55
821,305	-24,4
821,483	-46,93
821,661	59,56
821,839	-5,97
822,017	63,66
822,195	6,31
822,373	57,51
822,551	-53,08
822,729	-8,02
822,907	6,31
823,085	24,75
823,262	90,28
823,44	18,6
823,618	-26,45
823,796	-5,97
823,974	41,13
824,152	-14,17
824,329	26,79
824,507	32,94
824,685	12,46
824,863	-67,41
825,04	12,46
825,218	125,1
825,396	-22,36
825,574	43,18
825,751	-3,93
825,929	39,08
826,107	43,18
826,284	20,65
826,462	34,99
826,639	4,27
826,817	26,79
826,994	-20,31
827,172	-53,08
827,349	-24,4
827,527	67,75
827,704	6,31
827,882	-14,17
828,059	73,9
828,237	-57,17
828,414	-30,55
828,591	26,79
828,769	71,85
828,946	-57,17
829,124	45,23
829,301	-22,36
829,478	41,13
829,655	4,27
829,833	26,79
830,01	8,36
830,187	65,71
830,364	-5,97
830,542	69,8
830,719	14,51
830,896	16,55
831,073	-46,93
831,25	37,03
831,427	14,51
831,604	-3,93
831,782	63,66
831,959	8,36
832,136	43,18
832,313	4,27
832,49	-44,88
832,667	-16,21
832,844	0,17
833,021	26,79
833,198	26,79
833,374	-85,84
833,551	12,46
833,728	8,36
833,905	26,79
834,082	51,37
834,259	8,36
834,436	28,84
834,612	16,55
834,789	32,94
834,966	-36,69
835,143	12,46
835,319	37,03
835,496	-46,93
835,673	-40,79
835,85	59,56
836,026	32,94
836,203	-32,6
836,38	-14,17
836,556	-20,31
836,733	-46,93
836,909	57,51
837,086	8,36
837,262	2,22
837,439	26,79
837,616	92,33
837,792	22,7
837,968	-16,21
838,145	-18,26
838,321	-71,51
838,498	28,84
838,674	71,85
838,851	4,27
839,027	-46,93
839,203	12,46
839,38	-48,98
839,556	-59,22
839,732	-20,31
839,909	-8,02
840,085	55,47
840,261	12,46
840,437	75,95
840,614	-14,17
840,79	16,55
840,966	37,03
841,142	-44,88
841,318	24,75
841,494	75,95
841,671	-53,08
841,847	-44,88
842,023	102,57
842,199	-5,97
842,375	-57,17
842,551	-8,02
842,727	6,31
842,903	-18,26
843,079	-16,21
843,255	6,31
843,431	-8,02
843,607	-5,97
843,783	2,22
843,959	-20,31
844,134	-24,4
844,31	-5,97
844,486	8,36
844,662	51,37
844,838	43,18
845,013	-81,75
845,189	-16,21
845,365	-8,02
845,541	-57,17
845,716	-18,26
845,892	-32,6
846,068	37,03
846,244	4,27
846,419	-51,03
846,595	-8,02
846,77	24,75
846,946	59,56
847,122	-42,84
847,297	-28,5
847,473	-5,97
847,648	55,47
847,824	53,42
847,999	53,42
848,175	-14,17
848,35	-30,55
848,526	24,75
848,701	12,46
848,876	-12,12
849,052	-32,6
849,227	49,32
849,403	-53,08
849,578	-38,74
849,753	-46,93
849,929	16,55
850,104	0,17
850,279	-30,55
850,454	22,7
850,63	53,42
850,805	-40,79
850,98	30,89
851,155	-75,6
851,33	-5,97
851,505	-22,36
851,681	22,7
851,856	-24,4
852,031	24,75
852,206	-40,79
852,381	22,7
852,556	-3,93
852,731	26,79
852,906	-22,36
853,081	20,65
853,256	49,32
853,431	-24,4
853,606	-22,36
853,781	32,94
853,956	32,94
854,131	73,9
854,305	61,61
854,48	-20,31
854,655	-5,97
854,83	90,28
855,005	-32,6
855,18	8,36
855,354	-38,74
855,529	0,17
855,704	-16,21
855,879	51,37
856,053	-32,6
856,228	41,13
856,403	39,08
856,577	49,32
856,752	-1,88
856,926	18,6
857,101	-5,97
857,276	-12,12
857,45	-16,21
857,625	0,17
857,799	-36,69
857,974	37,03
858,148	-34,64
858,323	4,27
858,497	34,99
858,672	73,9
858,846	32,94
859,02	-16,21
859,195	24,75
859,369	32,94
859,543	37,03
859,718	18,6
859,892	-5,97
860,066	51,37
860,241	-8,02
860,415	-16,21
860,589	-48,98
860,763	49,32
860,938	24,75
861,112	28,84
861,286	20,65
861,46	12,46
861,634	-24,4
861,808	-5,97
861,982	18,6
862,157	-42,84
862,331	-3,93
862,505	-26,45
862,679	12,46
862,853	-8,02
863,027	30,89
863,201	16,55
863,375	-85,84
863,549	-30,55
863,722	-1,88
863,896	-16,21
864,07	-24,4
864,244	20,65
864,418	20,65
864,592	41,13
864,766	26,79
864,939	16,55
865,113	4,27
865,287	-16,21
865,461	-26,45
865,634	47,27
865,808	0,17
865,982	-12,12
866,156	-32,6
866,329	-61,27
866,503	61,61
866,676	8,36
866,85	4,27
867,024	-16,21
867,197	-12,12
867,371	-32,6
867,544	-8,02
867,718	-18,26
867,891	18,6
868,065	28,84
868,238	0,17
868,412	32,94
868,585	-75,6
868,759	4,27
868,932	24,75
869,105	39,08
869,279	-59,22
869,452	-3,93
869,625	-24,4
869,799	-14,17
869,972	20,65
870,145	4,27
870,319	20,65
870,492	37,03
870,665	80,04
870,838	2,22
871,011	10,41
871,185	-30,55
871,358	-10,07
871,531	24,75
871,704	51,37
871,877	28,84
872,05	32,94
872,223	18,6
872,396	55,47
872,569	-1,88
872,742	8,36
872,915	2,22
873,088	32,94
873,261	4,27
873,434	-8,02
873,607	8,36
873,78	-8,02
873,953	67,75
874,126	22,7
874,299	-16,21
874,471	4,27
874,644	0,17
874,817	10,41
874,99	-20,31
875,163	-69,46
875,335	12,46
875,508	20,65
875,681	-57,17
875,853	20,65
876,026	20,65
876,199	-24,4
876,371	-8,02
876,544	-28,5
876,717	2,22
876,889	6,31
877,062	14,51
877,234	20,65
877,407	-28,5
877,579	43,18
877,752	8,36
877,924	12,46
878,097	90,28
878,269	-14,17
878,442	-28,5
878,614	10,41
878,786	41,13
878,959	82,09
879,131	-14,17
879,303	20,65
879,476	-12,12
879,648	-1,88
879,82	55,47
879,993	-22,36
880,165	-8,02
880,337	-22,36
880,509	-48,98
880,681	53,42
880,854	-5,97
881,026	-22,36
881,198	45,23
881,37	-12,12
881,542	0,17
881,714	0,17
881,886	4,27
882,058	-1,88
882,23	2,22
882,402	4,27
882,574	-55,12
882,746	51,37
882,918	-32,6
883,09	-22,36
883,262	34,99
883,434	-16,21
883,606	-38,74
883,778	-20,31
883,95	10,41
884,122	-126,8
884,293	-24,4
884,465	8,36
884,637	-18,26
884,809	22,7
884,98	8,36
885,152	-28,5
885,324	34,99
885,496	26,79
885,667	-20,31
885,839	-24,4
886,011	16,55
886,182	-65,36
886,354	-89,94
886,525	0,17
886,697	28,84
886,869	-20,31
887,04	-59,22
887,212	0,17
887,383	67,75
887,555	-61,27
887,726	-14,17
887,897	-5,97
888,069	0,17
888,24	53,42
888,412	37,03
888,583	-73,56
888,754	20,65
888,926	-10,07
889,097	57,51
889,268	10,41
889,44	-8,02
889,611	-28,5
889,782	4,27
889,953	-24,4
890,125	-1,88
890,296	32,94
890,467	-8,02
890,638	-1,88
890,809	-63,32
890,98	69,8
891,151	2,22
891,323	20,65
891,494	16,55
891,665	37,03
891,836	-28,5
892,007	26,79
892,178	-10,07
892,349	57,51
892,52	22,7
892,691	-28,5
892,862	112,81
893,032	-16,21
893,203	45,23
893,374	-22,36
893,545	20,65
893,716	24,75
893,887	-18,26
894,057	-38,74
894,228	39,08
894,399	6,31
894,57	2,22
894,74	-40,79
894,911	-5,97
895,082	32,94
895,253	57,51
895,423	2,22
895,594	110,76
895,764	-12,12
895,935	0,17
896,106	-14,17
896,276	41,13
896,447	4,27
896,617	71,85
896,788	-5,97
896,958	-24,4
897,129	-20,31
897,299	53,42
897,47	32,94
897,64	-46,93
897,81	-48,98
897,981	-26,45
898,151	65,71
898,322	0,17
898,492	37,03
898,662	-14,17
898,832	34,99
899,003	-48,98
899,173	57,51
899,343	18,6
899,513	39,08
