Data from filtre430_USB4F104151__1__11-51-40-441.txt Node

Date: Wed Apr 15 11:51:40 EDT 2026
User: LaboPhy
Spectrometer: USB4F10415
Trigger mode: 4
Integration Time (sec): 2,500000E-2
Scans to average: 1
Electric dark correction enabled: true
Nonlinearity correction enabled: false
Boxcar width: 0
XAxis mode: Wavelengths
Number of Pixels in Spectrum: 3648
>>>>>Begin Spectral Data<<<<<
178,204	-93,69
178,424	-93,69
178,644	-93,69
178,864	-110,08
179,084	-83,45
179,304	31,23
179,524	-19,97
179,744	-28,16
179,964	74,24
180,184	23,04
180,404	37,38
180,624	-75,26
180,844	20,99
181,064	-22,02
181,283	41,47
181,503	-71,17
181,723	-11,78
181,943	-34,3
182,163	78,33
182,383	80,38
182,602	18,94
182,822	70,14
183,042	78,33
183,262	23,04
183,482	-3,58
183,701	43,52
183,921	57,86
184,141	43,52
184,361	139,77
184,58	-22,02
184,8	98,81
185,02	-3,58
185,239	-19,97
185,459	20,99
185,679	14,85
185,898	-11,78
186,118	41,47
186,338	-48,64
186,557	2,56
186,777	-13,82
186,997	4,61
187,216	-3,58
187,436	4,61
187,655	80,38
187,875	33,28
188,095	111,1
188,314	119,29
188,534	150,01
188,753	27,14
188,973	0,51
189,192	78,33
189,412	-3,58
189,631	39,42
189,851	-3,58
190,07	61,95
190,29	51,71
190,509	37,38
190,729	18,94
190,948	82,43
191,168	119,29
191,387	74,24
191,607	-13,82
191,826	-13,82
192,045	33,28
192,265	25,09
192,484	57,86
192,704	-17,92
192,923	-34,3
193,142	119,29
193,362	82,43
193,581	78,33
193,8	47,62
194,02	51,71
194,239	84,48
194,458	49,66
194,678	53,76
194,897	-11,78
195,116	-3,58
195,335	-19,97
195,555	37,38
195,774	55,81
195,993	25,09
196,212	20,99
196,432	-26,11
196,651	25,09
196,87	37,38
197,089	61,95
197,308	-26,11
197,528	35,33
197,747	37,38
197,966	47,62
198,185	113,15
198,404	-11,78
198,623	41,47
198,842	78,33
199,062	-1,54
199,281	86,53
199,5	-5,63
199,719	39,42
199,938	49,66
200,157	-3,58
200,376	64
200,595	88,57
200,814	96,77
201,033	35,33
201,252	86,53
201,471	80,38
201,69	43,52
201,909	27,14
202,128	20,99
202,347	-28,16
202,566	14,85
202,785	2,56
203,004	33,28
203,223	98,81
203,442	-5,63
203,661	-5,63
203,879	82,43
204,098	45,57
204,317	37,38
204,536	47,62
204,755	90,62
204,974	104,96
205,193	27,14
205,411	78,33
205,63	47,62
205,849	68,09
206,068	-48,64
206,287	14,85
206,505	78,33
206,724	39,42
206,943	37,38
207,162	6,66
207,381	43,52
207,599	72,19
207,818	78,33
208,037	37,38
208,255	57,86
208,474	37,38
208,693	39,42
208,911	-13,82
209,13	-36,35
209,349	70,14
209,567	37,38
209,786	127,49
210,005	64
210,223	55,81
210,442	-56,83
210,661	49,66
210,879	47,62
211,098	-1,54
211,316	6,66
211,535	55,81
211,753	45,57
211,972	4,61
212,191	61,95
212,409	41,47
212,628	25,09
212,846	61,95
213,065	-1,54
213,283	72,19
213,502	-1,54
213,72	-3,58
213,938	66,05
214,157	-32,26
214,375	4,61
214,594	-17,92
214,812	115,2
215,031	20,99
215,249	18,94
215,467	37,38
215,686	-36,35
215,904	31,23
216,122	-1,54
216,341	57,86
216,559	96,77
216,778	104,96
216,996	29,18
217,214	45,57
217,432	20,99
217,651	6,66
217,869	-22,02
218,087	96,77
218,306	-30,21
218,524	74,24
218,742	45,57
218,96	39,42
219,179	-13,82
219,397	49,66
219,615	55,81
219,833	-7,68
220,051	-17,92
220,27	121,34
220,488	90,62
220,706	68,09
220,924	20,99
221,142	51,71
221,36	70,14
221,578	41,47
221,796	94,72
222,015	102,91
222,233	6,66
222,451	18,94
222,669	84,48
222,887	72,19
223,105	18,94
223,323	59,9
223,541	45,57
223,759	47,62
223,977	78,33
224,195	80,38
224,413	4,61
224,631	57,86
224,849	-28,16
225,067	111,1
225,285	-7,68
225,503	-3,58
225,721	-30,21
225,939	-60,93
226,157	80,38
226,375	129,53
226,592	129,53
226,81	90,62
227,028	51,71
227,246	88,57
227,464	109,05
227,682	94,72
227,9	20,99
228,117	12,8
228,335	53,76
228,553	14,85
228,771	8,7
228,989	41,47
229,206	76,29
229,424	0,51
229,642	12,8
229,86	-36,35
230,077	23,04
230,295	70,14
230,513	78,33
230,731	45,57
230,948	55,81
231,166	84,48
231,384	18,94
231,601	-7,68
231,819	0,51
232,037	86,53
232,254	35,33
232,472	20,99
232,689	31,23
232,907	109,05
233,125	-17,92
233,342	29,18
233,56	0,51
233,777	94,72
233,995	39,42
234,213	102,91
234,43	-11,78
234,648	-46,59
234,865	64
235,083	78,33
235,3	-24,06
235,518	-11,78
235,735	61,95
235,953	104,96
236,17	-22,02
236,388	6,66
236,605	43,52
236,822	88,57
237,04	33,28
237,257	0,51
237,475	66,05
237,692	55,81
237,909	25,09
238,127	39,42
238,344	61,95
238,562	8,7
238,779	-1,54
238,996	-15,87
239,214	59,9
239,431	94,72
239,648	2,56
239,865	92,67
240,083	23,04
240,3	88,57
240,517	-28,16
240,735	80,38
240,952	-24,06
241,169	86,53
241,386	53,76
241,603	20,99
241,821	-50,69
242,038	23,04
242,255	10,75
242,472	49,66
242,689	80,38
242,907	96,77
243,124	37,38
243,341	45,57
243,558	12,8
243,775	-26,11
243,992	12,8
244,209	66,05
244,426	102,91
244,643	23,04
244,86	-5,63
245,078	51,71
245,295	78,33
245,512	-1,54
245,729	4,61
245,946	6,66
246,163	49,66
246,38	78,33
246,597	59,9
246,814	53,76
247,031	10,75
247,248	12,8
247,464	-1,54
247,681	-26,11
247,898	74,24
248,115	6,66
248,332	53,76
248,549	59,9
248,766	82,43
248,983	59,9
249,2	31,23
249,417	20,99
249,633	27,14
249,85	25,09
250,067	31,23
250,284	37,38
250,501	20,99
250,717	143,87
250,934	66,05
251,151	20,99
251,368	0,51
251,585	-11,78
251,801	29,18
252,018	96,77
252,235	88,57
252,451	-83,45
252,668	64
252,885	49,66
253,102	53,76
253,318	-7,68
253,535	6,66
253,752	-44,54
253,968	96,77
254,185	-28,16
254,401	57,86
254,618	8,7
254,835	-42,5
255,051	76,29
255,268	4,61
255,484	70,14
255,701	-3,58
255,917	45,57
256,134	4,61
256,351	47,62
256,567	-17,92
256,784	33,28
257	70,14
257,217	127,49
257,433	47,62
257,65	68,09
257,866	45,57
258,082	4,61
258,299	43,52
258,515	31,23
258,732	-32,26
258,948	-17,92
259,165	111,1
259,381	82,43
259,597	100,86
259,814	90,62
260,03	78,33
260,246	51,71
260,463	90,62
260,679	72,19
260,895	57,86
261,112	51,71
261,328	-50,69
261,544	78,33
261,761	88,57
261,977	16,9
262,193	4,61
262,409	49,66
262,626	-22,02
262,842	57,86
263,058	59,9
263,274	96,77
263,49	41,47
263,707	98,81
263,923	-9,73
264,139	-17,92
264,355	92,67
264,571	119,29
264,787	35,33
265,004	45,57
265,22	-17,92
265,436	-50,69
265,652	33,28
265,868	37,38
266,084	49,66
266,3	-19,97
266,516	14,85
266,732	-11,78
266,948	78,33
267,164	45,57
267,38	10,75
267,596	6,66
267,812	78,33
268,028	4,61
268,244	14,85
268,46	64
268,676	70,14
268,892	53,76
269,108	20,99
269,324	-1,54
269,54	20,99
269,756	-34,3
269,972	47,62
270,188	-3,58
270,403	-28,16
270,619	88,57
270,835	55,81
271,051	59,9
271,267	8,7
271,483	16,9
271,698	109,05
271,914	51,71
272,13	84,48
272,346	47,62
272,562	53,76
272,777	37,38
272,993	-22,02
273,209	-7,68
273,425	76,29
273,64	29,18
273,856	29,18
274,072	64
274,287	-17,92
274,503	88,57
274,719	-7,68
274,934	-3,58
275,15	-38,4
275,366	-22,02
275,581	-44,54
275,797	27,14
276,012	20,99
276,228	6,66
276,444	-36,35
276,659	59,9
276,875	-26,11
277,09	20,99
277,306	-1,54
277,521	86,53
277,737	53,76
277,952	61,95
278,168	16,9
278,383	33,28
278,599	55,81
278,814	127,49
279,03	45,57
279,245	43,52
279,461	-9,73
279,676	82,43
279,892	-3,58
280,107	-11,78
280,322	74,24
280,538	76,29
280,753	0,51
280,969	111,1
281,184	8,7
281,399	53,76
281,615	18,94
281,83	53,76
282,045	27,14
282,26	4,61
282,476	-1,54
282,691	57,86
282,906	-34,3
283,122	25,09
283,337	12,8
283,552	127,49
283,767	64
283,983	64
284,198	23,04
284,413	78,33
284,628	-60,93
284,843	-44,54
285,058	16,9
285,274	53,76
285,489	-11,78
285,704	72,19
285,919	-11,78
286,134	43,52
286,349	14,85
286,564	64
286,779	107,01
286,995	27,14
287,21	-3,58
287,425	-38,4
287,64	18,94
287,855	70,14
288,07	-32,26
288,285	100,86
288,5	29,18
288,715	37,38
288,93	45,57
289,145	8,7
289,36	51,71
289,575	45,57
289,79	39,42
290,004	-3,58
290,219	53,76
290,434	51,71
290,649	-42,5
290,864	-34,3
291,079	47,62
291,294	-11,78
291,509	86,53
291,724	29,18
291,938	16,9
292,153	78,33
292,368	61,95
292,583	4,61
292,798	74,24
293,012	-9,73
293,227	20,99
293,442	74,24
293,657	51,71
293,871	82,43
294,086	12,8
294,301	164,35
294,516	59,9
294,73	49,66
294,945	45,57
295,16	27,14
295,374	37,38
295,589	20,99
295,804	-11,78
296,018	47,62
296,233	41,47
296,447	94,72
296,662	102,91
296,877	45,57
297,091	31,23
297,306	14,85
297,52	45,57
297,735	53,76
297,949	-32,26
298,164	92,67
298,378	82,43
298,593	0,51
298,807	-3,58
299,022	55,81
299,236	14,85
299,451	23,04
299,665	-40,45
299,88	-32,26
300,094	23,04
300,309	-36,35
300,523	12,8
300,737	45,57
300,952	43,52
301,166	-7,68
301,381	76,29
301,595	143,87
301,809	-46,59
302,024	33,28
302,238	0,51
302,452	20,99
302,667	82,43
302,881	33,28
303,095	76,29
303,309	-3,58
303,524	18,94
303,738	-1,54
303,952	-5,63
304,166	41,47
304,381	59,9
304,595	72,19
304,809	57,86
305,023	-3,58
305,237	-19,97
305,452	-13,82
305,666	53,76
305,88	27,14
306,094	68,09
306,308	51,71
306,522	72,19
306,736	-19,97
306,95	23,04
307,164	-7,68
307,379	2,56
307,593	64
307,807	45,57
308,021	6,66
308,235	74,24
308,449	0,51
308,663	-36,35
308,877	111,1
309,091	33,28
309,305	76,29
309,519	66,05
309,733	154,11
309,947	14,85
310,161	143,87
310,374	41,47
310,588	111,1
310,802	-1,54
311,016	23,04
311,23	61,95
311,444	55,81
311,658	-83,45
311,872	16,9
312,085	23,04
312,299	4,61
312,513	4,61
312,727	-19,97
312,941	14,85
313,154	-105,98
313,368	84,48
313,582	37,38
313,796	64
314,009	53,76
314,223	68,09
314,437	-24,06
314,651	102,91
314,864	98,81
315,078	88,57
315,292	-24,06
315,505	-46,59
315,719	29,18
315,933	61,95
316,146	29,18
316,36	-34,3
316,573	70,14
316,787	51,71
317,001	109,05
317,214	-1,54
317,428	53,76
317,641	61,95
317,855	31,23
318,068	18,94
318,282	53,76
318,495	100,86
318,709	76,29
318,922	20,99
319,136	51,71
319,349	31,23
319,563	14,85
319,776	14,85
319,99	49,66
320,203	-5,63
320,417	82,43
320,63	53,76
320,843	47,62
321,057	68,09
321,27	45,57
321,483	53,76
321,697	39,42
321,91	25,09
322,124	27,14
322,337	39,42
322,55	51,71
322,763	4,61
322,977	-28,16
323,19	0,51
323,403	70,14
323,617	66,05
323,83	139,77
324,043	41,47
324,256	-17,92
324,469	-60,93
324,683	12,8
324,896	37,38
325,109	14,85
325,322	53,76
325,535	4,61
325,748	88,57
325,962	20,99
326,175	82,43
326,388	29,18
326,601	66,05
326,814	-3,58
327,027	-5,63
327,24	-1,54
327,453	-3,58
327,666	115,2
327,879	55,81
328,092	31,23
328,305	-42,5
328,518	53,76
328,731	64
328,944	-34,3
329,157	4,61
329,37	12,8
329,583	29,18
329,796	111,1
330,009	4,61
330,222	-50,69
330,435	70,14
330,648	16,9
330,861	-3,58
331,073	127,49
331,286	59,9
331,499	12,8
331,712	41,47
331,925	-28,16
332,138	55,81
332,35	31,23
332,563	-11,78
332,776	74,24
332,989	102,91
333,202	31,23
333,414	41,47
333,627	8,7
333,84	76,29
334,053	-11,78
334,265	10,75
334,478	-26,11
334,691	-3,58
334,903	72,19
335,116	2,56
335,329	53,76
335,541	41,47
335,754	45,57
335,966	16,9
336,179	70,14
336,392	2,56
336,604	29,18
336,817	33,28
337,029	49,66
337,242	29,18
337,454	76,29
337,667	20,99
337,88	98,81
338,092	-69,12
338,305	53,76
338,517	61,95
338,729	70,14
338,942	100,86
339,154	14,85
339,367	-22,02
339,579	16,9
339,792	-17,92
340,004	33,28
340,217	25,09
340,429	6,66
340,641	31,23
340,854	0,51
341,066	-9,73
341,278	84,48
341,491	55,81
341,703	41,47
341,915	4,61
342,128	66,05
342,34	12,8
342,552	-22,02
342,764	4,61
342,977	74,24
343,189	96,77
343,401	-1,54
343,613	74,24
343,826	14,85
344,038	-19,97
344,25	43,52
344,462	-11,78
344,674	47,62
344,886	35,33
345,099	-3,58
345,311	45,57
345,523	-11,78
345,735	-19,97
345,947	66,05
346,159	-28,16
346,371	59,9
346,583	35,33
346,795	70,14
347,007	-36,35
347,219	14,85
347,431	23,04
347,643	39,42
347,855	-50,69
348,067	-17,92
348,279	-32,26
348,491	-9,73
348,703	53,76
348,915	4,61
349,127	33,28
349,339	4,61
349,551	16,9
349,763	4,61
349,975	4,61
350,187	39,42
350,399	49,66
350,61	6,66
350,822	27,14
351,034	37,38
351,246	-24,06
351,458	-19,97
351,669	-7,68
351,881	39,42
352,093	-28,16
352,305	90,62
352,517	4,61
352,728	70,14
352,94	-19,97
353,152	18,94
353,363	43,52
353,575	51,71
353,787	61,95
353,999	39,42
354,21	143,87
354,422	16,9
354,633	18,94
354,845	43,52
355,057	-13,82
355,268	0,51
355,48	-13,82
355,692	64
355,903	12,8
356,115	25,09
356,326	-5,63
356,538	64
356,749	61,95
356,961	94,72
357,172	4,61
357,384	-7,68
357,595	45,57
357,807	78,33
358,018	0,51
358,23	45,57
358,441	64
358,653	127,49
358,864	10,75
359,075	53,76
359,287	12,8
359,498	45,57
359,709	66,05
359,921	55,81
360,132	35,33
360,344	57,86
360,555	-36,35
360,766	35,33
360,977	41,47
361,189	78,33
361,4	-19,97
361,611	86,53
361,823	88,57
362,034	-15,87
362,245	53,76
362,456	37,38
362,667	66,05
362,879	33,28
363,09	94,72
363,301	51,71
363,512	37,38
363,723	-19,97
363,935	-52,74
364,146	41,47
364,357	61,95
364,568	94,72
364,779	-7,68
364,99	33,28
365,201	74,24
365,412	47,62
365,623	53,76
365,834	31,23
366,045	-19,97
366,256	29,18
366,467	49,66
366,678	31,23
366,889	29,18
367,1	47,62
367,311	86,53
367,522	6,66
367,733	70,14
367,944	-11,78
368,155	100,86
368,366	35,33
368,577	39,42
368,788	12,8
368,999	37,38
369,209	41,47
369,42	82,43
369,631	33,28
369,842	84,48
370,053	23,04
370,264	66,05
370,474	-3,58
370,685	35,33
370,896	-48,64
371,107	111,1
371,317	111,1
371,528	68,09
371,739	-17,92
371,95	0,51
372,16	109,05
372,371	-7,68
372,582	45,57
372,792	53,76
373,003	23,04
373,214	41,47
373,424	49,66
373,635	-13,82
373,846	61,95
374,056	70,14
374,267	45,57
374,477	55,81
374,688	-26,11
374,898	8,7
375,109	31,23
375,319	59,9
375,53	53,76
375,74	53,76
375,951	-11,78
376,161	-1,54
376,372	102,91
376,582	57,86
376,793	0,51
377,003	4,61
377,214	31,23
377,424	45,57
377,635	-3,58
377,845	-19,97
378,055	121,34
378,266	20,99
378,476	-1,54
378,686	-1,54
378,897	68,09
379,107	10,75
379,317	64
379,528	-58,88
379,738	78,33
379,948	23,04
380,158	143,87
380,369	68,09
380,579	55,81
380,789	41,47
380,999	25,09
381,21	0,51
381,42	137,73
381,63	45,57
381,84	80,38
382,05	-5,63
382,261	47,62
382,471	29,18
382,681	-28,16
382,891	80,38
383,101	102,91
383,311	64
383,521	2,56
383,731	64
383,941	96,77
384,151	49,66
384,361	55,81
384,571	53,76
384,781	8,7
384,991	111,1
385,201	88,57
385,411	80,38
385,621	61,95
385,831	37,38
386,041	49,66
386,251	-11,78
386,461	29,18
386,671	51,71
386,881	86,53
387,091	31,23
387,301	29,18
387,511	96,77
387,72	78,33
387,93	37,38
388,14	14,85
388,35	-5,63
388,56	14,85
388,769	61,95
388,979	47,62
389,189	68,09
389,399	94,72
389,609	72,19
389,818	59,9
390,028	4,61
390,238	100,86
390,447	29,18
390,657	96,77
390,867	39,42
391,076	66,05
391,286	94,72
391,496	66,05
391,705	37,38
391,915	20,99
392,125	61,95
392,334	43,52
392,544	-15,87
392,753	25,09
392,963	39,42
393,172	33,28
393,382	-30,21
393,591	59,9
393,801	-46,59
394,01	125,44
394,22	119,29
394,429	66,05
394,639	-44,54
394,848	74,24
395,058	55,81
395,267	66,05
395,477	18,94
395,686	35,33
395,895	74,24
396,105	129,53
396,314	39,42
396,524	82,43
396,733	-15,87
396,942	78,33
397,152	66,05
397,361	53,76
397,57	18,94
397,78	47,62
397,989	45,57
398,198	113,15
398,407	0,51
398,617	20,99
398,826	115,2
399,035	86,53
399,244	86,53
399,453	-32,26
399,663	8,7
399,872	113,15
400,081	10,75
400,29	12,8
400,499	27,14
400,708	115,2
400,917	64
401,127	31,23
401,336	47,62
401,545	66,05
401,754	90,62
401,963	70,14
402,172	-17,92
402,381	-11,78
402,59	129,53
402,799	131,58
403,008	64
403,217	156,16
403,426	39,42
403,635	80,38
403,844	6,66
404,053	39,42
404,262	14,85
404,471	82,43
404,68	25,09
404,888	45,57
405,097	59,9
405,306	61,95
405,515	37,38
405,724	39,42
405,933	68,09
406,142	47,62
406,35	31,23
406,559	23,04
406,768	41,47
406,977	90,62
407,185	43,52
407,394	4,61
407,603	53,76
407,812	41,47
408,02	33,28
408,229	53,76
408,438	86,53
408,646	45,57
408,855	4,61
409,064	74,24
409,272	14,85
409,481	117,25
409,69	33,28
409,898	-17,92
410,107	70,14
410,315	111,1
410,524	23,04
410,733	43,52
410,941	-24,06
411,15	98,81
411,358	102,91
411,567	158,21
411,775	39,42
411,984	64
412,192	-26,11
412,401	74,24
412,609	33,28
412,818	70,14
413,026	76,29
413,234	66,05
413,443	37,38
413,651	64
413,86	39,42
414,068	64
414,276	70,14
414,485	70,14
414,693	104,96
414,901	92,67
415,11	70,14
415,318	137,73
415,526	94,72
415,734	31,23
415,943	64
416,151	145,92
416,359	57,86
416,567	143,87
416,776	70,14
416,984	113,15
417,192	172,54
417,4	100,86
417,608	80,38
417,817	92,67
418,025	156,16
418,233	111,1
418,441	135,68
418,649	102,91
418,857	88,57
419,065	160,25
419,273	53,76
419,481	162,3
419,689	100,86
419,897	141,82
420,105	104,96
420,313	102,91
420,521	139,77
420,729	135,68
420,937	104,96
421,145	119,29
421,353	125,44
421,561	152,06
421,769	113,15
421,977	53,76
422,185	84,48
422,393	107,01
422,601	158,21
422,809	133,63
423,017	154,11
423,224	166,4
423,432	233,98
423,64	154,11
423,848	252,41
424,056	238,08
424,263	250,36
424,471	221,69
424,679	373,24
424,887	340,47
425,094	375,29
425,302	383,48
425,51	442,87
425,718	586,23
425,925	500,22
426,133	508,41
426,341	637,43
426,548	678,39
426,756	829,94
426,964	807,41
427,171	1020,4
427,379	1196,53
427,586	1253,87
427,794	1503,72
428,001	1632,74
428,209	1911,27
428,417	2111,97
428,624	2503,13
428,832	2707,93
429,039	3103,18
429,247	3350,99
429,454	4057,54
429,662	4819,38
429,869	5394,86
430,076	6416,8
430,284	6801,82
430,491	8126,85
430,699	9462,13
430,906	10615,13
431,114	11962,7
431,321	13742,38
431,528	15331,61
431,736	17660,15
431,943	19884,24
432,15	21000,38
432,358	22757,54
432,565	25716,86
432,772	27088,99
432,979	29440,06
433,187	31295,52
433,394	32843,79
433,601	36057,05
433,808	37050,31
434,016	36681,68
434,223	39393,19
434,43	42315,64
434,637	41432,97
434,844	44181,34
435,052	45002,58
435,259	44242,78
435,466	44990,29
435,673	43773,8
435,88	46483,26
436,087	48236,32
436,294	47877,93
436,501	46907,19
436,708	46866,23
436,915	48129,83
437,122	48897,81
437,329	48172,83
437,537	49035,03
437,743	49868,55
437,95	48756,5
438,157	50073,35
438,364	51752,68
438,571	50626,3
438,778	50044,68
438,985	52606,69
439,192	50884,34
439,399	51893,99
439,606	50476,8
439,813	51486,45
440,02	53894,86
440,227	51474,16
440,433	49714,95
440,64	50423,55
440,847	48174,88
441,054	47025,97
441,261	47855,4
441,467	45363,02
441,674	44023,65
441,881	42360,7
442,088	39559,08
442,294	36521,94
442,501	34639,86
442,708	32124,95
442,914	29739,07
443,121	27500,64
443,328	24047,76
443,534	22911,14
443,741	19427,54
443,948	16464,13
444,154	15655,19
444,361	13482,29
444,568	11796,81
444,774	10115,43
444,981	8827,26
445,187	7936,39
445,394	7100,82
445,6	5974,44
445,807	5738,92
446,013	4782,52
446,22	4366,78
446,426	3711,43
446,633	3340,75
446,839	3031,51
447,046	2576,86
447,252	2423,26
447,459	2077,15
447,665	1860,07
447,871	1765,86
448,078	1712,61
448,284	1405,42
448,491	1288,68
448,697	1180,14
448,903	1049,07
449,11	926,19
449,316	842,23
449,522	864,75
449,728	713,21
449,935	696,82
450,141	604,66
450,347	604,66
450,553	483,83
450,76	475,64
450,966	436,73
451,172	418,3
451,378	494,07
451,584	459,26
451,791	356,86
451,997	348,67
452,203	283,13
452,409	299,52
452,615	279,04
452,821	246,27
453,027	254,46
453,233	377,34
453,44	229,88
453,646	203,26
453,852	219,64
454,058	199,16
454,264	201,21
454,47	217,6
454,676	170,49
454,882	197,12
455,088	172,54
455,294	96,77
455,5	121,34
455,705	150,01
455,911	119,29
456,117	121,34
456,323	184,83
456,529	156,16
456,735	127,49
456,941	88,57
457,147	143,87
457,352	94,72
457,558	129,53
457,764	129,53
457,97	104,96
458,176	184,83
458,381	123,39
458,587	57,86
458,793	55,81
458,999	135,68
459,204	100,86
459,41	127,49
459,616	113,15
459,821	94,72
460,027	111,1
460,233	174,59
460,438	133,63
460,644	55,81
460,85	88,57
461,055	113,15
461,261	78,33
461,466	100,86
461,672	78,33
461,878	37,38
462,083	78,33
462,289	70,14
462,494	66,05
462,7	94,72
462,905	90,62
463,111	92,67
463,316	49,66
463,522	61,95
463,727	57,86
463,932	33,28
464,138	82,43
464,343	68,09
464,549	80,38
464,754	-40,45
464,959	96,77
465,165	45,57
465,37	37,38
465,575	92,67
465,781	123,39
465,986	96,77
466,191	49,66
466,397	100,86
466,602	127,49
466,807	78,33
467,012	135,68
467,218	119,29
467,423	29,18
467,628	53,76
467,833	74,24
468,038	80,38
468,244	53,76
468,449	6,66
468,654	39,42
468,859	84,48
469,064	12,8
469,269	37,38
469,474	109,05
469,679	94,72
469,885	59,9
470,09	66,05
470,295	23,04
470,5	6,66
470,705	107,01
470,91	61,95
471,115	49,66
471,32	18,94
471,525	127,49
471,73	66,05
471,935	70,14
472,139	-3,58
472,344	61,95
472,549	45,57
472,754	55,81
472,959	47,62
473,164	35,33
473,369	78,33
473,574	119,29
473,778	121,34
473,983	61,95
474,188	84,48
474,393	6,66
474,598	107,01
474,802	68,09
475,007	57,86
475,212	39,42
475,417	10,75
475,621	20,99
475,826	12,8
476,031	70,14
476,235	-34,3
476,44	47,62
476,645	72,19
476,849	74,24
477,054	8,7
477,259	29,18
477,463	29,18
477,668	127,49
477,872	90,62
478,077	86,53
478,282	25,09
478,486	84,48
478,691	-11,78
478,895	-5,63
479,1	57,86
479,304	86,53
479,509	82,43
479,713	94,72
479,918	121,34
480,122	45,57
480,326	70,14
480,531	-28,16
480,735	43,52
480,94	0,51
481,144	41,47
481,348	45,57
481,553	119,29
481,757	84,48
481,961	37,38
482,166	88,57
482,37	-22,02
482,574	94,72
482,778	4,61
482,983	27,14
483,187	72,19
483,391	12,8
483,595	0,51
483,8	74,24
484,004	96,77
484,208	27,14
484,412	113,15
484,616	82,43
484,821	39,42
485,025	74,24
485,229	20,99
485,433	41,47
485,637	-9,73
485,841	102,91
486,045	37,38
486,249	53,76
486,453	12,8
486,657	76,29
486,861	12,8
487,065	61,95
487,269	47,62
487,473	27,14
487,677	74,24
487,881	98,81
488,085	66,05
488,289	119,29
488,493	39,42
488,697	68,09
488,901	55,81
489,105	14,85
489,309	-15,87
489,512	109,05
489,716	41,47
489,92	53,76
490,124	37,38
490,328	119,29
490,531	31,23
490,735	-40,45
490,939	74,24
491,143	49,66
491,346	12,8
491,55	-24,06
491,754	8,7
491,958	49,66
492,161	29,18
492,365	-40,45
492,569	-22,02
492,772	86,53
492,976	6,66
493,18	39,42
493,383	-15,87
493,587	86,53
493,79	123,39
493,994	70,14
494,197	55,81
494,401	119,29
494,605	27,14
494,808	33,28
495,012	55,81
495,215	70,14
495,419	39,42
495,622	27,14
495,825	37,38
496,029	55,81
496,232	49,66
496,436	55,81
496,639	64
496,843	33,28
497,046	4,61
497,249	156,16
497,453	-11,78
497,656	74,24
497,859	-9,73
498,063	-30,21
498,266	107,01
498,469	49,66
498,673	10,75
498,876	14,85
499,079	29,18
499,282	39,42
499,485	137,73
499,689	-11,78
499,892	51,71
500,095	14,85
500,298	66,05
500,501	12,8
500,705	12,8
500,908	20,99
501,111	68,09
501,314	66,05
501,517	121,34
501,72	-15,87
501,923	-24,06
502,126	-36,35
502,329	39,42
502,532	64
502,735	49,66
502,938	86,53
503,141	20,99
503,344	-1,54
503,547	92,67
503,75	35,33
503,953	66,05
504,156	53,76
504,359	-13,82
504,562	76,29
504,765	16,9
504,968	47,62
505,17	-34,3
505,373	94,72
505,576	29,18
505,779	31,23
505,982	-11,78
506,185	-26,11
506,387	-19,97
506,59	70,14
506,793	29,18
506,996	29,18
507,198	6,66
507,401	-22,02
507,604	70,14
507,807	64
508,009	-3,58
508,212	98,81
508,415	119,29
508,617	20,99
508,82	74,24
509,022	49,66
509,225	23,04
509,428	-11,78
509,63	-32,26
509,833	20,99
510,035	70,14
510,238	127,49
510,44	23,04
510,643	0,51
510,845	-17,92
511,048	-7,68
511,25	41,47
511,453	27,14
511,655	20,99
511,858	59,9
512,06	90,62
512,262	18,94
512,465	4,61
512,667	78,33
512,87	43,52
513,072	12,8
513,274	-44,54
513,477	8,7
513,679	49,66
513,881	33,28
514,084	31,23
514,286	49,66
514,488	72,19
514,69	-58,88
514,893	39,42
515,095	47,62
515,297	47,62
515,499	4,61
515,701	-17,92
515,904	98,81
516,106	16,9
516,308	-3,58
516,51	61,95
516,712	8,7
516,914	47,62
517,116	57,86
517,318	-1,54
517,52	16,9
517,722	123,39
517,925	49,66
518,127	45,57
518,329	-19,97
518,531	14,85
518,733	53,76
518,935	51,71
519,136	-1,54
519,338	10,75
519,54	51,71
519,742	72,19
519,944	72,19
520,146	88,57
520,348	53,76
520,55	25,09
520,752	-36,35
520,954	37,38
521,155	86,53
521,357	41,47
521,559	20,99
521,761	-26,11
521,963	53,76
522,164	55,81
522,366	66,05
522,568	33,28
522,77	31,23
522,971	23,04
523,173	-28,16
523,375	49,66
523,576	27,14
523,778	55,81
523,98	0,51
524,181	10,75
524,383	57,86
524,584	51,71
524,786	72,19
524,988	-3,58
525,189	-11,78
525,391	33,28
525,592	68,09
525,794	20,99
525,995	-19,97
526,197	57,86
526,398	147,97
526,6	4,61
526,801	70,14
527,003	35,33
527,204	12,8
527,406	94,72
527,607	14,85
527,808	-11,78
528,01	23,04
528,211	61,95
528,412	64
528,614	57,86
528,815	-3,58
529,016	39,42
529,218	55,81
529,419	70,14
529,62	96,77
529,822	57,86
530,023	-1,54
530,224	16,9
530,425	119,29
530,626	-5,63
530,828	45,57
531,029	72,19
531,23	201,21
531,431	37,38
531,632	39,42
531,833	23,04
532,035	-17,92
532,236	14,85
532,437	80,38
532,638	-22,02
532,839	-22,02
533,04	47,62
533,241	70,14
533,442	61,95
533,643	127,49
533,844	-40,45
534,045	107,01
534,246	23,04
534,447	-3,58
534,648	33,28
534,849	129,53
535,05	18,94
535,251	-24,06
535,451	102,91
535,652	117,25
535,853	64
536,054	102,91
536,255	-17,92
536,456	68,09
536,657	0,51
536,857	86,53
537,058	-13,82
537,259	51,71
537,46	29,18
537,66	23,04
537,861	-32,26
538,062	23,04
538,263	-19,97
538,463	84,48
538,664	16,9
538,865	72,19
539,065	14,85
539,266	51,71
539,466	-1,54
539,667	55,81
539,868	78,33
540,068	-3,58
540,269	86,53
540,469	37,38
540,67	61,95
540,87	45,57
541,071	45,57
541,271	150,01
541,472	27,14
541,672	119,29
541,873	25,09
542,073	-1,54
542,274	47,62
542,474	68,09
542,675	-5,63
542,875	0,51
543,075	-7,68
543,276	45,57
543,476	2,56
543,676	86,53
543,877	-17,92
544,077	-32,26
544,277	0,51
544,478	-1,54
544,678	14,85
544,878	76,29
545,078	104,96
545,279	39,42
545,479	80,38
545,679	23,04
545,879	53,76
546,079	31,23
546,28	-69,12
546,48	-7,68
546,68	-36,35
546,88	-32,26
547,08	-62,98
547,28	45,57
547,48	6,66
547,68	23,04
547,88	20,99
548,081	68,09
548,281	-77,31
548,481	37,38
548,681	47,62
548,881	68,09
549,081	107,01
549,28	10,75
549,48	6,66
549,68	68,09
549,88	78,33
550,08	82,43
550,28	0,51
550,48	80,38
550,68	-15,87
550,88	139,77
551,08	-3,58
551,279	61,95
551,479	6,66
551,679	160,25
551,879	41,47
552,079	8,7
552,278	82,43
552,478	16,9
552,678	82,43
552,878	29,18
553,077	57,86
553,277	-38,4
553,477	90,62
553,676	43,52
553,876	35,33
554,076	14,85
554,275	66,05
554,475	6,66
554,674	29,18
554,874	72,19
555,074	-11,78
555,273	35,33
555,473	25,09
555,672	61,95
555,872	16,9
556,071	-11,78
556,271	80,38
556,47	4,61
556,67	86,53
556,869	64
557,068	-13,82
557,268	94,72
557,467	4,61
557,667	74,24
557,866	33,28
558,065	10,75
558,265	41,47
558,464	70,14
558,663	20,99
558,863	-11,78
559,062	-1,54
559,261	29,18
559,461	6,66
559,66	-3,58
559,859	14,85
560,058	47,62
560,258	-77,31
560,457	-22,02
560,656	49,66
560,855	16,9
561,054	-24,06
561,253	-17,92
561,453	-9,73
561,652	-17,92
561,851	53,76
562,05	-38,4
562,249	23,04
562,448	70,14
562,647	6,66
562,846	117,25
563,045	66,05
563,244	64
563,443	25,09
563,642	41,47
563,841	43,52
564,04	37,38
564,239	84,48
564,438	-7,68
564,637	2,56
564,836	49,66
565,035	-26,11
565,234	-11,78
565,432	-22,02
565,631	14,85
565,83	12,8
566,029	94,72
566,228	64
566,427	141,82
566,625	4,61
566,824	102,91
567,023	41,47
567,222	61,95
567,42	70,14
567,619	29,18
567,818	6,66
568,016	66,05
568,215	31,23
568,414	49,66
568,612	12,8
568,811	80,38
569,01	4,61
569,208	-11,78
569,407	4,61
569,605	45,57
569,804	2,56
570,002	47,62
570,201	10,75
570,4	-7,68
570,598	20,99
570,797	-5,63
570,995	-1,54
571,193	57,86
571,392	70,14
571,59	27,14
571,789	-17,92
571,987	-17,92
572,186	119,29
572,384	78,33
572,582	88,57
572,781	23,04
572,979	-11,78
573,177	29,18
573,376	25,09
573,574	143,87
573,772	45,57
573,971	29,18
574,169	16,9
574,367	70,14
574,565	74,24
574,763	41,47
574,962	27,14
575,16	-30,21
575,358	41,47
575,556	31,23
575,754	-11,78
575,952	4,61
576,151	47,62
576,349	20,99
576,547	-5,63
576,745	10,75
576,943	64
577,141	-22,02
577,339	-13,82
577,537	49,66
577,735	53,76
577,933	45,57
578,131	45,57
578,329	43,52
578,527	2,56
578,725	14,85
578,923	-3,58
579,121	66,05
579,319	53,76
579,516	2,56
579,714	96,77
579,912	16,9
580,11	-7,68
580,308	29,18
580,506	-48,64
580,704	27,14
580,901	-28,16
581,099	96,77
581,297	111,1
581,495	102,91
581,692	16,9
581,89	45,57
582,088	41,47
582,285	33,28
582,483	-7,68
582,681	-5,63
582,878	66,05
583,076	29,18
583,274	23,04
583,471	-3,58
583,669	31,23
583,866	-1,54
584,064	-3,58
584,262	20,99
584,459	-1,54
584,657	-7,68
584,854	49,66
585,052	-3,58
585,249	59,9
585,447	49,66
585,644	41,47
585,841	47,62
586,039	-69,12
586,236	23,04
586,434	18,94
586,631	-7,68
586,828	-11,78
587,026	-22,02
587,223	-48,64
587,42	-17,92
587,618	18,94
587,815	88,57
588,012	82,43
588,21	-77,31
588,407	25,09
588,604	107,01
588,801	6,66
588,999	-52,74
589,196	-5,63
589,393	6,66
589,59	18,94
589,787	45,57
589,984	35,33
590,182	59,9
590,379	25,09
590,576	-9,73
590,773	39,42
590,97	-11,78
591,167	53,76
591,364	47,62
591,561	2,56
591,758	8,7
591,955	10,75
592,152	55,81
592,349	-7,68
592,546	29,18
592,743	12,8
592,94	31,23
593,137	12,8
593,334	16,9
593,531	82,43
593,727	31,23
593,924	53,76
594,121	31,23
594,318	53,76
594,515	43,52
594,712	45,57
594,908	88,57
595,105	-60,93
595,302	90,62
595,499	86,53
595,696	84,48
595,892	61,95
596,089	86,53
596,286	8,7
596,482	-28,16
596,679	49,66
596,876	12,8
597,072	25,09
597,269	76,29
597,466	-36,35
597,662	78,33
597,859	-34,3
598,055	70,14
598,252	-7,68
598,448	37,38
598,645	29,18
598,841	-28,16
599,038	57,86
599,234	-22,02
599,431	39,42
599,627	8,7
599,824	74,24
600,02	12,8
600,217	45,57
600,413	39,42
600,609	20,99
600,806	98,81
601,002	84,48
601,198	-5,63
601,395	35,33
601,591	0,51
601,787	14,85
601,984	14,85
602,18	27,14
602,376	72,19
602,572	70,14
602,769	119,29
602,965	-17,92
603,161	-1,54
603,357	-3,58
603,553	4,61
603,75	78,33
603,946	-60,93
604,142	18,94
604,338	8,7
604,534	16,9
604,73	45,57
604,926	-42,5
605,122	74,24
605,318	12,8
605,514	70,14
605,71	49,66
605,906	33,28
606,102	14,85
606,298	53,76
606,494	47,62
606,69	61,95
606,886	4,61
607,082	29,18
607,278	45,57
607,474	109,05
607,67	47,62
607,866	37,38
608,062	90,62
608,257	86,53
608,453	-22,02
608,649	64
608,845	-1,54
609,041	-3,58
609,236	-17,92
609,432	72,19
609,628	25,09
609,824	61,95
610,019	-7,68
610,215	-5,63
610,411	90,62
610,606	53,76
610,802	-42,5
610,998	16,9
611,193	14,85
611,389	49,66
611,584	2,56
611,78	-9,73
611,976	-3,58
612,171	68,09
612,367	-3,58
612,562	8,7
612,758	41,47
612,953	-9,73
613,149	53,76
613,344	-5,63
613,539	16,9
613,735	51,71
613,93	20,99
614,126	-26,11
614,321	8,7
614,517	33,28
614,712	4,61
614,907	12,8
615,103	25,09
615,298	72,19
615,493	-79,36
615,688	8,7
615,884	-11,78
616,079	-58,88
616,274	123,39
616,47	-60,93
616,665	18,94
616,86	12,8
617,055	57,86
617,25	-1,54
617,445	47,62
617,641	-17,92
617,836	-36,35
618,031	-11,78
618,226	31,23
618,421	25,09
618,616	20,99
618,811	57,86
619,006	31,23
619,201	82,43
619,396	23,04
619,591	31,23
619,786	0,51
619,981	47,62
620,176	23,04
620,371	6,66
620,566	-36,35
620,761	94,72
620,956	25,09
621,151	-15,87
621,346	51,71
621,541	31,23
621,735	47,62
621,93	45,57
622,125	57,86
622,32	-36,35
622,515	6,66
622,709	53,76
622,904	61,95
623,099	68,09
623,294	86,53
623,488	-24,06
623,683	2,56
623,878	141,82
624,072	-1,54
624,267	78,33
624,462	-3,58
624,656	-26,11
624,851	-22,02
625,046	27,14
625,24	39,42
625,435	49,66
625,629	37,38
625,824	74,24
626,018	14,85
626,213	45,57
626,407	25,09
626,602	86,53
626,796	8,7
626,991	23,04
627,185	49,66
627,38	20,99
627,574	33,28
627,768	39,42
627,963	-46,59
628,157	27,14
628,352	-7,68
628,546	20,99
628,74	16,9
628,935	-54,78
629,129	14,85
629,323	51,71
629,517	-67,07
629,712	53,76
629,906	-22,02
630,1	25,09
630,294	143,87
630,489	-36,35
630,683	-22,02
630,877	82,43
631,071	20,99
631,265	47,62
631,459	25,09
631,653	41,47
631,848	0,51
632,042	-15,87
632,236	-30,21
632,43	39,42
632,624	18,94
632,818	-11,78
633,012	70,14
633,206	98,81
633,4	-15,87
633,594	20,99
633,788	12,8
633,982	12,8
634,176	39,42
634,369	53,76
634,563	-36,35
634,757	68,09
634,951	-17,92
635,145	31,23
635,339	12,8
635,533	31,23
635,726	16,9
635,92	88,57
636,114	76,29
636,308	94,72
636,501	14,85
636,695	10,75
636,889	-13,82
637,083	39,42
637,276	72,19
637,47	20,99
637,664	45,57
637,857	45,57
638,051	51,71
638,244	59,9
638,438	82,43
638,632	94,72
638,825	64
639,019	49,66
639,212	27,14
639,406	14,85
639,599	23,04
639,793	4,61
639,986	66,05
640,18	45,57
640,373	-3,58
640,567	43,52
640,76	23,04
640,954	47,62
641,147	70,14
641,34	12,8
641,534	82,43
641,727	96,77
641,92	16,9
642,114	117,25
642,307	2,56
642,5	88,57
642,694	8,7
642,887	14,85
643,08	72,19
643,273	80,38
643,467	14,85
643,66	29,18
643,853	29,18
644,046	129,53
644,239	0,51
644,432	14,85
644,626	-11,78
644,819	39,42
645,012	41,47
645,205	2,56
645,398	125,44
645,591	29,18
645,784	14,85
645,977	0,51
646,17	27,14
646,363	41,47
646,556	-13,82
646,749	-15,87
646,942	88,57
647,135	4,61
647,328	4,61
647,521	64
647,714	23,04
647,907	80,38
648,099	88,57
648,292	-28,16
648,485	6,66
648,678	45,57
648,871	-11,78
649,064	47,62
649,256	-26,11
649,449	27,14
649,642	20,99
649,835	82,43
650,027	-17,92
650,22	176,64
650,413	59,9
650,605	143,87
650,798	47,62
650,991	45,57
651,183	119,29
651,376	10,75
651,568	51,71
651,761	39,42
651,954	43,52
652,146	-13,82
652,339	64
652,531	39,42
652,724	66,05
652,916	23,04
653,109	29,18
653,301	78,33
653,494	27,14
653,686	39,42
653,879	-3,58
654,071	39,42
654,263	8,7
654,456	2,56
654,648	96,77
654,84	-11,78
655,033	90,62
655,225	82,43
655,417	66,05
655,61	98,81
655,802	35,33
655,994	80,38
656,186	-15,87
656,379	115,2
656,571	20,99
656,763	41,47
656,955	0,51
657,148	20,99
657,34	-1,54
657,532	20,99
657,724	61,95
657,916	61,95
658,108	113,15
658,3	16,9
658,492	49,66
658,684	-28,16
658,876	86,53
659,068	68,09
659,26	-58,88
659,452	41,47
659,644	6,66
659,836	43,52
660,028	-26,11
660,22	10,75
660,412	35,33
660,604	53,76
660,796	27,14
660,988	102,91
661,18	20,99
661,372	31,23
661,563	29,18
661,755	20,99
661,947	20,99
662,139	25,09
662,331	-22,02
662,522	51,71
662,714	-22,02
662,906	39,42
663,097	90,62
663,289	-9,73
663,481	-24,06
663,673	61,95
663,864	37,38
664,056	86,53
664,247	-22,02
664,439	12,8
664,631	57,86
664,822	59,9
665,014	33,28
665,205	0,51
665,397	29,18
665,588	8,7
665,78	66,05
665,971	53,76
666,163	47,62
666,354	64
666,546	14,85
666,737	-30,21
666,929	12,8
667,12	29,18
667,311	25,09
667,503	-3,58
667,694	29,18
667,885	53,76
668,077	88,57
668,268	-5,63
668,459	47,62
668,651	27,14
668,842	35,33
669,033	4,61
669,224	33,28
669,416	43,52
669,607	4,61
669,798	74,24
669,989	78,33
670,18	100,86
670,371	25,09
670,563	37,38
670,754	43,52
670,945	8,7
671,136	133,63
671,327	78,33
671,518	12,8
671,709	86,53
671,9	86,53
672,091	-30,21
672,282	45,57
672,473	-28,16
672,664	-13,82
672,855	14,85
673,046	104,96
673,237	104,96
673,428	-5,63
673,619	-26,11
673,809	18,94
674	8,7
674,191	-1,54
674,382	55,81
674,573	-3,58
674,764	-32,26
674,954	64
675,145	6,66
675,336	20,99
675,527	4,61
675,717	-85,5
675,908	90,62
676,099	-17,92
676,289	154,11
676,48	29,18
676,671	-1,54
676,861	16,9
677,052	6,66
677,243	45,57
677,433	16,9
677,624	0,51
677,814	37,38
678,005	53,76
678,195	98,81
678,386	8,7
678,576	72,19
678,767	-38,4
678,957	25,09
679,148	59,9
679,338	16,9
679,529	-17,92
679,719	76,29
679,909	61,95
680,1	-26,11
680,29	20,99
680,481	41,47
680,671	53,76
680,861	10,75
681,052	57,86
681,242	-24,06
681,432	82,43
681,622	37,38
681,813	-36,35
682,003	-19,97
682,193	20,99
682,383	96,77
682,573	-28,16
682,764	47,62
682,954	2,56
683,144	25,09
683,334	-32,26
683,524	6,66
683,714	20,99
683,904	55,81
684,094	8,7
684,284	-3,58
684,474	70,14
684,664	135,68
684,854	55,81
685,044	16,9
685,234	-52,74
685,424	6,66
685,614	23,04
685,804	119,29
685,994	84,48
686,184	14,85
686,374	4,61
686,564	4,61
686,753	29,18
686,943	23,04
687,133	4,61
687,323	39,42
687,513	12,8
687,702	25,09
687,892	-28,16
688,082	107,01
688,272	47,62
688,461	53,76
688,651	-1,54
688,841	-44,54
689,03	-5,63
689,22	20,99
689,41	33,28
689,599	-3,58
689,789	41,47
689,979	68,09
690,168	104,96
690,358	45,57
690,547	43,52
690,737	98,81
690,926	-32,26
691,116	51,71
691,305	12,8
691,495	0,51
691,684	-34,3
691,874	12,8
692,063	96,77
692,252	35,33
692,442	61,95
692,631	31,23
692,82	47,62
693,01	2,56
693,199	119,29
693,388	0,51
693,578	-11,78
693,767	100,86
693,956	78,33
694,146	45,57
694,335	20,99
694,524	90,62
694,713	80,38
694,902	61,95
695,092	-28,16
695,281	64
695,47	53,76
695,659	61,95
695,848	12,8
696,037	55,81
696,226	49,66
696,415	14,85
696,604	70,14
696,793	18,94
696,982	-40,45
697,171	127,49
697,36	-32,26
697,549	70,14
697,738	51,71
697,927	61,95
698,116	29,18
698,305	100,86
698,494	51,71
698,683	-13,82
698,872	86,53
699,061	61,95
699,25	88,57
699,438	29,18
699,627	78,33
699,816	39,42
700,005	-5,63
700,193	6,66
700,382	45,57
700,571	49,66
700,76	57,86
700,948	64
701,137	143,87
701,326	162,3
701,514	-22,02
701,703	39,42
701,892	23,04
702,08	45,57
702,269	12,8
702,457	23,04
702,646	78,33
702,834	70,14
703,023	-15,87
703,212	113,15
703,4	47,62
703,589	31,23
703,777	39,42
703,965	31,23
704,154	47,62
704,342	53,76
704,531	29,18
704,719	66,05
704,907	-22,02
705,096	12,8
705,284	-34,3
705,472	49,66
705,661	18,94
705,849	96,77
706,037	-17,92
706,226	-9,73
706,414	70,14
706,602	27,14
706,79	47,62
706,979	-7,68
707,167	-19,97
707,355	12,8
707,543	70,14
707,731	49,66
707,919	8,7
708,107	88,57
708,296	10,75
708,484	98,81
708,672	0,51
708,86	29,18
709,048	29,18
709,236	41,47
709,424	51,71
709,612	33,28
709,8	-81,41
709,988	70,14
710,176	113,15
710,364	47,62
710,551	6,66
710,739	43,52
710,927	2,56
711,115	47,62
711,303	20,99
711,491	84,48
711,679	-46,59
711,866	-36,35
712,054	29,18
712,242	51,71
712,43	20,99
712,617	53,76
712,805	82,43
712,993	0,51
713,181	6,66
713,368	47,62
713,556	29,18
713,744	29,18
713,931	43,52
714,119	8,7
714,306	84,48
714,494	68,09
714,682	-30,21
714,869	10,75
715,057	-5,63
715,244	-22,02
715,432	47,62
715,619	6,66
715,807	53,76
715,994	61,95
716,182	10,75
716,369	76,29
716,556	16,9
716,744	66,05
716,931	12,8
717,119	-34,3
717,306	-73,21
717,493	12,8
717,681	4,61
717,868	-1,54
718,055	49,66
718,242	-62,98
718,43	113,15
718,617	45,57
718,804	-26,11
718,991	78,33
719,179	31,23
719,366	78,33
719,553	-9,73
719,74	29,18
719,927	-5,63
720,114	4,61
720,301	-3,58
720,488	74,24
720,676	-24,06
720,863	49,66
721,05	66,05
721,237	55,81
721,424	-7,68
721,611	68,09
721,798	2,56
721,985	2,56
722,172	80,38
722,358	-69,12
722,545	8,7
722,732	43,52
722,919	27,14
723,106	12,8
723,293	-9,73
723,48	61,95
723,667	-3,58
723,853	20,99
724,04	-3,58
724,227	49,66
724,414	25,09
724,6	-3,58
724,787	74,24
724,974	49,66
725,161	-34,3
725,347	72,19
725,534	55,81
725,72	23,04
725,907	61,95
726,094	74,24
726,28	-32,26
726,467	41,47
726,653	-60,93
726,84	14,85
727,027	53,76
727,213	66,05
727,4	14,85
727,586	27,14
727,773	-48,64
727,959	39,42
728,145	31,23
728,332	107,01
728,518	-3,58
728,705	45,57
728,891	-15,87
729,077	-34,3
729,264	-103,93
729,45	47,62
729,636	139,77
729,823	47,62
730,009	33,28
730,195	64
730,382	66,05
730,568	-28,16
730,754	10,75
730,94	12,8
731,126	25,09
731,313	-3,58
731,499	-67,07
731,685	-15,87
731,871	35,33
732,057	4,61
732,243	8,7
732,429	0,51
732,615	8,7
732,801	33,28
732,987	66,05
733,173	20,99
733,359	41,47
733,545	47,62
733,731	-52,74
733,917	96,77
734,103	23,04
734,289	80,38
734,475	18,94
734,661	72,19
734,847	78,33
735,033	-42,5
735,219	53,76
735,404	29,18
735,59	31,23
735,776	70,14
735,962	8,7
736,148	23,04
736,333	27,14
736,519	37,38
736,705	72,19
736,89	64
737,076	25,09
737,262	8,7
737,447	-7,68
737,633	-15,87
737,819	90,62
738,004	12,8
738,19	-3,58
738,375	-13,82
738,561	14,85
738,747	35,33
738,932	-32,26
739,118	72,19
739,303	39,42
739,489	33,28
739,674	55,81
739,859	-11,78
740,045	20,99
740,23	-73,21
740,416	-48,64
740,601	51,71
740,786	20,99
740,972	-15,87
741,157	-15,87
741,342	12,8
741,528	31,23
741,713	-15,87
741,898	20,99
742,084	-3,58
742,269	12,8
742,454	53,76
742,639	29,18
742,824	64
743,01	29,18
743,195	14,85
743,38	80,38
743,565	-3,58
743,75	-17,92
743,935	68,09
744,12	70,14
744,305	-50,69
744,49	64
744,675	-32,26
744,86	14,85
745,045	4,61
745,23	-26,11
745,415	33,28
745,6	74,24
745,785	8,7
745,97	-26,11
746,155	70,14
746,34	37,38
746,525	61,95
746,71	0,51
746,895	-13,82
747,079	-40,45
747,264	-19,97
747,449	-3,58
747,634	143,87
747,819	64
748,003	-7,68
748,188	-19,97
748,373	53,76
748,557	16,9
748,742	-30,21
748,927	49,66
749,111	47,62
749,296	-3,58
749,481	31,23
749,665	-17,92
749,85	29,18
750,034	10,75
750,219	-11,78
750,404	20,99
750,588	-73,21
750,773	12,8
750,957	23,04
751,141	-1,54
751,326	72,19
751,51	-56,83
751,695	25,09
751,879	27,14
752,064	82,43
752,248	53,76
752,432	86,53
752,617	37,38
752,801	27,14
752,985	2,56
753,17	49,66
753,354	-42,5
753,538	53,76
753,722	16,9
753,907	-38,4
754,091	29,18
754,275	20,99
754,459	-19,97
754,643	55,81
754,828	111,1
755,012	25,09
755,196	86,53
755,38	45,57
755,564	-13,82
755,748	-13,82
755,932	70,14
756,116	78,33
756,3	59,9
756,484	29,18
756,668	59,9
756,852	-36,35
757,036	55,81
757,22	55,81
757,404	41,47
757,588	2,56
757,772	0,51
757,956	4,61
758,14	47,62
758,323	-11,78
758,507	66,05
758,691	8,7
758,875	31,23
759,059	31,23
759,242	0,51
759,426	55,81
759,61	86,53
759,794	55,81
759,977	-15,87
760,161	47,62
760,345	64
760,528	0,51
760,712	37,38
760,895	6,66
761,079	-50,69
761,263	-17,92
761,446	6,66
761,63	29,18
761,813	37,38
761,997	-3,58
762,18	25,09
762,364	4,61
762,547	-19,97
762,731	55,81
762,914	90,62
763,098	33,28
763,281	-36,35
763,464	-17,92
763,648	45,57
763,831	59,9
764,015	-26,11
764,198	45,57
764,381	27,14
764,564	31,23
764,748	74,24
764,931	64
765,114	4,61
765,297	76,29
765,481	-1,54
765,664	31,23
765,847	-17,92
766,03	94,72
766,213	55,81
766,397	51,71
766,58	-44,54
766,763	-9,73
766,946	6,66
767,129	121,34
767,312	64
767,495	31,23
767,678	-11,78
767,861	25,09
768,044	14,85
768,227	49,66
768,41	23,04
768,593	25,09
768,776	80,38
768,959	6,66
769,142	78,33
769,324	45,57
769,507	-28,16
769,69	64
769,873	-13,82
770,056	119,29
770,239	39,42
770,421	82,43
770,604	-11,78
770,787	16,9
770,97	55,81
771,152	45,57
771,335	-19,97
771,518	-22,02
771,7	-75,26
771,883	72,19
772,066	12,8
772,248	57,86
772,431	66,05
772,613	37,38
772,796	78,33
772,978	29,18
773,161	41,47
773,343	33,28
773,526	16,9
773,708	-44,54
773,891	-24,06
774,073	23,04
774,256	14,85
774,438	0,51
774,621	41,47
774,803	25,09
774,985	-5,63
775,168	-9,73
775,35	37,38
775,532	-3,58
775,715	39,42
775,897	61,95
776,079	43,52
776,261	61,95
776,444	-28,16
776,626	-9,73
776,808	49,66
776,99	4,61
777,173	86,53
777,355	6,66
777,537	41,47
777,719	51,71
777,901	-30,21
778,083	35,33
778,265	-46,59
778,447	47,62
778,629	4,61
778,811	37,38
778,993	23,04
779,175	47,62
779,357	20,99
779,539	-19,97
779,721	20,99
779,903	35,33
780,085	-24,06
780,267	31,23
780,449	86,53
780,631	6,66
780,812	49,66
780,994	25,09
781,176	-15,87
781,358	47,62
781,54	12,8
781,721	45,57
781,903	94,72
782,085	-9,73
782,267	82,43
782,448	-1,54
782,63	66,05
782,812	57,86
782,993	59,9
783,175	-9,73
783,357	47,62
783,538	53,76
783,72	31,23
783,901	39,42
784,083	152,06
784,264	-34,3
784,446	-67,07
784,627	-19,97
784,809	-1,54
784,99	12,8
785,172	104,96
785,353	-11,78
785,535	37,38
785,716	70,14
785,897	6,66
786,079	20,99
786,26	20,99
786,441	61,95
786,623	-19,97
786,804	74,24
786,985	35,33
787,167	35,33
787,348	4,61
787,529	0,51
787,71	61,95
787,891	92,67
788,073	10,75
788,254	0,51
788,435	25,09
788,616	86,53
788,797	86,53
788,978	10,75
789,159	-38,4
789,34	4,61
789,522	29,18
789,703	-11,78
789,884	41,47
790,065	-17,92
790,246	-3,58
790,427	-58,88
790,607	-19,97
790,788	-3,58
790,969	47,62
791,15	-17,92
791,331	-42,5
791,512	6,66
791,693	12,8
791,874	-28,16
792,054	12,8
792,235	55,81
792,416	-54,78
792,597	-11,78
792,778	29,18
792,958	4,61
793,139	23,04
793,32	37,38
793,5	27,14
793,681	111,1
793,862	39,42
794,042	8,7
794,223	68,09
794,404	6,66
794,584	-126,46
794,765	0,51
794,945	76,29
795,126	82,43
795,306	41,47
795,487	-1,54
795,667	0,51
795,848	-13,82
796,028	47,62
796,209	31,23
796,389	-28,16
796,57	-69,12
796,75	-73,21
796,93	80,38
797,111	-42,5
797,291	0,51
797,471	111,1
797,652	31,23
797,832	43,52
798,012	43,52
798,192	113,15
798,373	-38,4
798,553	23,04
798,733	16,9
798,913	35,33
799,093	29,18
799,274	-15,87
799,454	94,72
799,634	74,24
799,814	37,38
799,994	74,24
800,174	29,18
800,354	14,85
800,534	41,47
800,714	-40,45
800,894	-46,59
801,074	-42,5
801,254	0,51
801,434	-3,58
801,614	-17,92
801,794	-32,26
801,974	541,18
802,154	-5,63
802,334	29,18
802,514	0,51
802,693	-3,58
802,873	-11,78
803,053	66,05
803,233	47,62
803,413	70,14
803,592	6,66
803,772	-19,97
803,952	29,18
804,131	12,8
804,311	-17,92
804,491	45,57
804,67	12,8
804,85	25,09
805,03	20,99
805,209	139,77
805,389	18,94
805,568	-7,68
805,748	25,09
805,928	-3,58
806,107	68,09
806,287	47,62
806,466	8,7
806,646	35,33
806,825	-11,78
807,004	53,76
807,184	-19,97
807,363	59,9
807,543	-24,06
807,722	-11,78
807,901	23,04
808,081	-1,54
808,26	-11,78
808,439	12,8
808,619	14,85
808,798	-79,36
808,977	49,66
809,156	98,81
809,336	12,8
809,515	70,14
809,694	25,09
809,873	-11,78
810,052	-15,87
810,231	31,23
810,411	-11,78
810,59	41,47
810,769	6,66
810,948	4,61
811,127	-30,21
811,306	8,7
811,485	41,47
811,664	43,52
811,843	-40,45
812,022	27,14
812,201	78,33
812,38	-24,06
812,559	59,9
812,737	70,14
812,916	-52,74
813,095	-85,5
813,274	10,75
813,453	14,85
813,632	117,25
813,811	66,05
813,989	-19,97
814,168	-28,16
814,347	-69,12
814,526	41,47
814,704	10,75
814,883	68,09
815,062	14,85
815,24	104,96
815,419	-40,45
815,598	59,9
815,776	-44,54
815,955	-34,3
816,133	-65,02
816,312	31,23
816,49	-11,78
816,669	35,33
816,847	59,9
817,026	-32,26
817,204	25,09
817,383	-3,58
817,561	-42,5
817,74	-24,06
817,918	43,52
818,097	4,61
818,275	-56,83
818,453	18,94
818,632	37,38
818,81	-60,93
818,988	27,14
819,167	-11,78
819,345	23,04
819,523	-11,78
819,701	20,99
819,879	23,04
820,058	-42,5
820,236	27,14
820,414	25,09
820,592	-28,16
820,77	27,14
820,948	-40,45
821,127	-1,54
821,305	-7,68
821,483	-26,11
821,661	90,62
821,839	-3,58
822,017	-77,31
822,195	-52,74
822,373	59,9
822,551	8,7
822,729	-3,58
822,907	-3,58
823,085	39,42
823,262	-11,78
823,44	-7,68
823,618	14,85
823,796	90,62
823,974	6,66
824,152	-5,63
824,329	-28,16
824,507	0,51
824,685	92,67
824,863	45,57
825,04	20,99
825,218	-52,74
825,396	-3,58
825,574	-22,02
825,751	-13,82
825,929	53,76
826,107	49,66
826,284	-13,82
826,462	4,61
826,639	-3,58
826,817	-9,73
826,994	0,51
827,172	0,51
827,349	57,86
827,527	6,66
827,704	14,85
827,882	57,86
828,059	-36,35
828,237	8,7
828,414	35,33
828,591	-50,69
828,769	31,23
828,946	-50,69
829,124	96,77
829,301	96,77
829,478	-46,59
829,655	-13,82
829,833	49,66
830,01	29,18
830,187	45,57
830,364	25,09
830,542	41,47
830,719	113,15
830,896	64
831,073	12,8
831,25	-3,58
831,427	12,8
831,604	25,09
831,782	-22,02
831,959	53,76
832,136	-46,59
832,313	4,61
832,49	-7,68
832,667	43,52
832,844	-7,68
833,021	111,1
833,198	-38,4
833,374	113,15
833,551	2,56
833,728	6,66
833,905	104,96
834,082	45,57
834,259	45,57
834,436	35,33
834,612	59,9
834,789	64
834,966	-32,26
835,143	61,95
835,319	-7,68
835,496	37,38
835,673	66,05
835,85	14,85
836,026	6,66
836,203	119,29
836,38	-17,92
836,556	23,04
836,733	10,75
836,909	88,57
837,086	49,66
837,262	-50,69
837,439	49,66
837,616	74,24
837,792	47,62
837,968	27,14
838,145	-19,97
838,321	31,23
838,498	-89,6
838,674	29,18
838,851	20,99
839,027	64
839,203	-19,97
839,38	-22,02
839,556	41,47
839,732	45,57
839,909	78,33
840,085	8,7
840,261	90,62
840,437	-28,16
840,614	12,8
840,79	80,38
840,966	29,18
841,142	64
841,318	-11,78
841,494	-7,68
841,671	8,7
841,847	-24,06
842,023	6,66
842,199	70,14
842,375	-7,68
842,551	35,33
842,727	-60,93
842,903	86,53
843,079	-11,78
843,255	53,76
843,431	31,23
843,607	88,57
843,783	-36,35
843,959	37,38
844,134	-24,06
844,31	39,42
844,486	35,33
844,662	-7,68
844,838	25,09
845,013	6,66
845,189	45,57
845,365	84,48
845,541	47,62
845,716	12,8
845,892	107,01
846,068	-42,5
846,244	33,28
846,419	37,38
846,595	10,75
846,77	39,42
846,946	-7,68
847,122	61,95
847,297	4,61
847,473	86,53
847,648	-65,02
847,824	29,18
847,999	-42,5
848,175	20,99
848,35	-52,74
848,526	20,99
848,701	-3,58
848,876	4,61
849,052	-15,87
849,227	-34,3
849,403	-17,92
849,578	43,52
849,753	-52,74
849,929	0,51
850,104	4,61
850,279	35,33
850,454	12,8
850,63	-36,35
850,805	68,09
850,98	-15,87
851,155	2,56
851,33	31,23
851,505	6,66
851,681	41,47
851,856	-36,35
852,031	23,04
852,206	47,62
852,381	61,95
852,556	-56,83
852,731	-11,78
852,906	23,04
853,081	94,72
853,256	70,14
853,431	31,23
853,606	-11,78
853,781	35,33
853,956	-58,88
854,131	8,7
854,305	-24,06
854,48	-36,35
854,655	-42,5
854,83	49,66
855,005	2,56
855,18	78,33
855,354	-34,3
855,529	2,56
855,704	41,47
855,879	49,66
856,053	8,7
856,228	72,19
856,403	-11,78
856,577	61,95
856,752	8,7
856,926	84,48
857,101	12,8
857,276	16,9
857,45	-34,3
857,625	61,95
857,799	16,9
857,974	45,57
858,148	-48,64
858,323	20,99
858,497	0,51
858,672	18,94
858,846	16,9
859,02	43,52
859,195	20,99
859,369	29,18
859,543	12,8
859,718	8,7
859,892	-34,3
860,066	90,62
860,241	-9,73
860,415	-1,54
860,589	55,81
860,763	6,66
860,938	18,94
861,112	20,99
861,286	-15,87
861,46	61,95
861,634	-77,31
861,808	41,47
861,982	72,19
862,157	-36,35
862,331	4,61
862,505	25,09
862,679	-36,35
862,853	53,76
863,027	-81,41
863,201	51,71
863,375	-19,97
863,549	-7,68
863,722	47,62
863,896	64
864,07	-3,58
864,244	27,14
864,418	37,38
864,592	23,04
864,766	-30,21
864,939	-3,58
865,113	-17,92
865,287	-3,58
865,461	10,75
865,634	4,61
865,808	27,14
865,982	43,52
866,156	-3,58
866,329	29,18
866,503	43,52
866,676	49,66
866,85	-11,78
867,024	4,61
867,197	-11,78
867,371	8,7
867,544	-7,68
867,718	-1,54
867,891	-1,54
868,065	-17,92
868,238	-54,78
868,412	59,9
868,585	-73,21
868,759	-36,35
868,932	8,7
869,105	33,28
869,279	16,9
869,452	37,38
869,625	20,99
869,799	-1,54
869,972	25,09
870,145	43,52
870,319	16,9
870,492	4,61
870,665	-5,63
870,838	18,94
871,011	-50,69
871,185	-5,63
871,358	-52,74
871,531	-44,54
871,704	-32,26
871,877	10,75
872,05	-1,54
872,223	-28,16
872,396	80,38
872,569	-11,78
872,742	41,47
872,915	16,9
873,088	68,09
873,261	4,61
873,434	45,57
873,607	-19,97
873,78	78,33
873,953	2,56
874,126	-3,58
874,299	4,61
874,471	45,57
874,644	10,75
874,817	43,52
874,99	-28,16
875,163	23,04
875,335	64
875,508	27,14
875,681	27,14
875,853	31,23
876,026	39,42
876,199	-19,97
876,371	39,42
876,544	33,28
876,717	80,38
876,889	31,23
877,062	12,8
877,234	14,85
877,407	-1,54
877,579	35,33
877,752	25,09
877,924	29,18
878,097	14,85
878,269	37,38
878,442	20,99
878,614	61,95
878,786	59,9
878,959	31,23
879,131	12,8
879,303	-26,11
879,476	-44,54
879,648	61,95
879,82	18,94
879,993	-71,17
880,165	-17,92
880,337	-97,79
880,509	-9,73
880,681	-48,64
880,854	-5,63
881,026	66,05
881,198	104,96
881,37	-36,35
881,542	-60,93
881,714	2,56
881,886	16,9
882,058	-5,63
882,23	-28,16
882,402	-15,87
882,574	70,14
882,746	59,9
882,918	35,33
883,09	55,81
883,262	47,62
883,434	0,51
883,606	-1,54
883,778	14,85
883,95	70,14
884,122	-50,69
884,293	12,8
884,465	39,42
884,637	35,33
884,809	12,8
884,98	23,04
885,152	-44,54
885,324	125,44
885,496	55,81
885,667	53,76
885,839	14,85
886,011	18,94
886,182	-7,68
886,354	-7,68
886,525	-7,68
886,697	29,18
886,869	-56,83
887,04	39,42
887,212	125,44
887,383	74,24
887,555	31,23
887,726	-24,06
887,897	-1,54
888,069	-5,63
888,24	57,86
888,412	78,33
888,583	-9,73
888,754	12,8
888,926	64
889,097	14,85
889,268	-13,82
889,44	35,33
889,611	45,57
889,782	33,28
889,953	2,56
890,125	20,99
890,296	-40,45
890,467	61,95
890,638	16,9
890,809	-19,97
890,98	59,9
891,151	23,04
891,323	41,47
891,494	8,7
891,665	12,8
891,836	74,24
892,007	49,66
892,178	-60,93
892,349	-26,11
892,52	-3,58
892,691	41,47
892,862	33,28
893,032	-28,16
893,203	-19,97
893,374	66,05
893,545	100,86
893,716	-95,74
893,887	31,23
894,057	45,57
894,228	41,47
894,399	45,57
894,57	80,38
894,74	-1,54
894,911	111,1
895,082	37,38
895,253	4,61
895,423	-24,06
895,594	64
895,764	-1,54
895,935	-110,08
896,106	10,75
896,276	-17,92
896,447	64
896,617	-3,58
896,788	-5,63
896,958	-5,63
897,129	23,04
897,299	33,28
897,47	51,71
897,64	27,14
897,81	25,09
897,981	12,8
898,151	-56,83
898,322	78,33
898,492	23,04
898,662	-1,54
898,832	51,71
899,003	-69,12
899,173	59,9
899,343	14,85
899,513	-19,97
