Data from filtre430_USB4F104151__0__11-51-40-400.txt Node

Date: Wed Apr 15 11:51:40 EDT 2026
User: LaboPhy
Spectrometer: USB4F10415
Trigger mode: 4
Integration Time (sec): 2,500000E-2
Scans to average: 1
Electric dark correction enabled: true
Nonlinearity correction enabled: false
Boxcar width: 0
XAxis mode: Wavelengths
Number of Pixels in Spectrum: 3648
>>>>>Begin Spectral Data<<<<<
178,204	-100,86
178,424	-100,86
178,644	-100,86
178,864	-180,73
179,084	-104,96
179,304	-12,8
179,524	-82,43
179,744	40,45
179,964	93,69
180,184	15,87
180,404	-43,52
180,624	-10,75
180,844	-4,61
181,064	-45,57
181,283	17,92
181,503	-12,8
181,723	44,54
181,943	-66,05
182,163	54,78
182,383	19,97
182,602	32,26
182,822	-10,75
183,042	38,4
183,262	-12,8
183,482	-0,51
183,701	44,54
183,921	-25,09
184,141	-27,14
184,361	67,07
184,58	69,12
184,8	97,79
185,02	-2,56
185,239	60,93
185,459	38,4
185,679	36,35
185,898	-98,81
186,118	24,06
186,338	-4,61
186,557	-59,9
186,777	-33,28
186,997	17,92
187,216	-33,28
187,436	48,64
187,655	60,93
187,875	-16,9
188,095	-8,7
188,314	3,58
188,534	15,87
188,753	46,59
188,973	19,97
189,192	17,92
189,412	-6,66
189,631	-23,04
189,851	30,21
190,07	5,63
190,29	-8,7
190,509	-0,51
190,729	13,82
190,948	-51,71
191,168	148,99
191,387	52,74
191,607	-84,48
191,826	116,22
192,045	75,26
192,265	28,16
192,484	-8,7
192,704	17,92
192,923	-66,05
193,142	36,35
193,362	40,45
193,581	52,74
193,8	-4,61
194,02	11,78
194,239	24,06
194,458	48,64
194,678	50,69
194,897	15,87
195,116	-49,66
195,335	30,21
195,555	30,21
195,774	-18,94
195,993	-12,8
196,212	5,63
196,432	-33,28
196,651	50,69
196,87	1,54
197,089	116,22
197,308	44,54
197,528	-14,85
197,747	-6,66
197,966	-18,94
198,185	69,12
198,404	38,4
198,623	77,31
198,842	-20,99
199,062	13,82
199,281	-12,8
199,5	11,78
199,719	5,63
199,938	54,78
200,157	67,07
200,376	7,68
200,595	60,93
200,814	38,4
201,033	7,68
201,252	58,88
201,471	69,12
201,69	50,69
201,909	60,93
202,128	26,11
202,347	62,98
202,566	-14,85
202,785	-0,51
203,004	13,82
203,223	71,17
203,442	-12,8
203,661	-76,29
203,879	13,82
204,098	13,82
204,317	24,06
204,536	-12,8
204,755	9,73
204,974	26,11
205,193	7,68
205,411	85,5
205,63	71,17
205,849	-37,38
206,068	-25,09
206,287	13,82
206,505	91,65
206,724	5,63
206,943	-31,23
207,162	5,63
207,381	36,35
207,599	62,98
207,818	46,59
208,037	7,68
208,255	54,78
208,474	40,45
208,693	-29,18
208,911	5,63
209,13	54,78
209,349	65,02
209,567	-25,09
209,786	122,37
210,005	36,35
210,223	-2,56
210,442	-12,8
210,661	19,97
210,879	11,78
211,098	-43,52
211,316	-0,51
211,535	38,4
211,753	-70,14
211,972	26,11
212,191	3,58
212,409	-2,56
212,628	85,5
212,846	13,82
213,065	110,08
213,283	19,97
213,502	-14,85
213,72	-51,71
213,938	-59,9
214,157	-31,23
214,375	58,88
214,594	-6,66
214,812	36,35
215,031	-0,51
215,249	13,82
215,467	44,54
215,686	34,3
215,904	85,5
216,122	-23,04
216,341	15,87
216,559	-0,51
216,778	42,5
216,996	-0,51
217,214	-2,56
217,432	-4,61
217,651	-14,85
217,869	-92,67
218,087	-53,76
218,306	22,02
218,524	11,78
218,742	-6,66
218,96	13,82
219,179	13,82
219,397	-35,33
219,615	46,59
219,833	54,78
220,051	52,74
220,27	91,65
220,488	46,59
220,706	71,17
220,924	-25,09
221,142	-27,14
221,36	-20,99
221,578	13,82
221,796	48,64
222,015	-41,47
222,233	-33,28
222,451	67,07
222,669	-10,75
222,887	19,97
223,105	19,97
223,323	-29,18
223,541	-14,85
223,759	30,21
223,977	42,5
224,195	48,64
224,413	54,78
224,631	17,92
224,849	19,97
225,067	77,31
225,285	-14,85
225,503	-18,94
225,721	-82,43
225,939	-33,28
226,157	73,21
226,375	36,35
226,592	7,68
226,81	44,54
227,028	40,45
227,246	87,55
227,464	38,4
227,682	-4,61
227,9	28,16
228,117	-20,99
228,335	19,97
228,553	36,35
228,771	32,26
228,989	54,78
229,206	-64
229,424	50,69
229,642	9,73
229,86	-68,09
230,077	-25,09
230,295	-18,94
230,513	52,74
230,731	17,92
230,948	91,65
231,166	52,74
231,384	36,35
231,601	36,35
231,819	71,17
232,037	-6,66
232,254	44,54
232,472	62,98
232,689	-29,18
232,907	36,35
233,125	17,92
233,342	19,97
233,56	-127,49
233,777	-35,33
233,995	15,87
234,213	22,02
234,43	24,06
234,648	1,54
234,865	11,78
235,083	32,26
235,3	22,02
235,518	-45,57
235,735	91,65
235,953	28,16
236,17	48,64
236,388	-45,57
236,605	28,16
236,822	22,02
237,04	52,74
237,257	-18,94
237,475	19,97
237,692	-6,66
237,909	13,82
238,127	-6,66
238,344	46,59
238,562	-18,94
238,779	5,63
238,996	44,54
239,214	-41,47
239,431	83,45
239,648	-37,38
239,865	22,02
240,083	17,92
240,3	-59,9
240,517	15,87
240,735	1,54
240,952	22,02
241,169	28,16
241,386	11,78
241,603	46,59
241,821	-102,91
242,038	34,3
242,255	9,73
242,472	-57,86
242,689	-43,52
242,907	22,02
243,124	-16,9
243,341	-47,62
243,558	-18,94
243,775	-80,38
243,992	-37,38
244,209	36,35
244,426	24,06
244,643	34,3
244,86	7,68
245,078	65,02
245,295	48,64
245,512	-23,04
245,729	-41,47
245,946	-4,61
246,163	13,82
246,38	-33,28
246,597	-43,52
246,814	13,82
247,031	-53,76
247,248	-4,61
247,464	50,69
247,681	58,88
247,898	-31,23
248,115	-0,51
248,332	-59,9
248,549	46,59
248,766	93,69
248,983	17,92
249,2	-59,9
249,417	48,64
249,633	-66,05
249,85	7,68
250,067	19,97
250,284	-12,8
250,501	5,63
250,717	54,78
250,934	-29,18
251,151	-4,61
251,368	44,54
251,585	46,59
251,801	-33,28
252,018	32,26
252,235	54,78
252,451	-33,28
252,668	-25,09
252,885	28,16
253,102	-35,33
253,318	67,07
253,535	-51,71
253,752	-0,51
253,968	3,58
254,185	-39,42
254,401	-10,75
254,618	-12,8
254,835	-41,47
255,051	15,87
255,268	38,4
255,484	-16,9
255,701	-47,62
255,917	54,78
256,134	52,74
256,351	1,54
256,567	40,45
256,784	54,78
257	5,63
257,217	-16,9
257,433	-10,75
257,65	-29,18
257,866	7,68
258,082	-20,99
258,299	42,5
258,515	-4,61
258,732	-41,47
258,948	26,11
259,165	36,35
259,381	-43,52
259,597	13,82
259,814	-39,42
260,03	52,74
260,246	-41,47
260,463	42,5
260,679	32,26
260,895	-0,51
261,112	5,63
261,328	-39,42
261,544	-37,38
261,761	167,42
261,977	11,78
262,193	-29,18
262,409	-2,56
262,626	-25,09
262,842	-8,7
263,058	22,02
263,274	44,54
263,49	79,36
263,707	-18,94
263,923	40,45
264,139	28,16
264,355	22,02
264,571	32,26
264,787	-0,51
265,004	30,21
265,22	-53,76
265,436	-10,75
265,652	-2,56
265,868	-2,56
266,084	-20,99
266,3	38,4
266,516	-25,09
266,732	7,68
266,948	-37,38
267,164	1,54
267,38	11,78
267,596	48,64
267,812	-2,56
268,028	15,87
268,244	5,63
268,46	-0,51
268,676	-45,57
268,892	46,59
269,108	22,02
269,324	34,3
269,54	-31,23
269,756	36,35
269,972	56,83
270,188	11,78
270,403	28,16
270,619	67,07
270,835	26,11
271,051	-10,75
271,267	19,97
271,483	-10,75
271,698	-4,61
271,914	-45,57
272,13	-8,7
272,346	44,54
272,562	7,68
272,777	36,35
272,993	-57,86
273,209	5,63
273,425	13,82
273,64	7,68
273,856	-37,38
274,072	-37,38
274,287	-39,42
274,503	19,97
274,719	-57,86
274,934	-12,8
275,15	-41,47
275,366	-4,61
275,581	-47,62
275,797	1,54
276,012	-33,28
276,228	-82,43
276,444	28,16
276,659	7,68
276,875	-68,09
277,09	22,02
277,306	-12,8
277,521	40,45
277,737	-29,18
277,952	-0,51
278,168	1,54
278,383	-41,47
278,599	-31,23
278,814	46,59
279,03	50,69
279,245	9,73
279,461	26,11
279,676	77,31
279,892	15,87
280,107	-43,52
280,322	30,21
280,538	-0,51
280,753	15,87
280,969	13,82
281,184	-4,61
281,399	-25,09
281,615	-2,56
281,83	-18,94
282,045	-23,04
282,26	-39,42
282,476	-51,71
282,691	-27,14
282,906	-86,53
283,122	19,97
283,337	36,35
283,552	40,45
283,767	-41,47
283,983	46,59
284,198	52,74
284,413	60,93
284,628	-66,05
284,843	1,54
285,058	11,78
285,274	-35,33
285,489	-20,99
285,704	13,82
285,919	-53,76
286,134	-35,33
286,349	3,58
286,564	9,73
286,779	44,54
286,995	3,58
287,21	9,73
287,425	22,02
287,64	-10,75
287,855	71,17
288,07	3,58
288,285	46,59
288,5	87,55
288,715	50,69
288,93	-27,14
289,145	-20,99
289,36	3,58
289,575	38,4
289,79	13,82
290,004	-16,9
290,219	75,26
290,434	-20,99
290,649	19,97
290,864	-27,14
291,079	73,21
291,294	11,78
291,509	-45,57
291,724	28,16
291,938	-14,85
292,153	46,59
292,368	-2,56
292,583	-8,7
292,798	13,82
293,012	-12,8
293,227	34,3
293,442	9,73
293,657	7,68
293,871	38,4
294,086	-29,18
294,301	62,98
294,516	34,3
294,73	60,93
294,945	22,02
295,16	36,35
295,374	54,78
295,589	17,92
295,804	-43,52
296,018	56,83
296,233	5,63
296,447	36,35
296,662	-16,9
296,877	-76,29
297,091	24,06
297,306	-45,57
297,52	95,74
297,735	3,58
297,949	77,31
298,164	11,78
298,378	19,97
298,593	-25,09
298,807	-45,57
299,022	-41,47
299,236	65,02
299,451	28,16
299,665	46,59
299,88	15,87
300,094	-33,28
300,309	50,69
300,523	-29,18
300,737	30,21
300,952	44,54
301,166	-31,23
301,381	-20,99
301,595	-23,04
301,809	60,93
302,024	-4,61
302,238	5,63
302,452	60,93
302,667	19,97
302,881	44,54
303,095	-53,76
303,309	110,08
303,524	-12,8
303,738	60,93
303,952	24,06
304,166	73,21
304,381	-14,85
304,595	46,59
304,809	-37,38
305,023	22,02
305,237	36,35
305,452	30,21
305,666	32,26
305,88	38,4
306,094	19,97
306,308	60,93
306,522	67,07
306,736	62,98
306,95	79,36
307,164	36,35
307,379	-39,42
307,593	34,3
307,807	26,11
308,021	7,68
308,235	44,54
308,449	17,92
308,663	28,16
308,877	110,08
309,091	83,45
309,305	-14,85
309,519	-37,38
309,733	77,31
309,947	-45,57
310,161	93,69
310,374	38,4
310,588	77,31
310,802	-35,33
311,016	3,58
311,23	-8,7
311,444	-2,56
311,658	-25,09
311,872	5,63
312,085	30,21
312,299	40,45
312,513	-23,04
312,727	-27,14
312,941	13,82
313,154	44,54
313,368	-86,53
313,582	46,59
313,796	-25,09
314,009	-6,66
314,223	-2,56
314,437	-45,57
314,651	46,59
314,864	69,12
315,078	44,54
315,292	-66,05
315,505	-14,85
315,719	38,4
315,933	28,16
316,146	-16,9
316,36	28,16
316,573	15,87
316,787	13,82
317,001	3,58
317,214	24,06
317,428	22,02
317,641	-57,86
317,855	-43,52
318,068	44,54
318,282	-10,75
318,495	-12,8
318,709	-18,94
318,922	-61,95
319,136	9,73
319,349	-35,33
319,563	-53,76
319,776	54,78
319,99	7,68
320,203	9,73
320,417	13,82
320,63	87,55
320,843	30,21
321,057	34,3
321,27	40,45
321,483	-4,61
321,697	34,3
321,91	34,3
322,124	-0,51
322,337	44,54
322,55	24,06
322,763	15,87
322,977	-20,99
323,19	-16,9
323,403	-102,91
323,617	-14,85
323,83	87,55
324,043	15,87
324,256	38,4
324,469	-6,66
324,683	34,3
324,896	-51,71
325,109	-4,61
325,322	-37,38
325,535	44,54
325,748	7,68
325,962	17,92
326,175	-4,61
326,388	19,97
326,601	32,26
326,814	7,68
327,027	34,3
327,24	11,78
327,453	-33,28
327,666	38,4
327,879	99,84
328,092	17,92
328,305	-12,8
328,518	69,12
328,731	-43,52
328,944	-29,18
329,157	26,11
329,37	-20,99
329,583	67,07
329,796	87,55
330,009	-53,76
330,222	36,35
330,435	67,07
330,648	91,65
330,861	-57,86
331,073	44,54
331,286	65,02
331,499	1,54
331,712	85,5
331,925	-61,95
332,138	83,45
332,35	-37,38
332,563	-43,52
332,776	13,82
332,989	38,4
333,202	-6,66
333,414	7,68
333,627	-18,94
333,84	-33,28
334,053	85,5
334,265	19,97
334,478	-37,38
334,691	-25,09
334,903	93,69
335,116	-6,66
335,329	-37,38
335,541	44,54
335,754	48,64
335,966	-20,99
336,179	-23,04
336,392	-18,94
336,604	-16,9
336,817	-6,66
337,029	-12,8
337,242	-45,57
337,454	-4,61
337,667	-8,7
337,88	58,88
338,092	-2,56
338,305	67,07
338,517	-33,28
338,729	-8,7
338,942	60,93
339,154	46,59
339,367	30,21
339,579	-25,09
339,792	30,21
340,004	-29,18
340,217	52,74
340,429	19,97
340,641	-8,7
340,854	50,69
341,066	-10,75
341,278	36,35
341,491	32,26
341,703	-59,9
341,915	-59,9
342,128	38,4
342,34	1,54
342,552	30,21
342,764	24,06
342,977	34,3
343,189	54,78
343,401	-25,09
343,613	-47,62
343,826	5,63
344,038	-23,04
344,25	17,92
344,462	-23,04
344,674	54,78
344,886	30,21
345,099	93,69
345,311	1,54
345,523	-51,71
345,735	-25,09
345,947	36,35
346,159	-8,7
346,371	19,97
346,583	58,88
346,795	-4,61
347,007	-18,94
347,219	-39,42
347,431	32,26
347,643	-4,61
347,855	-0,51
348,067	46,59
348,279	-4,61
348,491	17,92
348,703	-4,61
348,915	22,02
349,127	-16,9
349,339	-27,14
349,551	-2,56
349,763	42,5
349,975	-8,7
350,187	3,58
350,399	65,02
350,61	7,68
350,822	-8,7
351,034	-2,56
351,246	-6,66
351,458	60,93
351,669	15,87
351,881	13,82
352,093	7,68
352,305	103,93
352,517	19,97
352,728	52,74
352,94	-2,56
353,152	13,82
353,363	-27,14
353,575	91,65
353,787	54,78
353,999	46,59
354,21	42,5
354,422	3,58
354,633	-29,18
354,845	19,97
355,057	28,16
355,268	30,21
355,48	60,93
355,692	-25,09
355,903	15,87
356,115	-76,29
356,326	-45,57
356,538	13,82
356,749	30,21
356,961	89,6
357,172	15,87
357,384	-37,38
357,595	83,45
357,807	-37,38
358,018	22,02
358,23	24,06
358,441	7,68
358,653	36,35
358,864	71,17
359,075	-47,62
359,287	-29,18
359,498	103,93
359,709	11,78
359,921	28,16
360,132	38,4
360,344	7,68
360,555	-35,33
360,766	-0,51
360,977	-55,81
361,189	30,21
361,4	15,87
361,611	17,92
361,823	42,5
362,034	7,68
362,245	5,63
362,456	26,11
362,667	24,06
362,879	-45,57
363,09	-20,99
363,301	62,98
363,512	44,54
363,723	30,21
363,935	-41,47
364,146	22,02
364,357	11,78
364,568	7,68
364,779	-20,99
364,99	148,99
365,201	69,12
365,412	36,35
365,623	-25,09
365,834	58,88
366,045	-43,52
366,256	67,07
366,467	11,78
366,678	120,32
366,889	69,12
367,1	13,82
367,311	71,17
367,522	11,78
367,733	24,06
367,944	24,06
368,155	-18,94
368,366	60,93
368,577	13,82
368,788	28,16
368,999	69,12
369,209	-18,94
369,42	54,78
369,631	54,78
369,842	3,58
370,053	-25,09
370,264	26,11
370,474	-16,9
370,685	34,3
370,896	13,82
371,107	3,58
371,317	42,5
371,528	60,93
371,739	-37,38
371,95	-0,51
372,16	19,97
372,371	5,63
372,582	83,45
372,792	-20,99
373,003	40,45
373,214	3,58
373,424	60,93
373,635	3,58
373,846	22,02
374,056	-4,61
374,267	5,63
374,477	-49,66
374,688	-43,52
374,898	34,3
375,109	-12,8
375,319	24,06
375,53	34,3
375,74	52,74
375,951	36,35
376,161	-90,62
376,372	11,78
376,582	-2,56
376,793	5,63
377,003	26,11
377,214	-29,18
377,424	71,17
377,635	-12,8
377,845	54,78
378,055	34,3
378,266	-4,61
378,476	56,83
378,686	-25,09
378,897	71,17
379,107	42,5
379,317	-23,04
379,528	-41,47
379,738	-33,28
379,948	-20,99
380,158	65,02
380,369	-4,61
380,579	36,35
380,789	-12,8
380,999	46,59
381,21	73,21
381,42	36,35
381,63	56,83
381,84	-4,61
382,05	-12,8
382,261	73,21
382,471	38,4
382,681	-29,18
382,891	13,82
383,101	7,68
383,311	-12,8
383,521	-37,38
383,731	48,64
383,941	44,54
384,151	-6,66
384,361	-4,61
384,571	17,92
384,781	52,74
384,991	-16,9
385,201	87,55
385,411	58,88
385,621	-2,56
385,831	-6,66
386,041	32,26
386,251	-8,7
386,461	89,6
386,671	46,59
386,881	32,26
387,091	67,07
387,301	97,79
387,511	-0,51
387,72	34,3
387,93	-37,38
388,14	-31,23
388,35	-41,47
388,56	54,78
388,769	-12,8
388,979	87,55
389,189	9,73
389,399	52,74
389,609	-61,95
389,818	-45,57
390,028	40,45
390,238	-41,47
390,447	7,68
390,657	116,22
390,867	-70,14
391,076	-59,9
391,286	28,16
391,496	3,58
391,705	19,97
391,915	-27,14
392,125	52,74
392,334	17,92
392,544	58,88
392,753	30,21
392,963	-37,38
393,172	17,92
393,382	95,74
393,591	52,74
393,801	19,97
394,01	50,69
394,22	22,02
394,429	28,16
394,639	-6,66
394,848	9,73
395,058	3,58
395,267	-10,75
395,477	62,98
395,686	58,88
395,895	50,69
396,105	19,97
396,314	5,63
396,524	71,17
396,733	-37,38
396,942	60,93
397,152	124,41
397,361	69,12
397,57	28,16
397,78	95,74
397,989	40,45
398,198	60,93
398,407	-18,94
398,617	-61,95
398,826	36,35
399,035	32,26
399,244	30,21
399,453	30,21
399,663	58,88
399,872	62,98
400,081	-16,9
400,29	85,5
400,499	-10,75
400,708	105,98
400,917	30,21
401,127	7,68
401,336	-10,75
401,545	-41,47
401,754	36,35
401,963	85,5
402,172	52,74
402,381	36,35
402,59	17,92
402,799	120,32
403,008	87,55
403,217	22,02
403,426	36,35
403,635	9,73
403,844	99,84
404,053	13,82
404,262	-25,09
404,471	17,92
404,68	24,06
404,888	44,54
405,097	-20,99
405,306	-23,04
405,515	48,64
405,724	28,16
405,933	17,92
406,142	24,06
406,35	-10,75
406,559	-51,71
406,768	44,54
406,977	-25,09
407,185	110,08
407,394	50,69
407,603	-10,75
407,812	65,02
408,02	40,45
408,229	62,98
408,438	-61,95
408,646	7,68
408,855	-31,23
409,064	24,06
409,272	11,78
409,481	-2,56
409,69	44,54
409,898	-39,42
410,107	54,78
410,315	65,02
410,524	-51,71
410,733	-4,61
410,941	-18,94
411,15	7,68
411,358	28,16
411,567	108,03
411,775	32,26
411,984	5,63
412,192	36,35
412,401	99,84
412,609	52,74
412,818	-0,51
413,026	44,54
413,234	19,97
413,443	60,93
413,651	-2,56
413,86	26,11
414,068	60,93
414,276	77,31
414,485	56,83
414,693	44,54
414,901	112,13
415,11	77,31
415,318	22,02
415,526	95,74
415,734	95,74
415,943	30,21
416,151	105,98
416,359	79,36
416,567	44,54
416,776	28,16
416,984	46,59
417,192	69,12
417,4	-27,14
417,608	32,26
417,817	13,82
418,025	54,78
418,233	46,59
418,441	46,59
418,649	52,74
418,857	89,6
419,065	105,98
419,273	-2,56
419,481	85,5
419,689	93,69
419,897	85,5
420,105	73,21
420,313	13,82
420,521	136,7
420,729	77,31
420,937	-2,56
421,145	52,74
421,353	42,5
421,561	130,56
421,769	73,21
421,977	54,78
422,185	142,85
422,393	165,37
422,601	93,69
422,809	101,89
423,017	179,71
423,224	163,33
423,432	89,6
423,64	169,47
423,848	243,2
424,056	218,62
424,263	222,72
424,471	179,71
424,679	347,64
424,887	351,74
425,094	327,16
425,302	378,36
425,51	384,51
425,718	460,28
425,925	536,06
426,133	511,48
426,341	673,27
426,548	740,85
426,756	769,52
426,964	871,92
427,171	978,42
427,379	1162,73
427,586	1213,93
427,794	1428,97
428,001	1668,58
428,209	1912,29
428,417	2135,52
428,624	2459,1
428,832	2764,25
429,039	3085,78
429,247	3560,91
429,454	4386,24
429,662	5004,72
429,869	5139,89
430,076	6237,6
430,284	6954,39
430,491	8160,64
430,699	9631,09
430,906	10720,6
431,114	11955,53
431,321	13643,06
431,528	15185,18
431,736	17677,55
431,943	19913,94
432,15	20847,81
432,358	22502,57
432,565	25539,71
432,772	27335,77
432,979	29563,96
433,187	31321,12
433,394	32693,26
433,601	35963,87
433,808	37194,7
434,016	37387,21
434,223	39259,05
434,43	42437,5
434,637	41448,33
434,844	44006,24
435,052	45017,94
435,259	44395,35
435,466	44374,87
435,673	43567,98
435,88	46340,92
436,087	48479
436,294	48190,24
436,501	47098,67
436,708	46732,09
436,915	47973,16
437,122	49351,44
437,329	48143,14
437,537	49232,66
437,743	50000,65
437,95	48483,1
438,157	49804,04
438,364	51763,95
438,571	50918,14
438,778	49935,11
438,985	53140,18
439,192	50649,85
439,399	51520,24
439,606	50289,41
439,813	51229,43
440,02	53191,38
440,227	51688,17
440,433	49709,83
440,64	50471,68
440,847	47860,52
441,054	47215,41
441,261	47975,2
441,467	44999,51
441,674	43563,88
441,881	42091,39
442,088	39707,55
442,294	36361,17
442,501	34655,22
442,708	31898,65
442,914	30006,33
443,121	27571,29
443,328	24147,09
443,534	22600,87
443,741	19266,78
443,948	16538,88
444,154	15643,92
444,361	13616,43
444,568	11650,38
444,774	9997,67
444,981	8783,23
445,187	7826,82
445,394	6921,62
445,6	6051,24
445,807	5690,79
446,013	4726,2
446,22	3997,12
446,426	3798,47
446,633	3378,64
446,839	2950,61
447,046	2573,78
447,252	2282,97
447,459	2029,03
447,665	1943,01
447,871	1717,73
448,078	1639,91
448,284	1314,28
448,491	1111,54
448,697	1242,61
448,903	1058,29
449,11	921,07
449,316	816,63
449,522	742,9
449,728	710,13
449,935	613,88
450,141	534,01
450,347	587,26
450,553	507,38
450,76	517,62
450,966	431,61
451,172	411,13
451,378	347,64
451,584	400,89
451,791	372,22
451,997	355,83
452,203	298,49
452,409	333,31
452,615	353,79
452,821	306,68
453,027	210,43
453,233	331,26
453,44	200,19
453,646	226,81
453,852	212,48
454,058	146,94
454,264	175,61
454,47	103,93
454,676	187,9
454,882	93,69
455,088	216,57
455,294	183,81
455,5	146,94
455,705	110,08
455,911	130,56
456,117	159,23
456,323	155,13
456,529	142,85
456,735	148,99
456,941	140,8
457,147	110,08
457,352	60,93
457,558	28,16
457,764	124,41
457,97	101,89
458,176	54,78
458,381	130,56
458,587	85,5
458,793	79,36
458,999	28,16
459,204	-0,51
459,41	28,16
459,616	101,89
459,821	91,65
460,027	19,97
460,233	65,02
460,438	112,13
460,644	79,36
460,85	-6,66
461,055	34,3
461,261	28,16
461,466	46,59
461,672	85,5
461,878	11,78
462,083	77,31
462,289	48,64
462,494	26,11
462,7	36,35
462,905	15,87
463,111	101,89
463,316	71,17
463,522	65,02
463,727	34,3
463,932	42,5
464,138	28,16
464,343	73,21
464,549	77,31
464,754	46,59
464,959	54,78
465,165	15,87
465,37	19,97
465,575	75,26
465,781	3,58
465,986	58,88
466,191	54,78
466,397	67,07
466,602	5,63
466,807	7,68
467,012	79,36
467,218	40,45
467,423	11,78
467,628	79,36
467,833	-25,09
468,038	5,63
468,244	-2,56
468,449	15,87
468,654	36,35
468,859	-25,09
469,064	24,06
469,269	-68,09
469,474	75,26
469,679	60,93
469,885	54,78
470,09	36,35
470,295	93,69
470,5	1,54
470,705	44,54
470,91	97,79
471,115	79,36
471,32	65,02
471,525	32,26
471,73	105,98
471,935	-12,8
472,139	-29,18
472,344	9,73
472,549	46,59
472,754	-14,85
472,959	34,3
473,164	62,98
473,369	112,13
473,574	81,41
473,778	19,97
473,983	-51,71
474,188	17,92
474,393	-35,33
474,598	-12,8
474,802	22,02
475,007	3,58
475,212	118,27
475,417	28,16
475,621	-18,94
475,826	22,02
476,031	-12,8
476,235	7,68
476,44	13,82
476,645	69,12
476,849	15,87
477,054	-29,18
477,259	34,3
477,463	110,08
477,668	77,31
477,872	7,68
478,077	89,6
478,282	-0,51
478,486	-18,94
478,691	114,17
478,895	79,36
479,1	114,17
479,304	44,54
479,509	15,87
479,713	-2,56
479,918	5,63
480,122	79,36
480,326	7,68
480,531	-27,14
480,735	24,06
480,94	93,69
481,144	15,87
481,348	28,16
481,553	17,92
481,757	-61,95
481,961	22,02
482,166	-16,9
482,37	15,87
482,574	3,58
482,778	15,87
482,983	60,93
483,187	48,64
483,391	44,54
483,595	32,26
483,8	56,83
484,004	-14,85
484,208	60,93
484,412	38,4
484,616	19,97
484,821	17,92
485,025	3,58
485,229	11,78
485,433	60,93
485,637	-27,14
485,841	13,82
486,045	24,06
486,249	52,74
486,453	38,4
486,657	28,16
486,861	-51,71
487,065	62,98
487,269	71,17
487,473	-41,47
487,677	3,58
487,881	110,08
488,085	15,87
488,289	38,4
488,493	-47,62
488,697	69,12
488,901	13,82
489,105	44,54
489,309	52,74
489,512	19,97
489,716	11,78
489,92	-4,61
490,124	87,55
490,328	34,3
490,531	38,4
490,735	32,26
490,939	-14,85
491,143	-12,8
491,346	108,03
491,55	-25,09
491,754	11,78
491,958	-66,05
492,161	50,69
492,365	34,3
492,569	40,45
492,772	5,63
492,976	28,16
493,18	19,97
493,383	42,5
493,587	1,54
493,79	58,88
493,994	38,4
494,197	34,3
494,401	-37,38
494,605	-33,28
494,808	54,78
495,012	26,11
495,215	3,58
495,419	3,58
495,622	15,87
495,825	5,63
496,029	24,06
496,232	40,45
496,436	15,87
496,639	-61,95
496,843	15,87
497,046	32,26
497,249	95,74
497,453	-23,04
497,656	36,35
497,859	-37,38
498,063	50,69
498,266	11,78
498,469	-57,86
498,673	-35,33
498,876	-14,85
499,079	-102,91
499,282	-74,24
499,485	56,83
499,689	17,92
499,892	19,97
500,095	-37,38
500,298	-25,09
500,501	-64
500,705	7,68
500,908	75,26
501,111	-0,51
501,314	-2,56
501,517	120,32
501,72	69,12
501,923	22,02
502,126	91,65
502,329	7,68
502,532	32,26
502,735	1,54
502,938	85,5
503,141	28,16
503,344	-6,66
503,547	30,21
503,75	26,11
503,953	15,87
504,156	26,11
504,359	3,58
504,562	22,02
504,765	-64
504,968	34,3
505,17	-72,19
505,373	15,87
505,576	-35,33
505,779	-43,52
505,982	28,16
506,185	32,26
506,387	-41,47
506,59	65,02
506,793	5,63
506,996	-12,8
507,198	11,78
507,401	81,41
507,604	3,58
507,807	-16,9
508,009	-31,23
508,212	-6,66
508,415	-20,99
508,617	32,26
508,82	-29,18
509,022	69,12
509,225	13,82
509,428	26,11
509,63	34,3
509,833	9,73
510,035	85,5
510,238	-0,51
510,44	32,26
510,643	5,63
510,845	36,35
511,048	87,55
511,25	40,45
511,453	-2,56
511,655	15,87
511,858	60,93
512,06	28,16
512,262	-39,42
512,465	15,87
512,667	13,82
512,87	-76,29
513,072	-0,51
513,274	-6,66
513,477	-27,14
513,679	67,07
513,881	89,6
514,084	-25,09
514,286	48,64
514,488	26,11
514,69	13,82
514,893	-27,14
515,095	5,63
515,297	48,64
515,499	-12,8
515,701	-82,43
515,904	-0,51
516,106	-25,09
516,308	44,54
516,51	44,54
516,712	24,06
516,914	-20,99
517,116	15,87
517,318	52,74
517,52	5,63
517,722	-4,61
517,925	52,74
518,127	-2,56
518,329	79,36
518,531	-25,09
518,733	-12,8
518,935	-18,94
519,136	17,92
519,338	28,16
519,54	-8,7
519,742	28,16
519,944	-49,66
520,146	-2,56
520,348	65,02
520,55	40,45
520,752	-16,9
520,954	-16,9
521,155	58,88
521,357	26,11
521,559	26,11
521,761	50,69
521,963	-16,9
522,164	77,31
522,366	11,78
522,568	-123,39
522,77	22,02
522,971	46,59
523,173	-16,9
523,375	71,17
523,576	28,16
523,778	5,63
523,98	46,59
524,181	58,88
524,383	3,58
524,584	1,54
524,786	36,35
524,988	24,06
525,189	67,07
525,391	-8,7
525,592	93,69
525,794	-109,05
525,995	3,58
526,197	-2,56
526,398	38,4
526,6	-2,56
526,801	36,35
527,003	9,73
527,204	71,17
527,406	-45,57
527,607	32,26
527,808	36,35
528,01	-16,9
528,211	3,58
528,412	3,58
528,614	-0,51
528,815	-12,8
529,016	7,68
529,218	-115,2
529,419	32,26
529,62	-53,76
529,822	48,64
530,023	44,54
530,224	-16,9
530,425	30,21
530,626	17,92
530,828	40,45
531,029	7,68
531,23	9,73
531,431	-35,33
531,632	-20,99
531,833	1,54
532,035	-6,66
532,236	-10,75
532,437	65,02
532,638	13,82
532,839	48,64
533,04	-51,71
533,241	-4,61
533,442	-53,76
533,643	-4,61
533,844	-31,23
534,045	-16,9
534,246	13,82
534,447	-2,56
534,648	24,06
534,849	-16,9
535,05	-16,9
535,251	13,82
535,451	-51,71
535,652	5,63
535,853	-8,7
536,054	50,69
536,255	-35,33
536,456	13,82
536,657	-23,04
536,857	60,93
537,058	22,02
537,259	-25,09
537,46	1,54
537,66	56,83
537,861	3,58
538,062	-37,38
538,263	-33,28
538,463	60,93
538,664	-35,33
538,865	28,16
539,065	-20,99
539,266	22,02
539,466	-25,09
539,667	5,63
539,868	-0,51
540,068	11,78
540,269	-41,47
540,469	19,97
540,67	50,69
540,87	103,93
541,071	-66,05
541,271	19,97
541,472	-59,9
541,672	-10,75
541,873	3,58
542,073	50,69
542,274	-45,57
542,474	75,26
542,675	7,68
542,875	-27,14
543,075	-29,18
543,276	-68,09
543,476	15,87
543,676	44,54
543,877	7,68
544,077	52,74
544,277	-20,99
544,478	9,73
544,678	-25,09
544,878	56,83
545,078	-18,94
545,279	32,26
545,479	7,68
545,679	24,06
545,879	-20,99
546,079	-14,85
546,28	36,35
546,48	22,02
546,68	32,26
546,88	-25,09
547,08	81,41
547,28	148,99
547,48	11,78
547,68	30,21
547,88	-47,62
548,081	40,45
548,281	-27,14
548,481	-16,9
548,681	-27,14
548,881	54,78
549,081	-0,51
549,28	-33,28
549,48	-35,33
549,68	7,68
549,88	19,97
550,08	-43,52
550,28	3,58
550,48	-37,38
550,68	-43,52
550,88	30,21
551,08	42,5
551,279	122,37
551,479	-23,04
551,679	62,98
551,879	-29,18
552,079	-12,8
552,278	-18,94
552,478	91,65
552,678	19,97
552,878	93,69
553,077	-51,71
553,277	28,16
553,477	26,11
553,676	85,5
553,876	19,97
554,076	38,4
554,275	15,87
554,475	17,92
554,674	13,82
554,874	11,78
555,074	-4,61
555,273	-90,62
555,473	-49,66
555,672	-59,9
555,872	-25,09
556,071	-47,62
556,271	-10,75
556,47	1,54
556,67	7,68
556,869	93,69
557,068	-20,99
557,268	50,69
557,467	19,97
557,667	110,08
557,866	30,21
558,065	-29,18
558,265	-6,66
558,464	-29,18
558,663	28,16
558,863	91,65
559,062	-53,76
559,261	-0,51
559,461	24,06
559,66	-10,75
559,859	-25,09
560,058	62,98
560,258	24,06
560,457	-33,28
560,656	24,06
560,855	22,02
561,054	5,63
561,253	26,11
561,453	-10,75
561,652	34,3
561,851	22,02
562,05	-4,61
562,249	-107,01
562,448	-37,38
562,647	-39,42
562,846	-10,75
563,045	-66,05
563,244	36,35
563,443	-10,75
563,642	28,16
563,841	75,26
564,04	-12,8
564,239	1,54
564,438	-59,9
564,637	81,41
564,836	-94,72
565,035	-80,38
565,234	7,68
565,432	-4,61
565,631	11,78
565,83	32,26
566,029	-47,62
566,228	48,64
566,427	30,21
566,625	-4,61
566,824	77,31
567,023	-18,94
567,222	11,78
567,42	-43,52
567,619	-18,94
567,818	3,58
568,016	93,69
568,215	-20,99
568,414	-72,19
568,612	7,68
568,811	103,93
569,01	-4,61
569,208	38,4
569,407	-59,9
569,605	24,06
569,804	-16,9
570,002	11,78
570,201	58,88
570,4	11,78
570,598	-53,76
570,797	19,97
570,995	-18,94
571,193	-4,61
571,392	-43,52
571,59	-74,24
571,789	-6,66
571,987	36,35
572,186	11,78
572,384	-27,14
572,582	44,54
572,781	69,12
572,979	7,68
573,177	7,68
573,376	-6,66
573,574	3,58
573,772	15,87
573,971	-10,75
574,169	-64
574,367	-12,8
574,565	-4,61
574,763	-25,09
574,962	50,69
575,16	-31,23
575,358	15,87
575,556	-16,9
575,754	-14,85
575,952	26,11
576,151	9,73
576,349	-12,8
576,547	60,93
576,745	-92,67
576,943	-4,61
577,141	-4,61
577,339	-45,57
577,537	-8,7
577,735	-45,57
577,933	15,87
578,131	7,68
578,329	5,63
578,527	-33,28
578,725	34,3
578,923	-49,66
579,121	-20,99
579,319	-74,24
579,516	11,78
579,714	81,41
579,912	-20,99
580,11	-82,43
580,308	-16,9
580,506	-18,94
580,704	3,58
580,901	-53,76
581,099	81,41
581,297	40,45
581,495	69,12
581,692	26,11
581,89	22,02
582,088	38,4
582,285	15,87
582,483	9,73
582,681	-45,57
582,878	-47,62
583,076	34,3
583,274	-29,18
583,471	65,02
583,669	-20,99
583,866	7,68
584,064	-12,8
584,262	-41,47
584,459	-41,47
584,657	36,35
584,854	-39,42
585,052	-12,8
585,249	38,4
585,447	28,16
585,644	-4,61
585,841	58,88
586,039	9,73
586,236	-14,85
586,434	9,73
586,631	13,82
586,828	-18,94
587,026	-29,18
587,223	5,63
587,42	-29,18
587,618	22,02
587,815	13,82
588,012	-0,51
588,21	30,21
588,407	-61,95
588,604	7,68
588,801	50,69
588,999	69,12
589,196	1,54
589,393	28,16
589,59	-57,86
589,787	52,74
589,984	79,36
590,182	54,78
590,379	-0,51
590,576	40,45
590,773	-53,76
590,97	67,07
591,167	-59,9
591,364	-14,85
591,561	1,54
591,758	91,65
591,955	-55,81
592,152	-49,66
592,349	-90,62
592,546	-109,05
592,743	36,35
592,94	73,21
593,137	-45,57
593,334	67,07
593,531	-16,9
593,727	-20,99
593,924	-51,71
594,121	-6,66
594,318	-33,28
594,515	44,54
594,712	44,54
594,908	-45,57
595,105	-31,23
595,302	15,87
595,499	42,5
595,696	50,69
595,892	-47,62
596,089	-29,18
596,286	-57,86
596,482	9,73
596,679	-12,8
596,876	-41,47
597,072	65,02
597,269	30,21
597,466	24,06
597,662	-113,15
597,859	-68,09
598,055	-68,09
598,252	28,16
598,448	-8,7
598,645	24,06
598,841	24,06
599,038	11,78
599,234	-4,61
599,431	-23,04
599,627	50,69
599,824	5,63
600,02	-43,52
600,217	5,63
600,413	44,54
600,609	-10,75
600,806	52,74
601,002	54,78
601,198	-12,8
601,395	-18,94
601,591	52,74
601,787	26,11
601,984	54,78
602,18	-2,56
602,376	-76,29
602,572	30,21
602,769	60,93
602,965	-12,8
603,161	19,97
603,357	-43,52
603,553	-78,33
603,75	1,54
603,946	38,4
604,142	1,54
604,338	52,74
604,534	-76,29
604,73	28,16
604,926	-61,95
605,122	-27,14
605,318	-45,57
605,514	11,78
605,71	22,02
605,906	-27,14
606,102	36,35
606,298	-27,14
606,494	3,58
606,69	-12,8
606,886	-14,85
607,082	9,73
607,278	-14,85
607,474	-4,61
607,67	19,97
607,866	-61,95
608,062	-29,18
608,257	46,59
608,453	42,5
608,649	3,58
608,845	-49,66
609,041	-53,76
609,236	-25,09
609,432	-4,61
609,628	60,93
609,824	13,82
610,019	-35,33
610,215	-35,33
610,411	-4,61
610,606	38,4
610,802	-43,52
610,998	-8,7
611,193	-49,66
611,389	36,35
611,584	-61,95
611,78	-29,18
611,976	77,31
612,171	32,26
612,367	54,78
612,562	-39,42
612,758	11,78
612,953	3,58
613,149	-10,75
613,344	-27,14
613,539	-2,56
613,735	-27,14
613,93	60,93
614,126	-12,8
614,321	-20,99
614,517	48,64
614,712	3,58
614,907	-53,76
615,103	-10,75
615,298	-90,62
615,493	-84,48
615,688	-115,2
615,884	-10,75
616,079	-23,04
616,274	-20,99
616,47	-29,18
616,665	-90,62
616,86	28,16
617,055	-33,28
617,25	-16,9
617,445	34,3
617,641	60,93
617,836	-61,95
618,031	-45,57
618,226	22,02
618,421	56,83
618,616	-61,95
618,811	-25,09
619,006	11,78
619,201	-16,9
619,396	-16,9
619,591	-8,7
619,786	24,06
619,981	56,83
620,176	44,54
620,371	-33,28
620,566	-64
620,761	60,93
620,956	22,02
621,151	-47,62
621,346	-29,18
621,541	-18,94
621,735	69,12
621,93	-35,33
622,125	-4,61
622,32	28,16
622,515	-27,14
622,709	28,16
622,904	-51,71
623,099	32,26
623,294	3,58
623,488	-12,8
623,683	-4,61
623,878	44,54
624,072	-33,28
624,267	-53,76
624,462	-31,23
624,656	13,82
624,851	28,16
625,046	3,58
625,24	50,69
625,435	-2,56
625,629	-33,28
625,824	34,3
626,018	19,97
626,213	-0,51
626,407	-47,62
626,602	-35,33
626,796	22,02
626,991	-23,04
627,185	-37,38
627,38	36,35
627,574	-12,8
627,768	19,97
627,963	-25,09
628,157	28,16
628,352	19,97
628,546	-39,42
628,74	13,82
628,935	-8,7
629,129	-78,33
629,323	65,02
629,517	-53,76
629,712	28,16
629,906	38,4
630,1	58,88
630,294	-31,23
630,489	-76,29
630,683	-20,99
630,877	-20,99
631,071	-10,75
631,265	-61,95
631,459	77,31
631,653	5,63
631,848	40,45
632,042	-57,86
632,236	26,11
632,43	34,3
632,624	-37,38
632,818	1,54
633,012	40,45
633,206	3,58
633,4	-6,66
633,594	26,11
633,788	-29,18
633,982	19,97
634,176	-18,94
634,369	-20,99
634,563	93,69
634,757	28,16
634,951	-70,14
635,145	-12,8
635,339	40,45
635,533	13,82
635,726	3,58
635,92	-64
636,114	-0,51
636,308	-45,57
636,501	-57,86
636,695	-0,51
636,889	-27,14
637,083	28,16
637,276	-20,99
637,47	-20,99
637,664	-10,75
637,857	71,17
638,051	-49,66
638,244	95,74
638,438	-68,09
638,632	28,16
638,825	-70,14
639,019	22,02
639,212	-29,18
639,406	-14,85
639,599	-61,95
639,793	-43,52
639,986	17,92
640,18	13,82
640,373	-41,47
640,567	38,4
640,76	-2,56
640,954	44,54
641,147	-35,33
641,34	-45,57
641,534	-6,66
641,727	-10,75
641,92	77,31
642,114	13,82
642,307	13,82
642,5	36,35
642,694	-12,8
642,887	-4,61
643,08	1,54
643,273	-2,56
643,467	7,68
643,66	-29,18
643,853	1,54
644,046	71,17
644,239	11,78
644,432	-6,66
644,626	5,63
644,819	60,93
645,012	62,98
645,205	-4,61
645,398	73,21
645,591	-2,56
645,784	-20,99
645,977	54,78
646,17	83,45
646,363	7,68
646,556	-64
646,749	-8,7
646,942	-84,48
647,135	24,06
647,328	38,4
647,521	52,74
647,714	54,78
647,907	-25,09
648,099	-45,57
648,292	-4,61
648,485	24,06
648,678	-0,51
648,871	-10,75
649,064	-39,42
649,256	17,92
649,449	-29,18
649,642	-84,48
649,835	-4,61
650,027	60,93
650,22	-6,66
650,413	22,02
650,605	56,83
650,798	17,92
650,991	54,78
651,183	-16,9
651,376	36,35
651,568	67,07
651,761	19,97
651,954	-43,52
652,146	-0,51
652,339	38,4
652,531	71,17
652,724	5,63
652,916	28,16
653,109	-4,61
653,301	97,79
653,494	62,98
653,686	65,02
653,879	-39,42
654,071	-68,09
654,263	-59,9
654,456	-35,33
654,648	24,06
654,84	19,97
655,033	-4,61
655,225	40,45
655,417	40,45
655,61	62,98
655,802	3,58
655,994	-12,8
656,186	-0,51
656,379	62,98
656,571	-18,94
656,763	50,69
656,955	-10,75
657,148	52,74
657,34	-8,7
657,532	5,63
657,724	-33,28
657,916	-8,7
658,108	38,4
658,3	81,41
658,492	-51,71
658,684	-6,66
658,876	-12,8
659,068	-16,9
659,26	-18,94
659,452	-16,9
659,644	-43,52
659,836	77,31
660,028	-6,66
660,22	36,35
660,412	-23,04
660,604	-68,09
660,796	13,82
660,988	5,63
661,18	7,68
661,372	11,78
661,563	79,36
661,755	-8,7
661,947	-23,04
662,139	-64
662,331	-10,75
662,522	-4,61
662,714	-25,09
662,906	28,16
663,097	-20,99
663,289	-61,95
663,481	9,73
663,673	42,5
663,864	-8,7
664,056	-55,81
664,247	-86,53
664,439	30,21
664,631	-10,75
664,822	46,59
665,014	-16,9
665,205	-23,04
665,397	5,63
665,588	-12,8
665,78	-47,62
665,971	34,3
666,163	-20,99
666,354	40,45
666,546	-47,62
666,737	19,97
666,929	3,58
667,12	11,78
667,311	50,69
667,503	-20,99
667,694	-16,9
667,885	1,54
668,077	40,45
668,268	9,73
668,459	-53,76
668,651	5,63
668,842	-51,71
669,033	-16,9
669,224	-45,57
669,416	81,41
669,607	42,5
669,798	30,21
669,989	112,13
670,18	15,87
670,371	38,4
670,563	-12,8
670,754	50,69
670,945	87,55
671,136	50,69
671,327	-12,8
671,518	48,64
671,709	108,03
671,9	36,35
672,091	58,88
672,282	13,82
672,473	38,4
672,664	19,97
672,855	-49,66
673,046	-27,14
673,237	44,54
673,428	-2,56
673,619	56,83
673,809	-8,7
674	42,5
674,191	-16,9
674,382	-76,29
674,573	-10,75
674,764	19,97
674,954	30,21
675,145	-8,7
675,336	-53,76
675,527	-51,71
675,717	30,21
675,908	32,26
676,099	-27,14
676,289	-27,14
676,48	-82,43
676,671	56,83
676,861	3,58
677,052	11,78
677,243	-8,7
677,433	-33,28
677,624	-53,76
677,814	9,73
678,005	-2,56
678,195	110,08
678,386	13,82
678,576	3,58
678,767	5,63
678,957	-39,42
679,148	13,82
679,338	3,58
679,529	11,78
679,719	44,54
679,909	-33,28
680,1	11,78
680,29	3,58
680,481	-33,28
680,671	1,54
680,861	-14,85
681,052	26,11
681,242	-14,85
681,432	24,06
681,622	-12,8
681,813	-16,9
682,003	-4,61
682,193	3,58
682,383	-4,61
682,573	5,63
682,764	-16,9
682,954	3,58
683,144	36,35
683,334	-20,99
683,524	-72,19
683,714	5,63
683,904	32,26
684,094	-18,94
684,284	13,82
684,474	15,87
684,664	44,54
684,854	19,97
685,044	-39,42
685,234	-18,94
685,424	-20,99
685,614	7,68
685,804	3,58
685,994	77,31
686,184	-55,81
686,374	36,35
686,564	-53,76
686,753	-4,61
686,943	9,73
687,133	24,06
687,323	-20,99
687,513	-18,94
687,702	42,5
687,892	11,78
688,082	-27,14
688,272	28,16
688,461	46,59
688,651	77,31
688,841	1,54
689,03	-25,09
689,22	-12,8
689,41	11,78
689,599	19,97
689,789	-37,38
689,979	-12,8
690,168	60,93
690,358	17,92
690,547	-68,09
690,737	5,63
690,926	22,02
691,116	48,64
691,305	26,11
691,495	48,64
691,684	-53,76
691,874	11,78
692,063	60,93
692,252	71,17
692,442	69,12
692,631	77,31
692,82	24,06
693,01	85,5
693,199	26,11
693,388	56,83
693,578	-16,9
693,767	19,97
693,956	24,06
694,146	36,35
694,335	-4,61
694,524	-31,23
694,713	-18,94
694,902	-6,66
695,092	-45,57
695,281	-23,04
695,47	-51,71
695,659	7,68
695,848	-18,94
696,037	54,78
696,226	44,54
696,415	24,06
696,604	13,82
696,793	54,78
696,982	-25,09
697,171	30,21
697,36	-18,94
697,549	38,4
697,738	-51,71
697,927	-37,38
698,116	-33,28
698,305	60,93
698,494	62,98
698,683	-35,33
698,872	52,74
699,061	-4,61
699,25	40,45
699,438	9,73
699,627	38,4
699,816	67,07
700,005	11,78
700,193	-8,7
700,382	38,4
700,571	-18,94
700,76	-0,51
700,948	-16,9
701,137	28,16
701,326	5,63
701,514	-35,33
701,703	-27,14
701,892	19,97
702,08	77,31
702,269	-29,18
702,457	36,35
702,646	-18,94
702,834	5,63
703,023	13,82
703,212	40,45
703,4	32,26
703,589	-27,14
703,777	-29,18
703,965	65,02
704,154	-31,23
704,342	19,97
704,531	-8,7
704,719	-16,9
704,907	38,4
705,096	5,63
705,284	-70,14
705,472	-74,24
705,661	-12,8
705,849	28,16
706,037	17,92
706,226	-37,38
706,414	19,97
706,602	3,58
706,79	50,69
706,979	1,54
707,167	19,97
707,355	-47,62
707,543	36,35
707,731	28,16
707,919	-12,8
708,107	-16,9
708,296	73,21
708,484	5,63
708,672	118,27
708,86	13,82
709,048	60,93
709,236	1,54
709,424	17,92
709,612	73,21
709,8	-84,48
709,988	28,16
710,176	58,88
710,364	77,31
710,551	-53,76
710,739	-12,8
710,927	-45,57
711,115	-0,51
711,303	99,84
711,491	44,54
711,679	22,02
711,866	-45,57
712,054	79,36
712,242	36,35
712,43	13,82
712,617	-16,9
712,805	17,92
712,993	48,64
713,181	-47,62
713,368	-20,99
713,556	-35,33
713,744	-16,9
713,931	62,98
714,119	36,35
714,306	5,63
714,494	-20,99
714,682	46,59
714,869	38,4
715,057	-25,09
715,244	-92,67
715,432	28,16
715,619	-53,76
715,807	30,21
715,994	58,88
716,182	15,87
716,369	-37,38
716,556	5,63
716,744	-4,61
716,931	-12,8
717,119	22,02
717,306	-66,05
717,493	-57,86
717,681	19,97
717,868	19,97
718,055	-64
718,242	-18,94
718,43	9,73
718,617	32,26
718,804	67,07
718,991	17,92
719,179	19,97
719,366	-2,56
719,553	-14,85
719,74	-2,56
719,927	-20,99
720,114	-29,18
720,301	3,58
720,488	-84,48
720,676	-10,75
720,863	28,16
721,05	46,59
721,237	24,06
721,424	-25,09
721,611	-61,95
721,798	-33,28
721,985	-4,61
722,172	-68,09
722,358	-23,04
722,545	-70,14
722,732	48,64
722,919	3,58
723,106	-10,75
723,293	48,64
723,48	-25,09
723,667	-53,76
723,853	56,83
724,04	-16,9
724,227	114,17
724,414	32,26
724,6	54,78
724,787	73,21
724,974	-16,9
725,161	-25,09
725,347	13,82
725,534	-20,99
725,72	89,6
725,907	34,3
726,094	-4,61
726,28	-43,52
726,467	44,54
726,653	-27,14
726,84	75,26
727,027	22,02
727,213	15,87
727,4	44,54
727,586	-35,33
727,773	-2,56
727,959	19,97
728,145	-25,09
728,332	22,02
728,518	44,54
728,705	52,74
728,891	22,02
729,077	75,26
729,264	-20,99
729,45	-29,18
729,636	9,73
729,823	26,11
730,009	42,5
730,195	-4,61
730,382	60,93
730,568	-27,14
730,754	-0,51
730,94	15,87
731,126	15,87
731,313	32,26
731,499	-49,66
731,685	-35,33
731,871	24,06
732,057	-12,8
732,243	15,87
732,429	-61,95
732,615	-6,66
732,801	30,21
732,987	-6,66
733,173	38,4
733,359	38,4
733,545	56,83
733,731	-33,28
733,917	62,98
734,103	30,21
734,289	11,78
734,475	-10,75
734,661	-35,33
734,847	11,78
735,033	15,87
735,219	19,97
735,404	38,4
735,59	62,98
735,776	-12,8
735,962	-61,95
736,148	7,68
736,333	-29,18
736,519	19,97
736,705	-35,33
736,89	50,69
737,076	30,21
737,262	-53,76
737,447	-12,8
737,633	58,88
737,819	-10,75
738,004	95,74
738,19	-47,62
738,375	44,54
738,561	30,21
738,747	-16,9
738,932	-33,28
739,118	36,35
739,303	-18,94
739,489	-41,47
739,674	-55,81
739,859	3,58
740,045	24,06
740,23	52,74
740,416	-51,71
740,601	-0,51
740,786	-20,99
740,972	52,74
741,157	-14,85
741,342	-64
741,528	-55,81
741,713	38,4
741,898	-16,9
742,084	71,17
742,269	-27,14
742,454	44,54
742,639	52,74
742,824	-18,94
743,01	46,59
743,195	40,45
743,38	-2,56
743,565	-68,09
743,75	22,02
743,935	44,54
744,12	11,78
744,305	22,02
744,49	-4,61
744,675	73,21
744,86	-107,01
745,045	3,58
745,23	-31,23
745,415	-59,9
745,6	93,69
745,785	-27,14
745,97	44,54
746,155	-74,24
746,34	-20,99
746,525	22,02
746,71	44,54
746,895	-53,76
747,079	-64
747,264	17,92
747,449	-45,57
747,634	-45,57
747,819	-8,7
748,003	-45,57
748,188	-18,94
748,373	118,27
748,557	5,63
748,742	-53,76
748,927	34,3
749,111	-25,09
749,296	22,02
749,481	-35,33
749,665	9,73
749,85	-35,33
750,034	5,63
750,219	65,02
750,404	-18,94
750,588	-31,23
750,773	-27,14
750,957	-98,81
751,141	28,16
751,326	62,98
751,51	-35,33
751,695	-4,61
751,879	-51,71
752,064	-8,7
752,248	-0,51
752,432	56,83
752,617	-4,61
752,801	62,98
752,985	30,21
753,17	22,02
753,354	13,82
753,538	24,06
753,722	-39,42
753,907	34,3
754,091	-6,66
754,275	1,54
754,459	-43,52
754,643	7,68
754,828	-27,14
755,012	3,58
755,196	-33,28
755,38	34,3
755,564	77,31
755,748	-59,9
755,932	-64
756,116	-35,33
756,3	-74,24
756,484	32,26
756,668	19,97
756,852	-66,05
757,036	-8,7
757,22	-14,85
757,404	-57,86
757,588	30,21
757,772	-6,66
757,956	13,82
758,14	-41,47
758,323	-49,66
758,507	30,21
758,691	-61,95
758,875	7,68
759,059	40,45
759,242	-0,51
759,426	-10,75
759,61	15,87
759,794	-78,33
759,977	69,12
760,161	73,21
760,345	5,63
760,528	93,69
760,712	-27,14
760,895	-10,75
761,079	-51,71
761,263	-57,86
761,446	-14,85
761,63	38,4
761,813	-33,28
761,997	32,26
762,18	-76,29
762,364	-10,75
762,547	-51,71
762,731	-2,56
762,914	-100,86
763,098	-27,14
763,281	-20,99
763,464	36,35
763,648	-8,7
763,831	-16,9
764,015	-37,38
764,198	28,16
764,381	24,06
764,564	-2,56
764,748	-113,15
764,931	-23,04
765,114	-43,52
765,297	26,11
765,481	-61,95
765,664	-33,28
765,847	30,21
766,03	3,58
766,213	-0,51
766,397	-18,94
766,58	-25,09
766,763	11,78
766,946	-20,99
767,129	28,16
767,312	-12,8
767,495	-49,66
767,678	-98,81
767,861	5,63
768,044	-61,95
768,227	-6,66
768,41	-37,38
768,593	65,02
768,776	32,26
768,959	-12,8
769,142	48,64
769,324	-18,94
769,507	-16,9
769,69	-64
769,873	-104,96
770,056	13,82
770,239	-64
770,421	34,3
770,604	13,82
770,787	-4,61
770,97	-2,56
771,152	44,54
771,335	58,88
771,518	-4,61
771,7	-12,8
771,883	-4,61
772,066	15,87
772,248	19,97
772,431	-0,51
772,613	32,26
772,796	-18,94
772,978	22,02
773,161	-35,33
773,343	15,87
773,526	-33,28
773,708	24,06
773,891	-0,51
774,073	-2,56
774,256	-61,95
774,438	60,93
774,621	13,82
774,803	-8,7
774,985	69,12
775,168	-39,42
775,35	-6,66
775,532	30,21
775,715	1,54
775,897	30,21
776,079	-66,05
776,261	-31,23
776,444	-27,14
776,626	-47,62
776,808	-66,05
776,99	-23,04
777,173	-33,28
777,355	22,02
777,537	-86,53
777,719	-45,57
777,901	1,54
778,083	9,73
778,265	19,97
778,447	-12,8
778,629	24,06
778,811	19,97
778,993	97,79
779,175	19,97
779,357	30,21
779,539	-14,85
779,721	28,16
779,903	62,98
780,085	-20,99
780,267	-20,99
780,449	9,73
780,631	7,68
780,812	-4,61
780,994	-18,94
781,176	-51,71
781,358	19,97
781,54	-8,7
781,721	-43,52
781,903	-29,18
782,085	101,89
782,267	11,78
782,448	1,54
782,63	-70,14
782,812	44,54
782,993	97,79
783,175	32,26
783,357	-0,51
783,538	-23,04
783,72	-59,9
783,901	-6,66
784,083	-12,8
784,264	36,35
784,446	-72,19
784,627	-66,05
784,809	-4,61
784,99	-72,19
785,172	62,98
785,353	-27,14
785,535	-10,75
785,716	-20,99
785,897	-43,52
786,079	-2,56
786,26	-2,56
786,441	36,35
786,623	-39,42
786,804	38,4
786,985	-16,9
787,167	50,69
787,348	-27,14
787,529	42,5
787,71	5,63
787,891	52,74
788,073	-20,99
788,254	-6,66
788,435	26,11
788,616	-35,33
788,797	-4,61
788,978	1,54
789,159	-57,86
789,34	54,78
789,522	-33,28
789,703	-27,14
789,884	-16,9
790,065	-35,33
790,246	52,74
790,427	-8,7
790,607	1,54
790,788	81,41
790,969	-10,75
791,15	13,82
791,331	-0,51
791,512	-51,71
791,693	-41,47
791,874	11,78
792,054	13,82
792,235	-27,14
792,416	-27,14
792,597	-25,09
792,778	-45,57
792,958	65,02
793,139	-49,66
793,32	-29,18
793,5	-43,52
793,681	62,98
793,862	-31,23
794,042	-55,81
794,223	-55,81
794,404	-53,76
794,584	-61,95
794,765	24,06
794,945	17,92
795,126	67,07
795,306	-20,99
795,487	1,54
795,667	19,97
795,848	5,63
796,028	-20,99
796,209	28,16
796,389	-53,76
796,57	13,82
796,75	-86,53
796,93	-53,76
797,111	-35,33
797,291	28,16
797,471	15,87
797,652	5,63
797,832	-16,9
798,012	-43,52
798,192	7,68
798,373	-68,09
798,553	13,82
798,733	-18,94
798,913	-82,43
799,093	-35,33
799,274	28,16
799,454	28,16
799,634	50,69
799,814	15,87
799,994	-39,42
800,174	30,21
800,354	69,12
800,534	-43,52
800,714	-27,14
800,894	-59,9
801,074	22,02
801,254	-66,05
801,434	11,78
801,614	-49,66
801,794	-35,33
801,974	462,33
802,154	-45,57
802,334	77,31
802,514	-39,42
802,693	-2,56
802,873	83,45
803,053	44,54
803,233	19,97
803,413	-12,8
803,592	-84,48
803,772	-31,23
803,952	-33,28
804,131	36,35
804,311	9,73
804,491	-4,61
804,67	28,16
804,85	-25,09
805,03	-16,9
805,209	19,97
805,389	-20,99
805,568	-18,94
805,748	19,97
805,928	-20,99
806,107	56,83
806,287	93,69
806,466	11,78
806,646	26,11
806,825	-74,24
807,004	3,58
807,184	7,68
807,363	-29,18
807,543	-0,51
807,722	11,78
807,901	38,4
808,081	7,68
808,26	-82,43
808,439	7,68
808,619	-51,71
808,798	34,3
808,977	-59,9
809,156	34,3
809,336	26,11
809,515	65,02
809,694	-82,43
809,873	-33,28
810,052	-45,57
810,231	1,54
810,411	-55,81
810,59	7,68
810,769	-10,75
810,948	30,21
811,127	-76,29
811,306	3,58
811,485	-33,28
811,664	-27,14
811,843	-70,14
812,022	-18,94
812,201	62,98
812,38	5,63
812,559	-25,09
812,737	-20,99
812,916	-2,56
813,095	9,73
813,274	-70,14
813,453	3,58
813,632	-47,62
813,811	87,55
813,989	-35,33
814,168	48,64
814,347	-43,52
814,526	-10,75
814,704	22,02
814,883	28,16
815,062	-66,05
815,24	30,21
815,419	-29,18
815,598	19,97
815,776	-98,81
815,955	38,4
816,133	-20,99
816,312	7,68
816,49	-43,52
816,669	-23,04
816,847	-47,62
817,026	65,02
817,204	-10,75
817,383	-2,56
817,561	-47,62
817,74	-12,8
817,918	9,73
818,097	-61,95
818,275	-61,95
818,453	48,64
818,632	-51,71
818,81	24,06
818,988	-53,76
819,167	-35,33
819,345	5,63
819,523	-59,9
819,701	-27,14
819,879	7,68
820,058	-35,33
820,236	24,06
820,414	11,78
820,592	-2,56
820,77	-12,8
820,948	30,21
821,127	-33,28
821,305	-74,24
821,483	3,58
821,661	36,35
821,839	-31,23
822,017	48,64
822,195	-6,66
822,373	30,21
822,551	36,35
822,729	-2,56
822,907	42,5
823,085	-10,75
823,262	3,58
823,44	48,64
823,618	56,83
823,796	-33,28
823,974	15,87
824,152	-16,9
824,329	11,78
824,507	28,16
824,685	30,21
824,863	-20,99
825,04	7,68
825,218	-45,57
825,396	11,78
825,574	-37,38
825,751	-18,94
825,929	-4,61
826,107	-10,75
826,284	32,26
826,462	-25,09
826,639	28,16
826,817	-78,33
826,994	-27,14
827,172	-0,51
827,349	54,78
827,527	58,88
827,704	-20,99
827,882	-6,66
828,059	-8,7
828,237	-43,52
828,414	28,16
828,591	-74,24
828,769	9,73
828,946	-74,24
829,124	3,58
829,301	36,35
829,478	85,5
829,655	-27,14
829,833	-51,71
830,01	-47,62
830,187	-0,51
830,364	-78,33
830,542	48,64
830,719	-18,94
830,896	-0,51
831,073	-78,33
831,25	-57,86
831,427	19,97
831,604	-51,71
831,782	36,35
831,959	-8,7
832,136	-12,8
832,313	-29,18
832,49	60,93
832,667	-16,9
832,844	-0,51
833,021	-14,85
833,198	-55,81
833,374	26,11
833,551	11,78
833,728	17,92
833,905	105,98
834,082	-68,09
834,259	9,73
834,436	-16,9
834,612	-76,29
834,789	1,54
834,966	32,26
835,143	-33,28
835,319	5,63
835,496	26,11
835,673	-39,42
835,85	-4,61
836,026	1,54
836,203	65,02
836,38	-20,99
836,556	-33,28
836,733	-51,71
836,909	11,78
837,086	-72,19
837,262	-90,62
837,439	11,78
837,616	-4,61
837,792	-57,86
837,968	1,54
838,145	-51,71
838,321	-2,56
838,498	1,54
838,674	1,54
838,851	13,82
839,027	-70,14
839,203	-45,57
839,38	34,3
839,556	-29,18
839,732	1,54
839,909	-20,99
840,085	19,97
840,261	-12,8
840,437	-37,38
840,614	-8,7
840,79	9,73
840,966	-10,75
841,142	3,58
841,318	24,06
841,494	19,97
841,671	-12,8
841,847	11,78
842,023	17,92
842,199	30,21
842,375	-12,8
842,551	-66,05
842,727	-70,14
842,903	3,58
843,079	-20,99
843,255	46,59
843,431	-35,33
843,607	-16,9
843,783	-10,75
843,959	19,97
844,134	-29,18
844,31	-10,75
844,486	-31,23
844,662	-2,56
844,838	58,88
845,013	54,78
845,189	54,78
845,365	5,63
845,541	-66,05
845,716	-68,09
845,892	-53,76
846,068	3,58
846,244	-25,09
846,419	24,06
846,595	-53,76
846,77	-8,7
846,946	-43,52
847,122	-41,47
847,297	15,87
847,473	-12,8
847,648	11,78
847,824	34,3
847,999	-31,23
848,175	13,82
848,35	-4,61
848,526	93,69
848,701	-12,8
848,876	-27,14
849,052	11,78
849,227	15,87
849,403	9,73
849,578	30,21
849,753	3,58
849,929	-4,61
850,104	22,02
850,279	-12,8
850,454	-43,52
850,63	-20,99
850,805	9,73
850,98	-66,05
851,155	-35,33
851,33	-18,94
851,505	-45,57
851,681	11,78
851,856	-74,24
852,031	62,98
852,206	-20,99
852,381	-47,62
852,556	-131,58
852,731	9,73
852,906	40,45
853,081	-0,51
853,256	9,73
853,431	-78,33
853,606	-43,52
853,781	-37,38
853,956	-135,68
854,131	50,69
854,305	-88,57
854,48	71,17
854,655	-61,95
854,83	30,21
855,005	22,02
855,18	73,21
855,354	87,55
855,529	-20,99
855,704	-45,57
855,879	-12,8
856,053	-18,94
856,228	-10,75
856,403	-78,33
856,577	11,78
856,752	-53,76
856,926	-18,94
857,101	-14,85
857,276	-6,66
857,45	-33,28
857,625	42,5
857,799	-2,56
857,974	1,54
858,148	-33,28
858,323	-10,75
858,497	-12,8
858,672	-49,66
858,846	-57,86
859,02	-33,28
859,195	-94,72
859,369	-53,76
859,543	-0,51
859,718	-10,75
859,892	-37,38
860,066	-82,43
860,241	-35,33
860,415	34,3
860,589	-33,28
860,763	-18,94
860,938	42,5
861,112	19,97
861,286	5,63
861,46	-25,09
861,634	-37,38
861,808	32,26
861,982	-0,51
862,157	-2,56
862,331	-12,8
862,505	-25,09
862,679	-86,53
862,853	-39,42
863,027	-33,28
863,201	67,07
863,375	-86,53
863,549	-10,75
863,722	1,54
863,896	38,4
864,07	-4,61
864,244	24,06
864,418	17,92
864,592	13,82
864,766	17,92
864,939	-29,18
865,113	-74,24
865,287	11,78
865,461	-10,75
865,634	-49,66
865,808	-57,86
865,982	-14,85
866,156	-57,86
866,329	-47,62
866,503	-20,99
866,676	15,87
866,85	-49,66
867,024	-18,94
867,197	24,06
867,371	69,12
867,544	-59,9
867,718	-64
867,891	-20,99
868,065	-37,38
868,238	-31,23
868,412	-29,18
868,585	-70,14
868,759	11,78
868,932	-23,04
869,105	-14,85
869,279	19,97
869,452	-41,47
869,625	-41,47
869,799	36,35
869,972	-20,99
870,145	40,45
870,319	15,87
870,492	48,64
870,665	-8,7
870,838	22,02
871,011	-53,76
871,185	-64
871,358	38,4
871,531	-37,38
871,704	-12,8
871,877	-10,75
872,05	-16,9
872,223	17,92
872,396	30,21
872,569	-20,99
872,742	-139,77
872,915	40,45
873,088	-41,47
873,261	-33,28
873,434	-57,86
873,607	-2,56
873,78	-64
873,953	-76,29
874,126	-16,9
874,299	28,16
874,471	-43,52
874,644	-49,66
874,817	-33,28
874,99	40,45
875,163	-51,71
875,335	3,58
875,508	-4,61
875,681	73,21
875,853	48,64
876,026	-31,23
876,199	22,02
876,371	-43,52
876,544	-41,47
876,717	-37,38
876,889	19,97
877,062	3,58
877,234	-45,57
877,407	-53,76
877,579	-51,71
877,752	40,45
877,924	5,63
878,097	28,16
878,269	-10,75
878,442	-8,7
878,614	-14,85
878,786	7,68
878,959	-123,39
879,131	-29,18
879,303	-135,68
879,476	5,63
879,648	15,87
879,82	13,82
879,993	-18,94
880,165	26,11
880,337	7,68
880,509	48,64
880,681	-55,81
880,854	15,87
881,026	3,58
881,198	32,26
881,37	30,21
881,542	36,35
881,714	1,54
881,886	-43,52
882,058	30,21
882,23	-74,24
882,402	-47,62
882,574	67,07
882,746	-12,8
882,918	-59,9
883,09	-33,28
883,262	36,35
883,434	-39,42
883,606	-53,76
883,778	-45,57
883,95	50,69
884,122	-84,48
884,293	58,88
884,465	-55,81
884,637	13,82
884,809	-78,33
884,98	-35,33
885,152	30,21
885,324	-27,14
885,496	-8,7
885,667	28,16
885,839	-12,8
886,011	30,21
886,182	-31,23
886,354	-10,75
886,525	-20,99
886,697	44,54
886,869	-2,56
887,04	22,02
887,212	26,11
887,383	-41,47
887,555	36,35
887,726	-8,7
887,897	-74,24
888,069	44,54
888,24	-0,51
888,412	-4,61
888,583	-12,8
888,754	7,68
888,926	13,82
889,097	-109,05
889,268	-33,28
889,44	-31,23
889,611	-37,38
889,782	3,58
889,953	-37,38
890,125	48,64
890,296	-68,09
890,467	-37,38
890,638	-68,09
890,809	-27,14
890,98	-66,05
891,151	-18,94
891,323	7,68
891,494	-12,8
891,665	-29,18
891,836	-0,51
892,007	19,97
892,178	15,87
892,349	7,68
892,52	-18,94
892,691	3,58
892,862	-72,19
893,032	-47,62
893,203	-61,95
893,374	-53,76
893,545	40,45
893,716	-53,76
893,887	28,16
894,057	-12,8
894,228	44,54
894,399	-102,91
894,57	65,02
894,74	-2,56
894,911	22,02
895,082	-4,61
895,253	-41,47
895,423	50,69
895,594	-33,28
895,764	-37,38
895,935	9,73
896,106	30,21
896,276	-27,14
896,447	-18,94
896,617	5,63
896,788	-39,42
896,958	-18,94
897,129	30,21
897,299	-45,57
897,47	11,78
897,64	36,35
897,81	-10,75
897,981	13,82
898,151	-70,14
898,322	38,4
898,492	-8,7
898,662	-0,51
898,832	-20,99
899,003	24,06
899,173	-0,51
899,343	-31,23
899,513	-96,77
