Data from filtre430_USB4F104151__4__11-51-40-499.txt Node

Date: Wed Apr 15 11:51:40 EDT 2026
User: LaboPhy
Spectrometer: USB4F10415
Trigger mode: 4
Integration Time (sec): 2,500000E-2
Scans to average: 1
Electric dark correction enabled: true
Nonlinearity correction enabled: false
Boxcar width: 0
XAxis mode: Wavelengths
Number of Pixels in Spectrum: 3648
>>>>>Begin Spectral Data<<<<<
178,204	-98,13
178,424	-98,13
178,644	-98,13
178,864	-124,76
179,084	-141,14
179,304	-8,02
179,524	59,56
179,744	-22,36
179,964	39,08
180,184	0,17
180,404	14,51
180,624	-34,64
180,844	61,61
181,064	-87,89
181,283	-5,97
181,503	-1,88
181,723	-14,17
181,943	0,17
182,163	110,76
182,383	22,7
182,602	69,8
182,822	6,31
183,042	-32,6
183,262	-40,79
183,482	2,22
183,701	-48,98
183,921	-14,17
184,141	-40,79
184,361	-1,88
184,58	-26,45
184,8	28,84
185,02	67,75
185,239	47,27
185,459	-63,32
185,679	34,99
185,898	-69,46
186,118	30,89
186,338	-30,55
186,557	77,99
186,777	-40,79
186,997	10,41
187,216	59,56
187,436	127,14
187,655	53,42
187,875	4,27
188,095	-40,79
188,314	24,75
188,534	-22,36
188,753	-46,93
188,973	30,89
189,192	41,13
189,412	30,89
189,631	-28,5
189,851	0,17
190,07	71,85
190,29	-36,69
190,509	12,46
190,729	32,94
190,948	-3,93
191,168	77,99
191,387	63,66
191,607	30,89
191,826	39,08
192,045	-10,07
192,265	-14,17
192,484	47,27
192,704	2,22
192,923	-1,88
193,142	82,09
193,362	71,85
193,581	14,51
193,8	-10,07
194,02	39,08
194,239	63,66
194,458	53,42
194,678	55,47
194,897	71,85
195,116	65,71
195,335	37,03
195,555	4,27
195,774	-32,6
195,993	51,37
196,212	63,66
196,432	55,47
196,651	-34,64
196,87	-128,85
197,089	24,75
197,308	-12,12
197,528	6,31
197,747	-32,6
197,966	24,75
198,185	88,23
198,404	-53,08
198,623	86,19
198,842	39,08
199,062	45,23
199,281	73,9
199,5	-1,88
199,719	41,13
199,938	-26,45
200,157	37,03
200,376	39,08
200,595	80,04
200,814	108,71
201,033	22,7
201,252	37,03
201,471	-20,31
201,69	20,65
201,909	65,71
202,128	59,56
202,347	-1,88
202,566	37,03
202,785	-20,31
203,004	-48,98
203,223	104,62
203,442	16,55
203,661	18,6
203,879	30,89
204,098	49,32
204,317	-10,07
204,536	16,55
204,755	26,79
204,974	84,14
205,193	16,55
205,411	47,27
205,63	24,75
205,849	-5,97
206,068	8,36
206,287	28,84
206,505	18,6
206,724	-12,12
206,943	-110,42
207,162	-22,36
207,381	-1,88
207,599	10,41
207,818	-1,88
208,037	65,71
208,255	-30,55
208,474	43,18
208,693	63,66
208,911	-26,45
209,13	16,55
209,349	-1,88
209,567	2,22
209,786	43,18
210,005	10,41
210,223	-26,45
210,442	-69,46
210,661	80,04
210,879	37,03
211,098	61,61
211,316	-14,17
211,535	53,42
211,753	16,55
211,972	49,32
212,191	39,08
212,409	-75,6
212,628	10,41
212,846	-12,12
213,065	-14,17
213,283	45,23
213,502	-36,69
213,72	20,65
213,938	77,99
214,157	34,99
214,375	45,23
214,594	-16,21
214,812	45,23
215,031	41,13
215,249	24,75
215,467	-14,17
215,686	71,85
215,904	24,75
216,122	-1,88
216,341	39,08
216,559	4,27
216,778	69,8
216,996	57,51
217,214	39,08
217,432	65,71
217,651	14,51
217,869	-34,64
218,087	-10,07
218,306	-1,88
218,524	22,7
218,742	-16,21
218,96	6,31
219,179	0,17
219,397	-22,36
219,615	2,22
219,833	-44,88
220,051	-18,26
220,27	73,9
220,488	-51,03
220,706	-22,36
220,924	16,55
221,142	47,27
221,36	12,46
221,578	24,75
221,796	-12,12
222,015	30,89
222,233	6,31
222,451	51,37
222,669	-26,45
222,887	39,08
223,105	-34,64
223,323	8,36
223,541	30,89
223,759	67,75
223,977	51,37
224,195	73,9
224,413	82,09
224,631	34,99
224,849	8,36
225,067	53,42
225,285	0,17
225,503	41,13
225,721	-53,08
225,939	-42,84
226,157	67,75
226,375	28,84
226,592	24,75
226,81	2,22
227,028	-12,12
227,246	4,27
227,464	2,22
227,682	80,04
227,9	4,27
228,117	65,71
228,335	34,99
228,553	14,51
228,771	22,7
228,989	32,94
229,206	34,99
229,424	43,18
229,642	-42,84
229,86	6,31
230,077	37,03
230,295	22,7
230,513	88,23
230,731	0,17
230,948	2,22
231,166	45,23
231,384	-5,97
231,601	-57,17
231,819	14,51
232,037	14,51
232,254	-24,4
232,472	57,51
232,689	-3,93
232,907	-46,93
233,125	67,75
233,342	-18,26
233,56	26,79
233,777	-5,97
233,995	-38,74
234,213	41,13
234,43	8,36
234,648	-5,97
234,865	-1,88
235,083	102,57
235,3	57,51
235,518	63,66
235,735	45,23
235,953	12,46
236,17	18,6
236,388	63,66
236,605	39,08
236,822	45,23
237,04	-44,88
237,257	41,13
237,475	-42,84
237,692	-30,55
237,909	-18,26
238,127	-1,88
238,344	18,6
238,562	63,66
238,779	-3,93
238,996	-59,22
239,214	20,65
239,431	55,47
239,648	-34,64
239,865	-24,4
240,083	73,9
240,3	39,08
240,517	-34,64
240,735	-5,97
240,952	10,41
241,169	45,23
241,386	-18,26
241,603	30,89
241,821	-38,74
242,038	133,29
242,255	22,7
242,472	-38,74
242,689	67,75
242,907	22,7
243,124	-16,21
243,341	6,31
243,558	-14,17
243,775	-8,02
243,992	-53,08
244,209	84,14
244,426	57,51
244,643	10,41
244,86	53,42
245,078	22,7
245,295	69,8
245,512	10,41
245,729	57,51
245,946	71,85
246,163	20,65
246,38	16,55
246,597	4,27
246,814	43,18
247,031	-8,02
247,248	26,79
247,464	-48,98
247,681	-40,79
247,898	-46,93
248,115	-12,12
248,332	39,08
248,549	63,66
248,766	39,08
248,983	-14,17
249,2	16,55
249,417	14,51
249,633	-24,4
249,85	2,22
250,067	-67,41
250,284	26,79
250,501	-40,79
250,717	16,55
250,934	-1,88
251,151	12,46
251,368	51,37
251,585	-18,26
251,801	41,13
252,018	-65,36
252,235	-1,88
252,451	32,94
252,668	-34,64
252,885	-26,45
253,102	39,08
253,318	43,18
253,535	-59,22
253,752	2,22
253,968	18,6
254,185	-5,97
254,401	-48,98
254,618	-32,6
254,835	43,18
255,051	88,23
255,268	-40,79
255,484	51,37
255,701	37,03
255,917	14,51
256,134	37,03
256,351	24,75
256,567	67,75
256,784	-30,55
257	-34,64
257,217	49,32
257,433	6,31
257,65	26,79
257,866	0,17
258,082	-1,88
258,299	51,37
258,515	14,51
258,732	-40,79
258,948	-59,22
259,165	-18,26
259,381	-8,02
259,597	14,51
259,814	55,47
260,03	-18,26
260,246	71,85
260,463	10,41
260,679	-26,45
260,895	14,51
261,112	-18,26
261,328	28,84
261,544	32,94
261,761	20,65
261,977	110,76
262,193	-5,97
262,409	24,75
262,626	-71,51
262,842	22,7
263,058	-42,84
263,274	39,08
263,49	8,36
263,707	55,47
263,923	14,51
264,139	-10,07
264,355	22,7
264,571	96,43
264,787	-38,74
265,004	-38,74
265,22	49,32
265,436	-48,98
265,652	-1,88
265,868	73,9
266,084	12,46
266,3	-8,02
266,516	16,55
266,732	-28,5
266,948	10,41
267,164	14,51
267,38	-40,79
267,596	-5,97
267,812	34,99
268,028	-1,88
268,244	-24,4
268,46	22,7
268,676	-38,74
268,892	49,32
269,108	-24,4
269,324	-42,84
269,54	-5,97
269,756	86,19
269,972	18,6
270,188	-30,55
270,403	49,32
270,619	-59,22
270,835	45,23
271,051	30,89
271,267	73,9
271,483	-10,07
271,698	-30,55
271,914	32,94
272,13	-42,84
272,346	18,6
272,562	32,94
272,777	-34,64
272,993	22,7
273,209	-69,46
273,425	39,08
273,64	8,36
273,856	4,27
274,072	-24,4
274,287	73,9
274,503	-22,36
274,719	16,55
274,934	32,94
275,15	-40,79
275,366	-51,03
275,581	41,13
275,797	-46,93
276,012	65,71
276,228	-61,27
276,444	41,13
276,659	0,17
276,875	30,89
277,09	26,79
277,306	-1,88
277,521	-16,21
277,737	41,13
277,952	-8,02
278,168	39,08
278,383	-10,07
278,599	-32,6
278,814	22,7
279,03	-51,03
279,245	82,09
279,461	-14,17
279,676	-5,97
279,892	-12,12
280,107	4,27
280,322	-85,84
280,538	-48,98
280,753	47,27
280,969	41,13
281,184	-71,51
281,399	45,23
281,615	4,27
281,83	90,28
282,045	94,38
282,26	-46,93
282,476	20,65
282,691	-20,31
282,906	8,36
283,122	-57,17
283,337	2,22
283,552	65,71
283,767	-87,89
283,983	-14,17
284,198	-34,64
284,413	30,89
284,628	-20,31
284,843	10,41
285,058	12,46
285,274	0,17
285,489	-59,22
285,704	18,6
285,919	-73,56
286,134	43,18
286,349	-3,93
286,564	14,51
286,779	37,03
286,995	2,22
287,21	-55,12
287,425	0,17
287,64	0,17
287,855	43,18
288,07	-63,32
288,285	-1,88
288,5	12,46
288,715	6,31
288,93	-51,03
289,145	-34,64
289,36	28,84
289,575	8,36
289,79	-12,12
290,004	24,75
290,219	16,55
290,434	57,51
290,649	-8,02
290,864	-73,56
291,079	6,31
291,294	-8,02
291,509	47,27
291,724	18,6
291,938	24,75
292,153	-5,97
292,368	-22,36
292,583	106,67
292,798	16,55
293,012	30,89
293,227	16,55
293,442	37,03
293,657	16,55
293,871	-5,97
294,086	14,51
294,301	65,71
294,516	30,89
294,73	43,18
294,945	-57,17
295,16	-26,45
295,374	-30,55
295,589	53,42
295,804	63,66
296,018	41,13
296,233	-5,97
296,447	51,37
296,662	-67,41
296,877	49,32
297,091	6,31
297,306	10,41
297,52	-36,69
297,735	34,99
297,949	-16,21
298,164	32,94
298,378	28,84
298,593	12,46
298,807	0,17
299,022	47,27
299,236	121
299,451	16,55
299,665	-42,84
299,88	4,27
300,094	59,56
300,309	55,47
300,523	-38,74
300,737	92,33
300,952	-18,26
301,166	59,56
301,381	-26,45
301,595	-30,55
301,809	-51,03
302,024	8,36
302,238	-1,88
302,452	-20,31
302,667	-22,36
302,881	-1,88
303,095	32,94
303,309	-10,07
303,524	-36,69
303,738	26,79
303,952	28,84
304,166	16,55
304,381	-40,79
304,595	98,47
304,809	-28,5
305,023	26,79
305,237	24,75
305,452	41,13
305,666	-10,07
305,88	26,79
306,094	32,94
306,308	90,28
306,522	80,04
306,736	49,32
306,95	22,7
307,164	4,27
307,379	28,84
307,593	-42,84
307,807	59,56
308,021	4,27
308,235	12,46
308,449	41,13
308,663	30,89
308,877	26,79
309,091	-22,36
309,305	-28,5
309,519	-16,21
309,733	12,46
309,947	32,94
310,161	34,99
310,374	14,51
310,588	47,27
310,802	30,89
311,016	8,36
311,23	43,18
311,444	-40,79
311,658	96,43
311,872	26,79
312,085	-42,84
312,299	6,31
312,513	-1,88
312,727	14,51
312,941	-30,55
313,154	47,27
313,368	-53,08
313,582	-40,79
313,796	18,6
314,009	69,8
314,223	-5,97
314,437	32,94
314,651	94,38
314,864	14,51
315,078	16,55
315,292	-1,88
315,505	28,84
315,719	14,51
315,933	63,66
316,146	10,41
316,36	6,31
316,573	22,7
316,787	-3,93
317,001	8,36
317,214	0,17
317,428	28,84
317,641	-42,84
317,855	-12,12
318,068	18,6
318,282	49,32
318,495	37,03
318,709	22,7
318,922	24,75
319,136	75,95
319,349	-22,36
319,563	-30,55
319,776	-10,07
319,99	4,27
320,203	32,94
320,417	-5,97
320,63	16,55
320,843	-18,26
321,057	37,03
321,27	16,55
321,483	8,36
321,697	24,75
321,91	61,61
322,124	61,61
322,337	-8,02
322,55	16,55
322,763	80,04
322,977	49,32
323,19	32,94
323,403	-22,36
323,617	-20,31
323,83	123,05
324,043	30,89
324,256	-32,6
324,469	41,13
324,683	92,33
324,896	26,79
325,109	6,31
325,322	-100,18
325,535	-12,12
325,748	39,08
325,962	57,51
326,175	18,6
326,388	-5,97
326,601	0,17
326,814	-40,79
327,027	-5,97
327,24	16,55
327,453	-34,64
327,666	80,04
327,879	43,18
328,092	14,51
328,305	26,79
328,518	14,51
328,731	32,94
328,944	-12,12
329,157	2,22
329,37	28,84
329,583	129,19
329,796	22,7
330,009	34,99
330,222	41,13
330,435	-3,93
330,648	59,56
330,861	34,99
331,073	-22,36
331,286	30,89
331,499	55,47
331,712	-40,79
331,925	-18,26
332,138	43,18
332,35	34,99
332,563	8,36
332,776	94,38
332,989	-26,45
333,202	-14,17
333,414	55,47
333,627	-22,36
333,84	51,37
334,053	-5,97
334,265	-24,4
334,478	-10,07
334,691	-5,97
334,903	-30,55
335,116	-83,8
335,329	-44,88
335,541	-18,26
335,754	59,56
335,966	4,27
336,179	-16,21
336,392	-5,97
336,604	59,56
336,817	2,22
337,029	24,75
337,242	14,51
337,454	26,79
337,667	-48,98
337,88	-40,79
338,092	39,08
338,305	6,31
338,517	39,08
338,729	65,71
338,942	39,08
339,154	-73,56
339,367	-67,41
339,579	-24,4
339,792	-79,7
340,004	47,27
340,217	37,03
340,429	24,75
340,641	-51,03
340,854	69,8
341,066	41,13
341,278	6,31
341,491	125,1
341,703	18,6
341,915	75,95
342,128	57,51
342,34	-46,93
342,552	-48,98
342,764	18,6
342,977	0,17
343,189	14,51
343,401	-22,36
343,613	-59,22
343,826	57,51
344,038	-22,36
344,25	-3,93
344,462	-10,07
344,674	41,13
344,886	-18,26
345,099	26,79
345,311	-10,07
345,523	-5,97
345,735	-40,79
345,947	61,61
346,159	20,65
346,371	67,75
346,583	-51,03
346,795	106,67
347,007	-48,98
347,219	63,66
347,431	30,89
347,643	39,08
347,855	34,99
348,067	49,32
348,279	-38,74
348,491	-61,27
348,703	41,13
348,915	-51,03
349,127	0,17
349,339	57,51
349,551	-18,26
349,763	22,7
349,975	26,79
350,187	-8,02
350,399	20,65
350,61	-5,97
350,822	-14,17
351,034	69,8
351,246	47,27
351,458	34,99
351,669	116,9
351,881	-10,07
352,093	47,27
352,305	47,27
352,517	39,08
352,728	71,85
352,94	18,6
353,152	55,47
353,363	-44,88
353,575	41,13
353,787	2,22
353,999	39,08
354,21	30,89
354,422	55,47
354,633	-10,07
354,845	-10,07
355,057	0,17
355,268	-26,45
355,48	-28,5
355,692	-67,41
355,903	8,36
356,115	57,51
356,326	-10,07
356,538	-12,12
356,749	80,04
356,961	6,31
357,172	-83,8
357,384	-32,6
357,595	6,31
357,807	18,6
358,018	55,47
358,23	22,7
358,441	125,1
358,653	65,71
358,864	32,94
359,075	0,17
359,287	86,19
359,498	45,23
359,709	39,08
359,921	55,47
360,132	39,08
360,344	-3,93
360,555	14,51
360,766	39,08
360,977	10,41
361,189	-5,97
361,4	8,36
361,611	8,36
361,823	32,94
362,034	22,7
362,245	43,18
362,456	47,27
362,667	-28,5
362,879	37,03
363,09	65,71
363,301	-16,21
363,512	88,23
363,723	-26,45
363,935	67,75
364,146	77,99
364,357	8,36
364,568	6,31
364,779	-10,07
364,99	-5,97
365,201	-61,27
365,412	10,41
365,623	-1,88
365,834	-14,17
366,045	26,79
366,256	-10,07
366,467	47,27
366,678	18,6
366,889	10,41
367,1	55,47
367,311	34,99
367,522	53,42
367,733	-18,26
367,944	-10,07
368,155	-16,21
368,366	14,51
368,577	39,08
368,788	71,85
368,999	-44,88
369,209	39,08
369,42	0,17
369,631	10,41
369,842	114,86
370,053	24,75
370,264	2,22
370,474	10,41
370,685	-20,31
370,896	0,17
371,107	30,89
371,317	39,08
371,528	8,36
371,739	73,9
371,95	-53,08
372,16	121
372,371	32,94
372,582	20,65
372,792	30,89
373,003	104,62
373,214	12,46
373,424	63,66
373,635	-1,88
373,846	90,28
374,056	-48,98
374,267	-8,02
374,477	-24,4
374,688	28,84
374,898	-44,88
375,109	41,13
375,319	14,51
375,53	53,42
375,74	71,85
375,951	39,08
376,161	4,27
376,372	67,75
376,582	-10,07
376,793	32,94
377,003	28,84
377,214	30,89
377,424	-124,76
377,635	24,75
377,845	26,79
378,055	6,31
378,266	84,14
378,476	-22,36
378,686	8,36
378,897	8,36
379,107	63,66
379,317	18,6
379,528	-34,64
379,738	75,95
379,948	-14,17
380,158	57,51
380,369	43,18
380,579	-16,21
380,789	30,89
380,999	8,36
381,21	16,55
381,42	104,62
381,63	16,55
381,84	-18,26
382,05	14,51
382,261	67,75
382,471	30,89
382,681	47,27
382,891	55,47
383,101	-32,6
383,311	-8,02
383,521	47,27
383,731	51,37
383,941	123,05
384,151	-30,55
384,361	45,23
384,571	-14,17
384,781	18,6
384,991	77,99
385,201	43,18
385,411	8,36
385,621	16,55
385,831	57,51
386,041	73,9
386,251	32,94
386,461	53,42
386,671	22,7
386,881	-40,79
387,091	-18,26
387,301	39,08
387,511	94,38
387,72	6,31
387,93	-10,07
388,14	-10,07
388,35	-8,02
388,56	67,75
388,769	71,85
388,979	14,51
389,189	24,75
389,399	10,41
389,609	32,94
389,818	98,47
390,028	51,37
390,238	4,27
390,447	-40,79
390,657	37,03
390,867	-98,13
391,076	-24,4
391,286	8,36
391,496	39,08
391,705	24,75
391,915	41,13
392,125	32,94
392,334	61,61
392,544	32,94
392,753	45,23
392,963	16,55
393,172	8,36
393,382	-8,02
393,591	6,31
393,801	-42,84
394,01	2,22
394,22	-18,26
394,429	8,36
394,639	98,47
394,848	49,32
395,058	6,31
395,267	6,31
395,477	16,55
395,686	-5,97
395,895	59,56
396,105	94,38
396,314	6,31
396,524	10,41
396,733	22,7
396,942	12,46
397,152	63,66
397,361	96,43
397,57	-16,21
397,78	24,75
397,989	10,41
398,198	30,89
398,407	39,08
398,617	57,51
398,826	-44,88
399,035	16,55
399,244	114,86
399,453	47,27
399,663	47,27
399,872	39,08
400,081	-8,02
400,29	88,23
400,499	-34,64
400,708	55,47
400,917	8,36
401,127	73,9
401,336	6,31
401,545	63,66
401,754	30,89
401,963	12,46
402,172	18,6
402,381	73,9
402,59	37,03
402,799	39,08
403,008	114,86
403,217	28,84
403,426	53,42
403,635	-12,12
403,844	-1,88
404,053	16,55
404,262	22,7
404,471	82,09
404,68	57,51
404,888	32,94
405,097	-48,98
405,306	2,22
405,515	65,71
405,724	-12,12
405,933	116,9
406,142	0,17
406,35	57,51
406,559	-42,84
406,768	73,9
406,977	30,89
407,185	14,51
407,394	34,99
407,603	-51,03
407,812	20,65
408,02	65,71
408,229	22,7
408,438	73,9
408,646	100,52
408,855	4,27
409,064	51,37
409,272	59,56
409,481	16,55
409,69	-38,74
409,898	0,17
410,107	-24,4
410,315	37,03
410,524	-10,07
410,733	55,47
410,941	-12,12
411,15	32,94
411,358	18,6
411,567	32,94
411,775	71,85
411,984	59,56
412,192	20,65
412,401	51,37
412,609	34,99
412,818	108,71
413,026	10,41
413,234	73,9
413,443	0,17
413,651	26,79
413,86	67,75
414,068	71,85
414,276	71,85
414,485	63,66
414,693	100,52
414,901	151,72
415,11	88,23
415,318	98,47
415,526	10,41
415,734	53,42
415,943	-1,88
416,151	24,75
416,359	41,13
416,567	47,27
416,776	57,51
416,984	-16,21
417,192	116,9
417,4	-57,17
417,608	112,81
417,817	94,38
418,025	37,03
418,233	151,72
418,441	45,23
418,649	16,55
418,857	51,37
419,065	139,43
419,273	75,95
419,481	94,38
419,689	59,56
419,897	6,31
420,105	86,19
420,313	55,47
420,521	121
420,729	57,51
420,937	100,52
421,145	45,23
421,353	198,82
421,561	137,38
421,769	104,62
421,977	114,86
422,185	96,43
422,393	121
422,601	133,29
422,809	129,19
423,017	221,35
423,224	118,95
423,432	135,34
423,64	235,69
423,848	260,26
424,056	182,44
424,263	288,93
424,471	268,45
424,679	239,78
424,887	325,8
425,094	405,67
425,302	393,38
425,51	426,15
425,718	518,31
425,925	524,45
426,133	473,25
426,341	684,19
426,548	673,95
426,756	755,87
426,964	907,42
427,171	954,52
427,379	1183,9
427,586	1202,33
427,794	1386,65
428,001	1611,92
428,209	1880,21
428,417	2068,62
428,624	2410,63
428,832	2580,61
429,039	3045,5
429,247	3518,58
429,454	4178,03
429,662	4978,78
429,869	5206,11
430,076	6441,03
430,284	6854,72
430,491	8183,85
430,699	9809,94
430,906	10860,55
431,114	11866,1
431,321	13527
431,528	15370,18
431,736	18085,78
431,943	20010,87
432,15	20862,83
432,358	22771,54
432,565	25610,02
432,772	27012,88
432,979	30066,4
433,187	31436,49
433,394	32884,4
433,601	36363,9
433,808	37328,5
434,016	37101,17
434,223	39679,57
434,43	42624,54
434,637	41821,74
434,844	44346,89
435,052	45667,83
435,259	44140,04
435,466	44746,24
435,673	44203,53
435,88	46274,02
436,087	48246,22
436,294	48223,69
436,501	47117,79
436,708	47298,01
436,915	48444,87
437,122	49143,23
437,329	48281,03
437,537	49628,6
437,743	49878,45
437,95	48309,71
438,157	50120,11
438,364	51932,56
438,571	51338,65
438,778	50634,15
438,985	52940,16
439,192	51377,56
439,399	52100,5
439,606	50843,04
439,813	51699,09
440,02	53751,16
440,227	51950,99
440,433	49771,96
440,64	50429,35
440,847	48387,53
441,054	47564,24
441,261	48258,51
441,467	45276,66
441,674	44023,31
441,881	42253,86
442,088	39931,47
442,294	36834,94
442,501	34883,22
442,708	32007,87
442,914	29832,93
443,121	27766,53
443,328	24196,92
443,534	23101,26
443,741	19419,01
443,948	16777,13
444,154	15626,17
444,361	13621,21
444,568	11601,91
444,774	10178,58
444,981	8781,86
445,187	7893,04
445,394	7069,76
445,6	5967,95
445,807	5759,06
446,013	4831,33
446,22	4098,16
446,426	3762,29
446,633	3412,09
446,839	2945,15
447,046	2533,51
447,252	2390,15
447,459	2103,43
447,665	1851,53
447,871	1726,61
448,078	1679,51
448,284	1415,32
448,491	1204,38
448,697	1210,52
448,903	1063,07
449,11	934,04
449,316	901,28
449,522	841,89
449,728	723,1
449,935	579,75
450,141	616,61
450,347	567,46
450,553	530,59
450,76	383,14
450,966	456,87
451,172	377
451,378	420
451,584	319,65
451,791	448,68
451,997	350,37
452,203	276,65
452,409	268,45
452,615	262,31
452,821	219,3
453,027	196,78
453,233	268,45
453,44	196,78
453,646	235,69
453,852	145,58
454,058	168,1
454,264	196,78
454,47	121
454,676	164,01
454,882	137,38
455,088	129,19
455,294	143,53
455,5	254,12
455,705	112,81
455,911	80,04
456,117	104,62
456,323	86,19
456,529	178,34
456,735	82,09
456,941	63,66
457,147	123,05
457,352	47,27
457,558	65,71
457,764	94,38
457,97	82,09
458,176	82,09
458,381	153,77
458,587	147,62
458,793	116,9
458,999	-1,88
459,204	47,27
459,41	30,89
459,616	104,62
459,821	43,18
460,027	-16,21
460,233	94,38
460,438	145,58
460,644	12,46
460,85	39,08
461,055	133,29
461,261	90,28
461,466	18,6
461,672	24,75
461,878	112,81
462,083	63,66
462,289	-3,93
462,494	55,47
462,7	98,47
462,905	41,13
463,111	80,04
463,316	82,09
463,522	16,55
463,727	59,56
463,932	45,23
464,138	32,94
464,343	47,27
464,549	100,52
464,754	2,22
464,959	63,66
465,165	-24,4
465,37	34,99
465,575	28,84
465,781	55,47
465,986	4,27
466,191	30,89
466,397	61,61
466,602	43,18
466,807	71,85
467,012	92,33
467,218	-1,88
467,423	-24,4
467,628	51,37
467,833	-1,88
468,038	71,85
468,244	45,23
468,449	6,31
468,654	34,99
468,859	-14,17
469,064	26,79
469,269	47,27
469,474	94,38
469,679	34,99
469,885	22,7
470,09	14,51
470,295	-46,93
470,5	55,47
470,705	22,7
470,91	61,61
471,115	2,22
471,32	47,27
471,525	92,33
471,73	71,85
471,935	18,6
472,139	20,65
472,344	63,66
472,549	14,51
472,754	-24,4
472,959	18,6
473,164	37,03
473,369	24,75
473,574	30,89
473,778	71,85
473,983	61,61
474,188	28,84
474,393	12,46
474,598	20,65
474,802	14,51
475,007	39,08
475,212	63,66
475,417	26,79
475,621	51,37
475,826	-5,97
476,031	-40,79
476,235	34,99
476,44	24,75
476,645	26,79
476,849	30,89
477,054	-48,98
477,259	55,47
477,463	125,1
477,668	161,96
477,872	88,23
478,077	0,17
478,282	6,31
478,486	57,51
478,691	32,94
478,895	-8,02
479,1	63,66
479,304	-18,26
479,509	6,31
479,713	67,75
479,918	88,23
480,122	-18,26
480,326	49,32
480,531	100,52
480,735	-5,97
480,94	63,66
481,144	88,23
481,348	-34,64
481,553	121
481,757	32,94
481,961	-40,79
482,166	-20,31
482,37	47,27
482,574	32,94
482,778	-16,21
482,983	-18,26
483,187	-38,74
483,391	-24,4
483,595	71,85
483,8	49,32
484,004	-18,26
484,208	-63,32
484,412	104,62
484,616	18,6
484,821	-46,93
485,025	10,41
485,229	6,31
485,433	6,31
485,637	-42,84
485,841	-18,26
486,045	34,99
486,249	16,55
486,453	-18,26
486,657	0,17
486,861	-22,36
487,065	4,27
487,269	67,75
487,473	-28,5
487,677	-24,4
487,881	41,13
488,085	-24,4
488,289	90,28
488,493	-12,12
488,697	71,85
488,901	-8,02
489,105	47,27
489,309	16,55
489,512	10,41
489,716	10,41
489,92	-3,93
490,124	8,36
490,328	92,33
490,531	63,66
490,735	24,75
490,939	94,38
491,143	75,95
491,346	41,13
491,55	-38,74
491,754	34,99
491,958	-1,88
492,161	18,6
492,365	26,79
492,569	-20,31
492,772	49,32
492,976	57,51
493,18	10,41
493,383	2,22
493,587	14,51
493,79	12,46
493,994	-57,17
494,197	-18,26
494,401	22,7
494,605	43,18
494,808	43,18
495,012	84,14
495,215	61,61
495,419	34,99
495,622	-3,93
495,825	26,79
496,029	-5,97
496,232	10,41
496,436	-14,17
496,639	37,03
496,843	4,27
497,046	28,84
497,249	24,75
497,453	4,27
497,656	22,7
497,859	55,47
498,063	24,75
498,266	45,23
498,469	4,27
498,673	30,89
498,876	61,61
499,079	-61,27
499,282	-30,55
499,485	59,56
499,689	39,08
499,892	43,18
500,095	39,08
500,298	-44,88
500,501	-8,02
500,705	55,47
500,908	57,51
501,111	39,08
501,314	57,51
501,517	2,22
501,72	14,51
501,923	16,55
502,126	-16,21
502,329	14,51
502,532	118,95
502,735	18,6
502,938	37,03
503,141	6,31
503,344	-69,46
503,547	41,13
503,75	-65,36
503,953	-28,5
504,156	8,36
504,359	14,51
504,562	-14,17
504,765	-24,4
504,968	-18,26
505,17	10,41
505,373	-18,26
505,576	18,6
505,779	39,08
505,982	22,7
506,185	51,37
506,387	-3,93
506,59	10,41
506,793	51,37
506,996	-18,26
507,198	-44,88
507,401	-28,5
507,604	69,8
507,807	-42,84
508,009	34,99
508,212	63,66
508,415	-32,6
508,617	26,79
508,82	67,75
509,022	-8,02
509,225	-12,12
509,428	71,85
509,63	-1,88
509,833	-18,26
510,035	47,27
510,238	84,14
510,44	-67,41
510,643	90,28
510,845	-10,07
511,048	-42,84
511,25	41,13
511,453	-18,26
511,655	39,08
511,858	69,8
512,06	16,55
512,262	-1,88
512,465	26,79
512,667	-24,4
512,87	8,36
513,072	22,7
513,274	47,27
513,477	24,75
513,679	14,51
513,881	26,79
514,084	-8,02
514,286	16,55
514,488	-26,45
514,69	28,84
514,893	20,65
515,095	14,51
515,297	-3,93
515,499	-10,07
515,701	-46,93
515,904	51,37
516,106	-22,36
516,308	131,24
516,51	51,37
516,712	22,7
516,914	22,7
517,116	2,22
517,318	14,51
517,52	67,75
517,722	0,17
517,925	-30,55
518,127	-22,36
518,329	55,47
518,531	-51,03
518,733	-8,02
518,935	2,22
519,136	32,94
519,338	45,23
519,54	-5,97
519,742	57,51
519,944	-32,6
520,146	24,75
520,348	57,51
520,55	-53,08
520,752	-12,12
520,954	-10,07
521,155	-81,75
521,357	-22,36
521,559	-1,88
521,761	26,79
521,963	47,27
522,164	-46,93
522,366	12,46
522,568	51,37
522,77	24,75
522,971	80,04
523,173	-48,98
523,375	16,55
523,576	14,51
523,778	-10,07
523,98	-14,17
524,181	30,89
524,383	100,52
524,584	-16,21
524,786	14,51
524,988	6,31
525,189	59,56
525,391	94,38
525,592	-51,03
525,794	47,27
525,995	18,6
526,197	18,6
526,398	90,28
526,6	2,22
526,801	14,51
527,003	20,65
527,204	24,75
527,406	-1,88
527,607	34,99
527,808	14,51
528,01	61,61
528,211	69,8
528,412	-8,02
528,614	24,75
528,815	20,65
529,016	-16,21
529,218	24,75
529,419	-18,26
529,62	47,27
529,822	24,75
530,023	-18,26
530,224	18,6
530,425	39,08
530,626	26,79
530,828	-12,12
531,029	-94,04
531,23	24,75
531,431	-22,36
531,632	69,8
531,833	8,36
532,035	69,8
532,236	-44,88
532,437	63,66
532,638	-3,93
532,839	39,08
533,04	55,47
533,241	61,61
533,442	10,41
533,643	-24,4
533,844	43,18
534,045	63,66
534,246	88,23
534,447	-16,21
534,648	-42,84
534,849	-18,26
535,05	6,31
535,251	-8,02
535,451	39,08
535,652	-42,84
535,853	-24,4
536,054	-8,02
536,255	-36,69
536,456	18,6
536,657	102,57
536,857	-34,64
537,058	18,6
537,259	22,7
537,46	-42,84
537,66	-1,88
537,861	-34,64
538,062	-26,45
538,263	24,75
538,463	-34,64
538,664	-1,88
538,865	-32,6
539,065	-40,79
539,266	-46,93
539,466	-42,84
539,667	-26,45
539,868	-16,21
540,068	59,56
540,269	67,75
540,469	69,8
540,67	26,79
540,87	28,84
541,071	18,6
541,271	-1,88
541,472	49,32
541,672	49,32
541,873	28,84
542,073	-3,93
542,274	18,6
542,474	0,17
542,675	102,57
542,875	-20,31
543,075	16,55
543,276	-71,51
543,476	14,51
543,676	75,95
543,877	57,51
544,077	37,03
544,277	67,75
544,478	45,23
544,678	53,42
544,878	90,28
545,078	-10,07
545,279	43,18
545,479	-59,22
545,679	-30,55
545,879	-65,36
546,079	10,41
546,28	-38,74
546,48	86,19
546,68	-32,6
546,88	41,13
547,08	-3,93
547,28	22,7
547,48	-10,07
547,68	-14,17
547,88	10,41
548,081	-32,6
548,281	34,99
548,481	-55,12
548,681	-30,55
548,881	88,23
549,081	24,75
549,28	24,75
549,48	-32,6
549,68	96,43
549,88	0,17
550,08	-3,93
550,28	-10,07
550,48	65,71
550,68	12,46
550,88	18,6
551,08	-14,17
551,279	59,56
551,479	8,36
551,679	-42,84
551,879	61,61
552,079	86,19
552,278	18,6
552,478	6,31
552,678	22,7
552,878	55,47
553,077	24,75
553,277	22,7
553,477	-8,02
553,676	-16,21
553,876	4,27
554,076	6,31
554,275	26,79
554,475	39,08
554,674	-57,17
554,874	-30,55
555,074	12,46
555,273	-44,88
555,473	-10,07
555,672	30,89
555,872	-14,17
556,071	-5,97
556,271	43,18
556,47	65,71
556,67	24,75
556,869	-3,93
557,068	10,41
557,268	67,75
557,467	-22,36
557,667	61,61
557,866	-51,03
558,065	96,43
558,265	-12,12
558,464	10,41
558,663	-22,36
558,863	-40,79
559,062	6,31
559,261	-42,84
559,461	26,79
559,66	-57,17
559,859	-14,17
560,058	-22,36
560,258	-55,12
560,457	55,47
560,656	0,17
560,855	-61,27
561,054	18,6
561,253	8,36
561,453	-26,45
561,652	37,03
561,851	47,27
562,05	-8,02
562,249	-20,31
562,448	6,31
562,647	-42,84
562,846	82,09
563,045	47,27
563,244	6,31
563,443	80,04
563,642	20,65
563,841	-20,31
564,04	-10,07
564,239	-44,88
564,438	51,37
564,637	-20,31
564,836	-3,93
565,035	34,99
565,234	4,27
565,432	-55,12
565,631	-24,4
565,83	-69,46
566,029	39,08
566,228	18,6
566,427	47,27
566,625	-20,31
566,824	41,13
567,023	4,27
567,222	-10,07
567,42	24,75
567,619	39,08
567,818	14,51
568,016	112,81
568,215	-51,03
568,414	0,17
568,612	-1,88
568,811	-10,07
569,01	16,55
569,208	14,51
569,407	6,31
569,605	22,7
569,804	-55,12
570,002	-26,45
570,201	55,47
570,4	96,43
570,598	14,51
570,797	6,31
570,995	51,37
571,193	20,65
571,392	8,36
571,59	51,37
571,789	22,7
571,987	24,75
572,186	34,99
572,384	-18,26
572,582	-22,36
572,781	-22,36
572,979	-36,69
573,177	-20,31
573,376	0,17
573,574	-22,36
573,772	-28,5
573,971	-1,88
574,169	-22,36
574,367	-57,17
574,565	26,79
574,763	2,22
574,962	-55,12
575,16	2,22
575,358	22,7
575,556	-30,55
575,754	-38,74
575,952	26,79
576,151	-51,03
576,349	14,51
576,547	-20,31
576,745	-30,55
576,943	39,08
577,141	32,94
577,339	-46,93
577,537	82,09
577,735	20,65
577,933	-30,55
578,131	-42,84
578,329	57,51
578,527	-24,4
578,725	63,66
578,923	-48,98
579,121	71,85
579,319	-8,02
579,516	-10,07
579,714	73,9
579,912	45,23
580,11	-3,93
580,308	30,89
580,506	-8,02
580,704	-55,12
580,901	-40,79
581,099	16,55
581,297	43,18
581,495	98,47
581,692	-30,55
581,89	16,55
582,088	-24,4
582,285	30,89
582,483	10,41
582,681	22,7
582,878	-48,98
583,076	2,22
583,274	-3,93
583,471	22,7
583,669	-3,93
583,866	14,51
584,064	-8,02
584,262	12,46
584,459	-67,41
584,657	-1,88
584,854	-10,07
585,052	39,08
585,249	43,18
585,447	-3,93
585,644	-34,64
585,841	2,22
586,039	34,99
586,236	20,65
586,434	26,79
586,631	71,85
586,828	65,71
587,026	-28,5
587,223	-34,64
587,42	10,41
587,618	39,08
587,815	2,22
588,012	-34,64
588,21	-73,56
588,407	71,85
588,604	-24,4
588,801	28,84
588,999	-10,07
589,196	-26,45
589,393	-59,22
589,59	-16,21
589,787	20,65
589,984	-12,12
590,182	65,71
590,379	24,75
590,576	22,7
590,773	-34,64
590,97	-22,36
591,167	-32,6
591,364	14,51
591,561	28,84
591,758	-14,17
591,955	84,14
592,152	10,41
592,349	-34,64
592,546	-14,17
592,743	-26,45
592,94	-10,07
593,137	51,37
593,334	20,65
593,531	96,43
593,727	65,71
593,924	-38,74
594,121	-32,6
594,318	0,17
594,515	6,31
594,712	26,79
594,908	55,47
595,105	-1,88
595,302	51,37
595,499	10,41
595,696	39,08
595,892	-20,31
596,089	80,04
596,286	-67,41
596,482	24,75
596,679	43,18
596,876	73,9
597,072	-30,55
597,269	6,31
597,466	39,08
597,662	4,27
597,859	-12,12
598,055	6,31
598,252	-24,4
598,448	-1,88
598,645	-3,93
598,841	55,47
599,038	32,94
599,234	39,08
599,431	-28,5
599,627	32,94
599,824	-61,27
600,02	-38,74
600,217	-32,6
600,413	-34,64
600,609	10,41
600,806	63,66
601,002	53,42
601,198	-5,97
601,395	51,37
601,591	24,75
601,787	-14,17
601,984	0,17
602,18	0,17
602,376	41,13
602,572	-26,45
602,769	14,51
602,965	-12,12
603,161	14,51
603,357	20,65
603,553	0,17
603,75	-61,27
603,946	-51,03
604,142	39,08
604,338	4,27
604,534	18,6
604,73	24,75
604,926	-18,26
605,122	6,31
605,318	-79,7
605,514	26,79
605,71	2,22
605,906	6,31
606,102	-44,88
606,298	49,32
606,494	47,27
606,69	65,71
606,886	16,55
607,082	47,27
607,278	-1,88
607,474	-22,36
607,67	-22,36
607,866	-59,22
608,062	30,89
608,257	53,42
608,453	-89,94
608,649	24,75
608,845	-10,07
609,041	-85,84
609,236	-38,74
609,432	-10,07
609,628	34,99
609,824	6,31
610,019	-44,88
610,215	-1,88
610,411	-53,08
610,606	8,36
610,802	-53,08
610,998	32,94
611,193	4,27
611,389	6,31
611,584	26,79
611,78	-1,88
611,976	-18,26
612,171	49,32
612,367	-5,97
612,562	20,65
612,758	30,89
612,953	-26,45
613,149	-28,5
613,344	-30,55
613,539	-34,64
613,735	41,13
613,93	-46,93
614,126	-44,88
614,321	-42,84
614,517	28,84
614,712	22,7
614,907	10,41
615,103	34,99
615,298	8,36
615,493	26,79
615,688	0,17
615,884	28,84
616,079	47,27
616,274	-10,07
616,47	-20,31
616,665	6,31
616,86	12,46
617,055	6,31
617,25	-44,88
617,445	0,17
617,641	57,51
617,836	-67,41
618,031	-16,21
618,226	-51,03
618,421	41,13
618,616	-51,03
618,811	10,41
619,006	-48,98
619,201	32,94
619,396	4,27
619,591	-51,03
619,786	-8,02
619,981	6,31
620,176	-8,02
620,371	10,41
620,566	-59,22
620,761	2,22
620,956	12,46
621,151	69,8
621,346	-16,21
621,541	-59,22
621,735	-51,03
621,93	22,7
622,125	-3,93
622,32	-63,32
622,515	-57,17
622,709	51,37
622,904	6,31
623,099	47,27
623,294	30,89
623,488	-34,64
623,683	28,84
623,878	59,56
624,072	53,42
624,267	24,75
624,462	-5,97
624,656	-22,36
624,851	39,08
625,046	-65,36
625,24	-30,55
625,435	-42,84
625,629	-16,21
625,824	10,41
626,018	-34,64
626,213	24,75
626,407	6,31
626,602	-5,97
626,796	0,17
626,991	10,41
627,185	-26,45
627,38	0,17
627,574	12,46
627,768	-26,45
627,963	63,66
628,157	41,13
628,352	-5,97
628,546	0,17
628,74	20,65
628,935	-10,07
629,129	-30,55
629,323	106,67
629,517	-14,17
629,712	55,47
629,906	4,27
630,1	-26,45
630,294	49,32
630,489	0,17
630,683	-36,69
630,877	24,75
631,071	-61,27
631,265	-46,93
631,459	10,41
631,653	86,19
631,848	-18,26
632,042	6,31
632,236	-26,45
632,43	4,27
632,624	-30,55
632,818	-59,22
633,012	53,42
633,206	63,66
633,4	8,36
633,594	-46,93
633,788	-8,02
633,982	41,13
634,176	6,31
634,369	-24,4
634,563	34,99
634,757	-14,17
634,951	-3,93
635,145	-8,02
635,339	-20,31
635,533	51,37
635,726	10,41
635,92	-5,97
636,114	51,37
636,308	-32,6
636,501	-40,79
636,695	6,31
636,889	30,89
637,083	30,89
637,276	-5,97
637,47	-24,4
637,664	-16,21
637,857	-10,07
638,051	-5,97
638,244	-10,07
638,438	47,27
638,632	96,43
638,825	-14,17
639,019	22,7
639,212	-57,17
639,406	98,47
639,599	-10,07
639,793	-20,31
639,986	108,71
640,18	30,89
640,373	90,28
640,567	4,27
640,76	22,7
640,954	8,36
641,147	0,17
641,34	-14,17
641,534	18,6
641,727	-12,12
641,92	8,36
642,114	30,89
642,307	2,22
642,5	16,55
642,694	-5,97
642,887	-5,97
643,08	108,71
643,273	20,65
643,467	-20,31
643,66	-10,07
643,853	-10,07
644,046	-5,97
644,239	-32,6
644,432	39,08
644,626	-67,41
644,819	-10,07
645,012	10,41
645,205	2,22
645,398	-1,88
645,591	-22,36
645,784	-61,27
645,977	-83,8
646,17	86,19
646,363	-51,03
646,556	14,51
646,749	-14,17
646,942	18,6
647,135	-14,17
647,328	-32,6
647,521	88,23
647,714	-18,26
647,907	43,18
648,099	8,36
648,292	0,17
648,485	16,55
648,678	55,47
648,871	-44,88
649,064	20,65
649,256	-12,12
649,449	-10,07
649,642	8,36
649,835	-30,55
650,027	-10,07
650,22	14,51
650,413	-34,64
650,605	88,23
650,798	22,7
650,991	0,17
651,183	67,75
651,376	59,56
651,568	-8,02
651,761	10,41
651,954	94,38
652,146	-18,26
652,339	57,51
652,531	22,7
652,724	-1,88
652,916	20,65
653,109	10,41
653,301	49,32
653,494	47,27
653,686	-34,64
653,879	41,13
654,071	63,66
654,263	-55,12
654,456	30,89
654,648	18,6
654,84	47,27
655,033	-40,79
655,225	45,23
655,417	-51,03
655,61	75,95
655,802	104,62
655,994	106,67
656,186	-22,36
656,379	16,55
656,571	71,85
656,763	12,46
656,955	63,66
657,148	-1,88
657,34	43,18
657,532	0,17
657,724	18,6
657,916	4,27
658,108	18,6
658,3	-32,6
658,492	41,13
658,684	-16,21
658,876	-12,12
659,068	-10,07
659,26	-57,17
659,452	6,31
659,644	37,03
659,836	39,08
660,028	4,27
660,22	55,47
660,412	-1,88
660,604	12,46
660,796	-30,55
660,988	-61,27
661,18	32,94
661,372	32,94
661,563	-34,64
661,755	55,47
661,947	10,41
662,139	55,47
662,331	-1,88
662,522	57,51
662,714	-18,26
662,906	6,31
663,097	-14,17
663,289	-1,88
663,481	2,22
663,673	8,36
663,864	51,37
664,056	88,23
664,247	24,75
664,439	30,89
664,631	37,03
664,822	96,43
665,014	34,99
665,205	6,31
665,397	-10,07
665,588	-24,4
665,78	8,36
665,971	28,84
666,163	-106,32
666,354	55,47
666,546	-32,6
666,737	-63,32
666,929	-28,5
667,12	14,51
667,311	-18,26
667,503	-57,17
667,694	-26,45
667,885	37,03
668,077	-32,6
668,268	28,84
668,459	65,71
668,651	-53,08
668,842	26,79
669,033	-32,6
669,224	-5,97
669,416	41,13
669,607	-12,12
669,798	-26,45
669,989	-32,6
670,18	0,17
670,371	4,27
670,563	34,99
670,754	8,36
670,945	2,22
671,136	49,32
671,327	-26,45
671,518	80,04
671,709	14,51
671,9	39,08
672,091	24,75
672,282	14,51
672,473	24,75
672,664	-18,26
672,855	39,08
673,046	80,04
673,237	82,09
673,428	18,6
673,619	8,36
673,809	2,22
674	47,27
674,191	20,65
674,382	123,05
674,573	20,65
674,764	37,03
674,954	-3,93
675,145	-75,6
675,336	-28,5
675,527	6,31
675,717	32,94
675,908	16,55
676,099	-40,79
676,289	-61,27
676,48	-46,93
676,671	24,75
676,861	0,17
677,052	20,65
677,243	39,08
677,433	-48,98
677,624	-5,97
677,814	22,7
678,005	6,31
678,195	49,32
678,386	-51,03
678,576	8,36
678,767	-24,4
678,957	34,99
679,148	-5,97
679,338	-20,31
679,529	-28,5
679,719	45,23
679,909	73,9
680,1	22,7
680,29	-10,07
680,481	-18,26
680,671	-34,64
680,861	12,46
681,052	22,7
681,242	-28,5
681,432	55,47
681,622	14,51
681,813	-67,41
682,003	-1,88
682,193	0,17
682,383	-28,5
682,573	-26,45
682,764	-10,07
682,954	-1,88
683,144	82,09
683,334	0,17
683,524	-51,03
683,714	6,31
683,904	28,84
684,094	-22,36
684,284	-16,21
684,474	16,55
684,664	14,51
684,854	34,99
685,044	-8,02
685,234	-26,45
685,424	32,94
685,614	-10,07
685,804	71,85
685,994	-83,8
686,184	67,75
686,374	-18,26
686,564	-42,84
686,753	63,66
686,943	-8,02
687,133	-18,26
687,323	4,27
687,513	-59,22
687,702	-10,07
687,892	-46,93
688,082	-10,07
688,272	71,85
688,461	26,79
688,651	65,71
688,841	18,6
689,03	-51,03
689,22	-24,4
689,41	-12,12
689,599	10,41
689,789	59,56
689,979	-38,74
690,168	-48,98
690,358	30,89
690,547	-20,31
690,737	14,51
690,926	43,18
691,116	-16,21
691,305	0,17
691,495	4,27
691,684	-8,02
691,874	0,17
692,063	16,55
692,252	8,36
692,442	63,66
692,631	30,89
692,82	16,55
693,01	112,81
693,199	-87,89
693,388	28,84
693,578	-22,36
693,767	63,66
693,956	12,46
694,146	-16,21
694,335	49,32
694,524	57,51
694,713	80,04
694,902	-10,07
695,092	-14,17
695,281	6,31
695,47	2,22
695,659	53,42
695,848	82,09
696,037	0,17
696,226	-26,45
696,415	30,89
696,604	129,19
696,793	69,8
696,982	-61,27
697,171	96,43
697,36	34,99
697,549	6,31
697,738	-22,36
697,927	-26,45
698,116	-51,03
698,305	-44,88
698,494	65,71
698,683	-1,88
698,872	39,08
699,061	41,13
699,25	41,13
699,438	8,36
699,627	28,84
699,816	67,75
700,005	-1,88
700,193	-75,6
700,382	41,13
700,571	69,8
700,76	104,62
700,948	53,42
701,137	4,27
701,326	37,03
701,514	22,7
701,703	26,79
701,892	-42,84
702,08	63,66
702,269	-3,93
702,457	-18,26
702,646	4,27
702,834	-1,88
703,023	-16,21
703,212	26,79
703,4	-20,31
703,589	-10,07
703,777	-42,84
703,965	24,75
704,154	6,31
704,342	-24,4
704,531	37,03
704,719	4,27
704,907	32,94
705,096	-40,79
705,284	-5,97
705,472	-1,88
705,661	-16,21
705,849	10,41
706,037	51,37
706,226	14,51
706,414	-85,84
706,602	-63,32
706,79	41,13
706,979	20,65
707,167	-1,88
707,355	-61,27
707,543	22,7
707,731	-10,07
707,919	-46,93
708,107	55,47
708,296	-36,69
708,484	-34,64
708,672	0,17
708,86	-48,98
709,048	-22,36
709,236	-67,41
709,424	-34,64
709,612	-3,93
709,8	-81,75
709,988	0,17
710,176	100,52
710,364	57,51
710,551	18,6
710,739	43,18
710,927	-40,79
711,115	-30,55
711,303	96,43
711,491	41,13
711,679	22,7
711,866	24,75
712,054	-22,36
712,242	55,47
712,43	-8,02
712,617	-40,79
712,805	4,27
712,993	16,55
713,181	-87,89
713,368	0,17
713,556	-38,74
713,744	-59,22
713,931	55,47
714,119	-10,07
714,306	75,95
714,494	-42,84
714,682	-12,12
714,869	4,27
715,057	-46,93
715,244	-61,27
715,432	-5,97
715,619	-73,56
715,807	69,8
715,994	0,17
716,182	-12,12
716,369	47,27
716,556	-61,27
716,744	-106,32
716,931	-10,07
717,119	-10,07
717,306	20,65
717,493	77,99
717,681	-40,79
717,868	-83,8
718,055	92,33
718,242	32,94
718,43	61,61
718,617	90,28
718,804	-24,4
718,991	-20,31
719,179	-32,6
719,366	-10,07
719,553	-38,74
719,74	-87,89
719,927	104,62
720,114	4,27
720,301	-1,88
720,488	-34,64
720,676	-42,84
720,863	6,31
721,05	47,27
721,237	24,75
721,424	6,31
721,611	-44,88
721,798	4,27
721,985	-10,07
722,172	-73,56
722,358	-16,21
722,545	0,17
722,732	2,22
722,919	18,6
723,106	16,55
723,293	-3,93
723,48	-20,31
723,667	10,41
723,853	24,75
724,04	41,13
724,227	8,36
724,414	16,55
724,6	24,75
724,787	49,32
724,974	39,08
725,161	-36,69
725,347	2,22
725,534	43,18
725,72	-8,02
725,907	32,94
726,094	6,31
726,28	6,31
726,467	-18,26
726,653	12,46
726,84	16,55
727,027	55,47
727,213	14,51
727,4	-53,08
727,586	14,51
727,773	47,27
727,959	-24,4
728,145	14,51
728,332	16,55
728,518	-46,93
728,705	-1,88
728,891	14,51
729,077	6,31
729,264	75,95
729,45	8,36
729,636	22,7
729,823	71,85
730,009	2,22
730,195	24,75
730,382	59,56
730,568	-32,6
730,754	39,08
730,94	24,75
731,126	-22,36
731,313	-16,21
731,499	-3,93
731,685	-16,21
731,871	-55,12
732,057	-61,27
732,243	24,75
732,429	26,79
732,615	65,71
732,801	96,43
732,987	-32,6
733,173	16,55
733,359	-36,69
733,545	43,18
733,731	-12,12
733,917	14,51
734,103	-40,79
734,289	22,7
734,475	24,75
734,661	-24,4
734,847	-16,21
735,033	18,6
735,219	16,55
735,404	-32,6
735,59	-8,02
735,776	-18,26
735,962	6,31
736,148	8,36
736,333	10,41
736,519	-20,31
736,705	26,79
736,89	10,41
737,076	-51,03
737,262	-22,36
737,447	-10,07
737,633	-24,4
737,819	-16,21
738,004	14,51
738,19	2,22
738,375	8,36
738,561	-26,45
738,747	-40,79
738,932	-10,07
739,118	106,67
739,303	-26,45
739,489	-32,6
739,674	47,27
739,859	-36,69
740,045	24,75
740,23	-3,93
740,416	-44,88
740,601	24,75
740,786	32,94
740,972	-61,27
741,157	14,51
741,342	63,66
741,528	34,99
741,713	-10,07
741,898	-57,17
742,084	-5,97
742,269	18,6
742,454	63,66
742,639	-22,36
742,824	-5,97
743,01	86,19
743,195	61,61
743,38	8,36
743,565	82,09
743,75	34,99
743,935	22,7
744,12	96,43
744,305	-28,5
744,49	32,94
744,675	10,41
744,86	22,7
745,045	-53,08
745,23	12,46
745,415	0,17
745,6	12,46
745,785	-48,98
745,97	-53,08
746,155	-57,17
746,34	-24,4
746,525	-65,36
746,71	-18,26
746,895	-46,93
747,079	41,13
747,264	-1,88
747,449	-44,88
747,634	47,27
747,819	-34,64
748,003	51,37
748,188	10,41
748,373	14,51
748,557	-73,56
748,742	45,23
748,927	6,31
749,111	-36,69
749,296	26,79
749,481	-14,17
749,665	-10,07
749,85	22,7
750,034	-26,45
750,219	-8,02
750,404	-28,5
750,588	16,55
750,773	-81,75
750,957	6,31
751,141	20,65
751,326	55,47
751,51	-57,17
751,695	-36,69
751,879	6,31
752,064	41,13
752,248	-59,22
752,432	43,18
752,617	-67,41
752,801	16,55
752,985	-5,97
753,17	96,43
753,354	-18,26
753,538	34,99
753,722	-10,07
753,907	-28,5
754,091	-71,51
754,275	41,13
754,459	-32,6
754,643	63,66
754,828	34,99
755,012	-3,93
755,196	-48,98
755,38	57,51
755,564	-16,21
755,748	-3,93
755,932	-14,17
756,116	-1,88
756,3	-5,97
756,484	4,27
756,668	-16,21
756,852	-1,88
757,036	14,51
757,22	-20,31
757,404	-5,97
757,588	-10,07
757,772	12,46
757,956	-28,5
758,14	63,66
758,323	-16,21
758,507	92,33
758,691	41,13
758,875	18,6
759,059	22,7
759,242	39,08
759,426	-8,02
759,61	-71,51
759,794	-26,45
759,977	-22,36
760,161	112,81
760,345	-5,97
760,528	55,47
760,712	-30,55
760,895	45,23
761,079	22,7
761,263	-26,45
761,446	-22,36
761,63	0,17
761,813	34,99
761,997	-26,45
762,18	-48,98
762,364	-1,88
762,547	-57,17
762,731	53,42
762,914	-8,02
763,098	-42,84
763,281	-36,69
763,464	-5,97
763,648	-18,26
763,831	-75,6
764,015	-79,7
764,198	57,51
764,381	-16,21
764,564	-38,74
764,748	26,79
764,931	-40,79
765,114	-83,8
765,297	88,23
765,481	-3,93
765,664	-26,45
765,847	18,6
766,03	22,7
766,213	41,13
766,397	47,27
766,58	12,46
766,763	-18,26
766,946	-20,31
767,129	-10,07
767,312	-44,88
767,495	-1,88
767,678	-12,12
767,861	51,37
768,044	0,17
768,227	0,17
768,41	-30,55
768,593	32,94
768,776	41,13
768,959	-77,65
769,142	-20,31
769,324	-24,4
769,507	-55,12
769,69	24,75
769,873	-30,55
770,056	121
770,239	-44,88
770,421	2,22
770,604	-46,93
770,787	-38,74
770,97	-26,45
771,152	41,13
771,335	45,23
771,518	-51,03
771,7	41,13
771,883	100,52
772,066	4,27
772,248	-24,4
772,431	39,08
772,613	6,31
772,796	90,28
772,978	32,94
773,161	61,61
773,343	8,36
773,526	14,51
773,708	-16,21
773,891	-38,74
774,073	-10,07
774,256	55,47
774,438	112,81
774,621	2,22
774,803	-34,64
774,985	-1,88
775,168	34,99
775,35	30,89
775,532	-28,5
775,715	-10,07
775,897	6,31
776,079	22,7
776,261	8,36
776,444	-10,07
776,626	12,46
776,808	-16,21
776,99	-24,4
777,173	2,22
777,355	-42,84
777,537	71,85
777,719	-1,88
777,901	-51,03
778,083	-14,17
778,265	-38,74
778,447	-10,07
778,629	0,17
778,811	-42,84
778,993	39,08
779,175	94,38
779,357	-77,65
779,539	-71,51
779,721	2,22
779,903	22,7
780,085	16,55
780,267	-34,64
780,449	-26,45
780,631	67,75
780,812	14,51
780,994	-57,17
781,176	47,27
781,358	39,08
781,54	-8,02
781,721	45,23
781,903	14,51
782,085	-3,93
782,267	-48,98
782,448	-51,03
782,63	12,46
782,812	34,99
782,993	39,08
783,175	-1,88
783,357	28,84
783,538	77,99
783,72	18,6
783,901	10,41
784,083	32,94
784,264	6,31
784,446	-59,22
784,627	16,55
784,809	34,99
784,99	2,22
785,172	-24,4
785,353	41,13
785,535	12,46
785,716	-61,27
785,897	-5,97
786,079	6,31
786,26	-100,18
786,441	-24,4
786,623	-38,74
786,804	-53,08
786,985	84,14
787,167	-18,26
787,348	67,75
787,529	43,18
787,71	26,79
787,891	30,89
788,073	-14,17
788,254	51,37
788,435	18,6
788,616	-3,93
788,797	-14,17
788,978	-22,36
789,159	-40,79
789,34	26,79
789,522	-38,74
789,703	20,65
789,884	96,43
790,065	30,89
790,246	20,65
790,427	-3,93
790,607	59,56
790,788	45,23
790,969	-42,84
791,15	-20,31
791,331	-28,5
791,512	2,22
791,693	-112,47
791,874	-24,4
792,054	28,84
792,235	-8,02
792,416	2,22
792,597	-24,4
792,778	14,51
792,958	-51,03
793,139	45,23
793,32	55,47
793,5	22,7
793,681	6,31
793,862	18,6
794,042	-67,41
794,223	-1,88
794,404	-100,18
794,584	-104,28
794,765	10,41
794,945	45,23
795,126	-22,36
795,306	-26,45
795,487	51,37
795,667	-48,98
795,848	-71,51
796,028	22,7
796,209	37,03
796,389	32,94
796,57	-34,64
796,75	26,79
796,93	69,8
797,111	-20,31
797,291	28,84
797,471	-63,32
797,652	-46,93
797,832	-22,36
798,012	37,03
798,192	-36,69
798,373	-44,88
798,553	-42,84
798,733	-32,6
798,913	-1,88
799,093	51,37
799,274	-24,4
799,454	-40,79
799,634	37,03
799,814	16,55
799,994	2,22
800,174	32,94
800,354	-65,36
800,534	-65,36
800,714	55,47
800,894	-40,79
801,074	-34,64
801,254	-10,07
801,434	41,13
801,614	32,94
801,794	-20,31
801,974	475,3
802,154	-32,6
802,334	32,94
802,514	-89,94
802,693	-61,27
802,873	-44,88
803,053	-22,36
803,233	18,6
803,413	63,66
803,592	-16,21
803,772	22,7
803,952	-8,02
804,131	-34,64
804,311	47,27
804,491	57,51
804,67	-38,74
804,85	14,51
805,03	-10,07
805,209	69,8
805,389	-28,5
805,568	106,67
805,748	10,41
805,928	41,13
806,107	-1,88
806,287	30,89
806,466	43,18
806,646	26,79
806,825	-36,69
807,004	8,36
807,184	-24,4
807,363	-1,88
807,543	-10,07
807,722	-40,79
807,901	18,6
808,081	24,75
808,26	-114,52
808,439	6,31
808,619	26,79
808,798	14,51
808,977	22,7
809,156	45,23
809,336	-26,45
809,515	14,51
809,694	-55,12
809,873	-38,74
810,052	49,32
810,231	8,36
810,411	-18,26
810,59	37,03
810,769	39,08
810,948	26,79
811,127	-79,7
811,306	26,79
811,485	-30,55
811,664	47,27
811,843	-59,22
812,022	4,27
812,201	-40,79
812,38	18,6
812,559	-18,26
812,737	10,41
812,916	-20,31
813,095	-14,17
813,274	-30,55
813,453	65,71
813,632	16,55
813,811	22,7
813,989	-12,12
814,168	-28,5
814,347	16,55
814,526	47,27
814,704	14,51
814,883	47,27
815,062	-65,36
815,24	20,65
815,419	-38,74
815,598	12,46
815,776	14,51
815,955	8,36
816,133	-51,03
816,312	8,36
816,49	-46,93
816,669	-30,55
816,847	4,27
817,026	10,41
817,204	-3,93
817,383	-16,21
817,561	-42,84
817,74	39,08
817,918	37,03
818,097	-10,07
818,275	-10,07
818,453	-57,17
818,632	8,36
818,81	-38,74
818,988	-10,07
819,167	8,36
819,345	82,09
819,523	30,89
819,701	10,41
819,879	49,32
820,058	-89,94
820,236	-16,21
820,414	-57,17
820,592	30,89
820,77	-16,21
820,948	-10,07
821,127	-5,97
821,305	39,08
821,483	-59,22
821,661	-51,03
821,839	18,6
822,017	-1,88
822,195	47,27
822,373	-34,64
822,551	34,99
822,729	-1,88
822,907	-14,17
823,085	-18,26
823,262	57,51
823,44	-67,41
823,618	-83,8
823,796	14,51
823,974	-59,22
824,152	-1,88
824,329	-26,45
824,507	14,51
824,685	-55,12
824,863	-42,84
825,04	-44,88
825,218	26,79
825,396	-18,26
825,574	-18,26
825,751	-30,55
825,929	12,46
826,107	4,27
826,284	-48,98
826,462	-42,84
826,639	-24,4
826,817	18,6
826,994	-24,4
827,172	-8,02
827,349	12,46
827,527	71,85
827,704	-28,5
827,882	-16,21
828,059	-71,51
828,237	-44,88
828,414	10,41
828,591	-3,93
828,769	-16,21
828,946	-63,32
829,124	8,36
829,301	53,42
829,478	-42,84
829,655	-48,98
829,833	-18,26
830,01	-34,64
830,187	-67,41
830,364	37,03
830,542	71,85
830,719	88,23
830,896	-51,03
831,073	18,6
831,25	2,22
831,427	10,41
831,604	0,17
831,782	4,27
831,959	14,51
832,136	-83,8
832,313	77,99
832,49	-36,69
832,667	-32,6
832,844	-1,88
833,021	41,13
833,198	6,31
833,374	47,27
833,551	-3,93
833,728	2,22
833,905	61,61
834,082	14,51
834,259	32,94
834,436	92,33
834,612	-20,31
834,789	65,71
834,966	43,18
835,143	6,31
835,319	-26,45
835,496	10,41
835,673	-8,02
835,85	28,84
836,026	16,55
836,203	37,03
836,38	-34,64
836,556	43,18
836,733	-53,08
836,909	22,7
837,086	-18,26
837,262	-71,51
837,439	-38,74
837,616	22,7
837,792	-8,02
837,968	-32,6
838,145	-61,27
838,321	-40,79
838,498	-3,93
838,674	8,36
838,851	14,51
839,027	-10,07
839,203	2,22
839,38	8,36
839,556	-1,88
839,732	28,84
839,909	37,03
840,085	30,89
840,261	-89,94
840,437	-1,88
840,614	32,94
840,79	8,36
840,966	45,23
841,142	-10,07
841,318	8,36
841,494	-59,22
841,671	-59,22
841,847	12,46
842,023	-53,08
842,199	90,28
842,375	32,94
842,551	4,27
842,727	-75,6
842,903	-44,88
843,079	6,31
843,255	43,18
843,431	2,22
843,607	-1,88
843,783	-44,88
843,959	55,47
844,134	-53,08
844,31	8,36
844,486	-91,99
844,662	10,41
844,838	-57,17
845,013	-1,88
845,189	-8,02
845,365	-1,88
845,541	-16,21
845,716	-57,17
845,892	28,84
846,068	-75,6
846,244	14,51
846,419	-30,55
846,595	-59,22
846,77	-22,36
846,946	2,22
847,122	14,51
847,297	-30,55
847,473	16,55
847,648	-38,74
847,824	10,41
847,999	-77,65
848,175	-38,74
848,35	30,89
848,526	65,71
848,701	6,31
848,876	4,27
849,052	-10,07
849,227	-130,9
849,403	-22,36
849,578	-83,8
849,753	39,08
849,929	-22,36
850,104	-75,6
850,279	67,75
850,454	30,89
850,63	-20,31
850,805	98,47
850,98	-44,88
851,155	41,13
851,33	8,36
851,505	6,31
851,681	39,08
851,856	-59,22
852,031	6,31
852,206	-46,93
852,381	-83,8
852,556	20,65
852,731	-75,6
852,906	53,42
853,081	121
853,256	6,31
853,431	12,46
853,606	-75,6
853,781	2,22
853,956	10,41
854,131	-51,03
854,305	-24,4
854,48	6,31
854,655	-57,17
854,83	-71,51
855,005	-26,45
855,18	53,42
855,354	-63,32
855,529	20,65
855,704	-53,08
855,879	-28,5
856,053	28,84
856,228	14,51
856,403	-48,98
856,577	43,18
856,752	-116,56
856,926	-57,17
857,101	20,65
857,276	4,27
857,45	-28,5
857,625	59,56
857,799	32,94
857,974	-18,26
858,148	30,89
858,323	-51,03
858,497	-69,46
858,672	0,17
858,846	-53,08
859,02	2,22
859,195	-63,32
859,369	0,17
859,543	43,18
859,718	-18,26
859,892	-36,69
860,066	-20,31
860,241	47,27
860,415	14,51
860,589	-42,84
860,763	-71,51
860,938	-10,07
861,112	-1,88
861,286	-26,45
861,46	-16,21
861,634	0,17
861,808	-5,97
861,982	-18,26
862,157	-30,55
862,331	-46,93
862,505	-26,45
862,679	-40,79
862,853	39,08
863,027	6,31
863,201	-32,6
863,375	6,31
863,549	28,84
863,722	-5,97
863,896	104,62
864,07	37,03
864,244	-22,36
864,418	28,84
864,592	-10,07
864,766	-44,88
864,939	-5,97
865,113	-42,84
865,287	6,31
865,461	-40,79
865,634	20,65
865,808	-10,07
865,982	6,31
866,156	-26,45
866,329	41,13
866,503	-20,31
866,676	8,36
866,85	37,03
867,024	-40,79
867,197	-32,6
867,371	6,31
867,544	-12,12
867,718	8,36
867,891	0,17
868,065	-65,36
868,238	-3,93
868,412	18,6
868,585	30,89
868,759	-40,79
868,932	-32,6
869,105	-42,84
869,279	-34,64
869,452	14,51
869,625	-26,45
869,799	39,08
869,972	-57,17
870,145	-8,02
870,319	-8,02
870,492	-14,17
870,665	28,84
870,838	-36,69
871,011	-83,8
871,185	80,04
871,358	-18,26
871,531	-8,02
871,704	-67,41
871,877	57,51
872,05	-51,03
872,223	-75,6
872,396	39,08
872,569	47,27
872,742	-5,97
872,915	16,55
873,088	22,7
873,261	-18,26
873,434	-34,64
873,607	6,31
873,78	63,66
873,953	6,31
874,126	104,62
874,299	-53,08
874,471	-3,93
874,644	-34,64
874,817	-81,75
874,99	22,7
875,163	-48,98
875,335	61,61
875,508	-10,07
875,681	8,36
875,853	20,65
876,026	75,95
876,199	-12,12
876,371	39,08
876,544	-40,79
876,717	8,36
876,889	-18,26
877,062	-22,36
877,234	-57,17
877,407	-55,12
877,579	-28,5
877,752	39,08
877,924	67,75
878,097	0,17
878,269	51,37
878,442	-10,07
878,614	-57,17
878,786	26,79
878,959	-16,21
879,131	-63,32
879,303	-8,02
879,476	-26,45
879,648	53,42
879,82	-28,5
879,993	-5,97
880,165	32,94
880,337	26,79
880,509	-1,88
880,681	-124,76
880,854	-69,46
881,026	14,51
881,198	8,36
881,37	6,31
881,542	53,42
881,714	-30,55
881,886	-3,93
882,058	26,79
882,23	-51,03
882,402	-26,45
882,574	-3,93
882,746	-32,6
882,918	30,89
883,09	-73,56
883,262	-67,41
883,434	90,28
883,606	-65,36
883,778	-34,64
883,95	-28,5
884,122	-3,93
884,293	90,28
884,465	-48,98
884,637	-14,17
884,809	22,7
884,98	12,46
885,152	-12,12
885,324	-30,55
885,496	-18,26
885,667	51,37
885,839	63,66
886,011	24,75
886,182	-65,36
886,354	77,99
886,525	-18,26
886,697	-26,45
886,869	-73,56
887,04	10,41
887,212	96,43
887,383	-1,88
887,555	-89,94
887,726	-5,97
887,897	-16,21
888,069	-61,27
888,24	-46,93
888,412	-8,02
888,583	6,31
888,754	-18,26
888,926	-79,7
889,097	-61,27
889,268	-26,45
889,44	39,08
889,611	0,17
889,782	-100,18
889,953	-18,26
890,125	12,46
890,296	-30,55
890,467	-65,36
890,638	26,79
890,809	-1,88
890,98	8,36
891,151	2,22
891,323	53,42
891,494	-26,45
891,665	-1,88
891,836	47,27
892,007	10,41
892,178	-12,12
892,349	-26,45
892,52	43,18
892,691	-5,97
892,862	-24,4
893,032	-14,17
893,203	-57,17
893,374	30,89
893,545	-16,21
893,716	-18,26
893,887	12,46
894,057	32,94
894,228	-18,26
894,399	-77,65
894,57	24,75
894,74	-18,26
894,911	26,79
895,082	-26,45
895,253	14,51
895,423	-42,84
895,594	-42,84
895,764	-24,4
895,935	-18,26
896,106	-1,88
896,276	-16,21
896,447	-10,07
896,617	-81,75
896,788	-34,64
896,958	-30,55
897,129	45,23
897,299	-59,22
897,47	-24,4
897,64	8,36
897,81	-53,08
897,981	-34,64
898,151	14,51
898,322	6,31
898,492	28,84
898,662	-46,93
898,832	-5,97
899,003	-3,93
899,173	43,18
899,343	-26,45
899,513	24,75
