Data from filtre430_USB4F104151__8__11-51-40-600.txt Node

Date: Wed Apr 15 11:51:40 EDT 2026
User: LaboPhy
Spectrometer: USB4F10415
Trigger mode: 4
Integration Time (sec): 2,500000E-2
Scans to average: 1
Electric dark correction enabled: true
Nonlinearity correction enabled: false
Boxcar width: 0
XAxis mode: Wavelengths
Number of Pixels in Spectrum: 3648
>>>>>Begin Spectral Data<<<<<
178,204	-104,28
178,424	-104,28
178,644	-104,28
178,864	-128,85
179,084	-171,86
179,304	-1,88
179,524	-40,79
179,744	-22,36
179,964	63,66
180,184	4,27
180,404	6,31
180,624	16,55
180,844	-1,88
181,064	-57,17
181,283	-16,21
181,503	43,18
181,723	6,31
181,943	18,6
182,163	-24,4
182,383	26,79
182,602	84,14
182,822	45,23
183,042	14,51
183,262	-51,03
183,482	63,66
183,701	-69,46
183,921	16,55
184,141	51,37
184,361	53,42
184,58	121
184,8	10,41
185,02	8,36
185,239	45,23
185,459	16,55
185,679	-32,6
185,898	-71,51
186,118	71,85
186,338	59,56
186,557	55,47
186,777	16,55
186,997	-16,21
187,216	20,65
187,436	116,9
187,655	57,51
187,875	18,6
188,095	-24,4
188,314	80,04
188,534	112,81
188,753	39,08
188,973	-32,6
189,192	49,32
189,412	123,05
189,631	41,13
189,851	-8,02
190,07	84,14
190,29	32,94
190,509	39,08
190,729	-5,97
190,948	39,08
191,168	90,28
191,387	51,37
191,607	-12,12
191,826	-1,88
192,045	8,36
192,265	6,31
192,484	41,13
192,704	39,08
192,923	-8,02
193,142	96,43
193,362	14,51
193,581	51,37
193,8	98,47
194,02	63,66
194,239	-12,12
194,458	24,75
194,678	-28,5
194,897	108,71
195,116	30,89
195,335	71,85
195,555	80,04
195,774	-46,93
195,993	24,75
196,212	-10,07
196,432	-20,31
196,651	-14,17
196,87	18,6
197,089	34,99
197,308	39,08
197,528	6,31
197,747	22,7
197,966	24,75
198,185	57,51
198,404	100,52
198,623	51,37
198,842	-22,36
199,062	-1,88
199,281	90,28
199,5	-8,02
199,719	71,85
199,938	90,28
200,157	34,99
200,376	55,47
200,595	39,08
200,814	20,65
201,033	-8,02
201,252	18,6
201,471	6,31
201,69	51,37
201,909	55,47
202,128	69,8
202,347	6,31
202,566	-5,97
202,785	55,47
203,004	-28,5
203,223	161,96
203,442	0,17
203,661	-14,17
203,879	32,94
204,098	41,13
204,317	53,42
204,536	43,18
204,755	41,13
204,974	-46,93
205,193	73,9
205,411	26,79
205,63	-42,84
205,849	49,32
206,068	8,36
206,287	65,71
206,505	26,79
206,724	53,42
206,943	-10,07
207,162	34,99
207,381	73,9
207,599	16,55
207,818	22,7
208,037	6,31
208,255	34,99
208,474	22,7
208,693	77,99
208,911	-22,36
209,13	67,75
209,349	41,13
209,567	-18,26
209,786	63,66
210,005	59,56
210,223	51,37
210,442	4,27
210,661	-20,31
210,879	28,84
211,098	6,31
211,316	55,47
211,535	100,52
211,753	67,75
211,972	67,75
212,191	-24,4
212,409	47,27
212,628	34,99
212,846	16,55
213,065	43,18
213,283	73,9
213,502	51,37
213,72	47,27
213,938	39,08
214,157	73,9
214,375	14,51
214,594	10,41
214,812	34,99
215,031	-5,97
215,249	0,17
215,467	28,84
215,686	2,22
215,904	49,32
216,122	28,84
216,341	59,56
216,559	12,46
216,778	102,57
216,996	73,9
217,214	-34,64
217,432	47,27
217,651	-32,6
217,869	16,55
218,087	-57,17
218,306	88,23
218,524	90,28
218,742	75,95
218,96	28,84
219,179	-34,64
219,397	-28,5
219,615	75,95
219,833	55,47
220,051	-18,26
220,27	51,37
220,488	28,84
220,706	18,6
220,924	6,31
221,142	8,36
221,36	47,27
221,578	-26,45
221,796	4,27
222,015	82,09
222,233	-1,88
222,451	14,51
222,669	16,55
222,887	108,71
223,105	34,99
223,323	30,89
223,541	53,42
223,759	80,04
223,977	-46,93
224,195	47,27
224,413	82,09
224,631	47,27
224,849	0,17
225,067	34,99
225,285	6,31
225,503	12,46
225,721	14,51
225,939	-18,26
226,157	55,47
226,375	49,32
226,592	6,31
226,81	34,99
227,028	-14,17
227,246	61,61
227,464	16,55
227,682	20,65
227,9	-1,88
228,117	98,47
228,335	-16,21
228,553	34,99
228,771	22,7
228,989	10,41
229,206	22,7
229,424	8,36
229,642	-1,88
229,86	-79,7
230,077	10,41
230,295	22,7
230,513	80,04
230,731	51,37
230,948	43,18
231,166	75,95
231,384	45,23
231,601	6,31
231,819	75,95
232,037	24,75
232,254	-40,79
232,472	96,43
232,689	45,23
232,907	32,94
233,125	-26,45
233,342	6,31
233,56	-26,45
233,777	63,66
233,995	100,52
234,213	24,75
234,43	-8,02
234,648	41,13
234,865	-3,93
235,083	37,03
235,3	112,81
235,518	65,71
235,735	73,9
235,953	59,56
236,17	20,65
236,388	53,42
236,605	49,32
236,822	18,6
237,04	-36,69
237,257	49,32
237,475	-5,97
237,692	32,94
237,909	24,75
238,127	-55,12
238,344	-1,88
238,562	8,36
238,779	55,47
238,996	-26,45
239,214	47,27
239,431	-8,02
239,648	22,7
239,865	22,7
240,083	-1,88
240,3	18,6
240,517	18,6
240,735	57,51
240,952	26,79
241,169	92,33
241,386	45,23
241,603	34,99
241,821	-1,88
242,038	34,99
242,255	55,47
242,472	16,55
242,689	51,37
242,907	88,23
243,124	86,19
243,341	32,94
243,558	20,65
243,775	-20,31
243,992	10,41
244,209	104,62
244,426	22,7
244,643	51,37
244,86	24,75
245,078	12,46
245,295	82,09
245,512	22,7
245,729	73,9
245,946	32,94
246,163	8,36
246,38	20,65
246,597	10,41
246,814	92,33
247,031	22,7
247,248	-16,21
247,464	24,75
247,681	-42,84
247,898	71,85
248,115	57,51
248,332	-3,93
248,549	63,66
248,766	57,51
248,983	-20,31
249,2	32,94
249,417	34,99
249,633	41,13
249,85	39,08
250,067	43,18
250,284	12,46
250,501	26,79
250,717	39,08
250,934	-14,17
251,151	14,51
251,368	-14,17
251,585	65,71
251,801	16,55
252,018	57,51
252,235	14,51
252,451	-32,6
252,668	-8,02
252,885	51,37
253,102	-1,88
253,318	30,89
253,535	-38,74
253,752	2,22
253,968	8,36
254,185	55,47
254,401	82,09
254,618	73,9
254,835	-10,07
255,051	10,41
255,268	-40,79
255,484	22,7
255,701	53,42
255,917	69,8
256,134	6,31
256,351	-38,74
256,567	51,37
256,784	39,08
257	-57,17
257,217	-8,02
257,433	22,7
257,65	69,8
257,866	34,99
258,082	24,75
258,299	16,55
258,515	28,84
258,732	4,27
258,948	6,31
259,165	34,99
259,381	59,56
259,597	57,51
259,814	-24,4
260,03	-1,88
260,246	20,65
260,463	0,17
260,679	88,23
260,895	16,55
261,112	82,09
261,328	28,84
261,544	14,51
261,761	43,18
261,977	-18,26
262,193	-26,45
262,409	59,56
262,626	82,09
262,842	57,51
263,058	34,99
263,274	8,36
263,49	22,7
263,707	57,51
263,923	-14,17
264,139	-24,4
264,355	82,09
264,571	30,89
264,787	47,27
265,004	-1,88
265,22	18,6
265,436	-42,84
265,652	2,22
265,868	37,03
266,084	34,99
266,3	26,79
266,516	24,75
266,732	30,89
266,948	43,18
267,164	6,31
267,38	-1,88
267,596	-14,17
267,812	90,28
268,028	8,36
268,244	8,36
268,46	-32,6
268,676	-40,79
268,892	-1,88
269,108	-12,12
269,324	-10,07
269,54	22,7
269,756	80,04
269,972	-30,55
270,188	-75,6
270,403	-106,32
270,619	39,08
270,835	-5,97
271,051	67,75
271,267	6,31
271,483	39,08
271,698	-67,41
271,914	16,55
272,13	39,08
272,346	63,66
272,562	26,79
272,777	100,52
272,993	-44,88
273,209	-16,21
273,425	77,99
273,64	53,42
273,856	20,65
274,072	-24,4
274,287	0,17
274,503	8,36
274,719	16,55
274,934	32,94
275,15	-26,45
275,366	-10,07
275,581	-36,69
275,797	49,32
276,012	77,99
276,228	8,36
276,444	8,36
276,659	14,51
276,875	59,56
277,09	24,75
277,306	53,42
277,521	22,7
277,737	18,6
277,952	32,94
278,168	-40,79
278,383	2,22
278,599	88,23
278,814	108,71
279,03	-26,45
279,245	39,08
279,461	51,37
279,676	53,42
279,892	55,47
280,107	4,27
280,322	-32,6
280,538	37,03
280,753	22,7
280,969	51,37
281,184	6,31
281,399	63,66
281,615	82,09
281,83	139,43
282,045	51,37
282,26	-57,17
282,476	57,51
282,691	12,46
282,906	0,17
283,122	47,27
283,337	32,94
283,552	41,13
283,767	63,66
283,983	47,27
284,198	51,37
284,413	-18,26
284,628	-14,17
284,843	-10,07
285,058	-14,17
285,274	69,8
285,489	0,17
285,704	88,23
285,919	-1,88
286,134	-16,21
286,349	67,75
286,564	47,27
286,779	71,85
286,995	43,18
287,21	-40,79
287,425	57,51
287,64	4,27
287,855	20,65
288,07	80,04
288,285	43,18
288,5	88,23
288,715	55,47
288,93	-36,69
289,145	-75,6
289,36	100,52
289,575	20,65
289,79	51,37
290,004	41,13
290,219	-18,26
290,434	-5,97
290,649	-8,02
290,864	-16,21
291,079	-14,17
291,294	39,08
291,509	65,71
291,724	0,17
291,938	43,18
292,153	82,09
292,368	2,22
292,583	57,51
292,798	55,47
293,012	73,9
293,227	51,37
293,442	8,36
293,657	14,51
293,871	-18,26
294,086	22,7
294,301	88,23
294,516	90,28
294,73	22,7
294,945	18,6
295,16	28,84
295,374	39,08
295,589	55,47
295,804	65,71
296,018	45,23
296,233	16,55
296,447	69,8
296,662	-16,21
296,877	18,6
297,091	26,79
297,306	-1,88
297,52	18,6
297,735	45,23
297,949	41,13
298,164	39,08
298,378	61,61
298,593	59,56
298,807	0,17
299,022	86,19
299,236	49,32
299,451	2,22
299,665	26,79
299,88	22,7
300,094	-3,93
300,309	94,38
300,523	34,99
300,737	61,61
300,952	75,95
301,166	43,18
301,381	2,22
301,595	8,36
301,809	20,65
302,024	-46,93
302,238	-20,31
302,452	20,65
302,667	10,41
302,881	24,75
303,095	80,04
303,309	34,99
303,524	-48,98
303,738	-14,17
303,952	-8,02
304,166	34,99
304,381	-32,6
304,595	8,36
304,809	-26,45
305,023	51,37
305,237	-12,12
305,452	-24,4
305,666	14,51
305,88	59,56
306,094	-5,97
306,308	10,41
306,522	-14,17
306,736	6,31
306,95	45,23
307,164	22,7
307,379	-5,97
307,593	63,66
307,807	30,89
308,021	67,75
308,235	77,99
308,449	-12,12
308,663	26,79
308,877	20,65
309,091	6,31
309,305	41,13
309,519	34,99
309,733	34,99
309,947	47,27
310,161	24,75
310,374	49,32
310,588	63,66
310,802	20,65
311,016	-34,64
311,23	92,33
311,444	-3,93
311,658	-34,64
311,872	59,56
312,085	37,03
312,299	39,08
312,513	73,9
312,727	18,6
312,941	67,75
313,154	0,17
313,368	43,18
313,582	77,99
313,796	12,46
314,009	2,22
314,223	-28,5
314,437	61,61
314,651	2,22
314,864	65,71
315,078	-34,64
315,292	65,71
315,505	10,41
315,719	47,27
315,933	-24,4
316,146	100,52
316,36	6,31
316,573	80,04
316,787	-18,26
317,001	39,08
317,214	65,71
317,428	55,47
317,641	-24,4
317,855	-32,6
318,068	84,14
318,282	-1,88
318,495	53,42
318,709	96,43
318,922	-3,93
319,136	30,89
319,349	49,32
319,563	18,6
319,776	61,61
319,99	2,22
320,203	-40,79
320,417	84,14
320,63	24,75
320,843	61,61
321,057	20,65
321,27	32,94
321,483	53,42
321,697	34,99
321,91	34,99
322,124	123,05
322,337	75,95
322,55	8,36
322,763	-1,88
322,977	51,37
323,19	-24,4
323,403	51,37
323,617	12,46
323,83	88,23
324,043	2,22
324,256	139,43
324,469	77,99
324,683	43,18
324,896	39,08
325,109	2,22
325,322	-59,22
325,535	104,62
325,748	8,36
325,962	106,67
326,175	26,79
326,388	65,71
326,601	45,23
326,814	2,22
327,027	8,36
327,24	28,84
327,453	10,41
327,666	57,51
327,879	53,42
328,092	106,67
328,305	8,36
328,518	53,42
328,731	-1,88
328,944	0,17
329,157	43,18
329,37	8,36
329,583	96,43
329,796	61,61
330,009	0,17
330,222	39,08
330,435	26,79
330,648	84,14
330,861	41,13
331,073	-42,84
331,286	6,31
331,499	-26,45
331,712	71,85
331,925	-1,88
332,138	37,03
332,35	14,51
332,563	14,51
332,776	65,71
332,989	-38,74
333,202	65,71
333,414	43,18
333,627	51,37
333,84	18,6
334,053	139,43
334,265	12,46
334,478	75,95
334,691	16,55
334,903	43,18
335,116	0,17
335,329	57,51
335,541	-22,36
335,754	55,47
335,966	12,46
336,179	57,51
336,392	26,79
336,604	39,08
336,817	104,62
337,029	98,47
337,242	39,08
337,454	84,14
337,667	71,85
337,88	45,23
338,092	82,09
338,305	55,47
338,517	18,6
338,729	80,04
338,942	88,23
339,154	24,75
339,367	24,75
339,579	67,75
339,792	-8,02
340,004	28,84
340,217	8,36
340,429	84,14
340,641	67,75
340,854	-10,07
341,066	-16,21
341,278	63,66
341,491	6,31
341,703	49,32
341,915	-28,5
342,128	47,27
342,34	43,18
342,552	43,18
342,764	-18,26
342,977	41,13
343,189	39,08
343,401	75,95
343,613	-24,4
343,826	86,19
344,038	20,65
344,25	0,17
344,462	-55,12
344,674	43,18
344,886	-16,21
345,099	-48,98
345,311	18,6
345,523	-16,21
345,735	-5,97
345,947	4,27
346,159	8,36
346,371	102,57
346,583	39,08
346,795	8,36
347,007	-26,45
347,219	34,99
347,431	8,36
347,643	123,05
347,855	32,94
348,067	53,42
348,279	43,18
348,491	43,18
348,703	51,37
348,915	80,04
349,127	6,31
349,339	-18,26
349,551	18,6
349,763	102,57
349,975	24,75
350,187	8,36
350,399	86,19
350,61	22,7
350,822	24,75
351,034	24,75
351,246	49,32
351,458	26,79
351,669	55,47
351,881	20,65
352,093	14,51
352,305	16,55
352,517	-10,07
352,728	84,14
352,94	63,66
353,152	47,27
353,363	16,55
353,575	53,42
353,787	18,6
353,999	0,17
354,21	24,75
354,422	-26,45
354,633	65,71
354,845	-10,07
355,057	59,56
355,268	39,08
355,48	92,33
355,692	-8,02
355,903	-3,93
356,115	-16,21
356,326	-51,03
356,538	63,66
356,749	0,17
356,961	34,99
357,172	-28,5
357,384	0,17
357,595	18,6
357,807	0,17
358,018	43,18
358,23	30,89
358,441	108,71
358,653	-20,31
358,864	0,17
359,075	14,51
359,287	24,75
359,498	82,09
359,709	24,75
359,921	-42,84
360,132	-34,64
360,344	39,08
360,555	24,75
360,766	47,27
360,977	-3,93
361,189	47,27
361,4	45,23
361,611	-8,02
361,823	86,19
362,034	47,27
362,245	-10,07
362,456	10,41
362,667	14,51
362,879	-38,74
363,09	22,7
363,301	32,94
363,512	20,65
363,723	30,89
363,935	24,75
364,146	65,71
364,357	-24,4
364,568	49,32
364,779	49,32
364,99	49,32
365,201	-24,4
365,412	96,43
365,623	-46,93
365,834	32,94
366,045	-5,97
366,256	-44,88
366,467	100,52
366,678	69,8
366,889	22,7
367,1	84,14
367,311	6,31
367,522	53,42
367,733	32,94
367,944	43,18
368,155	129,19
368,366	34,99
368,577	51,37
368,788	67,75
368,999	24,75
369,209	12,46
369,42	88,23
369,631	71,85
369,842	0,17
370,053	80,04
370,264	34,99
370,474	8,36
370,685	88,23
370,896	6,31
371,107	96,43
371,317	22,7
371,528	8,36
371,739	55,47
371,95	2,22
372,16	63,66
372,371	-22,36
372,582	22,7
372,792	-8,02
373,003	16,55
373,214	-16,21
373,424	88,23
373,635	-34,64
373,846	24,75
374,056	84,14
374,267	63,66
374,477	98,47
374,688	47,27
374,898	84,14
375,109	-26,45
375,319	47,27
375,53	-42,84
375,74	39,08
375,951	-16,21
376,161	65,71
376,372	55,47
376,582	8,36
376,793	-8,02
377,003	-46,93
377,214	20,65
377,424	77,99
377,635	26,79
377,845	-18,26
378,055	106,67
378,266	28,84
378,476	51,37
378,686	-1,88
378,897	71,85
379,107	73,9
379,317	34,99
379,528	-10,07
379,738	41,13
379,948	-38,74
380,158	90,28
380,369	-63,32
380,579	104,62
380,789	4,27
380,999	-3,93
381,21	-20,31
381,42	129,19
381,63	22,7
381,84	22,7
382,05	65,71
382,261	69,8
382,471	32,94
382,681	53,42
382,891	71,85
383,101	-5,97
383,311	32,94
383,521	30,89
383,731	10,41
383,941	75,95
384,151	16,55
384,361	-12,12
384,571	82,09
384,781	18,6
384,991	86,19
385,201	59,56
385,411	51,37
385,621	47,27
385,831	14,51
386,041	24,75
386,251	47,27
386,461	106,67
386,671	30,89
386,881	-8,02
387,091	106,67
387,301	77,99
387,511	80,04
387,72	61,61
387,93	-10,07
388,14	34,99
388,35	34,99
388,56	67,75
388,769	12,46
388,979	-5,97
389,189	-20,31
389,399	45,23
389,609	43,18
389,818	80,04
390,028	96,43
390,238	53,42
390,447	30,89
390,657	80,04
390,867	47,27
391,076	16,55
391,286	20,65
391,496	55,47
391,705	22,7
391,915	57,51
392,125	63,66
392,334	26,79
392,544	47,27
392,753	-42,84
392,963	57,51
393,172	22,7
393,382	69,8
393,591	82,09
393,801	39,08
394,01	71,85
394,22	43,18
394,429	69,8
394,639	-5,97
394,848	-8,02
395,058	34,99
395,267	24,75
395,477	59,56
395,686	55,47
395,895	73,9
396,105	100,52
396,314	-12,12
396,524	41,13
396,733	-20,31
396,942	75,95
397,152	16,55
397,361	-5,97
397,57	51,37
397,78	-24,4
397,989	98,47
398,198	14,51
398,407	39,08
398,617	24,75
398,826	55,47
399,035	100,52
399,244	16,55
399,453	51,37
399,663	-1,88
399,872	137,38
400,081	-10,07
400,29	61,61
400,499	-51,03
400,708	39,08
400,917	47,27
401,127	22,7
401,336	63,66
401,545	24,75
401,754	104,62
401,963	14,51
402,172	34,99
402,381	8,36
402,59	22,7
402,799	20,65
403,008	39,08
403,217	67,75
403,426	-40,79
403,635	28,84
403,844	71,85
404,053	26,79
404,262	22,7
404,471	96,43
404,68	108,71
404,888	39,08
405,097	61,61
405,306	90,28
405,515	108,71
405,724	57,51
405,933	43,18
406,142	43,18
406,35	129,19
406,559	-8,02
406,768	20,65
406,977	57,51
407,185	82,09
407,394	57,51
407,603	34,99
407,812	67,75
408,02	26,79
408,229	32,94
408,438	73,9
408,646	57,51
408,855	-36,69
409,064	92,33
409,272	12,46
409,481	6,31
409,69	20,65
409,898	39,08
410,107	39,08
410,315	2,22
410,524	8,36
410,733	22,7
410,941	6,31
411,15	51,37
411,358	104,62
411,567	41,13
411,775	96,43
411,984	82,09
412,192	137,38
412,401	51,37
412,609	141,48
412,818	135,34
413,026	59,56
413,234	75,95
413,443	39,08
413,651	24,75
413,86	125,1
414,068	55,47
414,276	55,47
414,485	20,65
414,693	24,75
414,901	153,77
415,11	45,23
415,318	18,6
415,526	-51,03
415,734	71,85
415,943	73,9
416,151	67,75
416,359	47,27
416,567	112,81
416,776	47,27
416,984	102,57
417,192	112,81
417,4	67,75
417,608	86,19
417,817	45,23
418,025	125,1
418,233	147,62
418,441	-5,97
418,649	41,13
418,857	39,08
419,065	106,67
419,273	106,67
419,481	96,43
419,689	59,56
419,897	104,62
420,105	147,62
420,313	161,96
420,521	94,38
420,729	88,23
420,937	67,75
421,145	2,22
421,353	174,25
421,561	147,62
421,769	133,29
421,977	80,04
422,185	129,19
422,393	131,24
422,601	133,29
422,809	112,81
423,017	104,62
423,224	215,21
423,432	196,78
423,64	71,85
423,848	227,5
424,056	164,01
424,263	231,59
424,471	301,22
424,679	319,65
424,887	317,61
425,094	336,04
425,302	381,09
425,51	450,72
425,718	450,72
425,925	448,68
426,133	610,47
426,341	706,72
426,548	733,34
426,756	766,11
426,964	843,93
427,171	1044,63
427,379	1120,41
427,586	1233,05
427,794	1482,9
428,001	1685,65
428,209	1898,64
428,417	2099,34
428,624	2461,83
428,832	2752,64
429,039	3053,69
429,247	3387,51
429,454	4169,84
429,662	5058,65
429,869	5318,75
430,076	6152,27
430,284	7059,52
430,491	8329,26
430,699	9670,68
430,906	10932,23
431,114	11735,03
431,321	13649,88
431,528	15402,94
431,736	17854,36
431,943	20000,63
432,15	21114,73
432,358	22501,2
432,565	25384,74
432,772	27621,13
432,979	29732,58
433,187	31422,16
433,394	32620,22
433,601	36101,76
433,808	37193,33
434,016	37260,91
434,223	39460,43
434,43	42622,5
434,637	41989,67
434,844	44455,43
435,052	45004,28
435,259	44244,49
435,466	44905,98
435,673	44424,71
435,88	46773,73
436,087	48020,94
436,294	48723,4
436,501	46941,66
436,708	47005,15
436,915	47988,17
437,122	49044,93
437,329	48266,7
437,537	49395,13
437,743	49792,43
437,95	48463,3
438,157	50242,99
438,364	52098,45
438,571	51013,02
438,778	50142,64
438,985	52882,82
439,192	51381,66
439,399	52000,15
439,606	50412,97
439,813	51492,25
440,02	54365,55
440,227	51711,38
440,433	50152,88
440,64	50460,07
440,847	48424,39
441,054	47443,41
441,261	48195,02
441,467	45499,89
441,674	43527,7
441,881	42266,15
442,088	39892,55
442,294	36517,5
442,501	34799,26
442,708	32151,23
442,914	30107,36
443,121	28002,05
443,328	24276,79
443,534	23117,64
443,741	19507,07
443,948	16662,44
444,154	15853,5
444,361	13508,57
444,568	11859,96
444,774	10117,14
444,981	8927,27
445,187	7915,57
445,394	7104,57
445,6	6096,97
445,807	5544,02
446,013	4704,35
446,22	4147,31
446,426	3727,47
446,633	3360,89
446,839	3027,07
447,046	2717,83
447,252	2467,97
447,459	2128,01
447,665	1859,73
447,871	1810,58
448,078	1693,84
448,284	1353,88
448,491	1163,42
448,697	1235,1
448,903	1104,03
449,11	925,85
449,316	831,65
449,522	708,77
449,728	759,97
449,935	708,77
450,141	565,41
450,347	534,69
450,553	555,17
450,76	467,11
450,966	463,01
451,172	460,96
451,378	434,34
451,584	407,72
451,791	368,81
451,997	381,09
452,203	305,32
452,409	293,03
452,615	297,13
452,821	260,26
453,027	319,65
453,233	297,13
453,44	196,78
453,646	252,07
453,852	178,34
454,058	157,86
454,264	282,79
454,47	180,39
454,676	161,96
454,882	196,78
455,088	178,34
455,294	194,73
455,5	149,67
455,705	123,05
455,911	133,29
456,117	106,67
456,323	137,38
456,529	116,9
456,735	125,1
456,941	186,54
457,147	106,67
457,352	141,48
457,558	43,18
457,764	131,24
457,97	159,91
458,176	110,76
458,381	86,19
458,587	164,01
458,793	149,67
458,999	55,47
459,204	71,85
459,41	32,94
459,616	77,99
459,821	114,86
460,027	67,75
460,233	49,32
460,438	86,19
460,644	92,33
460,85	139,43
461,055	114,86
461,261	55,47
461,466	106,67
461,672	41,13
461,878	61,61
462,083	88,23
462,289	-10,07
462,494	41,13
462,7	32,94
462,905	67,75
463,111	131,24
463,316	141,48
463,522	86,19
463,727	61,61
463,932	-28,5
464,138	6,31
464,343	88,23
464,549	55,47
464,754	43,18
464,959	84,14
465,165	18,6
465,37	96,43
465,575	90,28
465,781	51,37
465,986	28,84
466,191	80,04
466,397	75,95
466,602	55,47
466,807	94,38
467,012	71,85
467,218	47,27
467,423	-8,02
467,628	39,08
467,833	88,23
468,038	-24,4
468,244	-12,12
468,449	-18,26
468,654	67,75
468,859	-14,17
469,064	28,84
469,269	24,75
469,474	47,27
469,679	73,9
469,885	55,47
470,09	-24,4
470,295	30,89
470,5	-42,84
470,705	24,75
470,91	96,43
471,115	-8,02
471,32	4,27
471,525	125,1
471,73	174,25
471,935	30,89
472,139	24,75
472,344	-46,93
472,549	57,51
472,754	135,34
472,959	28,84
473,164	43,18
473,369	24,75
473,574	106,67
473,778	28,84
473,983	67,75
474,188	71,85
474,393	-10,07
474,598	71,85
474,802	-12,12
475,007	73,9
475,212	114,86
475,417	51,37
475,621	73,9
475,826	-12,12
476,031	65,71
476,235	26,79
476,44	41,13
476,645	82,09
476,849	-16,21
477,054	59,56
477,259	45,23
477,463	20,65
477,668	63,66
477,872	37,03
478,077	49,32
478,282	80,04
478,486	30,89
478,691	-18,26
478,895	20,65
479,1	26,79
479,304	0,17
479,509	73,9
479,713	32,94
479,918	57,51
480,122	-55,12
480,326	82,09
480,531	-5,97
480,735	10,41
480,94	-14,17
481,144	-34,64
481,348	-5,97
481,553	47,27
481,757	-65,36
481,961	8,36
482,166	8,36
482,37	57,51
482,574	-8,02
482,778	55,47
482,983	69,8
483,187	45,23
483,391	43,18
483,595	18,6
483,8	14,51
484,004	121
484,208	34,99
484,412	73,9
484,616	43,18
484,821	8,36
485,025	14,51
485,229	-16,21
485,433	63,66
485,637	73,9
485,841	39,08
486,045	43,18
486,249	37,03
486,453	26,79
486,657	-12,12
486,861	18,6
487,065	-1,88
487,269	34,99
487,473	8,36
487,677	71,85
487,881	114,86
488,085	86,19
488,289	86,19
488,493	65,71
488,697	80,04
488,901	82,09
489,105	-34,64
489,309	-26,45
489,512	98,47
489,716	86,19
489,92	22,7
490,124	51,37
490,328	-18,26
490,531	28,84
490,735	67,75
490,939	-40,79
491,143	57,51
491,346	-87,89
491,55	45,23
491,754	43,18
491,958	88,23
492,161	75,95
492,365	39,08
492,569	-5,97
492,772	121
492,976	37,03
493,18	49,32
493,383	28,84
493,587	63,66
493,79	90,28
493,994	2,22
494,197	-12,12
494,401	77,99
494,605	129,19
494,808	55,47
495,012	96,43
495,215	61,61
495,419	63,66
495,622	30,89
495,825	-10,07
496,029	53,42
496,232	32,94
496,436	55,47
496,639	24,75
496,843	8,36
497,046	24,75
497,249	-18,26
497,453	8,36
497,656	-30,55
497,859	-1,88
498,063	30,89
498,266	55,47
498,469	-87,89
498,673	24,75
498,876	-22,36
499,079	-71,51
499,282	47,27
499,485	112,81
499,689	26,79
499,892	6,31
500,095	73,9
500,298	-3,93
500,501	16,55
500,705	12,46
500,908	43,18
501,111	55,47
501,314	129,19
501,517	41,13
501,72	39,08
501,923	39,08
502,126	-1,88
502,329	43,18
502,532	80,04
502,735	47,27
502,938	63,66
503,141	28,84
503,344	16,55
503,547	18,6
503,75	10,41
503,953	32,94
504,156	55,47
504,359	-5,97
504,562	51,37
504,765	14,51
504,968	53,42
505,17	57,51
505,373	34,99
505,576	32,94
505,779	-14,17
505,982	69,8
506,185	104,62
506,387	-10,07
506,59	51,37
506,793	-8,02
506,996	16,55
507,198	-32,6
507,401	43,18
507,604	10,41
507,807	-28,5
508,009	34,99
508,212	34,99
508,415	12,46
508,617	67,75
508,82	61,61
509,022	63,66
509,225	32,94
509,428	65,71
509,63	26,79
509,833	26,79
510,035	71,85
510,238	20,65
510,44	43,18
510,643	18,6
510,845	45,23
511,048	63,66
511,25	69,8
511,453	47,27
511,655	71,85
511,858	57,51
512,06	110,76
512,262	8,36
512,465	32,94
512,667	80,04
512,87	24,75
513,072	51,37
513,274	45,23
513,477	41,13
513,679	67,75
513,881	41,13
514,084	53,42
514,286	37,03
514,488	82,09
514,69	-40,79
514,893	43,18
515,095	30,89
515,297	26,79
515,499	53,42
515,701	-57,17
515,904	63,66
516,106	100,52
516,308	80,04
516,51	53,42
516,712	43,18
516,914	-10,07
517,116	26,79
517,318	-10,07
517,52	8,36
517,722	14,51
517,925	6,31
518,127	-26,45
518,329	106,67
518,531	-26,45
518,733	32,94
518,935	14,51
519,136	-1,88
519,338	-5,97
519,54	32,94
519,742	-30,55
519,944	4,27
520,146	-51,03
520,348	69,8
520,55	22,7
520,752	49,32
520,954	-24,4
521,155	6,31
521,357	67,75
521,559	73,9
521,761	69,8
521,963	-57,17
522,164	-67,41
522,366	30,89
522,568	-1,88
522,77	84,14
522,971	-16,21
523,173	61,61
523,375	57,51
523,576	92,33
523,778	55,47
523,98	-14,17
524,181	-24,4
524,383	-1,88
524,584	-14,17
524,786	57,51
524,988	-32,6
525,189	41,13
525,391	96,43
525,592	12,46
525,794	0,17
525,995	32,94
526,197	45,23
526,398	153,77
526,6	47,27
526,801	67,75
527,003	-1,88
527,204	22,7
527,406	61,61
527,607	45,23
527,808	-5,97
528,01	4,27
528,211	6,31
528,412	84,14
528,614	69,8
528,815	39,08
529,016	6,31
529,218	30,89
529,419	30,89
529,62	-16,21
529,822	39,08
530,023	96,43
530,224	-12,12
530,425	63,66
530,626	-10,07
530,828	49,32
531,029	-83,8
531,23	80,04
531,431	55,47
531,632	20,65
531,833	43,18
532,035	39,08
532,236	14,51
532,437	16,55
532,638	67,75
532,839	4,27
533,04	-71,51
533,241	47,27
533,442	18,6
533,643	14,51
533,844	-34,64
534,045	-14,17
534,246	14,51
534,447	37,03
534,648	80,04
534,849	59,56
535,05	57,51
535,251	14,51
535,451	32,94
535,652	10,41
535,853	10,41
536,054	37,03
536,255	26,79
536,456	-24,4
536,657	-55,12
536,857	-18,26
537,058	-8,02
537,259	2,22
537,46	-10,07
537,66	55,47
537,861	53,42
538,062	90,28
538,263	84,14
538,463	2,22
538,664	39,08
538,865	-34,64
539,065	53,42
539,266	32,94
539,466	-1,88
539,667	41,13
539,868	0,17
540,068	75,95
540,269	39,08
540,469	6,31
540,67	18,6
540,87	4,27
541,071	-18,26
541,271	34,99
541,472	39,08
541,672	2,22
541,873	143,53
542,073	82,09
542,274	-30,55
542,474	69,8
542,675	12,46
542,875	53,42
543,075	16,55
543,276	-26,45
543,476	80,04
543,676	96,43
543,877	16,55
544,077	14,51
544,277	-14,17
544,478	-22,36
544,678	59,56
544,878	55,47
545,078	51,37
545,279	28,84
545,479	-38,74
545,679	-42,84
545,879	-1,88
546,079	77,99
546,28	-98,13
546,48	57,51
546,68	88,23
546,88	10,41
547,08	2,22
547,28	47,27
547,48	22,7
547,68	34,99
547,88	47,27
548,081	16,55
548,281	-32,6
548,481	8,36
548,681	-51,03
548,881	-1,88
549,081	24,75
549,28	0,17
549,48	16,55
549,68	8,36
549,88	100,52
550,08	-24,4
550,28	-10,07
550,48	88,23
550,68	59,56
550,88	14,51
551,08	94,38
551,279	16,55
551,479	55,47
551,679	18,6
551,879	-24,4
552,079	22,7
552,278	41,13
552,478	125,1
552,678	73,9
552,878	49,32
553,077	-67,41
553,277	2,22
553,477	22,7
553,676	67,75
553,876	61,61
554,076	65,71
554,275	65,71
554,475	24,75
554,674	45,23
554,874	-48,98
555,074	-24,4
555,273	6,31
555,473	14,51
555,672	26,79
555,872	104,62
556,071	-10,07
556,271	22,7
556,47	51,37
556,67	20,65
556,869	47,27
557,068	24,75
557,268	63,66
557,467	16,55
557,667	26,79
557,866	59,56
558,065	16,55
558,265	22,7
558,464	53,42
558,663	-40,79
558,863	30,89
559,062	69,8
559,261	34,99
559,461	43,18
559,66	8,36
559,859	-12,12
560,058	32,94
560,258	-16,21
560,457	69,8
560,656	4,27
560,855	12,46
561,054	30,89
561,253	45,23
561,453	96,43
561,652	-42,84
561,851	39,08
562,05	-14,17
562,249	-71,51
562,448	-10,07
562,647	-5,97
562,846	22,7
563,045	28,84
563,244	-24,4
563,443	0,17
563,642	6,31
563,841	-10,07
564,04	20,65
564,239	-48,98
564,438	96,43
564,637	30,89
564,836	57,51
565,035	41,13
565,234	-20,31
565,432	22,7
565,631	-14,17
565,83	-8,02
566,029	-10,07
566,228	43,18
566,427	37,03
566,625	-5,97
566,824	20,65
567,023	32,94
567,222	-55,12
567,42	67,75
567,619	-32,6
567,818	26,79
568,016	73,9
568,215	41,13
568,414	12,46
568,612	63,66
568,811	14,51
569,01	96,43
569,208	6,31
569,407	65,71
569,605	32,94
569,804	-20,31
570,002	47,27
570,201	-26,45
570,4	57,51
570,598	24,75
570,797	30,89
570,995	0,17
571,193	45,23
571,392	14,51
571,59	14,51
571,789	112,81
571,987	-34,64
572,186	32,94
572,384	41,13
572,582	12,46
572,781	63,66
572,979	12,46
573,177	102,57
573,376	86,19
573,574	112,81
573,772	32,94
573,971	8,36
574,169	18,6
574,367	45,23
574,565	24,75
574,763	67,75
574,962	34,99
575,16	-38,74
575,358	-67,41
575,556	34,99
575,754	57,51
575,952	14,51
576,151	-20,31
576,349	39,08
576,547	-5,97
576,745	22,7
576,943	63,66
577,141	45,23
577,339	-40,79
577,537	47,27
577,735	55,47
577,933	-53,08
578,131	53,42
578,329	106,67
578,527	-28,5
578,725	-14,17
578,923	10,41
579,121	10,41
579,319	-53,08
579,516	-1,88
579,714	80,04
579,912	24,75
580,11	-5,97
580,308	22,7
580,506	-98,13
580,704	8,36
580,901	6,31
581,099	67,75
581,297	-10,07
581,495	34,99
581,692	2,22
581,89	82,09
582,088	-12,12
582,285	63,66
582,483	4,27
582,681	30,89
582,878	-22,36
583,076	47,27
583,274	-5,97
583,471	24,75
583,669	12,46
583,866	-36,69
584,064	18,6
584,262	43,18
584,459	22,7
584,657	22,7
584,854	75,95
585,052	32,94
585,249	84,14
585,447	39,08
585,644	28,84
585,841	96,43
586,039	41,13
586,236	-5,97
586,434	8,36
586,631	-22,36
586,828	0,17
587,026	-51,03
587,223	59,56
587,42	39,08
587,618	75,95
587,815	71,85
588,012	22,7
588,21	-30,55
588,407	2,22
588,604	67,75
588,801	26,79
588,999	-42,84
589,196	0,17
589,393	63,66
589,59	63,66
589,787	28,84
589,984	30,89
590,182	16,55
590,379	-20,31
590,576	30,89
590,773	0,17
590,97	71,85
591,167	-16,21
591,364	116,9
591,561	59,56
591,758	24,75
591,955	26,79
592,152	14,51
592,349	-18,26
592,546	-12,12
592,743	-8,02
592,94	41,13
593,137	-1,88
593,334	22,7
593,531	16,55
593,727	71,85
593,924	59,56
594,121	-10,07
594,318	-8,02
594,515	-40,79
594,712	71,85
594,908	8,36
595,105	-48,98
595,302	34,99
595,499	-24,4
595,696	14,51
595,892	-40,79
596,089	45,23
596,286	-8,02
596,482	55,47
596,679	34,99
596,876	-8,02
597,072	-22,36
597,269	-18,26
597,466	22,7
597,662	6,31
597,859	22,7
598,055	41,13
598,252	30,89
598,448	69,8
598,645	0,17
598,841	63,66
599,038	63,66
599,234	47,27
599,431	6,31
599,627	43,18
599,824	-71,51
600,02	-67,41
600,217	0,17
600,413	39,08
600,609	69,8
600,806	123,05
601,002	39,08
601,198	2,22
601,395	80,04
601,591	75,95
601,787	-22,36
601,984	-10,07
602,18	8,36
602,376	30,89
602,572	55,47
602,769	59,56
602,965	-8,02
603,161	28,84
603,357	18,6
603,553	71,85
603,75	14,51
603,946	71,85
604,142	18,6
604,338	98,47
604,534	18,6
604,73	-1,88
604,926	-5,97
605,122	-1,88
605,318	57,51
605,514	0,17
605,71	-65,36
605,906	104,62
606,102	-48,98
606,298	39,08
606,494	51,37
606,69	80,04
606,886	39,08
607,082	30,89
607,278	-18,26
607,474	4,27
607,67	26,79
607,866	24,75
608,062	8,36
608,257	55,47
608,453	45,23
608,649	49,32
608,845	2,22
609,041	-26,45
609,236	-24,4
609,432	20,65
609,628	30,89
609,824	18,6
610,019	30,89
610,215	49,32
610,411	-3,93
610,606	73,9
610,802	24,75
610,998	32,94
611,193	-30,55
611,389	61,61
611,584	18,6
611,78	22,7
611,976	30,89
612,171	73,9
612,367	2,22
612,562	63,66
612,758	-16,21
612,953	-34,64
613,149	-20,31
613,344	-8,02
613,539	16,55
613,735	39,08
613,93	55,47
614,126	22,7
614,321	47,27
614,517	114,86
614,712	51,37
614,907	61,61
615,103	16,55
615,298	65,71
615,493	-20,31
615,688	28,84
615,884	-61,27
616,079	-40,79
616,274	16,55
616,47	61,61
616,665	-16,21
616,86	47,27
617,055	-59,22
617,25	-16,21
617,445	-22,36
617,641	-10,07
617,836	22,7
618,031	-5,97
618,226	53,42
618,421	51,37
618,616	14,51
618,811	0,17
619,006	14,51
619,201	18,6
619,396	22,7
619,591	88,23
619,786	-26,45
619,981	-18,26
620,176	16,55
620,371	34,99
620,566	65,71
620,761	59,56
620,956	18,6
621,151	-36,69
621,346	28,84
621,541	24,75
621,735	55,47
621,93	39,08
622,125	32,94
622,32	2,22
622,515	-20,31
622,709	-8,02
622,904	84,14
623,099	-46,93
623,294	94,38
623,488	39,08
623,683	-18,26
623,878	125,1
624,072	32,94
624,267	41,13
624,462	34,99
624,656	-1,88
624,851	6,31
625,046	20,65
625,24	0,17
625,435	10,41
625,629	12,46
625,824	100,52
626,018	98,47
626,213	71,85
626,407	47,27
626,602	-1,88
626,796	16,55
626,991	41,13
627,185	-46,93
627,38	-10,07
627,574	6,31
627,768	6,31
627,963	16,55
628,157	51,37
628,352	8,36
628,546	34,99
628,74	-3,93
628,935	-1,88
629,129	-10,07
629,323	51,37
629,517	-18,26
629,712	22,7
629,906	-30,55
630,1	-26,45
630,294	110,76
630,489	51,37
630,683	20,65
630,877	41,13
631,071	-46,93
631,265	-3,93
631,459	12,46
631,653	-69,46
631,848	71,85
632,042	-12,12
632,236	-18,26
632,43	22,7
632,624	-8,02
632,818	57,51
633,012	2,22
633,206	39,08
633,4	-18,26
633,594	71,85
633,788	-26,45
633,982	4,27
634,176	-16,21
634,369	2,22
634,563	43,18
634,757	-24,4
634,951	-14,17
635,145	86,19
635,339	12,46
635,533	-12,12
635,726	-65,36
635,92	45,23
636,114	-16,21
636,308	-26,45
636,501	-20,31
636,695	82,09
636,889	49,32
637,083	16,55
637,276	55,47
637,47	0,17
637,664	-73,56
637,857	26,79
638,051	47,27
638,244	65,71
638,438	-24,4
638,632	114,86
638,825	0,17
639,019	49,32
639,212	43,18
639,406	47,27
639,599	22,7
639,793	102,57
639,986	-1,88
640,18	14,51
640,373	18,6
640,567	67,75
640,76	14,51
640,954	43,18
641,147	8,36
641,34	20,65
641,534	24,75
641,727	-22,36
641,92	16,55
642,114	2,22
642,307	-26,45
642,5	96,43
642,694	43,18
642,887	32,94
643,08	55,47
643,273	39,08
643,467	-30,55
643,66	32,94
643,853	-69,46
644,046	32,94
644,239	-51,03
644,432	-79,7
644,626	18,6
644,819	32,94
645,012	49,32
645,205	63,66
645,398	53,42
645,591	6,31
645,784	-22,36
645,977	84,14
646,17	69,8
646,363	-30,55
646,556	16,55
646,749	55,47
646,942	12,46
647,135	-48,98
647,328	10,41
647,521	55,47
647,714	-16,21
647,907	22,7
648,099	-28,5
648,292	43,18
648,485	69,8
648,678	30,89
648,871	12,46
649,064	22,7
649,256	-18,26
649,449	-20,31
649,642	-24,4
649,835	-24,4
650,027	-38,74
650,22	90,28
650,413	-34,64
650,605	71,85
650,798	-34,64
650,991	51,37
651,183	51,37
651,376	137,38
651,568	108,71
651,761	-1,88
651,954	63,66
652,146	-18,26
652,339	34,99
652,531	41,13
652,724	-8,02
652,916	73,9
653,109	-32,6
653,301	16,55
653,494	26,79
653,686	61,61
653,879	34,99
654,071	-1,88
654,263	-5,97
654,456	55,47
654,648	49,32
654,84	34,99
655,033	41,13
655,225	-18,26
655,417	14,51
655,61	55,47
655,802	6,31
655,994	-34,64
656,186	37,03
656,379	80,04
656,571	-40,79
656,763	-24,4
656,955	39,08
657,148	18,6
657,34	-8,02
657,532	0,17
657,724	88,23
657,916	73,9
658,108	-38,74
658,3	14,51
658,492	14,51
658,684	32,94
658,876	-16,21
659,068	45,23
659,26	20,65
659,452	-30,55
659,644	30,89
659,836	90,28
660,028	-3,93
660,22	30,89
660,412	-10,07
660,604	92,33
660,796	57,51
660,988	63,66
661,18	14,51
661,372	22,7
661,563	10,41
661,755	47,27
661,947	39,08
662,139	55,47
662,331	-14,17
662,522	69,8
662,714	0,17
662,906	20,65
663,097	-20,31
663,289	30,89
663,481	8,36
663,673	26,79
663,864	47,27
664,056	-22,36
664,247	26,79
664,439	8,36
664,631	-3,93
664,822	84,14
665,014	8,36
665,205	28,84
665,397	4,27
665,588	43,18
665,78	22,7
665,971	32,94
666,163	34,99
666,354	59,56
666,546	-1,88
666,737	8,36
666,929	12,46
667,12	-24,4
667,311	34,99
667,503	-44,88
667,694	80,04
667,885	18,6
668,077	51,37
668,268	2,22
668,459	-24,4
668,651	-48,98
668,842	24,75
669,033	26,79
669,224	34,99
669,416	88,23
669,607	-40,79
669,798	14,51
669,989	53,42
670,18	55,47
670,371	47,27
670,563	8,36
670,754	51,37
670,945	43,18
671,136	-1,88
671,327	18,6
671,518	133,29
671,709	6,31
671,9	67,75
672,091	-26,45
672,282	80,04
672,473	41,13
672,664	2,22
672,855	-1,88
673,046	26,79
673,237	137,38
673,428	-24,4
673,619	73,9
673,809	-22,36
674	92,33
674,191	41,13
674,382	-61,27
674,573	-10,07
674,764	37,03
674,954	45,23
675,145	-75,6
675,336	0,17
675,527	16,55
675,717	22,7
675,908	-63,32
676,099	-16,21
676,289	-51,03
676,48	-42,84
676,671	53,42
676,861	2,22
677,052	22,7
677,243	41,13
677,433	-59,22
677,624	10,41
677,814	-38,74
678,005	22,7
678,195	67,75
678,386	41,13
678,576	14,51
678,767	-83,8
678,957	-5,97
679,148	22,7
679,338	67,75
679,529	57,51
679,719	-59,22
679,909	57,51
680,1	24,75
680,29	0,17
680,481	-24,4
680,671	8,36
680,861	55,47
681,052	18,6
681,242	63,66
681,432	-40,79
681,622	55,47
681,813	20,65
682,003	24,75
682,193	-30,55
682,383	-5,97
682,573	39,08
682,764	10,41
682,954	8,36
683,144	96,43
683,334	-36,69
683,524	20,65
683,714	24,75
683,904	16,55
684,094	-10,07
684,284	49,32
684,474	57,51
684,664	-77,65
684,854	73,9
685,044	26,79
685,234	-8,02
685,424	41,13
685,614	2,22
685,804	86,19
685,994	61,61
686,184	-36,69
686,374	16,55
686,564	-32,6
686,753	37,03
686,943	65,71
687,133	-22,36
687,323	14,51
687,513	-63,32
687,702	22,7
687,892	-5,97
688,082	16,55
688,272	12,46
688,461	55,47
688,651	28,84
688,841	104,62
689,03	-26,45
689,22	18,6
689,41	57,51
689,599	75,95
689,789	47,27
689,979	71,85
690,168	8,36
690,358	-32,6
690,547	-10,07
690,737	-40,79
690,926	55,47
691,116	53,42
691,305	73,9
691,495	43,18
691,684	18,6
691,874	22,7
692,063	61,61
692,252	69,8
692,442	-14,17
692,631	-10,07
692,82	18,6
693,01	-28,5
693,199	43,18
693,388	96,43
693,578	69,8
693,767	18,6
693,956	20,65
694,146	63,66
694,335	4,27
694,524	0,17
694,713	67,75
694,902	-26,45
695,092	30,89
695,281	32,94
695,47	24,75
695,659	8,36
695,848	-10,07
696,037	47,27
696,226	30,89
696,415	-18,26
696,604	47,27
696,793	16,55
696,982	32,94
697,171	30,89
697,36	28,84
697,549	-1,88
697,738	-18,26
697,927	51,37
698,116	-12,12
698,305	-34,64
698,494	43,18
698,683	6,31
698,872	57,51
699,061	16,55
699,25	47,27
699,438	-30,55
699,627	57,51
699,816	47,27
700,005	-14,17
700,193	24,75
700,382	37,03
700,571	30,89
700,76	57,51
700,948	123,05
701,137	6,31
701,326	24,75
701,514	-36,69
701,703	4,27
701,892	61,61
702,08	51,37
702,269	-48,98
702,457	43,18
702,646	32,94
702,834	32,94
703,023	24,75
703,212	49,32
703,4	92,33
703,589	-5,97
703,777	-36,69
703,965	6,31
704,154	53,42
704,342	49,32
704,531	-14,17
704,719	-10,07
704,907	-71,51
705,096	-34,64
705,284	26,79
705,472	73,9
705,661	82,09
705,849	6,31
706,037	71,85
706,226	22,7
706,414	84,14
706,602	6,31
706,79	14,51
706,979	65,71
707,167	32,94
707,355	-18,26
707,543	37,03
707,731	84,14
707,919	-36,69
708,107	43,18
708,296	-3,93
708,484	43,18
708,672	61,61
708,86	-34,64
709,048	22,7
709,236	14,51
709,424	102,57
709,612	121
709,8	4,27
709,988	20,65
710,176	22,7
710,364	65,71
710,551	24,75
710,739	-18,26
710,927	-42,84
711,115	37,03
711,303	20,65
711,491	63,66
711,679	10,41
711,866	37,03
712,054	2,22
712,242	34,99
712,43	30,89
712,617	39,08
712,805	43,18
712,993	84,14
713,181	6,31
713,368	53,42
713,556	28,84
713,744	94,38
713,931	90,28
714,119	39,08
714,306	30,89
714,494	-18,26
714,682	18,6
714,869	71,85
715,057	41,13
715,244	16,55
715,432	-73,56
715,619	6,31
715,807	-22,36
715,994	-63,32
716,182	0,17
716,369	-16,21
716,556	22,7
716,744	2,22
716,931	28,84
717,119	8,36
717,306	30,89
717,493	-14,17
717,681	-32,6
717,868	0,17
718,055	49,32
718,242	32,94
718,43	47,27
718,617	-14,17
718,804	26,79
718,991	-22,36
719,179	-1,88
719,366	100,52
719,553	16,55
719,74	-40,79
719,927	59,56
720,114	12,46
720,301	-32,6
720,488	-18,26
720,676	-28,5
720,863	28,84
721,05	47,27
721,237	6,31
721,424	-10,07
721,611	-10,07
721,798	14,51
721,985	-42,84
722,172	10,41
722,358	6,31
722,545	4,27
722,732	61,61
722,919	14,51
723,106	45,23
723,293	47,27
723,48	-18,26
723,667	22,7
723,853	73,9
724,04	-10,07
724,227	-18,26
724,414	-1,88
724,6	41,13
724,787	47,27
724,974	59,56
725,161	69,8
725,347	-28,5
725,534	-3,93
725,72	82,09
725,907	82,09
726,094	24,75
726,28	28,84
726,467	16,55
726,653	-16,21
726,84	30,89
727,027	65,71
727,213	73,9
727,4	-14,17
727,586	16,55
727,773	-20,31
727,959	-38,74
728,145	-40,79
728,332	14,51
728,518	-40,79
728,705	65,71
728,891	10,41
729,077	39,08
729,264	-24,4
729,45	2,22
729,636	-12,12
729,823	22,7
730,009	88,23
730,195	82,09
730,382	0,17
730,568	-34,64
730,754	30,89
730,94	0,17
731,126	18,6
731,313	-12,12
731,499	84,14
731,685	67,75
731,871	-32,6
732,057	30,89
732,243	8,36
732,429	34,99
732,615	24,75
732,801	22,7
732,987	32,94
733,173	55,47
733,359	-69,46
733,545	84,14
733,731	49,32
733,917	22,7
734,103	2,22
734,289	34,99
734,475	-77,65
734,661	92,33
734,847	-16,21
735,033	14,51
735,219	39,08
735,404	-24,4
735,59	-63,32
735,776	14,51
735,962	14,51
736,148	82,09
736,333	30,89
736,519	-34,64
736,705	-18,26
736,89	39,08
737,076	94,38
737,262	14,51
737,447	2,22
737,633	10,41
737,819	-22,36
738,004	41,13
738,19	4,27
738,375	-12,12
738,561	-55,12
738,747	43,18
738,932	30,89
739,118	49,32
739,303	-1,88
739,489	12,46
739,674	-5,97
739,859	-83,8
740,045	2,22
740,23	6,31
740,416	-16,21
740,601	28,84
740,786	63,66
740,972	-5,97
741,157	65,71
741,342	8,36
741,528	16,55
741,713	67,75
741,898	-26,45
742,084	-40,79
742,269	2,22
742,454	16,55
742,639	92,33
742,824	-1,88
743,01	47,27
743,195	67,75
743,38	-5,97
743,565	39,08
743,75	-12,12
743,935	49,32
744,12	125,1
744,305	41,13
744,49	39,08
744,675	-77,65
744,86	2,22
745,045	104,62
745,23	14,51
745,415	16,55
745,6	10,41
745,785	-59,22
745,97	20,65
746,155	22,7
746,34	53,42
746,525	34,99
746,71	43,18
746,895	-20,31
747,079	30,89
747,264	49,32
747,449	47,27
747,634	32,94
747,819	20,65
748,003	30,89
748,188	6,31
748,373	84,14
748,557	12,46
748,742	49,32
748,927	90,28
749,111	57,51
749,296	34,99
749,481	-46,93
749,665	-26,45
749,85	-36,69
750,034	-3,93
750,219	41,13
750,404	-24,4
750,588	61,61
750,773	30,89
750,957	-26,45
751,141	-36,69
751,326	30,89
751,51	-5,97
751,695	-1,88
751,879	22,7
752,064	37,03
752,248	51,37
752,432	73,9
752,617	55,47
752,801	22,7
752,985	12,46
753,17	8,36
753,354	43,18
753,538	61,61
753,722	-5,97
753,907	-61,27
754,091	12,46
754,275	43,18
754,459	-12,12
754,643	-10,07
754,828	55,47
755,012	73,9
755,196	20,65
755,38	-10,07
755,564	0,17
755,748	10,41
755,932	18,6
756,116	-1,88
756,3	4,27
756,484	-32,6
756,668	63,66
756,852	-75,6
757,036	22,7
757,22	22,7
757,404	-10,07
757,588	41,13
757,772	-10,07
757,956	55,47
758,14	39,08
758,323	24,75
758,507	-1,88
758,691	10,41
758,875	-65,36
759,059	-20,31
759,242	-1,88
759,426	47,27
759,61	18,6
759,794	22,7
759,977	45,23
760,161	55,47
760,345	116,9
760,528	65,71
760,712	77,99
760,895	8,36
761,079	4,27
761,263	84,14
761,446	39,08
761,63	28,84
761,813	18,6
761,997	57,51
762,18	-1,88
762,364	-57,17
762,547	0,17
762,731	-8,02
762,914	14,51
763,098	6,31
763,281	45,23
763,464	-5,97
763,648	47,27
763,831	12,46
764,015	-53,08
764,198	2,22
764,381	-20,31
764,564	82,09
764,748	2,22
764,931	-24,4
765,114	-12,12
765,297	30,89
765,481	34,99
765,664	32,94
765,847	-8,02
766,03	88,23
766,213	6,31
766,397	55,47
766,58	24,75
766,763	51,37
766,946	-24,4
767,129	22,7
767,312	34,99
767,495	-44,88
767,678	-53,08
767,861	49,32
768,044	39,08
768,227	-32,6
768,41	77,99
768,593	14,51
768,776	-87,89
768,959	-46,93
769,142	61,61
769,324	34,99
769,507	37,03
769,69	-10,07
769,873	53,42
770,056	26,79
770,239	22,7
770,421	30,89
770,604	-26,45
770,787	2,22
770,97	-61,27
771,152	-3,93
771,335	14,51
771,518	55,47
771,7	4,27
771,883	-18,26
772,066	26,79
772,248	30,89
772,431	-3,93
772,613	22,7
772,796	2,22
772,978	-5,97
773,161	88,23
773,343	-22,36
773,526	51,37
773,708	41,13
773,891	-67,41
774,073	67,75
774,256	-34,64
774,438	59,56
774,621	-30,55
774,803	63,66
774,985	-28,5
775,168	49,32
775,35	-28,5
775,532	49,32
775,715	-3,93
775,897	67,75
776,079	30,89
776,261	30,89
776,444	30,89
776,626	8,36
776,808	-1,88
776,99	2,22
777,173	32,94
777,355	24,75
777,537	22,7
777,719	-89,94
777,901	-14,17
778,083	51,37
778,265	18,6
778,447	-59,22
778,629	39,08
778,811	104,62
778,993	22,7
779,175	-24,4
779,357	10,41
779,539	47,27
779,721	53,42
779,903	55,47
780,085	43,18
780,267	49,32
780,449	24,75
780,631	8,36
780,812	-1,88
780,994	57,51
781,176	-32,6
781,358	-42,84
781,54	-14,17
781,721	18,6
781,903	63,66
782,085	-10,07
782,267	10,41
782,448	-28,5
782,63	34,99
782,812	14,51
782,993	82,09
783,175	53,42
783,357	84,14
783,538	-8,02
783,72	26,79
783,901	82,09
784,083	24,75
784,264	14,51
784,446	-42,84
784,627	18,6
784,809	-55,12
784,99	-16,21
785,172	-8,02
785,353	-30,55
785,535	28,84
785,716	57,51
785,897	-51,03
786,079	-12,12
786,26	8,36
786,441	14,51
786,623	8,36
786,804	84,14
786,985	0,17
787,167	37,03
787,348	43,18
787,529	22,7
787,71	57,51
787,891	59,56
788,073	34,99
788,254	24,75
788,435	28,84
788,616	-8,02
788,797	22,7
788,978	-8,02
789,159	-26,45
789,34	-10,07
789,522	22,7
789,703	0,17
789,884	-18,26
790,065	41,13
790,246	88,23
790,427	8,36
790,607	2,22
790,788	22,7
790,969	-22,36
791,15	-59,22
791,331	51,37
791,512	-57,17
791,693	-67,41
791,874	53,42
792,054	90,28
792,235	0,17
792,416	-34,64
792,597	-44,88
792,778	20,65
792,958	26,79
793,139	-16,21
793,32	6,31
793,5	32,94
793,681	49,32
793,862	8,36
794,042	-10,07
794,223	-22,36
794,404	-10,07
794,584	-5,97
794,765	4,27
794,945	-18,26
795,126	43,18
795,306	55,47
795,487	-5,97
795,667	39,08
795,848	22,7
796,028	-42,84
796,209	18,6
796,389	102,57
796,57	-63,32
796,75	-5,97
796,93	-65,36
797,111	-34,64
797,291	-32,6
797,471	-22,36
797,652	8,36
797,832	6,31
798,012	34,99
798,192	16,55
798,373	12,46
798,553	8,36
798,733	-24,4
798,913	-26,45
799,093	-55,12
799,274	2,22
799,454	26,79
799,634	45,23
799,814	-8,02
799,994	135,34
800,174	24,75
800,354	61,61
800,534	-30,55
800,714	4,27
800,894	-32,6
801,074	-42,84
801,254	-5,97
801,434	30,89
801,614	2,22
801,794	-26,45
801,974	524,45
802,154	8,36
802,334	6,31
802,514	-71,51
802,693	8,36
802,873	-24,4
803,053	-1,88
803,233	-28,5
803,413	-38,74
803,592	8,36
803,772	-42,84
803,952	88,23
804,131	-51,03
804,311	47,27
804,491	151,72
804,67	82,09
804,85	22,7
805,03	30,89
805,209	14,51
805,389	0,17
805,568	-63,32
805,748	0,17
805,928	-8,02
806,107	98,47
806,287	-26,45
806,466	39,08
806,646	-87,89
806,825	-51,03
807,004	14,51
807,184	26,79
807,363	16,55
807,543	-22,36
807,722	-44,88
807,901	34,99
808,081	20,65
808,26	0,17
808,439	39,08
808,619	24,75
808,798	-65,36
808,977	2,22
809,156	-10,07
809,336	-5,97
809,515	22,7
809,694	2,22
809,873	28,84
810,052	12,46
810,231	67,75
810,411	-12,12
810,59	32,94
810,769	20,65
810,948	16,55
811,127	-28,5
811,306	34,99
811,485	88,23
811,664	41,13
811,843	34,99
812,022	26,79
812,201	34,99
812,38	28,84
812,559	4,27
812,737	12,46
812,916	10,41
813,095	-40,79
813,274	-26,45
813,453	-34,64
813,632	18,6
813,811	4,27
813,989	6,31
814,168	-3,93
814,347	6,31
814,526	14,51
814,704	55,47
814,883	49,32
815,062	-30,55
815,24	57,51
815,419	-38,74
815,598	12,46
815,776	-14,17
815,955	-3,93
816,133	-42,84
816,312	-26,45
816,49	18,6
816,669	86,19
816,847	34,99
817,026	28,84
817,204	49,32
817,383	-14,17
817,561	-18,26
817,74	14,51
817,918	69,8
818,097	34,99
818,275	-38,74
818,453	39,08
818,632	18,6
818,81	-38,74
818,988	26,79
819,167	12,46
819,345	-22,36
819,523	14,51
819,701	59,56
819,879	14,51
820,058	-5,97
820,236	41,13
820,414	-12,12
820,592	-5,97
820,77	-42,84
820,948	2,22
821,127	22,7
821,305	75,95
821,483	-14,17
821,661	14,51
821,839	-3,93
822,017	2,22
822,195	-8,02
822,373	-20,31
822,551	82,09
822,729	59,56
822,907	-22,36
823,085	80,04
823,262	-22,36
823,44	0,17
823,618	-30,55
823,796	30,89
823,974	-34,64
824,152	22,7
824,329	65,71
824,507	20,65
824,685	43,18
824,863	-10,07
825,04	16,55
825,218	106,67
825,396	-3,93
825,574	55,47
825,751	-1,88
825,929	22,7
826,107	0,17
826,284	67,75
826,462	8,36
826,639	6,31
826,817	-22,36
826,994	92,33
827,172	-8,02
827,349	16,55
827,527	30,89
827,704	67,75
827,882	32,94
828,059	-61,27
828,237	-10,07
828,414	-24,4
828,591	6,31
828,769	43,18
828,946	14,51
829,124	16,55
829,301	24,75
829,478	-10,07
829,655	20,65
829,833	14,51
830,01	-75,6
830,187	16,55
830,364	-3,93
830,542	-40,79
830,719	92,33
830,896	71,85
831,073	-34,64
831,25	30,89
831,427	26,79
831,604	-3,93
831,782	22,7
831,959	-5,97
832,136	12,46
832,313	-1,88
832,49	16,55
832,667	30,89
832,844	61,61
833,021	18,6
833,198	0,17
833,374	8,36
833,551	-51,03
833,728	-18,26
833,905	24,75
834,082	-57,17
834,259	-18,26
834,436	-20,31
834,612	-18,26
834,789	0,17
834,966	-26,45
835,143	0,17
835,319	-55,12
835,496	-30,55
835,673	18,6
835,85	20,65
836,026	-14,17
836,203	41,13
836,38	-26,45
836,556	43,18
836,733	32,94
836,909	75,95
837,086	-14,17
837,262	-5,97
837,439	-73,56
837,616	45,23
837,792	8,36
837,968	28,84
838,145	-3,93
838,321	32,94
838,498	-1,88
838,674	32,94
838,851	-10,07
839,027	20,65
839,203	67,75
839,38	22,7
839,556	41,13
839,732	86,19
839,909	24,75
840,085	-22,36
840,261	26,79
840,437	8,36
840,614	4,27
840,79	0,17
840,966	-30,55
841,142	26,79
841,318	28,84
841,494	6,31
841,671	4,27
841,847	-73,56
842,023	-32,6
842,199	26,79
842,375	80,04
842,551	-73,56
842,727	32,94
842,903	2,22
843,079	8,36
843,255	-8,02
843,431	20,65
843,607	55,47
843,783	-51,03
843,959	-5,97
844,134	6,31
844,31	8,36
844,486	8,36
844,662	-34,64
844,838	12,46
845,013	-3,93
845,189	6,31
845,365	30,89
845,541	6,31
845,716	-67,41
845,892	4,27
846,068	-42,84
846,244	-8,02
846,419	22,7
846,595	20,65
846,77	-51,03
846,946	22,7
847,122	4,27
847,297	-16,21
847,473	6,31
847,648	-10,07
847,824	86,19
847,999	110,76
848,175	0,17
848,35	-18,26
848,526	43,18
848,701	-8,02
848,876	0,17
849,052	28,84
849,227	-24,4
849,403	-5,97
849,578	6,31
849,753	34,99
849,929	-1,88
850,104	-5,97
850,279	-38,74
850,454	12,46
850,63	2,22
850,805	45,23
850,98	-32,6
851,155	32,94
851,33	51,37
851,505	-10,07
851,681	55,47
851,856	-34,64
852,031	67,75
852,206	32,94
852,381	39,08
852,556	30,89
852,731	49,32
852,906	-1,88
853,081	-42,84
853,256	92,33
853,431	51,37
853,606	57,51
853,781	-22,36
853,956	-53,08
854,131	-34,64
854,305	-14,17
854,48	-55,12
854,655	-5,97
854,83	63,66
855,005	6,31
855,18	6,31
855,354	-36,69
855,529	-30,55
855,704	-12,12
855,879	80,04
856,053	63,66
856,228	-32,6
856,403	-77,65
856,577	8,36
856,752	-1,88
856,926	41,13
857,101	-8,02
857,276	22,7
857,45	-5,97
857,625	51,37
857,799	-3,93
857,974	-40,79
858,148	-55,12
858,323	-59,22
858,497	47,27
858,672	0,17
858,846	-42,84
859,02	45,23
859,195	26,79
859,369	16,55
859,543	26,79
859,718	4,27
859,892	45,23
860,066	10,41
860,241	-24,4
860,415	-57,17
860,589	-14,17
860,763	47,27
860,938	49,32
861,112	59,56
861,286	-53,08
861,46	-40,79
861,634	63,66
861,808	47,27
861,982	-61,27
862,157	-20,31
862,331	63,66
862,505	-16,21
862,679	-18,26
862,853	-48,98
863,027	-34,64
863,201	16,55
863,375	-40,79
863,549	-30,55
863,722	49,32
863,896	110,76
864,07	-28,5
864,244	16,55
864,418	8,36
864,592	14,51
864,766	-1,88
864,939	47,27
865,113	0,17
865,287	65,71
865,461	-83,8
865,634	-8,02
865,808	-51,03
865,982	-36,69
866,156	43,18
866,329	-24,4
866,503	14,51
866,676	16,55
866,85	-24,4
867,024	-8,02
867,197	24,75
867,371	32,94
867,544	28,84
867,718	22,7
867,891	-26,45
868,065	-12,12
868,238	16,55
868,412	41,13
868,585	63,66
868,759	-81,75
868,932	-63,32
869,105	-38,74
869,279	0,17
869,452	41,13
869,625	45,23
869,799	51,37
869,972	-24,4
870,145	49,32
870,319	-44,88
870,492	4,27
870,665	55,47
870,838	73,9
871,011	-69,46
871,185	61,61
871,358	-26,45
871,531	-10,07
871,704	-30,55
871,877	71,85
872,05	-5,97
872,223	47,27
872,396	0,17
872,569	8,36
872,742	-20,31
872,915	10,41
873,088	-8,02
873,261	-1,88
873,434	0,17
873,607	-10,07
873,78	41,13
873,953	-12,12
874,126	73,9
874,299	80,04
874,471	-40,79
874,644	24,75
874,817	-28,5
874,99	67,75
875,163	8,36
875,335	34,99
875,508	-26,45
875,681	77,99
875,853	0,17
876,026	86,19
876,199	28,84
876,371	-28,5
876,544	28,84
876,717	8,36
876,889	-18,26
877,062	80,04
877,234	67,75
877,407	43,18
877,579	10,41
877,752	51,37
877,924	-24,4
878,097	-18,26
878,269	57,51
878,442	-16,21
878,614	37,03
878,786	53,42
878,959	43,18
879,131	6,31
879,303	-36,69
879,476	-102,23
879,648	88,23
879,82	-77,65
879,993	-8,02
880,165	20,65
880,337	-63,32
880,509	-38,74
880,681	-32,6
880,854	73,9
881,026	-26,45
881,198	49,32
881,37	106,67
881,542	39,08
881,714	2,22
881,886	-22,36
882,058	8,36
882,23	-16,21
882,402	-38,74
882,574	-59,22
882,746	90,28
882,918	30,89
883,09	20,65
883,262	8,36
883,434	6,31
883,606	41,13
883,778	53,42
883,95	-8,02
884,122	4,27
884,293	67,75
884,465	55,47
884,637	57,51
884,809	14,51
884,98	6,31
885,152	32,94
885,324	84,14
885,496	-24,4
885,667	57,51
885,839	2,22
886,011	-1,88
886,182	-48,98
886,354	-1,88
886,525	-3,93
886,697	49,32
886,869	12,46
887,04	-5,97
887,212	71,85
887,383	30,89
887,555	0,17
887,726	12,46
887,897	24,75
888,069	55,47
888,24	10,41
888,412	51,37
888,583	-63,32
888,754	-5,97
888,926	-20,31
889,097	14,51
889,268	-73,56
889,44	-5,97
889,611	-26,45
889,782	-79,7
889,953	49,32
890,125	-22,36
890,296	18,6
890,467	-36,69
890,638	-1,88
890,809	-24,4
890,98	-24,4
891,151	63,66
891,323	59,56
891,494	61,61
891,665	18,6
891,836	-38,74
892,007	80,04
892,178	-10,07
892,349	32,94
892,52	-10,07
892,691	-26,45
892,862	-22,36
893,032	-51,03
893,203	-10,07
893,374	0,17
893,545	67,75
893,716	0,17
893,887	-34,64
894,057	30,89
894,228	24,75
894,399	-42,84
894,57	-20,31
894,74	-24,4
894,911	-5,97
895,082	-8,02
895,253	14,51
895,423	84,14
895,594	-5,97
895,764	24,75
895,935	10,41
896,106	49,32
896,276	8,36
896,447	-18,26
896,617	-18,26
896,788	-46,93
896,958	55,47
897,129	39,08
897,299	-51,03
897,47	37,03
897,64	43,18
897,81	28,84
897,981	90,28
898,151	22,7
898,322	45,23
898,492	34,99
898,662	-22,36
898,832	-16,21
899,003	-18,26
899,173	41,13
899,343	32,94
899,513	-61,27
