Data from filtre430_USB4F104151__5__11-51-40-525.txt Node

Date: Wed Apr 15 11:51:40 EDT 2026
User: LaboPhy
Spectrometer: USB4F10415
Trigger mode: 4
Integration Time (sec): 2,500000E-2
Scans to average: 1
Electric dark correction enabled: true
Nonlinearity correction enabled: false
Boxcar width: 0
XAxis mode: Wavelengths
Number of Pixels in Spectrum: 3648
>>>>>Begin Spectral Data<<<<<
178,204	-128,17
178,424	-128,17
178,644	-128,17
178,864	-124,07
179,084	-70,83
179,304	-76,97
179,524	39,76
179,744	-3,24
179,964	90,96
180,184	-60,59
180,404	-40,11
180,624	-17,58
180,844	31,57
181,064	15,19
181,283	64,34
181,503	-62,63
181,723	19,29
181,943	-46,25
182,163	0,85
182,383	-36,01
182,602	7
182,822	17,24
183,042	0,85
183,262	-21,67
183,482	27,48
183,701	66,39
183,921	-33,96
184,141	25,43
184,361	54,1
184,58	-1,19
184,8	17,24
185,02	-9,39
185,239	13,14
185,459	19,29
185,679	99,16
185,898	-44,2
186,118	-25,77
186,338	17,24
186,557	35,67
186,777	25,43
186,997	17,24
187,216	27,48
187,436	111,44
187,655	80,72
187,875	74,58
188,095	-11,43
188,314	99,16
188,534	-17,58
188,753	15,19
188,973	13,14
189,192	52,05
189,412	-50,35
189,631	-5,29
189,851	64,34
190,07	15,19
190,29	-9,39
190,509	43,86
190,729	-48,3
190,948	4,95
191,168	68,44
191,387	7
191,607	-40,11
191,826	33,62
192,045	62,29
192,265	41,81
192,484	50
192,704	-33,96
192,923	43,86
193,142	35,67
193,362	-31,91
193,581	52,05
193,8	-7,34
194,02	-17,58
194,239	80,72
194,458	23,38
194,678	-5,29
194,897	-1,19
195,116	39,76
195,335	-5,29
195,555	-7,34
195,774	37,72
195,993	-21,67
196,212	-33,96
196,432	93,01
196,651	95,06
196,87	31,57
197,089	21,33
197,308	11,09
197,528	15,19
197,747	-54,44
197,966	37,72
198,185	17,24
198,404	41,81
198,623	-5,29
198,842	25,43
199,062	-27,82
199,281	21,33
199,5	70,48
199,719	90,96
199,938	0,85
200,157	47,96
200,376	15,19
200,595	31,57
200,814	-31,91
201,033	43,86
201,252	47,96
201,471	17,24
201,69	27,48
201,909	25,43
202,128	47,96
202,347	62,29
202,566	2,9
202,785	23,38
203,004	11,09
203,223	58,2
203,442	21,33
203,661	-13,48
203,879	31,57
204,098	35,67
204,317	-13,48
204,536	76,63
204,755	72,53
204,974	35,67
205,193	9,05
205,411	138,07
205,63	93,01
205,849	-5,29
206,068	-60,59
206,287	-9,39
206,505	56,15
206,724	35,67
206,943	31,57
207,162	23,38
207,381	15,19
207,599	101,2
207,818	47,96
208,037	-5,29
208,255	-17,58
208,474	47,96
208,693	4,95
208,911	72,53
209,13	-5,29
209,349	72,53
209,567	43,86
209,786	21,33
210,005	19,29
210,223	7
210,442	-52,39
210,661	17,24
210,879	-25,77
211,098	0,85
211,316	50
211,535	17,24
211,753	-1,19
211,972	23,38
212,191	-7,34
212,409	54,1
212,628	33,62
212,846	47,96
213,065	80,72
213,283	29,52
213,502	-9,39
213,72	17,24
213,938	4,95
214,157	23,38
214,375	76,63
214,594	-21,67
214,812	9,05
215,031	72,53
215,249	60,24
215,467	-27,82
215,686	-7,34
215,904	13,14
216,122	62,29
216,341	62,29
216,559	52,05
216,778	88,92
216,996	0,85
217,214	82,77
217,432	-33,96
217,651	-25,77
217,869	23,38
218,087	-17,58
218,306	15,19
218,524	21,33
218,742	11,09
218,96	97,11
219,179	19,29
219,397	9,05
219,615	27,48
219,833	2,9
220,051	21,33
220,27	131,92
220,488	35,67
220,706	-25,77
220,924	-9,39
221,142	-21,67
221,36	-21,67
221,578	72,53
221,796	19,29
222,015	29,52
222,233	-21,67
222,451	64,34
222,669	-3,24
222,887	64,34
223,105	82,77
223,323	68,44
223,541	0,85
223,759	29,52
223,977	9,05
224,195	60,24
224,413	56,15
224,631	-1,19
224,849	11,09
225,067	121,68
225,285	33,62
225,503	-17,58
225,721	-54,44
225,939	9,05
226,157	82,77
226,375	107,35
226,592	2,9
226,81	56,15
227,028	23,38
227,246	7
227,464	29,52
227,682	45,91
227,9	23,38
228,117	97,11
228,335	21,33
228,553	-29,87
228,771	86,87
228,989	25,43
229,206	58,2
229,424	-33,96
229,642	-3,24
229,86	-23,72
230,077	64,34
230,295	76,63
230,513	58,2
230,731	29,52
230,948	66,39
231,166	31,57
231,384	13,14
231,601	31,57
231,819	31,57
232,037	-60,59
232,254	19,29
232,472	15,19
232,689	-11,43
232,907	0,85
233,125	25,43
233,342	39,76
233,56	-29,87
233,777	15,19
233,995	88,92
234,213	29,52
234,43	93,01
234,648	-15,53
234,865	-54,44
235,083	9,05
235,3	54,1
235,518	58,2
235,735	66,39
235,953	-1,19
236,17	31,57
236,388	-25,77
236,605	23,38
236,822	25,43
237,04	-15,53
237,257	7
237,475	-29,87
237,692	13,14
237,909	56,15
238,127	0,85
238,344	76,63
238,562	76,63
238,779	105,3
238,996	-36,01
239,214	80,72
239,431	31,57
239,648	-23,72
239,865	4,95
240,083	47,96
240,3	-44,2
240,517	-42,15
240,735	13,14
240,952	62,29
241,169	70,48
241,386	47,96
241,603	31,57
241,821	-1,19
242,038	11,09
242,255	2,9
242,472	-83,11
242,689	47,96
242,907	17,24
243,124	-17,58
243,341	-21,67
243,558	-38,06
243,775	31,57
243,992	-21,67
244,209	17,24
244,426	62,29
244,643	95,06
244,86	-1,19
245,078	113,49
245,295	52,05
245,512	41,81
245,729	-25,77
245,946	52,05
246,163	2,9
246,38	23,38
246,597	17,24
246,814	-7,34
247,031	0,85
247,248	80,72
247,464	-9,39
247,681	-17,58
247,898	2,9
248,115	-7,34
248,332	27,48
248,549	72,53
248,766	103,25
248,983	90,96
249,2	52,05
249,417	78,68
249,633	-9,39
249,85	2,9
250,067	-40,11
250,284	17,24
250,501	-17,58
250,717	97,11
250,934	29,52
251,151	39,76
251,368	23,38
251,585	-23,72
251,801	19,29
252,018	-21,67
252,235	88,92
252,451	-66,73
252,668	-25,77
252,885	33,62
253,102	41,81
253,318	7
253,535	-48,3
253,752	35,67
253,968	9,05
254,185	13,14
254,401	43,86
254,618	58,2
254,835	80,72
255,051	58,2
255,268	97,11
255,484	60,24
255,701	19,29
255,917	56,15
256,134	25,43
256,351	-42,15
256,567	-1,19
256,784	-9,39
257	-21,67
257,217	56,15
257,433	52,05
257,65	4,95
257,866	-3,24
258,082	0,85
258,299	-7,34
258,515	23,38
258,732	76,63
258,948	2,9
259,165	37,72
259,381	50
259,597	19,29
259,814	74,58
260,03	-50,35
260,246	7
260,463	50
260,679	80,72
260,895	41,81
261,112	86,87
261,328	-11,43
261,544	9,05
261,761	56,15
261,977	-7,34
262,193	47,96
262,409	25,43
262,626	-25,77
262,842	7
263,058	25,43
263,274	31,57
263,49	-21,67
263,707	76,63
263,923	9,05
264,139	2,9
264,355	-40,11
264,571	68,44
264,787	37,72
265,004	45,91
265,22	111,44
265,436	-15,53
265,652	-5,29
265,868	17,24
266,084	11,09
266,3	15,19
266,516	39,76
266,732	-36,01
266,948	-15,53
267,164	21,33
267,38	60,24
267,596	31,57
267,812	29,52
268,028	27,48
268,244	-76,97
268,46	-44,2
268,676	11,09
268,892	70,48
269,108	60,24
269,324	-25,77
269,54	-7,34
269,756	72,53
269,972	-33,96
270,188	-17,58
270,403	-50,35
270,619	-33,96
270,835	93,01
271,051	-1,19
271,267	-3,24
271,483	-83,11
271,698	50
271,914	119,64
272,13	76,63
272,346	-31,91
272,562	0,85
272,777	15,19
272,993	54,1
273,209	-44,2
273,425	45,91
273,64	88,92
273,856	23,38
274,072	17,24
274,287	54,1
274,503	-25,77
274,719	17,24
274,934	-9,39
275,15	-58,54
275,366	99,16
275,581	35,67
275,797	17,24
276,012	-1,19
276,228	-58,54
276,444	31,57
276,659	88,92
276,875	7
277,09	25,43
277,306	-1,19
277,521	-15,53
277,737	-25,77
277,952	-46,25
278,168	15,19
278,383	60,24
278,599	2,9
278,814	-17,58
279,03	-9,39
279,245	35,67
279,461	47,96
279,676	45,91
279,892	-46,25
280,107	-27,82
280,322	-40,11
280,538	-1,19
280,753	41,81
280,969	97,11
281,184	54,1
281,399	105,3
281,615	7
281,83	31,57
282,045	-44,2
282,26	60,24
282,476	9,05
282,691	74,58
282,906	-50,35
283,122	13,14
283,337	58,2
283,552	-21,67
283,767	-13,48
283,983	9,05
284,198	31,57
284,413	33,62
284,628	-93,35
284,843	43,86
285,058	99,16
285,274	54,1
285,489	50
285,704	86,87
285,919	23,38
286,134	64,34
286,349	15,19
286,564	133,97
286,779	50
286,995	68,44
287,21	-13,48
287,425	-1,19
287,64	52,05
287,855	35,67
288,07	-48,3
288,285	72,53
288,5	-17,58
288,715	15,19
288,93	-7,34
289,145	-5,29
289,36	64,34
289,575	7
289,79	37,72
290,004	-9,39
290,219	-9,39
290,434	21,33
290,649	-36,01
290,864	-3,24
291,079	33,62
291,294	80,72
291,509	41,81
291,724	-33,96
291,938	-9,39
292,153	4,95
292,368	33,62
292,583	43,86
292,798	35,67
293,012	78,68
293,227	50
293,442	27,48
293,657	47,96
293,871	64,34
294,086	21,33
294,301	-31,91
294,516	88,92
294,73	7
294,945	-23,72
295,16	70,48
295,374	-9,39
295,589	72,53
295,804	15,19
296,018	2,9
296,233	45,91
296,447	19,29
296,662	-9,39
296,877	31,57
297,091	27,48
297,306	2,9
297,52	-13,48
297,735	109,4
297,949	0,85
298,164	50
298,378	4,95
298,593	-9,39
298,807	21,33
299,022	-1,19
299,236	97,11
299,451	31,57
299,665	-17,58
299,88	-7,34
300,094	13,14
300,309	0,85
300,523	9,05
300,737	56,15
300,952	23,38
301,166	-3,24
301,381	-44,2
301,595	-31,91
301,809	0,85
302,024	39,76
302,238	25,43
302,452	50
302,667	90,96
302,881	23,38
303,095	90,96
303,309	72,53
303,524	11,09
303,738	-23,72
303,952	-46,25
304,166	90,96
304,381	74,58
304,595	129,88
304,809	64,34
305,023	64,34
305,237	-62,63
305,452	-7,34
305,666	-48,3
305,88	37,72
306,094	76,63
306,308	4,95
306,522	47,96
306,736	17,24
306,95	50
307,164	41,81
307,379	-29,87
307,593	62,29
307,807	23,38
308,021	-21,67
308,235	25,43
308,449	23,38
308,663	11,09
308,877	113,49
309,091	68,44
309,305	-40,11
309,519	-83,11
309,733	-11,43
309,947	37,72
310,161	17,24
310,374	33,62
310,588	45,91
310,802	-1,19
311,016	66,39
311,23	31,57
311,444	-42,15
311,658	35,67
311,872	56,15
312,085	68,44
312,299	107,35
312,513	-56,49
312,727	11,09
312,941	-11,43
313,154	-11,43
313,368	60,24
313,582	47,96
313,796	0,85
314,009	-1,19
314,223	19,29
314,437	-17,58
314,651	-1,19
314,864	7
315,078	41,81
315,292	7
315,505	-3,24
315,719	72,53
315,933	33,62
316,146	33,62
316,36	-15,53
316,573	31,57
316,787	31,57
317,001	-9,39
317,214	23,38
317,428	93,01
317,641	-115,88
317,855	11,09
318,068	37,72
318,282	35,67
318,495	76,63
318,709	109,4
318,922	-38,06
319,136	43,86
319,349	15,19
319,563	15,19
319,776	29,52
319,99	-89,26
320,203	27,48
320,417	-13,48
320,63	-3,24
320,843	111,44
321,057	-23,72
321,27	19,29
321,483	47,96
321,697	25,43
321,91	66,39
322,124	25,43
322,337	27,48
322,55	-91,31
322,763	-21,67
322,977	37,72
323,19	-42,15
323,403	52,05
323,617	-9,39
323,83	52,05
324,043	-25,77
324,256	64,34
324,469	47,96
324,683	66,39
324,896	-9,39
325,109	64,34
325,322	-11,43
325,535	17,24
325,748	50
325,962	74,58
326,175	13,14
326,388	80,72
326,601	76,63
326,814	62,29
327,027	-17,58
327,24	174,93
327,453	15,19
327,666	41,81
327,879	29,52
328,092	64,34
328,305	58,2
328,518	33,62
328,731	-13,48
328,944	72,53
329,157	-1,19
329,37	-17,58
329,583	88,92
329,796	117,59
330,009	15,19
330,222	23,38
330,435	78,68
330,648	13,14
330,861	13,14
331,073	17,24
331,286	29,52
331,499	7
331,712	35,67
331,925	15,19
332,138	13,14
332,35	2,9
332,563	-17,58
332,776	21,33
332,989	15,19
333,202	74,58
333,414	29,52
333,627	-17,58
333,84	41,81
334,053	80,72
334,265	9,05
334,478	0,85
334,691	-56,49
334,903	39,76
335,116	39,76
335,329	-48,3
335,541	4,95
335,754	99,16
335,966	2,9
336,179	60,24
336,392	21,33
336,604	25,43
336,817	7
337,029	7
337,242	23,38
337,454	72,53
337,667	33,62
337,88	60,24
338,092	50
338,305	90,96
338,517	-3,24
338,729	76,63
338,942	60,24
339,154	62,29
339,367	17,24
339,579	70,48
339,792	-23,72
340,004	58,2
340,217	39,76
340,429	-1,19
340,641	19,29
340,854	-21,67
341,066	-15,53
341,278	41,81
341,491	50
341,703	33,62
341,915	-23,72
342,128	109,4
342,34	-46,25
342,552	4,95
342,764	-11,43
342,977	56,15
343,189	29,52
343,401	-50,35
343,613	0,85
343,826	45,91
344,038	-25,77
344,25	64,34
344,462	-58,54
344,674	-5,29
344,886	9,05
345,099	27,48
345,311	54,1
345,523	-33,96
345,735	-50,35
345,947	50
346,159	60,24
346,371	-5,29
346,583	-23,72
346,795	60,24
347,007	-5,29
347,219	4,95
347,431	64,34
347,643	74,58
347,855	88,92
348,067	80,72
348,279	-7,34
348,491	43,86
348,703	88,92
348,915	-7,34
349,127	58,2
349,339	7
349,551	19,29
349,763	109,4
349,975	-1,19
350,187	125,78
350,399	70,48
350,61	60,24
350,822	66,39
351,034	29,52
351,246	39,76
351,458	33,62
351,669	66,39
351,881	72,53
352,093	0,85
352,305	31,57
352,517	35,67
352,728	-11,43
352,94	11,09
353,152	19,29
353,363	-1,19
353,575	-3,24
353,787	68,44
353,999	23,38
354,21	56,15
354,422	66,39
354,633	54,1
354,845	80,72
355,057	109,4
355,268	-29,87
355,48	66,39
355,692	-21,67
355,903	99,16
356,115	43,86
356,326	64,34
356,538	43,86
356,749	-9,39
356,961	164,69
357,172	-1,19
357,384	47,96
357,595	158,55
357,807	13,14
358,018	9,05
358,23	64,34
358,441	-7,34
358,653	72,53
358,864	50
359,075	-1,19
359,287	0,85
359,498	50
359,709	2,9
359,921	-9,39
360,132	-25,77
360,344	17,24
360,555	-48,3
360,766	15,19
360,977	56,15
361,189	50
361,4	54,1
361,611	52,05
361,823	101,2
362,034	-15,53
362,245	41,81
362,456	56,15
362,667	54,1
362,879	41,81
363,09	-9,39
363,301	60,24
363,512	50
363,723	58,2
363,935	41,81
364,146	21,33
364,357	-38,06
364,568	7
364,779	-44,2
364,99	58,2
365,201	-33,96
365,412	58,2
365,623	-7,34
365,834	146,26
366,045	-48,3
366,256	93,01
366,467	-7,34
366,678	58,2
366,889	2,9
367,1	-13,48
367,311	54,1
367,522	11,09
367,733	-27,82
367,944	29,52
368,155	64,34
368,366	23,38
368,577	80,72
368,788	11,09
368,999	-21,67
369,209	11,09
369,42	-7,34
369,631	82,77
369,842	15,19
370,053	-13,48
370,264	-13,48
370,474	50
370,685	15,19
370,896	-9,39
371,107	50
371,317	35,67
371,528	-1,19
371,739	7
371,95	-42,15
372,16	-64,68
372,371	0,85
372,582	-42,15
372,792	-17,58
373,003	68,44
373,214	54,1
373,424	41,81
373,635	-1,19
373,846	105,3
374,056	-60,59
374,267	97,11
374,477	84,82
374,688	70,48
374,898	31,57
375,109	31,57
375,319	-1,19
375,53	41,81
375,74	-58,54
375,951	39,76
376,161	-36,01
376,372	-21,67
376,582	-31,91
376,793	90,96
377,003	37,72
377,214	-62,63
377,424	19,29
377,635	9,05
377,845	64,34
378,055	11,09
378,266	-44,2
378,476	-3,24
378,686	154,45
378,897	52,05
379,107	0,85
379,317	107,35
379,528	23,38
379,738	-3,24
379,948	-50,35
380,158	0,85
380,369	58,2
380,579	125,78
380,789	80,72
380,999	80,72
381,21	84,82
381,42	43,86
381,63	64,34
381,84	56,15
382,05	80,72
382,261	-31,91
382,471	15,19
382,681	-1,19
382,891	23,38
383,101	7
383,311	-15,53
383,521	-5,29
383,731	31,57
383,941	41,81
384,151	52,05
384,361	13,14
384,571	37,72
384,781	-25,77
384,991	15,19
385,201	78,68
385,411	50
385,621	-1,19
385,831	66,39
386,041	13,14
386,251	-5,29
386,461	88,92
386,671	-9,39
386,881	2,9
387,091	27,48
387,301	72,53
387,511	-40,11
387,72	107,35
387,93	2,9
388,14	80,72
388,35	88,92
388,56	56,15
388,769	21,33
388,979	62,29
389,189	37,72
389,399	80,72
389,609	66,39
389,818	43,86
390,028	35,67
390,238	-3,24
390,447	70,48
390,657	47,96
390,867	15,19
391,076	-23,72
391,286	33,62
391,496	-7,34
391,705	29,52
391,915	19,29
392,125	111,44
392,334	7
392,544	93,01
392,753	2,9
392,963	-1,19
393,172	0,85
393,382	9,05
393,591	50
393,801	25,43
394,01	82,77
394,22	15,19
394,429	39,76
394,639	-11,43
394,848	41,81
395,058	0,85
395,267	66,39
395,477	60,24
395,686	93,01
395,895	64,34
396,105	56,15
396,314	19,29
396,524	7
396,733	9,05
396,942	111,44
397,152	70,48
397,361	43,86
397,57	15,19
397,78	15,19
397,989	33,62
398,198	105,3
398,407	-7,34
398,617	70,48
398,826	23,38
399,035	9,05
399,244	-3,24
399,453	15,19
399,663	80,72
399,872	62,29
400,081	47,96
400,29	113,49
400,499	33,62
400,708	101,2
400,917	84,82
401,127	64,34
401,336	54,1
401,545	64,34
401,754	47,96
401,963	50
402,172	4,95
402,381	-5,29
402,59	0,85
402,799	-17,58
403,008	95,06
403,217	-11,43
403,426	70,48
403,635	-70,83
403,844	9,05
404,053	82,77
404,262	0,85
404,471	115,54
404,68	58,2
404,888	19,29
405,097	43,86
405,306	-40,11
405,515	35,67
405,724	-17,58
405,933	17,24
406,142	43,86
406,35	88,92
406,559	-17,58
406,768	0,85
406,977	19,29
407,185	66,39
407,394	64,34
407,603	-13,48
407,812	-1,19
408,02	50
408,229	35,67
408,438	37,72
408,646	-36,01
408,855	47,96
409,064	80,72
409,272	66,39
409,481	4,95
409,69	50
409,898	15,19
410,107	-1,19
410,315	80,72
410,524	43,86
410,733	66,39
410,941	7
411,15	68,44
411,358	-15,53
411,567	99,16
411,775	-17,58
411,984	72,53
412,192	27,48
412,401	-19,63
412,609	113,49
412,818	86,87
413,026	9,05
413,234	33,62
413,443	103,25
413,651	52,05
413,86	72,53
414,068	123,73
414,276	88,92
414,485	45,91
414,693	146,26
414,901	66,39
415,11	62,29
415,318	99,16
415,526	56,15
415,734	88,92
415,943	-1,19
416,151	68,44
416,359	88,92
416,567	39,76
416,776	109,4
416,984	35,67
417,192	140,12
417,4	84,82
417,608	76,63
417,817	80,72
418,025	62,29
418,233	131,92
418,441	93,01
418,649	56,15
418,857	88,92
419,065	127,83
419,273	47,96
419,481	37,72
419,689	93,01
419,897	181,07
420,105	109,4
420,313	146,26
420,521	86,87
420,729	121,68
420,937	93,01
421,145	99,16
421,353	168,79
421,561	187,22
421,769	150,36
421,977	105,3
422,185	70,48
422,393	162,64
422,601	219,99
422,809	133,97
423,017	131,92
423,224	144,21
423,432	269,14
423,64	228,18
423,848	205,65
424,056	215,89
424,263	273,23
424,471	236,37
424,679	351,06
424,887	310,1
425,094	340,82
425,302	353,1
425,51	377,68
425,718	500,56
425,925	426,83
426,133	521,04
426,341	590,67
426,548	699,21
426,756	787,27
426,964	924,49
427,171	863,05
427,379	1086,28
427,586	1264,45
427,794	1405,76
428,001	1631,04
428,209	1876,79
428,417	2110,26
428,624	2437,94
428,832	2691,88
429,039	3136,29
429,247	3353,38
429,454	4305,68
429,662	5036,81
429,869	5348,1
430,076	6386,42
430,284	6836,97
430,491	7953,12
430,699	9642,69
430,906	10906,29
431,114	11965,09
431,321	13752,96
431,528	15006,32
431,736	17680,97
431,943	19728,94
432,15	21156,37
432,358	22575,61
432,565	25450,96
432,772	27029,94
432,979	29858,19
433,187	31383,93
433,394	32766,31
433,601	36264,24
433,808	37144,86
434,016	37138,72
434,223	39409,92
434,43	42488,01
434,637	41836,76
434,844	44075,19
435,052	45047,97
435,259	44103,86
435,466	44843,18
435,673	44200,11
435,88	46682,25
436,087	48201,85
436,294	48443,51
436,501	46979,21
436,708	46596,24
436,915	48318,58
437,122	49199,21
437,329	48226,42
437,537	49946,72
437,743	50053,21
437,95	48384,12
438,157	50020,44
438,364	51382,34
438,571	51177,54
438,778	50249,81
438,985	53106,73
439,192	51187,78
439,399	52117,56
439,606	50393,17
439,813	51619,91
440,02	53624,87
440,227	51435,59
440,433	49940,57
440,64	50792,53
440,847	48558,19
441,054	47376,51
441,261	47833,21
441,467	45252,77
441,674	43954,36
441,881	42182,87
442,088	39385,34
442,294	36639,01
442,501	34718,02
442,708	31842,67
442,914	29514,13
443,121	27646,38
443,328	24201,7
443,534	22739,45
443,741	19491,37
443,948	16618,07
444,154	15762,02
444,361	13564,55
444,568	11870,88
444,774	10136,25
444,981	8878,8
445,187	7793,37
445,394	7027,43
445,6	6116,09
445,807	5690,11
446,013	4768,52
446,22	3967,77
446,426	3824,41
446,633	3339,04
446,839	3031,85
447,046	2456,37
447,252	2415,41
447,459	2128,69
447,665	1727,29
447,871	1811,26
448,078	1575,74
448,284	1344,32
448,491	1276,74
448,697	1178,44
448,903	1057,61
449,11	1041,22
449,316	779,08
449,522	848,71
449,728	797,51
449,935	668,49
450,141	686,92
450,347	621,39
450,553	533,33
450,76	508,75
450,966	406,35
451,172	465,74
451,378	389,97
451,584	353,1
451,791	394,06
451,997	338,77
452,203	301,9
452,409	322,38
452,615	375,63
452,821	244,56
453,027	240,47
453,233	277,33
453,44	262,99
453,646	236,37
453,852	174,93
454,058	222,03
454,264	269,14
454,47	156,5
454,676	176,98
454,882	172,88
455,088	109,4
455,294	170,83
455,5	176,98
455,705	189,27
455,911	33,62
456,117	103,25
456,323	140,12
456,529	129,88
456,735	148,31
456,941	121,68
457,147	64,34
457,352	107,35
457,558	86,87
457,764	133,97
457,97	76,63
458,176	146,26
458,381	80,72
458,587	127,83
458,793	111,44
458,999	25,43
459,204	64,34
459,41	76,63
459,616	47,96
459,821	113,49
460,027	105,3
460,233	123,73
460,438	88,92
460,644	80,72
460,85	68,44
461,055	88,92
461,261	60,24
461,466	17,24
461,672	15,19
461,878	15,19
462,083	47,96
462,289	35,67
462,494	27,48
462,7	93,01
462,905	41,81
463,111	119,64
463,316	86,87
463,522	27,48
463,727	0,85
463,932	93,01
464,138	88,92
464,343	64,34
464,549	60,24
464,754	125,78
464,959	80,72
465,165	43,86
465,37	125,78
465,575	68,44
465,781	35,67
465,986	62,29
466,191	136,02
466,397	27,48
466,602	25,43
466,807	11,09
467,012	60,24
467,218	111,44
467,423	64,34
467,628	56,15
467,833	41,81
468,038	47,96
468,244	82,77
468,449	58,2
468,654	31,57
468,859	15,19
469,064	58,2
469,269	45,91
469,474	13,14
469,679	127,83
469,885	-11,43
470,09	17,24
470,295	35,67
470,5	50
470,705	39,76
470,91	19,29
471,115	127,83
471,32	56,15
471,525	82,77
471,73	68,44
471,935	47,96
472,139	50
472,344	-17,58
472,549	-1,19
472,754	76,63
472,959	17,24
473,164	-15,53
473,369	72,53
473,574	84,82
473,778	31,57
473,983	50
474,188	101,2
474,393	27,48
474,598	-7,34
474,802	54,1
475,007	-60,59
475,212	90,96
475,417	43,86
475,621	74,58
475,826	-21,67
476,031	84,82
476,235	4,95
476,44	56,15
476,645	21,33
476,849	-7,34
477,054	21,33
477,259	-1,19
477,463	88,92
477,668	90,96
477,872	-1,19
478,077	7
478,282	-54,44
478,486	50
478,691	99,16
478,895	140,12
479,1	82,77
479,304	54,1
479,509	70,48
479,713	90,96
479,918	62,29
480,122	58,2
480,326	0,85
480,531	-13,48
480,735	95,06
480,94	62,29
481,144	43,86
481,348	25,43
481,553	-19,63
481,757	7
481,961	-19,63
482,166	121,68
482,37	25,43
482,574	54,1
482,778	-1,19
482,983	25,43
483,187	47,96
483,391	37,72
483,595	21,33
483,8	64,34
484,004	86,87
484,208	17,24
484,412	60,24
484,616	31,57
484,821	21,33
485,025	15,19
485,229	-74,92
485,433	23,38
485,637	80,72
485,841	41,81
486,045	-21,67
486,249	56,15
486,453	33,62
486,657	-42,15
486,861	-19,63
487,065	39,76
487,269	41,81
487,473	140,12
487,677	29,52
487,881	129,88
488,085	58,2
488,289	2,9
488,493	-1,19
488,697	68,44
488,901	17,24
489,105	15,19
489,309	7
489,512	9,05
489,716	56,15
489,92	113,49
490,124	60,24
490,328	187,22
490,531	-21,67
490,735	33,62
490,939	-33,96
491,143	78,68
491,346	37,72
491,55	-5,29
491,754	-23,72
491,958	-23,72
492,161	-40,11
492,365	2,9
492,569	-15,53
492,772	37,72
492,976	17,24
493,18	0,85
493,383	50
493,587	97,11
493,79	25,43
493,994	60,24
494,197	17,24
494,401	43,86
494,605	11,09
494,808	58,2
495,012	103,25
495,215	97,11
495,419	64,34
495,622	31,57
495,825	-83,11
496,029	-19,63
496,232	21,33
496,436	-15,53
496,639	84,82
496,843	-23,72
497,046	31,57
497,249	90,96
497,453	-21,67
497,656	50
497,859	-3,24
498,063	9,05
498,266	80,72
498,469	56,15
498,673	-13,48
498,876	-7,34
499,079	-36,01
499,282	31,57
499,485	101,2
499,689	7
499,892	41,81
500,095	-13,48
500,298	-5,29
500,501	0,85
500,705	33,62
500,908	41,81
501,111	-27,82
501,314	-1,19
501,517	31,57
501,72	39,76
501,923	31,57
502,126	23,38
502,329	72,53
502,532	37,72
502,735	52,05
502,938	97,11
503,141	-19,63
503,344	9,05
503,547	47,96
503,75	9,05
503,953	-3,24
504,156	56,15
504,359	-9,39
504,562	-23,72
504,765	-48,3
504,968	70,48
505,17	39,76
505,373	43,86
505,576	2,9
505,779	-15,53
505,982	15,19
506,185	9,05
506,387	7
506,59	-13,48
506,793	-5,29
506,996	29,52
507,198	66,39
507,401	19,29
507,604	7
507,807	0,85
508,009	7
508,212	15,19
508,415	23,38
508,617	19,29
508,82	-21,67
509,022	39,76
509,225	2,9
509,428	45,91
509,63	-3,24
509,833	15,19
510,035	27,48
510,238	82,77
510,44	7
510,643	15,19
510,845	86,87
511,048	72,53
511,25	4,95
511,453	43,86
511,655	-23,72
511,858	88,92
512,06	7
512,262	11,09
512,465	-52,39
512,667	-15,53
512,87	-15,53
513,072	35,67
513,274	76,63
513,477	31,57
513,679	7
513,881	33,62
514,084	-9,39
514,286	37,72
514,488	72,53
514,69	88,92
514,893	0,85
515,095	-1,19
515,297	-23,72
515,499	33,62
515,701	43,86
515,904	41,81
516,106	25,43
516,308	82,77
516,51	11,09
516,712	-5,29
516,914	78,68
517,116	7
517,318	-3,24
517,52	-113,83
517,722	0,85
517,925	7
518,127	33,62
518,329	7
518,531	21,33
518,733	52,05
518,935	31,57
519,136	-31,91
519,338	15,19
519,54	52,05
519,742	80,72
519,944	17,24
520,146	9,05
520,348	82,77
520,55	-21,67
520,752	-64,68
520,954	7
521,155	-42,15
521,357	-29,87
521,559	-9,39
521,761	13,14
521,963	-40,11
522,164	25,43
522,366	123,73
522,568	74,58
522,77	27,48
522,971	21,33
523,173	-50,35
523,375	74,58
523,576	50
523,778	7
523,98	33,62
524,181	50
524,383	60,24
524,584	-46,25
524,786	90,96
524,988	-66,73
525,189	50
525,391	50
525,592	9,05
525,794	23,38
525,995	58,2
526,197	-7,34
526,398	58,2
526,6	-29,87
526,801	43,86
527,003	-27,82
527,204	64,34
527,406	-9,39
527,607	-1,19
527,808	47,96
528,01	-1,19
528,211	107,35
528,412	93,01
528,614	27,48
528,815	25,43
529,016	23,38
529,218	62,29
529,419	23,38
529,62	64,34
529,822	74,58
530,023	17,24
530,224	64,34
530,425	68,44
530,626	-1,19
530,828	-9,39
531,029	-9,39
531,23	45,91
531,431	-31,91
531,632	31,57
531,833	-33,96
532,035	-33,96
532,236	-9,39
532,437	21,33
532,638	-11,43
532,839	-62,63
533,04	15,19
533,241	121,68
533,442	-1,19
533,643	9,05
533,844	-17,58
534,045	-33,96
534,246	39,76
534,447	41,81
534,648	-5,29
534,849	62,29
535,05	66,39
535,251	-23,72
535,451	-13,48
535,652	13,14
535,853	-54,44
536,054	11,09
536,255	-11,43
536,456	-48,3
536,657	21,33
536,857	25,43
537,058	121,68
537,259	21,33
537,46	-3,24
537,66	27,48
537,861	-70,83
538,062	88,92
538,263	-48,3
538,463	19,29
538,664	19,29
538,865	15,19
539,065	2,9
539,266	17,24
539,466	0,85
539,667	9,05
539,868	76,63
540,068	29,52
540,269	27,48
540,469	76,63
540,67	72,53
540,87	50
541,071	82,77
541,271	31,57
541,472	95,06
541,672	107,35
541,873	47,96
542,073	27,48
542,274	31,57
542,474	84,82
542,675	15,19
542,875	-1,19
543,075	-56,49
543,276	-25,77
543,476	-11,43
543,676	70,48
543,877	47,96
544,077	-7,34
544,277	15,19
544,478	35,67
544,678	15,19
544,878	17,24
545,078	31,57
545,279	-5,29
545,479	-36,01
545,679	-60,59
545,879	27,48
546,079	25,43
546,28	-29,87
546,48	29,52
546,68	66,39
546,88	0,85
547,08	-1,19
547,28	41,81
547,48	39,76
547,68	123,73
547,88	50
548,081	-23,72
548,281	-23,72
548,481	0,85
548,681	-72,87
548,881	33,62
549,081	86,87
549,28	41,81
549,48	-27,82
549,68	45,91
549,88	-9,39
550,08	39,76
550,28	-3,24
550,48	52,05
550,68	-15,53
550,88	47,96
551,08	66,39
551,279	-21,67
551,479	23,38
551,679	-33,96
551,879	4,95
552,079	56,15
552,278	-27,82
552,478	31,57
552,678	35,67
552,878	-19,63
553,077	-13,48
553,277	15,19
553,477	80,72
553,676	-13,48
553,876	41,81
554,076	25,43
554,275	-70,83
554,475	4,95
554,674	-1,19
554,874	23,38
555,074	-38,06
555,273	7
555,473	70,48
555,672	-17,58
555,872	39,76
556,071	-17,58
556,271	-9,39
556,47	-17,58
556,67	39,76
556,869	-64,68
557,068	47,96
557,268	-11,43
557,467	82,77
557,667	101,2
557,866	21,33
558,065	-23,72
558,265	-62,63
558,464	0,85
558,663	58,2
558,863	9,05
559,062	2,9
559,261	9,05
559,461	-17,58
559,66	15,19
559,859	-7,34
560,058	-44,2
560,258	-23,72
560,457	-9,39
560,656	107,35
560,855	17,24
561,054	9,05
561,253	29,52
561,453	21,33
561,652	64,34
561,851	52,05
562,05	15,19
562,249	-23,72
562,448	35,67
562,647	29,52
562,846	-3,24
563,045	47,96
563,244	68,44
563,443	17,24
563,642	45,91
563,841	-27,82
564,04	56,15
564,239	23,38
564,438	-48,3
564,637	2,9
564,836	9,05
565,035	39,76
565,234	-1,19
565,432	74,58
565,631	-5,29
565,83	-19,63
566,029	39,76
566,228	-11,43
566,427	74,58
566,625	-19,63
566,824	105,3
567,023	21,33
567,222	0,85
567,42	-7,34
567,619	39,76
567,818	43,86
568,016	138,07
568,215	-25,77
568,414	21,33
568,612	25,43
568,811	7
569,01	-19,63
569,208	31,57
569,407	72,53
569,605	-21,67
569,804	21,33
570,002	27,48
570,201	4,95
570,4	-15,53
570,598	31,57
570,797	19,29
570,995	11,09
571,193	25,43
571,392	66,39
571,59	74,58
571,789	-25,77
571,987	-11,43
572,186	-17,58
572,384	50
572,582	-3,24
572,781	47,96
572,979	-5,29
573,177	-3,24
573,376	33,62
573,574	45,91
573,772	-23,72
573,971	-5,29
574,169	7
574,367	33,62
574,565	-56,49
574,763	-1,19
574,962	0,85
575,16	-21,67
575,358	29,52
575,556	64,34
575,754	-48,3
575,952	-70,83
576,151	41,81
576,349	41,81
576,547	-15,53
576,745	39,76
576,943	76,63
577,141	7
577,339	19,29
577,537	27,48
577,735	78,68
577,933	39,76
578,131	50
578,329	37,72
578,527	-1,19
578,725	64,34
578,923	-72,87
579,121	11,09
579,319	-38,06
579,516	17,24
579,714	144,21
579,912	52,05
580,11	13,14
580,308	27,48
580,506	2,9
580,704	-56,49
580,901	-15,53
581,099	21,33
581,297	17,24
581,495	39,76
581,692	0,85
581,89	99,16
582,088	-36,01
582,285	35,67
582,483	-58,54
582,681	47,96
582,878	21,33
583,076	-62,63
583,274	-38,06
583,471	90,96
583,669	56,15
583,866	37,72
584,064	29,52
584,262	41,81
584,459	23,38
584,657	-62,63
584,854	15,19
585,052	107,35
585,249	31,57
585,447	47,96
585,644	-15,53
585,841	-54,44
586,039	68,44
586,236	80,72
586,434	37,72
586,631	74,58
586,828	-21,67
587,026	35,67
587,223	-42,15
587,42	52,05
587,618	9,05
587,815	64,34
588,012	-25,77
588,21	-1,19
588,407	4,95
588,604	43,86
588,801	-72,87
588,999	-23,72
589,196	2,9
589,393	-7,34
589,59	13,14
589,787	35,67
589,984	43,86
590,182	90,96
590,379	-5,29
590,576	47,96
590,773	-5,29
590,97	-46,25
591,167	27,48
591,364	-9,39
591,561	-5,29
591,758	50
591,955	29,52
592,152	31,57
592,349	29,52
592,546	45,91
592,743	17,24
592,94	-9,39
593,137	15,19
593,334	58,2
593,531	2,9
593,727	27,48
593,924	43,86
594,121	-42,15
594,318	0,85
594,515	80,72
594,712	64,34
594,908	72,53
595,105	2,9
595,302	-7,34
595,499	9,05
595,696	15,19
595,892	-3,24
596,089	29,52
596,286	27,48
596,482	23,38
596,679	39,76
596,876	64,34
597,072	50
597,269	-9,39
597,466	23,38
597,662	7
597,859	-5,29
598,055	7
598,252	2,9
598,448	70,48
598,645	-9,39
598,841	-81,07
599,038	70,48
599,234	0,85
599,431	23,38
599,627	47,96
599,824	17,24
600,02	7
600,217	-9,39
600,413	-15,53
600,609	-15,53
600,806	66,39
601,002	-58,54
601,198	-44,2
601,395	15,19
601,591	-50,35
601,787	-15,53
601,984	-25,77
602,18	121,68
602,376	-3,24
602,572	27,48
602,769	64,34
602,965	11,09
603,161	-21,67
603,357	29,52
603,553	45,91
603,75	7
603,946	-3,24
604,142	39,76
604,338	50
604,534	43,86
604,73	-7,34
604,926	-23,72
605,122	99,16
605,318	-25,77
605,514	39,76
605,71	-17,58
605,906	4,95
606,102	-19,63
606,298	60,24
606,494	39,76
606,69	50
606,886	9,05
607,082	45,91
607,278	-1,19
607,474	-1,19
607,67	39,76
607,866	-9,39
608,062	7
608,257	90,96
608,453	-11,43
608,649	56,15
608,845	-1,19
609,041	0,85
609,236	2,9
609,432	17,24
609,628	-21,67
609,824	-7,34
610,019	-54,44
610,215	-21,67
610,411	33,62
610,606	74,58
610,802	-23,72
610,998	105,3
611,193	93,01
611,389	0,85
611,584	21,33
611,78	47,96
611,976	43,86
612,171	80,72
612,367	21,33
612,562	52,05
612,758	-9,39
612,953	45,91
613,149	39,76
613,344	4,95
613,539	-81,07
613,735	31,57
613,93	39,76
614,126	7
614,321	11,09
614,517	21,33
614,712	-1,19
614,907	52,05
615,103	7
615,298	-1,19
615,493	-64,68
615,688	-15,53
615,884	-11,43
616,079	47,96
616,274	0,85
616,47	7
616,665	15,19
616,86	29,52
617,055	-15,53
617,25	19,29
617,445	9,05
617,641	-5,29
617,836	-54,44
618,031	-23,72
618,226	-27,82
618,421	64,34
618,616	-44,2
618,811	66,39
619,006	-27,82
619,201	93,01
619,396	31,57
619,591	-48,3
619,786	-56,49
619,981	23,38
620,176	-17,58
620,371	54,1
620,566	13,14
620,761	39,76
620,956	11,09
621,151	25,43
621,346	7
621,541	47,96
621,735	95,06
621,93	21,33
622,125	-66,73
622,32	-50,35
622,515	-23,72
622,709	-1,19
622,904	-25,77
623,099	17,24
623,294	-19,63
623,488	50
623,683	27,48
623,878	4,95
624,072	50
624,267	11,09
624,462	9,05
624,656	17,24
624,851	-9,39
625,046	17,24
625,24	64,34
625,435	113,49
625,629	56,15
625,824	0,85
626,018	-7,34
626,213	41,81
626,407	-9,39
626,602	9,05
626,796	13,14
626,991	17,24
627,185	-27,82
627,38	19,29
627,574	35,67
627,768	41,81
627,963	-27,82
628,157	-1,19
628,352	4,95
628,546	33,62
628,74	33,62
628,935	17,24
629,129	33,62
629,323	43,86
629,517	-17,58
629,712	-23,72
629,906	-31,91
630,1	29,52
630,294	56,15
630,489	33,62
630,683	-38,06
630,877	29,52
631,071	11,09
631,265	60,24
631,459	-46,25
631,653	56,15
631,848	-38,06
632,042	23,38
632,236	13,14
632,43	-11,43
632,624	99,16
632,818	64,34
633,012	35,67
633,206	97,11
633,4	45,91
633,594	-13,48
633,788	109,4
633,982	-1,19
634,176	80,72
634,369	13,14
634,563	70,48
634,757	-9,39
634,951	-62,63
635,145	27,48
635,339	2,9
635,533	37,72
635,726	11,09
635,92	-7,34
636,114	-3,24
636,308	-25,77
636,501	11,09
636,695	74,58
636,889	-31,91
637,083	52,05
637,276	101,2
637,47	2,9
637,664	2,9
637,857	-56,49
638,051	-38,06
638,244	-11,43
638,438	7
638,632	58,2
638,825	-60,59
639,019	95,06
639,212	35,67
639,406	39,76
639,599	60,24
639,793	-1,19
639,986	-5,29
640,18	-3,24
640,373	9,05
640,567	88,92
640,76	4,95
640,954	31,57
641,147	-29,87
641,34	0,85
641,534	31,57
641,727	25,43
641,92	7
642,114	88,92
642,307	-7,34
642,5	43,86
642,694	-1,19
642,887	-1,19
643,08	41,81
643,273	56,15
643,467	80,72
643,66	11,09
643,853	-21,67
644,046	82,77
644,239	-29,87
644,432	37,72
644,626	-15,53
644,819	-19,63
645,012	45,91
645,205	68,44
645,398	15,19
645,591	37,72
645,784	37,72
645,977	-13,48
646,17	7
646,363	-25,77
646,556	11,09
646,749	-31,91
646,942	41,81
647,135	43,86
647,328	-29,87
647,521	78,68
647,714	-15,53
647,907	-21,67
648,099	-13,48
648,292	54,1
648,485	43,86
648,678	-1,19
648,871	21,33
649,064	7
649,256	15,19
649,449	72,53
649,642	-27,82
649,835	-15,53
650,027	-97,45
650,22	37,72
650,413	0,85
650,605	39,76
650,798	21,33
650,991	95,06
651,183	35,67
651,376	60,24
651,568	23,38
651,761	56,15
651,954	33,62
652,146	-19,63
652,339	31,57
652,531	-23,72
652,724	-21,67
652,916	31,57
653,109	-46,25
653,301	29,52
653,494	-15,53
653,686	56,15
653,879	45,91
654,071	0,85
654,263	-13,48
654,456	35,67
654,648	72,53
654,84	17,24
655,033	35,67
655,225	43,86
655,417	-56,49
655,61	27,48
655,802	-3,24
655,994	0,85
656,186	31,57
656,379	84,82
656,571	-99,5
656,763	-48,3
656,955	23,38
657,148	29,52
657,34	-15,53
657,532	133,97
657,724	29,52
657,916	-1,19
658,108	68,44
658,3	72,53
658,492	93,01
658,684	33,62
658,876	45,91
659,068	7
659,26	7
659,452	-31,91
659,644	72,53
659,836	56,15
660,028	15,19
660,22	23,38
660,412	-27,82
660,604	41,81
660,796	82,77
660,988	29,52
661,18	-23,72
661,372	13,14
661,563	15,19
661,755	60,24
661,947	-21,67
662,139	-13,48
662,331	-21,67
662,522	103,25
662,714	-19,63
662,906	-11,43
663,097	-38,06
663,289	7
663,481	-15,53
663,673	0,85
663,864	-15,53
664,056	84,82
664,247	-109,74
664,439	60,24
664,631	13,14
664,822	66,39
665,014	25,43
665,205	21,33
665,397	-89,26
665,588	84,82
665,78	45,91
665,971	15,19
666,163	7
666,354	97,11
666,546	-9,39
666,737	56,15
666,929	-11,43
667,12	-1,19
667,311	23,38
667,503	-42,15
667,694	11,09
667,885	29,52
668,077	-46,25
668,268	0,85
668,459	9,05
668,651	121,68
668,842	4,95
669,033	0,85
669,224	-52,39
669,416	31,57
669,607	21,33
669,798	-7,34
669,989	70,48
670,18	-5,29
670,371	82,77
670,563	-72,87
670,754	17,24
670,945	-3,24
671,136	39,76
671,327	31,57
671,518	21,33
671,709	76,63
671,9	66,39
672,091	-9,39
672,282	-23,72
672,473	97,11
672,664	-7,34
672,855	-40,11
673,046	60,24
673,237	39,76
673,428	0,85
673,619	56,15
673,809	-7,34
674	4,95
674,191	-9,39
674,382	-36,01
674,573	56,15
674,764	2,9
674,954	25,43
675,145	23,38
675,336	41,81
675,527	23,38
675,717	-15,53
675,908	-23,72
676,099	15,19
676,289	15,19
676,48	45,91
676,671	-44,2
676,861	-17,58
677,052	13,14
677,243	-66,73
677,433	-122,02
677,624	23,38
677,814	-5,29
678,005	-11,43
678,195	78,68
678,386	-17,58
678,576	-7,34
678,767	-62,63
678,957	-15,53
679,148	13,14
679,338	-5,29
679,529	90,96
679,719	-31,91
679,909	13,14
680,1	-3,24
680,29	17,24
680,481	-29,87
680,671	88,92
680,861	109,4
681,052	-48,3
681,242	-15,53
681,432	72,53
681,622	43,86
681,813	17,24
682,003	-40,11
682,193	-31,91
682,383	35,67
682,573	-31,91
682,764	88,92
682,954	9,05
683,144	25,43
683,334	23,38
683,524	-68,78
683,714	35,67
683,904	35,67
684,094	-95,4
684,284	-9,39
684,474	76,63
684,664	11,09
684,854	23,38
685,044	0,85
685,234	54,1
685,424	76,63
685,614	-7,34
685,804	111,44
685,994	37,72
686,184	74,58
686,374	-5,29
686,564	66,39
686,753	-3,24
686,943	-9,39
687,133	-19,63
687,323	-56,49
687,513	50
687,702	33,62
687,892	-29,87
688,082	76,63
688,272	115,54
688,461	17,24
688,651	115,54
688,841	4,95
689,03	15,19
689,22	31,57
689,41	33,62
689,599	31,57
689,789	19,29
689,979	105,3
690,168	17,24
690,358	117,59
690,547	0,85
690,737	31,57
690,926	29,52
691,116	37,72
691,305	27,48
691,495	-19,63
691,684	-1,19
691,874	-58,54
692,063	56,15
692,252	62,29
692,442	15,19
692,631	-33,96
692,82	23,38
693,01	-17,58
693,199	13,14
693,388	-1,19
693,578	39,76
693,767	43,86
693,956	88,92
694,146	50
694,335	9,05
694,524	56,15
694,713	15,19
694,902	-3,24
695,092	39,76
695,281	56,15
695,47	-15,53
695,659	-31,91
695,848	23,38
696,037	58,2
696,226	9,05
696,415	29,52
696,604	41,81
696,793	64,34
696,982	68,44
697,171	35,67
697,36	-40,11
697,549	2,9
697,738	-89,26
697,927	7
698,116	-33,96
698,305	58,2
698,494	35,67
698,683	-27,82
698,872	43,86
699,061	37,72
699,25	7
699,438	-11,43
699,627	-17,58
699,816	50
700,005	-1,19
700,193	0,85
700,382	39,76
700,571	-17,58
700,76	64,34
700,948	35,67
701,137	-40,11
701,326	2,9
701,514	-40,11
701,703	13,14
701,892	39,76
702,08	99,16
702,269	25,43
702,457	86,87
702,646	-9,39
702,834	-42,15
703,023	41,81
703,212	25,43
703,4	56,15
703,589	64,34
703,777	-11,43
703,965	-25,77
704,154	9,05
704,342	-17,58
704,531	11,09
704,719	17,24
704,907	11,09
705,096	-17,58
705,284	-66,73
705,472	13,14
705,661	0,85
705,849	107,35
706,037	50
706,226	86,87
706,414	23,38
706,602	11,09
706,79	0,85
706,979	-54,44
707,167	37,72
707,355	-25,77
707,543	-23,72
707,731	17,24
707,919	17,24
708,107	-29,87
708,296	31,57
708,484	-5,29
708,672	4,95
708,86	97,11
709,048	-5,29
709,236	-25,77
709,424	-17,58
709,612	76,63
709,8	-11,43
709,988	11,09
710,176	95,06
710,364	-5,29
710,551	23,38
710,739	72,53
710,927	27,48
711,115	27,48
711,303	41,81
711,491	7
711,679	43,86
711,866	15,19
712,054	-9,39
712,242	-13,48
712,43	33,62
712,617	2,9
712,805	-9,39
712,993	41,81
713,181	-87,21
713,368	45,91
713,556	-7,34
713,744	9,05
713,931	37,72
714,119	99,16
714,306	19,29
714,494	-9,39
714,682	-52,39
714,869	-58,54
715,057	21,33
715,244	-27,82
715,432	29,52
715,619	11,09
715,807	82,77
715,994	-11,43
716,182	88,92
716,369	-9,39
716,556	9,05
716,744	-11,43
716,931	-5,29
717,119	23,38
717,306	15,19
717,493	43,86
717,681	27,48
717,868	-23,72
718,055	-40,11
718,242	-60,59
718,43	-13,48
718,617	-33,96
718,804	7
718,991	64,34
719,179	27,48
719,366	0,85
719,553	31,57
719,74	47,96
719,927	-1,19
720,114	-5,29
720,301	-74,92
720,488	-13,48
720,676	-40,11
720,863	41,81
721,05	72,53
721,237	-74,92
721,424	50
721,611	60,24
721,798	-1,19
721,985	23,38
722,172	-50,35
722,358	43,86
722,545	-15,53
722,732	68,44
722,919	52,05
723,106	-50,35
723,293	-9,39
723,48	-17,58
723,667	-36,01
723,853	43,86
724,04	-42,15
724,227	97,11
724,414	-9,39
724,6	23,38
724,787	4,95
724,974	54,1
725,161	15,19
725,347	-17,58
725,534	-5,29
725,72	31,57
725,907	47,96
726,094	39,76
726,28	-1,19
726,467	-17,58
726,653	-48,3
726,84	47,96
727,027	15,19
727,213	88,92
727,4	43,86
727,586	54,1
727,773	-7,34
727,959	11,09
728,145	17,24
728,332	39,76
728,518	-36,01
728,705	0,85
728,891	0,85
729,077	29,52
729,264	23,38
729,45	-1,19
729,636	4,95
729,823	9,05
730,009	-23,72
730,195	-33,96
730,382	21,33
730,568	47,96
730,754	21,33
730,94	33,62
731,126	23,38
731,313	43,86
731,499	31,57
731,685	9,05
731,871	47,96
732,057	-11,43
732,243	-42,15
732,429	68,44
732,615	-13,48
732,801	23,38
732,987	-25,77
733,173	-7,34
733,359	15,19
733,545	-52,39
733,731	-50,35
733,917	-44,2
734,103	19,29
734,289	23,38
734,475	41,81
734,661	9,05
734,847	-19,63
735,033	-23,72
735,219	76,63
735,404	52,05
735,59	76,63
735,776	109,4
735,962	7
736,148	-21,67
736,333	54,1
736,519	60,24
736,705	-1,19
736,89	-48,3
737,076	9,05
737,262	9,05
737,447	-54,44
737,633	68,44
737,819	11,09
738,004	7
738,19	-25,77
738,375	15,19
738,561	35,67
738,747	-15,53
738,932	-119,98
739,118	37,72
739,303	72,53
739,489	-36,01
739,674	-9,39
739,859	-33,96
740,045	-21,67
740,23	23,38
740,416	-7,34
740,601	54,1
740,786	-87,21
740,972	-27,82
741,157	-38,06
741,342	7
741,528	-31,91
741,713	90,96
741,898	-52,39
742,084	-31,91
742,269	2,9
742,454	31,57
742,639	9,05
742,824	-17,58
743,01	121,68
743,195	72,53
743,38	-33,96
743,565	-27,82
743,75	9,05
743,935	23,38
744,12	25,43
744,305	-9,39
744,49	25,43
744,675	50
744,86	-17,58
745,045	0,85
745,23	-17,58
745,415	-1,19
745,6	123,73
745,785	-46,25
745,97	19,29
746,155	27,48
746,34	47,96
746,525	93,01
746,71	23,38
746,895	-21,67
747,079	-29,87
747,264	37,72
747,449	2,9
747,634	11,09
747,819	33,62
748,003	58,2
748,188	-95,4
748,373	-9,39
748,557	-27,82
748,742	37,72
748,927	9,05
749,111	31,57
749,296	15,19
749,481	-5,29
749,665	23,38
749,85	33,62
750,034	35,67
750,219	35,67
750,404	-13,48
750,588	47,96
750,773	-31,91
750,957	33,62
751,141	-33,96
751,326	-38,06
751,51	37,72
751,695	35,67
751,879	9,05
752,064	84,82
752,248	19,29
752,432	66,39
752,617	105,3
752,801	33,62
752,985	19,29
753,17	52,05
753,354	-60,59
753,538	-1,19
753,722	-27,82
753,907	62,29
754,091	41,81
754,275	25,43
754,459	-11,43
754,643	33,62
754,828	-29,87
755,012	-13,48
755,196	7
755,38	37,72
755,564	15,19
755,748	41,81
755,932	9,05
756,116	0,85
756,3	-17,58
756,484	-11,43
756,668	93,01
756,852	-7,34
757,036	25,43
757,22	50
757,404	-31,91
757,588	-17,58
757,772	66,39
757,956	43,86
758,14	7
758,323	-33,96
758,507	-5,29
758,691	9,05
758,875	25,43
759,059	86,87
759,242	43,86
759,426	45,91
759,61	76,63
759,794	-54,44
759,977	11,09
760,161	103,25
760,345	-3,24
760,528	-25,77
760,712	-50,35
760,895	7
761,079	56,15
761,263	-44,2
761,446	-72,87
761,63	31,57
761,813	35,67
761,997	23,38
762,18	23,38
762,364	-13,48
762,547	-3,24
762,731	66,39
762,914	-54,44
763,098	-23,72
763,281	25,43
763,464	80,72
763,648	-11,43
763,831	60,24
764,015	-15,53
764,198	7
764,381	68,44
764,564	-13,48
764,748	23,38
764,931	-31,91
765,114	29,52
765,297	58,2
765,481	-31,91
765,664	60,24
765,847	-36,01
766,03	25,43
766,213	-9,39
766,397	23,38
766,58	-62,63
766,763	82,77
766,946	-89,26
767,129	-56,49
767,312	2,9
767,495	13,14
767,678	-85,16
767,861	-3,24
768,044	11,09
768,227	-13,48
768,41	-50,35
768,593	33,62
768,776	43,86
768,959	-29,87
769,142	23,38
769,324	19,29
769,507	-64,68
769,69	50
769,873	-15,53
770,056	0,85
770,239	-25,77
770,421	19,29
770,604	52,05
770,787	-9,39
770,97	19,29
771,152	-46,25
771,335	43,86
771,518	-27,82
771,7	27,48
771,883	23,38
772,066	0,85
772,248	-15,53
772,431	-44,2
772,613	9,05
772,796	17,24
772,978	45,91
773,161	68,44
773,343	23,38
773,526	7
773,708	-9,39
773,891	-33,96
774,073	15,19
774,256	-11,43
774,438	-13,48
774,621	-38,06
774,803	31,57
774,985	-42,15
775,168	52,05
775,35	-1,19
775,532	105,3
775,715	7
775,897	7
776,079	-48,3
776,261	15,19
776,444	25,43
776,626	9,05
776,808	99,16
776,99	-42,15
777,173	-54,44
777,355	68,44
777,537	-13,48
777,719	50
777,901	33,62
778,083	7
778,265	0,85
778,447	4,95
778,629	-5,29
778,811	23,38
778,993	47,96
779,175	68,44
779,357	-64,68
779,539	-42,15
779,721	27,48
779,903	-1,19
780,085	-50,35
780,267	-46,25
780,449	-17,58
780,631	15,19
780,812	-5,29
780,994	39,76
781,176	23,38
781,358	13,14
781,54	-15,53
781,721	72,53
781,903	-62,63
782,085	-50,35
782,267	19,29
782,448	9,05
782,63	-27,82
782,812	-44,2
782,993	-62,63
783,175	-7,34
783,357	23,38
783,538	-15,53
783,72	56,15
783,901	33,62
784,083	-1,19
784,264	17,24
784,446	29,52
784,627	31,57
784,809	50
784,99	31,57
785,172	-21,67
785,353	68,44
785,535	35,67
785,716	25,43
785,897	-62,63
786,079	-3,24
786,26	-1,19
786,441	70,48
786,623	-11,43
786,804	68,44
786,985	80,72
787,167	7
787,348	-56,49
787,529	62,29
787,71	11,09
787,891	7
788,073	-31,91
788,254	2,9
788,435	41,81
788,616	-52,39
788,797	-27,82
788,978	-29,87
789,159	0,85
789,34	56,15
789,522	-56,49
789,703	25,43
789,884	2,9
790,065	-33,96
790,246	58,2
790,427	2,9
790,607	-9,39
790,788	52,05
790,969	-5,29
791,15	125,78
791,331	-33,96
791,512	-21,67
791,693	25,43
791,874	35,67
792,054	84,82
792,235	80,72
792,416	45,91
792,597	-17,58
792,778	58,2
792,958	9,05
793,139	2,9
793,32	80,72
793,5	21,33
793,681	47,96
793,862	41,81
794,042	50
794,223	-56,49
794,404	-33,96
794,584	31,57
794,765	78,68
794,945	-11,43
795,126	80,72
795,306	17,24
795,487	25,43
795,667	-29,87
795,848	2,9
796,028	11,09
796,209	29,52
796,389	15,19
796,57	-15,53
796,75	-72,87
796,93	88,92
797,111	-50,35
797,291	-42,15
797,471	-40,11
797,652	70,48
797,832	-31,91
798,012	72,53
798,192	41,81
798,373	-33,96
798,553	-17,58
798,733	-19,63
798,913	74,58
799,093	17,24
799,274	80,72
799,454	-68,78
799,634	-58,54
799,814	-58,54
799,994	15,19
800,174	9,05
800,354	-15,53
800,534	-1,19
800,714	0,85
800,894	-23,72
801,074	-31,91
801,254	9,05
801,434	19,29
801,614	-5,29
801,794	-9,39
801,974	576,33
802,154	11,09
802,334	4,95
802,514	47,96
802,693	33,62
802,873	-21,67
803,053	-7,34
803,233	-11,43
803,413	41,81
803,592	9,05
803,772	50
803,952	23,38
804,131	23,38
804,311	0,85
804,491	74,58
804,67	-17,58
804,85	41,81
805,03	76,63
805,209	25,43
805,389	11,09
805,568	-23,72
805,748	-7,34
805,928	93,01
806,107	60,24
806,287	21,33
806,466	-31,91
806,646	41,81
806,825	-19,63
807,004	25,43
807,184	60,24
807,363	52,05
807,543	-1,19
807,722	-42,15
807,901	56,15
808,081	72,53
808,26	23,38
808,439	25,43
808,619	27,48
808,798	0,85
808,977	9,05
809,156	-83,11
809,336	-9,39
809,515	115,54
809,694	-38,06
809,873	-74,92
810,052	33,62
810,231	-38,06
810,411	70,48
810,59	58,2
810,769	-19,63
810,948	15,19
811,127	-87,21
811,306	7
811,485	25,43
811,664	76,63
811,843	0,85
812,022	-50,35
812,201	-27,82
812,38	9,05
812,559	-72,87
812,737	-40,11
812,916	-31,91
813,095	-25,77
813,274	62,29
813,453	35,67
813,632	-44,2
813,811	-25,77
813,989	27,48
814,168	72,53
814,347	60,24
814,526	-25,77
814,704	-54,44
814,883	50
815,062	50
815,24	58,2
815,419	-52,39
815,598	27,48
815,776	-27,82
815,955	31,57
816,133	-66,73
816,312	58,2
816,49	21,33
816,669	35,67
816,847	-50,35
817,026	-36,01
817,204	0,85
817,383	-1,19
817,561	-36,01
817,74	-48,3
817,918	25,43
818,097	-50,35
818,275	15,19
818,453	58,2
818,632	64,34
818,81	-85,16
818,988	13,14
819,167	-46,25
819,345	0,85
819,523	25,43
819,701	-13,48
819,879	-25,77
820,058	-50,35
820,236	-25,77
820,414	23,38
820,592	-38,06
820,77	7
820,948	-42,15
821,127	-9,39
821,305	64,34
821,483	-19,63
821,661	9,05
821,839	-13,48
822,017	7
822,195	47,96
822,373	56,15
822,551	-29,87
822,729	13,14
822,907	-60,59
823,085	-13,48
823,262	-38,06
823,44	-40,11
823,618	-17,58
823,796	-40,11
823,974	-21,67
824,152	-23,72
824,329	62,29
824,507	7
824,685	-15,53
824,863	50
825,04	29,52
825,218	13,14
825,396	-23,72
825,574	-19,63
825,751	60,24
825,929	97,11
826,107	11,09
826,284	2,9
826,462	39,76
826,639	31,57
826,817	-13,48
826,994	-15,53
827,172	-29,87
827,349	11,09
827,527	2,9
827,704	41,81
827,882	58,2
828,059	-48,3
828,237	11,09
828,414	80,72
828,591	-87,21
828,769	80,72
828,946	-25,77
829,124	27,48
829,301	15,19
829,478	39,76
829,655	-7,34
829,833	-58,54
830,01	-83,11
830,187	-7,34
830,364	-31,91
830,542	47,96
830,719	-33,96
830,896	31,57
831,073	52,05
831,25	68,44
831,427	56,15
831,604	-79,02
831,782	56,15
831,959	-7,34
832,136	-79,02
832,313	76,63
832,49	-64,68
832,667	-56,49
832,844	-21,67
833,021	-11,43
833,198	60,24
833,374	-25,77
833,551	27,48
833,728	29,52
833,905	19,29
834,082	-31,91
834,259	78,68
834,436	7
834,612	-21,67
834,789	-5,29
834,966	-29,87
835,143	27,48
835,319	-27,82
835,496	-29,87
835,673	56,15
835,85	80,72
836,026	-50,35
836,203	47,96
836,38	-7,34
836,556	-17,58
836,733	-15,53
836,909	-11,43
837,086	-1,19
837,262	-48,3
837,439	23,38
837,616	-50,35
837,792	17,24
837,968	-13,48
838,145	7
838,321	-1,19
838,498	-11,43
838,674	66,39
838,851	11,09
839,027	41,81
839,203	7
839,38	17,24
839,556	-15,53
839,732	52,05
839,909	-5,29
840,085	23,38
840,261	-1,19
840,437	52,05
840,614	-91,31
840,79	19,29
840,966	72,53
841,142	-9,39
841,318	64,34
841,494	-7,34
841,671	31,57
841,847	43,86
842,023	-33,96
842,199	-19,63
842,375	29,52
842,551	-9,39
842,727	-23,72
842,903	23,38
843,079	17,24
843,255	66,39
843,431	58,2
843,607	33,62
843,783	-1,19
843,959	88,92
844,134	-36,01
844,31	31,57
844,486	7
844,662	-3,24
844,838	2,9
845,013	33,62
845,189	-1,19
845,365	9,05
845,541	-25,77
845,716	-7,34
845,892	47,96
846,068	-21,67
846,244	-15,53
846,419	-23,72
846,595	-25,77
846,77	19,29
846,946	-44,2
847,122	27,48
847,297	52,05
847,473	90,96
847,648	-11,43
847,824	41,81
847,999	-62,63
848,175	15,19
848,35	-31,91
848,526	15,19
848,701	15,19
848,876	97,11
849,052	-25,77
849,227	-15,53
849,403	-3,24
849,578	0,85
849,753	86,87
849,929	4,95
850,104	-46,25
850,279	64,34
850,454	-3,24
850,63	50
850,805	-31,91
850,98	35,67
851,155	25,43
851,33	-5,29
851,505	31,57
851,681	39,76
851,856	-44,2
852,031	9,05
852,206	-33,96
852,381	17,24
852,556	70,48
852,731	35,67
852,906	7
853,081	27,48
853,256	47,96
853,431	19,29
853,606	-15,53
853,781	-72,87
853,956	-52,39
854,131	19,29
854,305	-5,29
854,48	39,76
854,655	-13,48
854,83	-48,3
855,005	41,81
855,18	33,62
855,354	35,67
855,529	62,29
855,704	-1,19
855,879	64,34
856,053	-27,82
856,228	15,19
856,403	58,2
856,577	-7,34
856,752	-11,43
856,926	39,76
857,101	7
857,276	-25,77
857,45	-5,29
857,625	-23,72
857,799	21,33
857,974	-19,63
858,148	-50,35
858,323	-25,77
858,497	-46,25
858,672	-9,39
858,846	-46,25
859,02	82,77
859,195	-48,3
859,369	-15,53
859,543	2,9
859,718	-42,15
859,892	-31,91
860,066	25,43
860,241	35,67
860,415	-25,77
860,589	-13,48
860,763	-50,35
860,938	19,29
861,112	-107,69
861,286	33,62
861,46	-50,35
861,634	19,29
861,808	-21,67
861,982	-25,77
862,157	-40,11
862,331	33,62
862,505	25,43
862,679	-42,15
862,853	-3,24
863,027	-5,29
863,201	0,85
863,375	27,48
863,549	11,09
863,722	72,53
863,896	50
864,07	-38,06
864,244	-66,73
864,418	17,24
864,592	-36,01
864,766	21,33
864,939	127,83
865,113	-1,19
865,287	50
865,461	9,05
865,634	-42,15
865,808	9,05
865,982	-19,63
866,156	-25,77
866,329	15,19
866,503	0,85
866,676	-7,34
866,85	-9,39
867,024	7
867,197	-33,96
867,371	15,19
867,544	9,05
867,718	-17,58
867,891	9,05
868,065	-1,19
868,238	-68,78
868,412	31,57
868,585	0,85
868,759	-33,96
868,932	7
869,105	-9,39
869,279	-58,54
869,452	7
869,625	7
869,799	15,19
869,972	-21,67
870,145	7
870,319	39,76
870,492	-21,67
870,665	33,62
870,838	9,05
871,011	-38,06
871,185	41,81
871,358	15,19
871,531	56,15
871,704	39,76
871,877	-3,24
872,05	-56,49
872,223	-1,19
872,396	19,29
872,569	56,15
872,742	7
872,915	29,52
873,088	-13,48
873,261	0,85
873,434	2,9
873,607	-1,19
873,78	-11,43
873,953	-33,96
874,126	-13,48
874,299	88,92
874,471	-40,11
874,644	-25,77
874,817	27,48
874,99	31,57
875,163	2,9
875,335	-17,58
875,508	-11,43
875,681	-31,91
875,853	-42,15
876,026	-5,29
876,199	58,2
876,371	17,24
876,544	0,85
876,717	47,96
876,889	45,91
877,062	-33,96
877,234	-76,97
877,407	58,2
877,579	-25,77
877,752	-31,91
877,924	68,44
878,097	39,76
878,269	-29,87
878,442	21,33
878,614	-46,25
878,786	-70,83
878,959	-46,25
879,131	23,38
879,303	-13,48
879,476	31,57
879,648	60,24
879,82	7
879,993	21,33
880,165	23,38
880,337	13,14
880,509	-56,49
880,681	-62,63
880,854	39,76
881,026	50
881,198	37,72
881,37	0,85
881,542	56,15
881,714	-33,96
881,886	-5,29
882,058	-19,63
882,23	47,96
882,402	-11,43
882,574	35,67
882,746	17,24
882,918	105,3
883,09	-11,43
883,262	47,96
883,434	-9,39
883,606	-62,63
883,778	27,48
883,95	50
884,122	-9,39
884,293	19,29
884,465	-52,39
884,637	-1,19
884,809	7
884,98	25,43
885,152	-38,06
885,324	41,81
885,496	17,24
885,667	4,95
885,839	-29,87
886,011	23,38
886,182	-3,24
886,354	37,72
886,525	-9,39
886,697	-31,91
886,869	23,38
887,04	-1,19
887,212	-40,11
887,383	74,58
887,555	-3,24
887,726	23,38
887,897	27,48
888,069	-25,77
888,24	62,29
888,412	-33,96
888,583	9,05
888,754	-15,53
888,926	-56,49
889,097	-46,25
889,268	11,09
889,44	64,34
889,611	-1,19
889,782	7
889,953	23,38
890,125	60,24
890,296	-7,34
890,467	31,57
890,638	15,19
890,809	25,43
890,98	-91,31
891,151	-72,87
891,323	7
891,494	47,96
891,665	13,14
891,836	-33,96
892,007	7
892,178	54,1
892,349	-1,19
892,52	0,85
892,691	-29,87
892,862	-44,2
893,032	-68,78
893,203	-3,24
893,374	-31,91
893,545	43,86
893,716	15,19
893,887	7
894,057	-5,29
894,228	29,52
894,399	31,57
894,57	-1,19
894,74	2,9
894,911	39,76
895,082	-5,29
895,253	0,85
895,423	21,33
895,594	84,82
895,764	27,48
895,935	-7,34
896,106	-3,24
896,276	-50,35
896,447	-29,87
896,617	0,85
896,788	33,62
896,958	-1,19
897,129	-74,92
897,299	-38,06
897,47	88,92
897,64	41,81
897,81	-64,68
897,981	2,9
898,151	-85,16
898,322	29,52
898,492	-17,58
898,662	-15,53
898,832	-33,96
899,003	-7,34
899,173	84,82
899,343	-72,87
899,513	-19,63
