Data from filtre430_USB4F104151__7__11-51-40-575.txt Node

Date: Wed Apr 15 11:51:40 EDT 2026
User: LaboPhy
Spectrometer: USB4F10415
Trigger mode: 4
Integration Time (sec): 2,500000E-2
Scans to average: 1
Electric dark correction enabled: true
Nonlinearity correction enabled: false
Boxcar width: 0
XAxis mode: Wavelengths
Number of Pixels in Spectrum: 3648
>>>>>Begin Spectral Data<<<<<
178,204	-73,73
178,424	-73,73
178,644	-73,73
178,864	-77,82
179,084	-98,3
179,304	10,24
179,524	-30,72
179,744	-28,67
179,964	75,77
180,184	24,58
180,404	-34,82
180,624	-38,91
180,844	51,2
181,064	-51,2
181,283	18,43
181,503	-49,15
181,723	53,25
181,943	-59,39
182,163	-6,14
182,383	26,62
182,602	59,39
182,822	53,25
183,042	67,58
183,262	18,43
183,482	10,24
183,701	10,24
183,921	-10,24
184,141	28,67
184,361	43,01
184,58	86,01
184,8	53,25
185,02	20,48
185,239	71,68
185,459	6,14
185,679	26,62
185,898	-22,53
186,118	45,06
186,338	16,38
186,557	77,82
186,777	-8,19
186,997	88,06
187,216	-10,24
187,436	90,11
187,655	47,1
187,875	14,34
188,095	38,91
188,314	81,92
188,534	100,35
188,753	92,16
188,973	36,86
189,192	14,34
189,412	63,49
189,631	53,25
189,851	18,43
190,07	43,01
190,29	-36,86
190,509	45,06
190,729	-14,34
190,948	10,24
191,168	155,65
191,387	141,31
191,607	-34,82
191,826	28,67
192,045	-59,39
192,265	38,91
192,484	75,77
192,704	34,82
192,923	-63,49
193,142	92,16
193,362	22,53
193,581	24,58
193,8	20,48
194,02	24,58
194,239	63,49
194,458	20,48
194,678	10,24
194,897	67,58
195,116	77,82
195,335	67,58
195,555	22,53
195,774	40,96
195,993	53,25
196,212	22,53
196,432	-26,62
196,651	8,19
196,87	-40,96
197,089	98,3
197,308	32,77
197,528	26,62
197,747	-16,38
197,966	38,91
198,185	67,58
198,404	86,01
198,623	30,72
198,842	34,82
199,062	2,05
199,281	67,58
199,5	79,87
199,719	81,92
199,938	-24,58
200,157	36,86
200,376	40,96
200,595	34,82
200,814	116,73
201,033	-12,29
201,252	71,68
201,471	2,05
201,69	77,82
201,909	10,24
202,128	43,01
202,347	-24,58
202,566	22,53
202,785	92,16
203,004	26,62
203,223	59,39
203,442	30,72
203,661	-51,2
203,879	14,34
204,098	90,11
204,317	16,38
204,536	30,72
204,755	2,05
204,974	24,58
205,193	45,06
205,411	108,54
205,63	69,63
205,849	-18,43
206,068	45,06
206,287	57,34
206,505	-20,48
206,724	65,54
206,943	73,73
207,162	-24,58
207,381	-47,1
207,599	36,86
207,818	34,82
208,037	-22,53
208,255	-59,39
208,474	73,73
208,693	-32,77
208,911	16,38
209,13	55,3
209,349	20,48
209,567	26,62
209,786	86,01
210,005	-4,1
210,223	151,55
210,442	32,77
210,661	-14,34
210,879	-22,53
211,098	-2,05
211,316	8,19
211,535	98,3
211,753	10,24
211,972	43,01
212,191	57,34
212,409	100,35
212,628	63,49
212,846	-6,14
213,065	-8,19
213,283	65,54
213,502	30,72
213,72	26,62
213,938	32,77
214,157	18,43
214,375	71,68
214,594	-4,1
214,812	8,19
215,031	-8,19
215,249	71,68
215,467	71,68
215,686	69,63
215,904	43,01
216,122	47,1
216,341	75,77
216,559	8,19
216,778	86,01
216,996	69,63
217,214	40,96
217,432	-18,43
217,651	36,86
217,869	34,82
218,087	-14,34
218,306	-16,38
218,524	122,88
218,742	22,53
218,96	-4,1
219,179	49,15
219,397	-24,58
219,615	67,58
219,833	88,06
220,051	-32,77
220,27	-12,29
220,488	8,19
220,706	67,58
220,924	-34,82
221,142	-22,53
221,36	43,01
221,578	20,48
221,796	45,06
222,015	12,29
222,233	65,54
222,451	104,45
222,669	45,06
222,887	55,3
223,105	4,1
223,323	67,58
223,541	-16,38
223,759	-6,14
223,977	43,01
224,195	67,58
224,413	53,25
224,631	59,39
224,849	-4,1
225,067	65,54
225,285	-14,34
225,503	57,34
225,721	-22,53
225,939	73,73
226,157	4,1
226,375	106,49
226,592	43,01
226,81	12,29
227,028	53,25
227,246	86,01
227,464	47,1
227,682	8,19
227,9	-20,48
228,117	43,01
228,335	38,91
228,553	10,24
228,771	20,48
228,989	4,1
229,206	51,2
229,424	-86,01
229,642	-104,45
229,86	-32,77
230,077	0
230,295	32,77
230,513	34,82
230,731	8,19
230,948	47,1
231,166	57,34
231,384	-20,48
231,601	102,4
231,819	20,48
232,037	-22,53
232,254	26,62
232,472	8,19
232,689	-34,82
232,907	18,43
233,125	20,48
233,342	-24,58
233,56	2,05
233,777	-22,53
233,995	4,1
234,213	4,1
234,43	8,19
234,648	0
234,865	22,53
235,083	32,77
235,3	6,14
235,518	-26,62
235,735	18,43
235,953	18,43
236,17	-4,1
236,388	24,58
236,605	-24,58
236,822	6,14
237,04	92,16
237,257	36,86
237,475	-20,48
237,692	34,82
237,909	-65,53
238,127	36,86
238,344	38,91
238,562	34,82
238,779	-26,62
238,996	92,16
239,214	0
239,431	38,91
239,648	-24,58
239,865	57,34
240,083	73,73
240,3	53,25
240,517	34,82
240,735	65,54
240,952	57,34
241,169	-38,91
241,386	83,97
241,603	57,34
241,821	-38,91
242,038	49,15
242,255	104,45
242,472	43,01
242,689	47,1
242,907	34,82
243,124	75,77
243,341	47,1
243,558	69,63
243,775	14,34
243,992	-49,15
244,209	2,05
244,426	141,31
244,643	75,77
244,86	34,82
245,078	24,58
245,295	-6,14
245,512	-16,38
245,729	53,25
245,946	81,92
246,163	20,48
246,38	96,25
246,597	2,05
246,814	69,63
247,031	8,19
247,248	88,06
247,464	0
247,681	36,86
247,898	16,38
248,115	38,91
248,332	-40,96
248,549	49,15
248,766	40,96
248,983	40,96
249,2	81,92
249,417	8,19
249,633	67,58
249,85	-22,53
250,067	10,24
250,284	8,19
250,501	61,44
250,717	18,43
250,934	-14,34
251,151	26,62
251,368	-6,14
251,585	53,25
251,801	8,19
252,018	-6,14
252,235	2,05
252,451	16,38
252,668	18,43
252,885	-8,19
253,102	36,86
253,318	-6,14
253,535	-20,48
253,752	10,24
253,968	-51,2
254,185	-81,92
254,401	22,53
254,618	24,58
254,835	18,43
255,051	24,58
255,268	40,96
255,484	34,82
255,701	51,2
255,917	6,14
256,134	-8,19
256,351	18,43
256,567	-28,67
256,784	4,1
257	-14,34
257,217	43,01
257,433	32,77
257,65	28,67
257,866	18,43
258,082	61,44
258,299	10,24
258,515	45,06
258,732	24,58
258,948	53,25
259,165	34,82
259,381	26,62
259,597	6,14
259,814	20,48
260,03	24,58
260,246	-8,19
260,463	71,68
260,679	57,34
260,895	65,54
261,112	32,77
261,328	-36,86
261,544	-24,58
261,761	110,59
261,977	4,1
262,193	2,05
262,409	57,34
262,626	6,14
262,842	-32,77
263,058	2,05
263,274	149,5
263,49	-83,97
263,707	53,25
263,923	81,92
264,139	71,68
264,355	28,67
264,571	45,06
264,787	-14,34
265,004	135,17
265,22	30,72
265,436	-12,29
265,652	-10,24
265,868	24,58
266,084	-106,49
266,3	28,67
266,516	2,05
266,732	90,11
266,948	22,53
267,164	49,15
267,38	20,48
267,596	18,43
267,812	53,25
268,028	20,48
268,244	-4,1
268,46	-2,05
268,676	40,96
268,892	73,73
269,108	75,77
269,324	6,14
269,54	4,1
269,756	83,97
269,972	-38,91
270,188	32,77
270,403	-28,67
270,619	18,43
270,835	83,97
271,051	43,01
271,267	-12,29
271,483	67,58
271,698	55,3
271,914	49,15
272,13	71,68
272,346	8,19
272,562	20,48
272,777	40,96
272,993	12,29
273,209	38,91
273,425	61,44
273,64	61,44
273,856	59,39
274,072	24,58
274,287	-30,72
274,503	16,38
274,719	12,29
274,934	2,05
275,15	-40,96
275,366	49,15
275,581	0
275,797	6,14
276,012	102,4
276,228	63,49
276,444	69,63
276,659	18,43
276,875	-36,86
277,09	-6,14
277,306	-43,01
277,521	36,86
277,737	57,34
277,952	26,62
278,168	49,15
278,383	4,1
278,599	-51,2
278,814	59,39
279,03	36,86
279,245	118,78
279,461	61,44
279,676	90,11
279,892	24,58
280,107	57,34
280,322	-57,34
280,538	47,1
280,753	10,24
280,969	65,54
281,184	38,91
281,399	40,96
281,615	-14,34
281,83	55,3
282,045	30,72
282,26	8,19
282,476	30,72
282,691	43,01
282,906	-14,34
283,122	32,77
283,337	32,77
283,552	32,77
283,767	77,82
283,983	-6,14
284,198	2,05
284,413	69,63
284,628	-38,91
284,843	43,01
285,058	26,62
285,274	10,24
285,489	-20,48
285,704	88,06
285,919	55,3
286,134	-24,58
286,349	28,67
286,564	38,91
286,779	86,01
286,995	69,63
287,21	-71,68
287,425	16,38
287,64	-28,67
287,855	63,49
288,07	-55,3
288,285	53,25
288,5	22,53
288,715	75,77
288,93	-36,86
289,145	-36,86
289,36	10,24
289,575	20,48
289,79	10,24
290,004	45,06
290,219	96,25
290,434	22,53
290,649	-53,25
290,864	-32,77
291,079	-24,58
291,294	45,06
291,509	16,38
291,724	-32,77
291,938	24,58
292,153	81,92
292,368	20,48
292,583	-34,82
292,798	6,14
293,012	30,72
293,227	0
293,442	12,29
293,657	36,86
293,871	73,73
294,086	-20,48
294,301	77,82
294,516	40,96
294,73	10,24
294,945	45,06
295,16	36,86
295,374	73,73
295,589	131,07
295,804	-8,19
296,018	57,34
296,233	10,24
296,447	83,97
296,662	24,58
296,877	73,73
297,091	71,68
297,306	-38,91
297,52	36,86
297,735	24,58
297,949	12,29
298,164	34,82
298,378	90,11
298,593	8,19
298,807	32,77
299,022	79,87
299,236	-4,1
299,451	71,68
299,665	45,06
299,88	28,67
300,094	61,44
300,309	65,54
300,523	-57,34
300,737	-6,14
300,952	30,72
301,166	20,48
301,381	57,34
301,595	2,05
301,809	16,38
302,024	69,63
302,238	4,1
302,452	126,97
302,667	26,62
302,881	61,44
303,095	69,63
303,309	8,19
303,524	49,15
303,738	57,34
303,952	57,34
304,166	24,58
304,381	-34,82
304,595	53,25
304,809	32,77
305,023	28,67
305,237	26,62
305,452	32,77
305,666	-43,01
305,88	98,3
306,094	-14,34
306,308	88,06
306,522	8,19
306,736	61,44
306,95	40,96
307,164	32,77
307,379	43,01
307,593	77,82
307,807	36,86
308,021	38,91
308,235	-8,19
308,449	-34,82
308,663	-18,43
308,877	100,35
309,091	61,44
309,305	59,39
309,519	-47,1
309,733	71,68
309,947	67,58
310,161	-8,19
310,374	26,62
310,588	-10,24
310,802	-24,58
311,016	83,97
311,23	88,06
311,444	51,2
311,658	40,96
311,872	57,34
312,085	67,58
312,299	24,58
312,513	51,2
312,727	45,06
312,941	-8,19
313,154	43,01
313,368	28,67
313,582	69,63
313,796	71,68
314,009	-12,29
314,223	129,02
314,437	0
314,651	-10,24
314,864	-51,2
315,078	22,53
315,292	59,39
315,505	4,1
315,719	36,86
315,933	0
316,146	73,73
316,36	14,34
316,573	49,15
316,787	65,54
317,001	67,58
317,214	49,15
317,428	10,24
317,641	59,39
317,855	45,06
318,068	20,48
318,282	122,88
318,495	106,49
318,709	104,45
318,922	6,14
319,136	6,14
319,349	55,3
319,563	-47,1
319,776	-32,77
319,99	47,1
320,203	57,34
320,417	59,39
320,63	18,43
320,843	-4,1
321,057	43,01
321,27	-16,38
321,483	24,58
321,697	90,11
321,91	-16,38
322,124	-71,68
322,337	98,3
322,55	0
322,763	0
322,977	65,54
323,19	49,15
323,403	18,43
323,617	71,68
323,83	139,26
324,043	-26,62
324,256	32,77
324,469	-32,77
324,683	61,44
324,896	83,97
325,109	20,48
325,322	-40,96
325,535	26,62
325,748	20,48
325,962	81,92
326,175	40,96
326,388	126,97
326,601	49,15
326,814	-26,62
327,027	57,34
327,24	24,58
327,453	18,43
327,666	28,67
327,879	32,77
328,092	86,01
328,305	88,06
328,518	14,34
328,731	65,54
328,944	-63,49
329,157	36,86
329,37	43,01
329,583	0
329,796	88,06
330,009	-18,43
330,222	-2,05
330,435	34,82
330,648	69,63
330,861	14,34
331,073	-14,34
331,286	55,3
331,499	-8,19
331,712	-24,58
331,925	28,67
332,138	6,14
332,35	18,43
332,563	20,48
332,776	106,49
332,989	10,24
333,202	69,63
333,414	-16,38
333,627	16,38
333,84	65,54
334,053	-16,38
334,265	28,67
334,478	20,48
334,691	34,82
334,903	47,1
335,116	51,2
335,329	32,77
335,541	67,58
335,754	55,3
335,966	-14,34
336,179	45,06
336,392	43,01
336,604	34,82
336,817	26,62
337,029	0
337,242	16,38
337,454	45,06
337,667	-10,24
337,88	51,2
338,092	51,2
338,305	59,39
338,517	16,38
338,729	57,34
338,942	34,82
339,154	18,43
339,367	30,72
339,579	0
339,792	122,88
340,004	98,3
340,217	12,29
340,429	24,58
340,641	16,38
340,854	24,58
341,066	24,58
341,278	24,58
341,491	118,78
341,703	28,67
341,915	0
342,128	59,39
342,34	-26,62
342,552	6,14
342,764	-20,48
342,977	-4,1
343,189	57,34
343,401	24,58
343,613	92,16
343,826	71,68
344,038	26,62
344,25	24,58
344,462	-12,29
344,674	-8,19
344,886	8,19
345,099	8,19
345,311	133,12
345,523	40,96
345,735	-34,82
345,947	81,92
346,159	28,67
346,371	49,15
346,583	14,34
346,795	71,68
347,007	-40,96
347,219	55,3
347,431	20,48
347,643	53,25
347,855	10,24
348,067	61,44
348,279	-63,49
348,491	45,06
348,703	61,44
348,915	-24,58
349,127	2,05
349,339	30,72
349,551	-4,1
349,763	12,29
349,975	2,05
350,187	57,34
350,399	120,83
350,61	-22,53
350,822	-6,14
351,034	120,83
351,246	-34,82
351,458	2,05
351,669	-14,34
351,881	75,77
352,093	0
352,305	8,19
352,517	-38,91
352,728	83,97
352,94	53,25
353,152	67,58
353,363	59,39
353,575	108,54
353,787	47,1
353,999	65,54
354,21	65,54
354,422	73,73
354,633	45,06
354,845	43,01
355,057	81,92
355,268	2,05
355,48	100,35
355,692	34,82
355,903	32,77
356,115	-30,72
356,326	-65,53
356,538	77,82
356,749	22,53
356,961	63,49
357,172	43,01
357,384	55,3
357,595	73,73
357,807	51,2
358,018	-6,14
358,23	30,72
358,441	-8,19
358,653	-12,29
358,864	61,44
359,075	24,58
359,287	12,29
359,498	36,86
359,709	2,05
359,921	-22,53
360,132	59,39
360,344	20,48
360,555	36,86
360,766	47,1
360,977	6,14
361,189	-4,1
361,4	-20,48
361,611	24,58
361,823	36,86
362,034	40,96
362,245	18,43
362,456	-22,53
362,667	16,38
362,879	40,96
363,09	86,01
363,301	-6,14
363,512	36,86
363,723	12,29
363,935	43,01
364,146	59,39
364,357	49,15
364,568	4,1
364,779	30,72
364,99	67,58
365,201	28,67
365,412	90,11
365,623	-14,34
365,834	-10,24
366,045	73,73
366,256	4,1
366,467	-14,34
366,678	45,06
366,889	20,48
367,1	-24,58
367,311	69,63
367,522	73,73
367,733	57,34
367,944	36,86
368,155	26,62
368,366	40,96
368,577	108,54
368,788	30,72
368,999	8,19
369,209	155,65
369,42	69,63
369,631	57,34
369,842	92,16
370,053	-26,62
370,264	30,72
370,474	-30,72
370,685	49,15
370,896	94,21
371,107	81,92
371,317	110,59
371,528	-18,43
371,739	59,39
371,95	-20,48
372,16	26,62
372,371	53,25
372,582	45,06
372,792	26,62
373,003	86,01
373,214	12,29
373,424	26,62
373,635	45,06
373,846	124,93
374,056	79,87
374,267	8,19
374,477	22,53
374,688	16,38
374,898	24,58
375,109	34,82
375,319	-8,19
375,53	32,77
375,74	20,48
375,951	67,58
376,161	65,54
376,372	67,58
376,582	-20,48
376,793	47,1
377,003	40,96
377,214	92,16
377,424	94,21
377,635	51,2
377,845	-45,06
378,055	40,96
378,266	10,24
378,476	8,19
378,686	69,63
378,897	55,3
379,107	8,19
379,317	8,19
379,528	-4,1
379,738	-2,05
379,948	-34,82
380,158	53,25
380,369	6,14
380,579	20,48
380,789	36,86
380,999	16,38
381,21	61,44
381,42	108,54
381,63	26,62
381,84	24,58
382,05	40,96
382,261	16,38
382,471	145,41
382,681	45,06
382,891	40,96
383,101	26,62
383,311	61,44
383,521	4,1
383,731	43,01
383,941	57,34
384,151	65,54
384,361	24,58
384,571	110,59
384,781	26,62
384,991	71,68
385,201	30,72
385,411	49,15
385,621	40,96
385,831	24,58
386,041	63,49
386,251	32,77
386,461	69,63
386,671	26,62
386,881	16,38
387,091	34,82
387,301	32,77
387,511	40,96
387,72	139,26
387,93	22,53
388,14	20,48
388,35	-8,19
388,56	59,39
388,769	20,48
388,979	38,91
389,189	30,72
389,399	-6,14
389,609	32,77
389,818	73,73
390,028	-4,1
390,238	71,68
390,447	81,92
390,657	73,73
390,867	-6,14
391,076	-77,82
391,286	57,34
391,496	38,91
391,705	30,72
391,915	63,49
392,125	65,54
392,334	32,77
392,544	4,1
392,753	-34,82
392,963	75,77
393,172	90,11
393,382	51,2
393,591	32,77
393,801	16,38
394,01	34,82
394,22	-10,24
394,429	71,68
394,639	10,24
394,848	-10,24
395,058	-18,43
395,267	43,01
395,477	43,01
395,686	8,19
395,895	126,97
396,105	147,45
396,314	-32,77
396,524	0
396,733	61,44
396,942	112,64
397,152	49,15
397,361	49,15
397,57	36,86
397,78	22,53
397,989	-30,72
398,198	131,07
398,407	40,96
398,617	4,1
398,826	69,63
399,035	98,3
399,244	94,21
399,453	61,44
399,663	-16,38
399,872	32,77
400,081	-28,67
400,29	79,87
400,499	-10,24
400,708	102,4
400,917	14,34
401,127	55,3
401,336	34,82
401,545	16,38
401,754	86,01
401,963	77,82
402,172	22,53
402,381	22,53
402,59	81,92
402,799	112,64
403,008	71,68
403,217	47,1
403,426	108,54
403,635	-38,91
403,844	10,24
404,053	2,05
404,262	77,82
404,471	79,87
404,68	30,72
404,888	20,48
405,097	4,1
405,306	98,3
405,515	71,68
405,724	49,15
405,933	120,83
406,142	67,58
406,35	-20,48
406,559	40,96
406,768	86,01
406,977	131,07
407,185	45,06
407,394	47,1
407,603	-2,05
407,812	45,06
408,02	116,73
408,229	116,73
408,438	38,91
408,646	106,49
408,855	102,4
409,064	-6,14
409,272	6,14
409,481	96,25
409,69	0
409,898	69,63
410,107	16,38
410,315	100,35
410,524	24,58
410,733	10,24
410,941	61,44
411,15	75,77
411,358	112,64
411,567	96,25
411,775	69,63
411,984	73,73
412,192	77,82
412,401	57,34
412,609	106,49
412,818	90,11
413,026	20,48
413,234	73,73
413,443	53,25
413,651	79,87
413,86	55,3
414,068	106,49
414,276	86,01
414,485	43,01
414,693	81,92
414,901	124,93
415,11	57,34
415,318	79,87
415,526	49,15
415,734	147,45
415,943	129,02
416,151	79,87
416,359	75,77
416,567	90,11
416,776	157,69
416,984	135,17
417,192	20,48
417,4	73,73
417,608	112,64
417,817	0
418,025	69,63
418,233	106,49
418,441	36,86
418,649	43,01
418,857	90,11
419,065	55,3
419,273	102,4
419,481	86,01
419,689	22,53
419,897	100,35
420,105	47,1
420,313	141,31
420,521	69,63
420,729	139,26
420,937	8,19
421,145	126,97
421,353	118,78
421,561	172,03
421,769	161,79
421,977	114,69
422,185	178,17
422,393	49,15
422,601	131,07
422,809	141,31
423,017	137,21
423,224	200,7
423,432	204,8
423,64	215,04
423,848	229,37
424,056	268,28
424,263	215,04
424,471	219,13
424,679	296,96
424,887	356,35
425,094	323,58
425,302	339,96
425,51	466,94
425,718	409,59
425,925	473,08
426,133	655,35
426,341	628,73
426,548	716,79
426,756	792,56
426,964	897,01
427,171	976,88
427,379	1114,1
427,586	1175,53
427,794	1327,08
428,001	1658,85
428,209	1945,57
428,417	2107,36
428,624	2594,78
428,832	2756,57
429,039	3100,62
429,247	3360,72
429,454	4089,79
429,662	5164,98
429,869	5214,13
430,076	6242,21
430,284	6893,46
430,491	8073,09
430,699	9627,5
430,906	10782,56
431,114	11958,09
431,321	13848,36
431,528	15005,47
431,736	17938,16
431,943	19861,2
432,15	21198,52
432,358	22402,73
432,565	25546,36
432,772	27164,26
432,979	29716,03
433,187	31082,02
433,394	32558,61
433,601	36257,24
433,808	37113,29
434,016	37170,63
434,223	39585,19
434,43	42192,25
434,637	42093,95
434,844	44137,82
435,052	45135,18
435,259	44146,01
435,466	44625,24
435,673	43961,7
435,88	46081,34
436,087	48209,18
436,294	48135,46
436,501	46740,79
436,708	46892,34
436,915	48280,86
437,122	49036,56
437,329	47557,93
437,537	49632,52
437,743	49988,87
437,95	48276,77
438,157	49927,43
438,364	51821,8
438,571	51047,67
438,778	49753,35
438,985	52888,79
439,192	50828,54
439,399	51985,64
439,606	50394,37
439,813	51512,56
440,02	53800,14
440,227	51129,59
440,433	49468,69
440,64	50025,73
440,847	48119,07
441,054	47357,23
441,261	47951,14
441,467	45192,53
441,674	43840,87
441,881	42173,82
442,088	39558,56
442,294	36515,28
442,501	34569,71
442,708	32024,09
442,914	29685,31
443,121	27629,15
443,328	24147,6
443,534	22894,24
443,741	19531,48
443,948	16549,64
444,154	15804,17
444,361	13510,45
444,568	11681,61
444,774	10114,92
444,981	8843,13
445,187	7915,4
445,394	7151,51
445,6	5990,31
445,807	5715,88
446,013	4745,14
446,22	4147,14
446,426	3852,23
446,633	3264,46
446,839	2932,69
447,046	2617,3
447,252	2392,03
447,459	2138,08
447,665	1853,41
447,871	1748,97
448,078	1572,84
448,284	1361,9
448,491	1255,4
448,697	1208,3
448,903	1056,75
449,11	968,69
449,316	862,19
449,522	876,53
449,728	690,17
449,935	708,6
450,141	626,68
450,347	679,93
450,553	559,1
450,76	526,33
450,966	413,69
451,172	425,98
451,378	464,89
451,584	438,27
451,791	458,75
451,997	303,1
452,203	315,39
452,409	425,98
452,615	292,86
452,821	221,18
453,027	221,18
453,233	278,52
453,44	221,18
453,646	188,41
453,852	245,76
454,058	221,18
454,264	83,97
454,47	204,8
454,676	155,65
454,882	223,23
455,088	180,22
455,294	196,61
455,5	210,94
455,705	208,89
455,911	147,45
456,117	137,21
456,323	174,08
456,529	67,58
456,735	81,92
456,941	88,06
457,147	81,92
457,352	75,77
457,558	92,16
457,764	106,49
457,97	151,55
458,176	73,73
458,381	67,58
458,587	159,74
458,793	147,45
458,999	71,68
459,204	90,11
459,41	86,01
459,616	59,39
459,821	26,62
460,027	40,96
460,233	88,06
460,438	108,54
460,644	32,77
460,85	94,21
461,055	53,25
461,261	106,49
461,466	67,58
461,672	86,01
461,878	104,45
462,083	83,97
462,289	16,38
462,494	73,73
462,7	81,92
462,905	34,82
463,111	106,49
463,316	141,31
463,522	131,07
463,727	-28,67
463,932	94,21
464,138	114,69
464,343	88,06
464,549	96,25
464,754	30,72
464,959	51,2
465,165	24,58
465,37	71,68
465,575	69,63
465,781	12,29
465,986	36,86
466,191	90,11
466,397	22,53
466,602	92,16
466,807	45,06
467,012	77,82
467,218	34,82
467,423	98,3
467,628	90,11
467,833	2,05
468,038	-4,1
468,244	40,96
468,449	14,34
468,654	67,58
468,859	36,86
469,064	92,16
469,269	73,73
469,474	81,92
469,679	65,54
469,885	155,65
470,09	55,3
470,295	49,15
470,5	-2,05
470,705	53,25
470,91	26,62
471,115	122,88
471,32	36,86
471,525	22,53
471,73	96,25
471,935	53,25
472,139	43,01
472,344	43,01
472,549	6,14
472,754	24,58
472,959	102,4
473,164	24,58
473,369	53,25
473,574	77,82
473,778	-10,24
473,983	4,1
474,188	59,39
474,393	65,54
474,598	53,25
474,802	45,06
475,007	69,63
475,212	65,54
475,417	8,19
475,621	32,77
475,826	61,44
476,031	73,73
476,235	-6,14
476,44	40,96
476,645	67,58
476,849	4,1
477,054	45,06
477,259	-14,34
477,463	49,15
477,668	43,01
477,872	77,82
478,077	100,35
478,282	-81,92
478,486	53,25
478,691	73,73
478,895	16,38
479,1	43,01
479,304	65,54
479,509	16,38
479,713	114,69
479,918	-2,05
480,122	90,11
480,326	40,96
480,531	16,38
480,735	18,43
480,94	-6,14
481,144	104,45
481,348	90,11
481,553	110,59
481,757	36,86
481,961	-6,14
482,166	-2,05
482,37	53,25
482,574	59,39
482,778	16,38
482,983	8,19
483,187	79,87
483,391	18,43
483,595	92,16
483,8	26,62
484,004	49,15
484,208	26,62
484,412	8,19
484,616	81,92
484,821	-4,1
485,025	-16,38
485,229	16,38
485,433	34,82
485,637	-65,53
485,841	43,01
486,045	45,06
486,249	90,11
486,453	24,58
486,657	106,49
486,861	36,86
487,065	43,01
487,269	16,38
487,473	38,91
487,677	8,19
487,881	122,88
488,085	36,86
488,289	57,34
488,493	77,82
488,697	69,63
488,901	34,82
489,105	57,34
489,309	30,72
489,512	83,97
489,716	-10,24
489,92	38,91
490,124	0
490,328	57,34
490,531	100,35
490,735	81,92
490,939	40,96
491,143	57,34
491,346	32,77
491,55	24,58
491,754	55,3
491,958	18,43
492,161	-8,19
492,365	28,67
492,569	36,86
492,772	-16,38
492,976	65,54
493,18	28,67
493,383	10,24
493,587	-14,34
493,79	67,58
493,994	8,19
494,197	61,44
494,401	59,39
494,605	30,72
494,808	75,77
495,012	36,86
495,215	71,68
495,419	69,63
495,622	34,82
495,825	53,25
496,029	90,11
496,232	18,43
496,436	51,2
496,639	14,34
496,843	-6,14
497,046	14,34
497,249	98,3
497,453	20,48
497,656	0
497,859	-67,58
498,063	135,17
498,266	24,58
498,469	-53,25
498,673	38,91
498,876	0
499,079	61,44
499,282	28,67
499,485	180,22
499,689	71,68
499,892	63,49
500,095	73,73
500,298	59,39
500,501	96,25
500,705	-16,38
500,908	139,26
501,111	32,77
501,314	32,77
501,517	36,86
501,72	61,44
501,923	8,19
502,126	-6,14
502,329	65,54
502,532	118,78
502,735	26,62
502,938	51,2
503,141	28,67
503,344	65,54
503,547	24,58
503,75	81,92
503,953	-2,05
504,156	108,54
504,359	12,29
504,562	75,77
504,765	10,24
504,968	-20,48
505,17	59,39
505,373	45,06
505,576	28,67
505,779	20,48
505,982	34,82
506,185	45,06
506,387	75,77
506,59	34,82
506,793	20,48
506,996	81,92
507,198	45,06
507,401	94,21
507,604	-28,67
507,807	-6,14
508,009	24,58
508,212	55,3
508,415	57,34
508,617	28,67
508,82	81,92
509,022	75,77
509,225	77,82
509,428	108,54
509,63	30,72
509,833	32,77
510,035	77,82
510,238	61,44
510,44	18,43
510,643	94,21
510,845	73,73
511,048	75,77
511,25	16,38
511,453	12,29
511,655	118,78
511,858	116,73
512,06	110,59
512,262	43,01
512,465	139,26
512,667	75,77
512,87	38,91
513,072	83,97
513,274	51,2
513,477	30,72
513,679	47,1
513,881	8,19
514,084	-12,29
514,286	118,78
514,488	81,92
514,69	8,19
514,893	-4,1
515,095	0
515,297	-14,34
515,499	-24,58
515,701	16,38
515,904	40,96
516,106	-14,34
516,308	110,59
516,51	0
516,712	43,01
516,914	-30,72
517,116	-28,67
517,318	53,25
517,52	-14,34
517,722	4,1
517,925	40,96
518,127	59,39
518,329	77,82
518,531	40,96
518,733	53,25
518,935	34,82
519,136	81,92
519,338	-49,15
519,54	59,39
519,742	6,14
519,944	79,87
520,146	-36,86
520,348	69,63
520,55	20,48
520,752	24,58
520,954	45,06
521,155	88,06
521,357	0
521,559	126,97
521,761	-16,38
521,963	57,34
522,164	59,39
522,366	40,96
522,568	-16,38
522,77	-40,96
522,971	-8,19
523,173	10,24
523,375	18,43
523,576	38,91
523,778	0
523,98	45,06
524,181	49,15
524,383	40,96
524,584	0
524,786	69,63
524,988	16,38
525,189	16,38
525,391	40,96
525,592	30,72
525,794	-26,62
525,995	-12,29
526,197	-38,91
526,398	40,96
526,6	38,91
526,801	16,38
527,003	24,58
527,204	40,96
527,406	73,73
527,607	40,96
527,808	-20,48
528,01	51,2
528,211	73,73
528,412	0
528,614	-26,62
528,815	43,01
529,016	45,06
529,218	88,06
529,419	8,19
529,62	100,35
529,822	-20,48
530,023	65,54
530,224	6,14
530,425	40,96
530,626	-57,34
530,828	38,91
531,029	38,91
531,23	18,43
531,431	16,38
531,632	49,15
531,833	90,11
532,035	-53,25
532,236	-24,58
532,437	18,43
532,638	18,43
532,839	59,39
533,04	59,39
533,241	6,14
533,442	22,53
533,643	124,93
533,844	38,91
534,045	32,77
534,246	34,82
534,447	-40,96
534,648	24,58
534,849	10,24
535,05	51,2
535,251	22,53
535,451	-4,1
535,652	14,34
535,853	49,15
536,054	32,77
536,255	12,29
536,456	28,67
536,657	118,78
536,857	57,34
537,058	-49,15
537,259	4,1
537,46	-30,72
537,66	32,77
537,861	26,62
538,062	32,77
538,263	10,24
538,463	12,29
538,664	-49,15
538,865	14,34
539,065	22,53
539,266	40,96
539,466	2,05
539,667	38,91
539,868	49,15
540,068	10,24
540,269	26,62
540,469	40,96
540,67	28,67
540,87	63,49
541,071	2,05
541,271	22,53
541,472	12,29
541,672	14,34
541,873	-4,1
542,073	55,3
542,274	4,1
542,474	47,1
542,675	71,68
542,875	-18,43
543,075	24,58
543,276	22,53
543,476	47,1
543,676	12,29
543,877	-16,38
544,077	77,82
544,277	-4,1
544,478	45,06
544,678	-8,19
544,878	57,34
545,078	4,1
545,279	28,67
545,479	98,3
545,679	-14,34
545,879	14,34
546,079	-32,77
546,28	-36,86
546,48	-28,67
546,68	-6,14
546,88	67,58
547,08	0
547,28	43,01
547,48	-22,53
547,68	-12,29
547,88	38,91
548,081	26,62
548,281	30,72
548,481	45,06
548,681	67,58
548,881	-43,01
549,081	49,15
549,28	34,82
549,48	-49,15
549,68	81,92
549,88	-10,24
550,08	57,34
550,28	-6,14
550,48	131,07
550,68	98,3
550,88	59,39
551,08	53,25
551,279	38,91
551,479	102,4
551,679	49,15
551,879	34,82
552,079	24,58
552,278	90,11
552,478	24,58
552,678	-4,1
552,878	36,86
553,077	-2,05
553,277	-57,34
553,477	51,2
553,676	57,34
553,876	24,58
554,076	16,38
554,275	16,38
554,475	8,19
554,674	110,59
554,874	2,05
555,074	-55,3
555,273	65,54
555,473	-18,43
555,672	26,62
555,872	73,73
556,071	18,43
556,271	57,34
556,47	63,49
556,67	2,05
556,869	57,34
557,068	63,49
557,268	0
557,467	57,34
557,667	98,3
557,866	24,58
558,065	34,82
558,265	-8,19
558,464	-26,62
558,663	2,05
558,863	-32,77
559,062	114,69
559,261	67,58
559,461	10,24
559,66	30,72
559,859	-30,72
560,058	69,63
560,258	-14,34
560,457	24,58
560,656	36,86
560,855	0
561,054	131,07
561,253	71,68
561,453	28,67
561,652	53,25
561,851	86,01
562,05	14,34
562,249	-43,01
562,448	34,82
562,647	32,77
562,846	36,86
563,045	43,01
563,244	65,54
563,443	32,77
563,642	-16,38
563,841	34,82
564,04	32,77
564,239	30,72
564,438	-81,92
564,637	10,24
564,836	18,43
565,035	-30,72
565,234	16,38
565,432	-40,96
565,631	67,58
565,83	-4,1
566,029	24,58
566,228	32,77
566,427	-18,43
566,625	4,1
566,824	65,54
567,023	36,86
567,222	98,3
567,42	40,96
567,619	20,48
567,818	40,96
568,016	98,3
568,215	32,77
568,414	40,96
568,612	16,38
568,811	8,19
569,01	47,1
569,208	43,01
569,407	75,77
569,605	-8,19
569,804	-8,19
570,002	24,58
570,201	-26,62
570,4	40,96
570,598	47,1
570,797	18,43
570,995	4,1
571,193	55,3
571,392	4,1
571,59	28,67
571,789	0
571,987	57,34
572,186	-8,19
572,384	49,15
572,582	-53,25
572,781	90,11
572,979	12,29
573,177	4,1
573,376	-36,86
573,574	49,15
573,772	16,38
573,971	98,3
574,169	-110,59
574,367	90,11
574,565	18,43
574,763	10,24
574,962	59,39
575,16	45,06
575,358	0
575,556	-18,43
575,754	34,82
575,952	0
576,151	-24,58
576,349	-40,96
576,547	0
576,745	32,77
576,943	28,67
577,141	-40,96
577,339	-12,29
577,537	110,59
577,735	-4,1
577,933	55,3
578,131	-59,39
578,329	67,58
578,527	30,72
578,725	36,86
578,923	18,43
579,121	36,86
579,319	51,2
579,516	6,14
579,714	122,88
579,912	126,97
580,11	-6,14
580,308	10,24
580,506	-24,58
580,704	-40,96
580,901	18,43
581,099	57,34
581,297	-2,05
581,495	59,39
581,692	49,15
581,89	61,44
582,088	26,62
582,285	90,11
582,483	14,34
582,681	0
582,878	8,19
583,076	92,16
583,274	-30,72
583,471	90,11
583,669	-22,53
583,866	28,67
584,064	-55,3
584,262	92,16
584,459	6,14
584,657	30,72
584,854	81,92
585,052	73,73
585,249	77,82
585,447	18,43
585,644	20,48
585,841	92,16
586,039	49,15
586,236	18,43
586,434	43,01
586,631	34,82
586,828	24,58
587,026	22,53
587,223	-32,77
587,42	32,77
587,618	18,43
587,815	65,54
588,012	10,24
588,21	-6,14
588,407	73,73
588,604	43,01
588,801	-10,24
588,999	88,06
589,196	8,19
589,393	12,29
589,59	133,12
589,787	65,54
589,984	71,68
590,182	-77,82
590,379	59,39
590,576	-14,34
590,773	14,34
590,97	-8,19
591,167	18,43
591,364	-61,44
591,561	24,58
591,758	32,77
591,955	-20,48
592,152	0
592,349	86,01
592,546	-69,63
592,743	2,05
592,94	14,34
593,137	102,4
593,334	61,44
593,531	16,38
593,727	86,01
593,924	92,16
594,121	0
594,318	-4,1
594,515	36,86
594,712	45,06
594,908	4,1
595,105	-40,96
595,302	16,38
595,499	-8,19
595,696	32,77
595,892	36,86
596,089	90,11
596,286	-6,14
596,482	83,97
596,679	38,91
596,876	6,14
597,072	61,44
597,269	-69,63
597,466	-12,29
597,662	-16,38
597,859	-61,44
598,055	-14,34
598,252	73,73
598,448	10,24
598,645	8,19
598,841	45,06
599,038	73,73
599,234	-18,43
599,431	6,14
599,627	28,67
599,824	30,72
600,02	-59,39
600,217	-18,43
600,413	20,48
600,609	49,15
600,806	112,64
601,002	49,15
601,198	22,53
601,395	75,77
601,591	20,48
601,787	77,82
601,984	63,49
602,18	-18,43
602,376	-49,15
602,572	22,53
602,769	-28,67
602,965	16,38
603,161	67,58
603,357	-14,34
603,553	83,97
603,75	86,01
603,946	-16,38
604,142	-73,73
604,338	10,24
604,534	-34,82
604,73	12,29
604,926	8,19
605,122	131,07
605,318	14,34
605,514	83,97
605,71	36,86
605,906	2,05
606,102	-57,34
606,298	69,63
606,494	34,82
606,69	65,54
606,886	28,67
607,082	-2,05
607,278	2,05
607,474	-8,19
607,67	92,16
607,866	-34,82
608,062	28,67
608,257	-24,58
608,453	-22,53
608,649	45,06
608,845	16,38
609,041	43,01
609,236	-45,06
609,432	34,82
609,628	55,3
609,824	6,14
610,019	-16,38
610,215	22,53
610,411	59,39
610,606	59,39
610,802	-40,96
610,998	8,19
611,193	12,29
611,389	-8,19
611,584	30,72
611,78	-30,72
611,976	63,49
612,171	73,73
612,367	6,14
612,562	92,16
612,758	36,86
612,953	-6,14
613,149	32,77
613,344	-2,05
613,539	-8,19
613,735	55,3
613,93	-8,19
614,126	-24,58
614,321	167,93
614,517	147,45
614,712	-32,77
614,907	43,01
615,103	0
615,298	6,14
615,493	-8,19
615,688	4,1
615,884	20,48
616,079	-16,38
616,274	0
616,47	-49,15
616,665	4,1
616,86	-24,58
617,055	-20,48
617,25	28,67
617,445	16,38
617,641	-38,91
617,836	-4,1
618,031	43,01
618,226	20,48
618,421	86,01
618,616	0
618,811	38,91
619,006	-45,06
619,201	57,34
619,396	-12,29
619,591	69,63
619,786	-24,58
619,981	57,34
620,176	-8,19
620,371	10,24
620,566	43,01
620,761	57,34
620,956	2,05
621,151	4,1
621,346	59,39
621,541	40,96
621,735	73,73
621,93	26,62
622,125	6,14
622,32	-47,1
622,515	8,19
622,709	81,92
622,904	32,77
623,099	-24,58
623,294	2,05
623,488	43,01
623,683	-2,05
623,878	14,34
624,072	51,2
624,267	-40,96
624,462	24,58
624,656	-4,1
624,851	88,06
625,046	-26,62
625,24	-8,19
625,435	51,2
625,629	2,05
625,824	145,41
626,018	34,82
626,213	65,54
626,407	-57,34
626,602	14,34
626,796	20,48
626,991	53,25
627,185	-22,53
627,38	30,72
627,574	36,86
627,768	-12,29
627,963	8,19
628,157	-6,14
628,352	-26,62
628,546	-8,19
628,74	20,48
628,935	34,82
629,129	-30,72
629,323	2,05
629,517	-26,62
629,712	-73,73
629,906	-4,1
630,1	40,96
630,294	49,15
630,489	65,54
630,683	12,29
630,877	-28,67
631,071	32,77
631,265	-40,96
631,459	-24,58
631,653	24,58
631,848	6,14
632,042	-51,2
632,236	38,91
632,43	96,25
632,624	18,43
632,818	18,43
633,012	-20,48
633,206	24,58
633,4	47,1
633,594	26,62
633,788	73,73
633,982	8,19
634,176	88,06
634,369	43,01
634,563	55,3
634,757	16,38
634,951	-47,1
635,145	110,59
635,339	-45,06
635,533	79,87
635,726	32,77
635,92	-10,24
636,114	-16,38
636,308	2,05
636,501	67,58
636,695	38,91
636,889	-24,58
637,083	40,96
637,276	0
637,47	-43,01
637,664	24,58
637,857	28,67
638,051	-4,1
638,244	61,44
638,438	16,38
638,632	57,34
638,825	28,67
639,019	90,11
639,212	67,58
639,406	26,62
639,599	43,01
639,793	0
639,986	36,86
640,18	12,29
640,373	-24,58
640,567	10,24
640,76	102,4
640,954	10,24
641,147	14,34
641,34	43,01
641,534	51,2
641,727	114,69
641,92	26,62
642,114	16,38
642,307	-8,19
642,5	79,87
642,694	77,82
642,887	47,1
643,08	86,01
643,273	65,54
643,467	-22,53
643,66	-4,1
643,853	53,25
644,046	24,58
644,239	6,14
644,432	-24,58
644,626	-40,96
644,819	53,25
645,012	38,91
645,205	24,58
645,398	53,25
645,591	57,34
645,784	-47,1
645,977	67,58
646,17	10,24
646,363	92,16
646,556	28,67
646,749	8,19
646,942	116,73
647,135	59,39
647,328	16,38
647,521	0
647,714	6,14
647,907	96,25
648,099	-47,1
648,292	14,34
648,485	10,24
648,678	22,53
648,871	-28,67
649,064	32,77
649,256	-8,19
649,449	81,92
649,642	-43,01
649,835	14,34
650,027	16,38
650,22	30,72
650,413	18,43
650,605	43,01
650,798	53,25
650,991	43,01
651,183	-32,77
651,376	53,25
651,568	83,97
651,761	2,05
651,954	92,16
652,146	-12,29
652,339	-2,05
652,531	43,01
652,724	12,29
652,916	16,38
653,109	4,1
653,301	43,01
653,494	-20,48
653,686	81,92
653,879	-10,24
654,071	51,2
654,263	59,39
654,456	43,01
654,648	-26,62
654,84	20,48
655,033	61,44
655,225	-4,1
655,417	4,1
655,61	65,54
655,802	36,86
655,994	61,44
656,186	43,01
656,379	81,92
656,571	57,34
656,763	8,19
656,955	-22,53
657,148	-12,29
657,34	81,92
657,532	-4,1
657,724	-8,19
657,916	81,92
658,108	71,68
658,3	69,63
658,492	32,77
658,684	-26,62
658,876	28,67
659,068	-8,19
659,26	69,63
659,452	2,05
659,644	-40,96
659,836	98,3
660,028	0
660,22	-4,1
660,412	20,48
660,604	-16,38
660,796	67,58
660,988	45,06
661,18	81,92
661,372	10,24
661,563	57,34
661,755	28,67
661,947	16,38
662,139	-4,1
662,331	73,73
662,522	63,49
662,714	-26,62
662,906	10,24
663,097	51,2
663,289	-102,4
663,481	-47,1
663,673	51,2
663,864	-2,05
664,056	98,3
664,247	2,05
664,439	24,58
664,631	16,38
664,822	28,67
665,014	94,21
665,205	-53,25
665,397	40,96
665,588	26,62
665,78	92,16
665,971	-2,05
666,163	77,82
666,354	83,97
666,546	36,86
666,737	-12,29
666,929	-4,1
667,12	-32,77
667,311	-55,3
667,503	53,25
667,694	32,77
667,885	34,82
668,077	18,43
668,268	-10,24
668,459	77,82
668,651	34,82
668,842	-12,29
669,033	-20,48
669,224	-18,43
669,416	124,93
669,607	75,77
669,798	-30,72
669,989	67,58
670,18	92,16
670,371	43,01
670,563	-34,82
670,754	12,29
670,945	-24,58
671,136	45,06
671,327	-10,24
671,518	63,49
671,709	108,54
671,9	-26,62
672,091	53,25
672,282	-24,58
672,473	8,19
672,664	-26,62
672,855	-2,05
673,046	26,62
673,237	26,62
673,428	-38,91
673,619	108,54
673,809	71,68
674	112,64
674,191	18,43
674,382	32,77
674,573	36,86
674,764	43,01
674,954	36,86
675,145	49,15
675,336	26,62
675,527	-2,05
675,717	-8,19
675,908	14,34
676,099	14,34
676,289	43,01
676,48	-38,91
676,671	40,96
676,861	73,73
677,052	4,1
677,243	12,29
677,433	26,62
677,624	-24,58
677,814	2,05
678,005	-8,19
678,195	45,06
678,386	16,38
678,576	-20,48
678,767	-6,14
678,957	-34,82
679,148	-22,53
679,338	81,92
679,529	-6,14
679,719	4,1
679,909	14,34
680,1	57,34
680,29	-4,1
680,481	10,24
680,671	16,38
680,861	24,58
681,052	28,67
681,242	6,14
681,432	-8,19
681,622	6,14
681,813	-2,05
682,003	-8,19
682,193	-14,34
682,383	-16,38
682,573	-28,67
682,764	28,67
682,954	53,25
683,144	51,2
683,334	34,82
683,524	149,5
683,714	36,86
683,904	75,77
684,094	-26,62
684,284	59,39
684,474	20,48
684,664	-2,05
684,854	-45,06
685,044	65,54
685,234	-45,06
685,424	112,64
685,614	-4,1
685,804	-20,48
685,994	81,92
686,184	32,77
686,374	16,38
686,564	6,14
686,753	57,34
686,943	-26,62
687,133	55,3
687,323	26,62
687,513	-2,05
687,702	45,06
687,892	2,05
688,082	-2,05
688,272	-22,53
688,461	36,86
688,651	26,62
688,841	75,77
689,03	-57,34
689,22	53,25
689,41	4,1
689,599	32,77
689,789	12,29
689,979	92,16
690,168	22,53
690,358	45,06
690,547	51,2
690,737	81,92
690,926	36,86
691,116	-71,68
691,305	12,29
691,495	30,72
691,684	16,38
691,874	-24,58
692,063	24,58
692,252	57,34
692,442	12,29
692,631	65,54
692,82	-12,29
693,01	30,72
693,199	49,15
693,388	16,38
693,578	57,34
693,767	124,93
693,956	40,96
694,146	-45,06
694,335	26,62
694,524	104,45
694,713	43,01
694,902	4,1
695,092	-12,29
695,281	45,06
695,47	-63,49
695,659	43,01
695,848	43,01
696,037	20,48
696,226	18,43
696,415	59,39
696,604	-40,96
696,793	90,11
696,982	34,82
697,171	24,58
697,36	8,19
697,549	57,34
697,738	-40,96
697,927	-8,19
698,116	59,39
698,305	24,58
698,494	71,68
698,683	-26,62
698,872	90,11
699,061	6,14
699,25	0
699,438	98,3
699,627	0
699,816	55,3
700,005	53,25
700,193	-65,53
700,382	67,58
700,571	73,73
700,76	0
700,948	73,73
701,137	75,77
701,326	40,96
701,514	8,19
701,703	73,73
701,892	112,64
702,08	77,82
702,269	-6,14
702,457	16,38
702,646	94,21
702,834	-20,48
703,023	51,2
703,212	61,44
703,4	114,69
703,589	36,86
703,777	43,01
703,965	10,24
704,154	4,1
704,342	0
704,531	49,15
704,719	75,77
704,907	10,24
705,096	-24,58
705,284	45,06
705,472	-18,43
705,661	-8,19
705,849	81,92
706,037	-4,1
706,226	49,15
706,414	-32,77
706,602	73,73
706,79	28,67
706,979	71,68
707,167	8,19
707,355	-55,3
707,543	73,73
707,731	40,96
707,919	34,82
708,107	55,3
708,296	-10,24
708,484	22,53
708,672	-32,77
708,86	90,11
709,048	10,24
709,236	12,29
709,424	104,45
709,612	36,86
709,8	-49,15
709,988	-32,77
710,176	49,15
710,364	86,01
710,551	-38,91
710,739	36,86
710,927	-10,24
711,115	-22,53
711,303	69,63
711,491	12,29
711,679	-45,06
711,866	34,82
712,054	36,86
712,242	26,62
712,43	14,34
712,617	61,44
712,805	34,82
712,993	-4,1
713,181	-43,01
713,368	32,77
713,556	14,34
713,744	-34,82
713,931	59,39
714,119	57,34
714,306	-40,96
714,494	-14,34
714,682	26,62
714,869	0
715,057	26,62
715,244	-47,1
715,432	12,29
715,619	-24,58
715,807	-16,38
715,994	-81,92
716,182	-28,67
716,369	36,86
716,556	49,15
716,744	-40,96
716,931	-55,3
717,119	73,73
717,306	20,48
717,493	63,49
717,681	90,11
717,868	26,62
718,055	10,24
718,242	28,67
718,43	-43,01
718,617	32,77
718,804	-16,38
718,991	-14,34
719,179	-43,01
719,366	36,86
719,553	-32,77
719,74	22,53
719,927	34,82
720,114	8,19
720,301	14,34
720,488	-8,19
720,676	0
720,863	45,06
721,05	-12,29
721,237	98,3
721,424	-4,1
721,611	-12,29
721,798	-67,58
721,985	-12,29
722,172	36,86
722,358	0
722,545	114,69
722,732	24,58
722,919	38,91
723,106	0
723,293	14,34
723,48	-73,73
723,667	53,25
723,853	53,25
724,04	69,63
724,227	16,38
724,414	-12,29
724,6	34,82
724,787	90,11
724,974	143,36
725,161	36,86
725,347	28,67
725,534	30,72
725,72	32,77
725,907	-28,67
726,094	8,19
726,28	81,92
726,467	30,72
726,653	-6,14
726,84	90,11
727,027	61,44
727,213	4,1
727,4	-14,34
727,586	112,64
727,773	57,34
727,959	-6,14
728,145	-8,19
728,332	26,62
728,518	18,43
728,705	-49,15
728,891	-8,19
729,077	-10,24
729,264	-24,58
729,45	-30,72
729,636	34,82
729,823	67,58
730,009	26,62
730,195	32,77
730,382	30,72
730,568	-57,34
730,754	36,86
730,94	10,24
731,126	18,43
731,313	75,77
731,499	-65,53
731,685	45,06
731,871	53,25
732,057	36,86
732,243	20,48
732,429	51,2
732,615	69,63
732,801	-30,72
732,987	-34,82
733,173	57,34
733,359	18,43
733,545	45,06
733,731	-106,49
733,917	28,67
734,103	16,38
734,289	65,54
734,475	-34,82
734,661	34,82
734,847	-2,05
735,033	63,49
735,219	-20,48
735,404	4,1
735,59	18,43
735,776	-26,62
735,962	40,96
736,148	34,82
736,333	86,01
736,519	43,01
736,705	45,06
736,89	59,39
737,076	18,43
737,262	-38,91
737,447	-10,24
737,633	32,77
737,819	86,01
738,004	-6,14
738,19	2,05
738,375	61,44
738,561	106,49
738,747	0
738,932	-57,34
739,118	73,73
739,303	90,11
739,489	-49,15
739,674	-69,63
739,859	92,16
740,045	-8,19
740,23	-4,1
740,416	0
740,601	51,2
740,786	8,19
740,972	-30,72
741,157	-32,77
741,342	0
741,528	14,34
741,713	79,87
741,898	4,1
742,084	6,14
742,269	59,39
742,454	49,15
742,639	-20,48
742,824	14,34
743,01	51,2
743,195	18,43
743,38	36,86
743,565	49,15
743,75	8,19
743,935	75,77
744,12	57,34
744,305	47,1
744,49	16,38
744,675	-6,14
744,86	34,82
745,045	-22,53
745,23	-4,1
745,415	49,15
745,6	32,77
745,785	10,24
745,97	108,54
746,155	69,63
746,34	40,96
746,525	45,06
746,71	-22,53
746,895	24,58
747,079	32,77
747,264	28,67
747,449	22,53
747,634	30,72
747,819	30,72
748,003	49,15
748,188	-14,34
748,373	2,05
748,557	-16,38
748,742	-4,1
748,927	53,25
749,111	34,82
749,296	73,73
749,481	-40,96
749,665	20,48
749,85	28,67
750,034	73,73
750,219	24,58
750,404	20,48
750,588	32,77
750,773	102,4
750,957	43,01
751,141	-51,2
751,326	16,38
751,51	-49,15
751,695	4,1
751,879	-34,82
752,064	-16,38
752,248	92,16
752,432	43,01
752,617	-12,29
752,801	43,01
752,985	30,72
753,17	57,34
753,354	24,58
753,538	18,43
753,722	63,49
753,907	0
754,091	-24,58
754,275	-8,19
754,459	32,77
754,643	8,19
754,828	-20,48
755,012	32,77
755,196	-16,38
755,38	59,39
755,564	53,25
755,748	65,54
755,932	28,67
756,116	69,63
756,3	51,2
756,484	14,34
756,668	-45,06
756,852	-104,45
757,036	-38,91
757,22	43,01
757,404	16,38
757,588	16,38
757,772	51,2
757,956	36,86
758,14	59,39
758,323	51,2
758,507	-34,82
758,691	20,48
758,875	4,1
759,059	-16,38
759,242	2,05
759,426	-49,15
759,61	55,3
759,794	59,39
759,977	112,64
760,161	86,01
760,345	12,29
760,528	38,91
760,712	-2,05
760,895	30,72
761,079	8,19
761,263	-20,48
761,446	-6,14
761,63	57,34
761,813	26,62
761,997	38,91
762,18	57,34
762,364	10,24
762,547	-49,15
762,731	-22,53
762,914	-30,72
763,098	-30,72
763,281	18,43
763,464	45,06
763,648	-20,48
763,831	-53,25
764,015	-6,14
764,198	18,43
764,381	83,97
764,564	34,82
764,748	-63,49
764,931	53,25
765,114	-2,05
765,297	65,54
765,481	-4,1
765,664	8,19
765,847	-51,2
766,03	18,43
766,213	-14,34
766,397	38,91
766,58	18,43
766,763	79,87
766,946	49,15
767,129	-28,67
767,312	-30,72
767,495	16,38
767,678	59,39
767,861	24,58
768,044	2,05
768,227	4,1
768,41	-20,48
768,593	16,38
768,776	4,1
768,959	106,49
769,142	55,3
769,324	0
769,507	-6,14
769,69	10,24
769,873	26,62
770,056	124,93
770,239	16,38
770,421	98,3
770,604	-81,92
770,787	30,72
770,97	-65,53
771,152	69,63
771,335	71,68
771,518	-16,38
771,7	24,58
771,883	61,44
772,066	16,38
772,248	-4,1
772,431	126,97
772,613	63,49
772,796	30,72
772,978	-14,34
773,161	18,43
773,343	45,06
773,526	28,67
773,708	-49,15
773,891	-86,01
774,073	57,34
774,256	-32,77
774,438	59,39
774,621	-6,14
774,803	0
774,985	16,38
775,168	34,82
775,35	-49,15
775,532	-4,1
775,715	-20,48
775,897	-2,05
776,079	40,96
776,261	18,43
776,444	2,05
776,626	8,19
776,808	32,77
776,99	59,39
777,173	16,38
777,355	59,39
777,537	34,82
777,719	71,68
777,901	-14,34
778,083	26,62
778,265	-45,06
778,447	47,1
778,629	-57,34
778,811	-32,77
778,993	24,58
779,175	4,1
779,357	-24,58
779,539	49,15
779,721	40,96
779,903	0
780,085	67,58
780,267	12,29
780,449	2,05
780,631	4,1
780,812	102,4
780,994	51,2
781,176	49,15
781,358	-28,67
781,54	8,19
781,721	65,54
781,903	36,86
782,085	65,54
782,267	-32,77
782,448	-96,25
782,63	-12,29
782,812	-98,3
782,993	57,34
783,175	12,29
783,357	-10,24
783,538	34,82
783,72	10,24
783,901	24,58
784,083	-40,96
784,264	-40,96
784,446	47,1
784,627	-12,29
784,809	122,88
784,99	10,24
785,172	-12,29
785,353	-40,96
785,535	16,38
785,716	59,39
785,897	-26,62
786,079	14,34
786,26	40,96
786,441	106,49
786,623	-22,53
786,804	49,15
786,985	24,58
787,167	47,1
787,348	73,73
787,529	-4,1
787,71	-14,34
787,891	34,82
788,073	16,38
788,254	-73,73
788,435	98,3
788,616	10,24
788,797	-24,58
788,978	-53,25
789,159	32,77
789,34	-34,82
789,522	18,43
789,703	2,05
789,884	-38,91
790,065	53,25
790,246	40,96
790,427	-2,05
790,607	16,38
790,788	10,24
790,969	-12,29
791,15	77,82
791,331	90,11
791,512	-75,77
791,693	20,48
791,874	49,15
792,054	71,68
792,235	16,38
792,416	-38,91
792,597	-6,14
792,778	110,59
792,958	36,86
793,139	-63,49
793,32	32,77
793,5	-34,82
793,681	34,82
793,862	-24,58
794,042	57,34
794,223	18,43
794,404	8,19
794,584	-61,44
794,765	-6,14
794,945	6,14
795,126	83,97
795,306	40,96
795,487	18,43
795,667	10,24
795,848	-55,3
796,028	118,78
796,209	108,54
796,389	38,91
796,57	-4,1
796,75	-63,49
796,93	57,34
797,111	-8,19
797,291	0
797,471	0
797,652	2,05
797,832	20,48
798,012	12,29
798,192	-90,11
798,373	-47,1
798,553	-16,38
798,733	4,1
798,913	34,82
799,093	-53,25
799,274	-18,43
799,454	45,06
799,634	53,25
799,814	34,82
799,994	79,87
800,174	2,05
800,354	-45,06
800,534	10,24
800,714	26,62
800,894	-12,29
801,074	-10,24
801,254	2,05
801,434	149,5
801,614	16,38
801,794	-47,1
801,974	559,1
802,154	20,48
802,334	51,2
802,514	0
802,693	26,62
802,873	47,1
803,053	65,54
803,233	79,87
803,413	57,34
803,592	-30,72
803,772	-38,91
803,952	-8,19
804,131	0
804,311	-18,43
804,491	40,96
804,67	16,38
804,85	51,2
805,03	4,1
805,209	36,86
805,389	4,1
805,568	28,67
805,748	-49,15
805,928	26,62
806,107	57,34
806,287	43,01
806,466	26,62
806,646	73,73
806,825	-8,19
807,004	59,39
807,184	-26,62
807,363	-16,38
807,543	-16,38
807,722	-65,53
807,901	-6,14
808,081	51,2
808,26	43,01
808,439	-40,96
808,619	75,77
808,798	20,48
808,977	18,43
809,156	40,96
809,336	-22,53
809,515	4,1
809,694	-45,06
809,873	8,19
810,052	32,77
810,231	129,02
810,411	40,96
810,59	24,58
810,769	14,34
810,948	18,43
811,127	45,06
811,306	-22,53
811,485	-34,82
811,664	-8,19
811,843	-4,1
812,022	-16,38
812,201	30,72
812,38	-49,15
812,559	88,06
812,737	28,67
812,916	12,29
813,095	69,63
813,274	20,48
813,453	63,49
813,632	14,34
813,811	-8,19
813,989	20,48
814,168	24,58
814,347	-22,53
814,526	18,43
814,704	10,24
814,883	-79,87
815,062	-4,1
815,24	57,34
815,419	-8,19
815,598	-30,72
815,776	-59,39
815,955	30,72
816,133	34,82
816,312	18,43
816,49	30,72
816,669	0
816,847	-20,48
817,026	10,24
817,204	-32,77
817,383	-26,62
817,561	16,38
817,74	36,86
817,918	0
818,097	28,67
818,275	53,25
818,453	2,05
818,632	73,73
818,81	59,39
818,988	-88,06
819,167	65,54
819,345	12,29
819,523	-6,14
819,701	14,34
819,879	18,43
820,058	-6,14
820,236	18,43
820,414	88,06
820,592	10,24
820,77	28,67
820,948	26,62
821,127	-20,48
821,305	32,77
821,483	-81,92
821,661	32,77
821,839	-20,48
822,017	43,01
822,195	10,24
822,373	-28,67
822,551	10,24
822,729	10,24
822,907	-20,48
823,085	-22,53
823,262	-2,05
823,44	2,05
823,618	-10,24
823,796	86,01
823,974	-61,44
824,152	0
824,329	8,19
824,507	73,73
824,685	0
824,863	-61,44
825,04	55,3
825,218	104,45
825,396	16,38
825,574	26,62
825,751	-8,19
825,929	26,62
826,107	36,86
826,284	8,19
826,462	38,91
826,639	49,15
826,817	-32,77
826,994	6,14
827,172	-6,14
827,349	-6,14
827,527	-12,29
827,704	57,34
827,882	30,72
828,059	104,45
828,237	24,58
828,414	51,2
828,591	28,67
828,769	28,67
828,946	-114,69
829,124	-16,38
829,301	0
829,478	-26,62
829,655	90,11
829,833	36,86
830,01	51,2
830,187	24,58
830,364	0
830,542	57,34
830,719	26,62
830,896	45,06
831,073	-8,19
831,25	32,77
831,427	6,14
831,604	-24,58
831,782	-53,25
831,959	-16,38
832,136	-28,67
832,313	16,38
832,49	8,19
832,667	63,49
832,844	-32,77
833,021	26,62
833,198	26,62
833,374	59,39
833,551	-47,1
833,728	16,38
833,905	36,86
834,082	-14,34
834,259	8,19
834,436	49,15
834,612	-22,53
834,789	75,77
834,966	-10,24
835,143	49,15
835,319	12,29
835,496	16,38
835,673	8,19
835,85	86,01
836,026	-24,58
836,203	90,11
836,38	8,19
836,556	24,58
836,733	-55,3
836,909	38,91
837,086	-2,05
837,262	18,43
837,439	-20,48
837,616	61,44
837,792	43,01
837,968	-26,62
838,145	12,29
838,321	10,24
838,498	55,3
838,674	26,62
838,851	-14,34
839,027	-12,29
839,203	26,62
839,38	36,86
839,556	-53,25
839,732	34,82
839,909	-30,72
840,085	69,63
840,261	26,62
840,437	53,25
840,614	-16,38
840,79	10,24
840,966	16,38
841,142	-6,14
841,318	-55,3
841,494	40,96
841,671	-16,38
841,847	-65,53
842,023	-81,92
842,199	49,15
842,375	28,67
842,551	-55,3
842,727	22,53
842,903	81,92
843,079	59,39
843,255	43,01
843,431	-32,77
843,607	61,44
843,783	-14,34
843,959	-8,19
844,134	8,19
844,31	81,92
844,486	-49,15
844,662	-12,29
844,838	40,96
845,013	36,86
845,189	83,97
845,365	59,39
845,541	-18,43
845,716	-47,1
845,892	-8,19
846,068	32,77
846,244	-49,15
846,419	57,34
846,595	45,06
846,77	8,19
846,946	67,58
847,122	8,19
847,297	2,05
847,473	92,16
847,648	-114,69
847,824	30,72
847,999	-26,62
848,175	8,19
848,35	8,19
848,526	-28,67
848,701	43,01
848,876	45,06
849,052	8,19
849,227	28,67
849,403	-28,67
849,578	32,77
849,753	10,24
849,929	24,58
850,104	-24,58
850,279	18,43
850,454	22,53
850,63	57,34
850,805	106,49
850,98	-8,19
851,155	14,34
851,33	4,1
851,505	6,14
851,681	67,58
851,856	-4,1
852,031	90,11
852,206	-18,43
852,381	2,05
852,556	-32,77
852,731	28,67
852,906	10,24
853,081	65,54
853,256	79,87
853,431	-18,43
853,606	0
853,781	32,77
853,956	14,34
854,131	-2,05
854,305	-32,77
854,48	10,24
854,655	24,58
854,83	40,96
855,005	38,91
855,18	-4,1
855,354	12,29
855,529	61,44
855,704	10,24
855,879	2,05
856,053	-12,29
856,228	86,01
856,403	-20,48
856,577	57,34
856,752	57,34
856,926	-59,39
857,101	86,01
857,276	-12,29
857,45	47,1
857,625	32,77
857,799	-6,14
857,974	18,43
858,148	14,34
858,323	51,2
858,497	32,77
858,672	26,62
858,846	43,01
859,02	43,01
859,195	-12,29
859,369	-30,72
859,543	-59,39
859,718	8,19
859,892	45,06
860,066	30,72
860,241	-22,53
860,415	71,68
860,589	0
860,763	-20,48
860,938	26,62
861,112	-16,38
861,286	-24,58
861,46	-14,34
861,634	67,58
861,808	36,86
861,982	8,19
862,157	0
862,331	28,67
862,505	6,14
862,679	-98,3
862,853	34,82
863,027	49,15
863,201	77,82
863,375	10,24
863,549	51,2
863,722	53,25
863,896	-20,48
864,07	-61,44
864,244	-14,34
864,418	-32,77
864,592	-22,53
864,766	-12,29
864,939	81,92
865,113	28,67
865,287	22,53
865,461	-32,77
865,634	61,44
865,808	-22,53
865,982	-2,05
866,156	-67,58
866,329	-28,67
866,503	10,24
866,676	79,87
866,85	24,58
867,024	-36,86
867,197	-16,38
867,371	51,2
867,544	-49,15
867,718	-47,1
867,891	65,54
868,065	8,19
868,238	26,62
868,412	-4,1
868,585	28,67
868,759	-55,3
868,932	-18,43
869,105	26,62
869,279	40,96
869,452	0
869,625	67,58
869,799	8,19
869,972	-2,05
870,145	-16,38
870,319	8,19
870,492	-14,34
870,665	-24,58
870,838	47,1
871,011	-16,38
871,185	20,48
871,358	-36,86
871,531	-10,24
871,704	-8,19
871,877	34,82
872,05	6,14
872,223	6,14
872,396	-16,38
872,569	30,72
872,742	-30,72
872,915	16,38
873,088	-6,14
873,261	-30,72
873,434	20,48
873,607	-26,62
873,78	20,48
873,953	-47,1
874,126	-10,24
874,299	90,11
874,471	-34,82
874,644	-10,24
874,817	32,77
874,99	-22,53
875,163	-32,77
875,335	-20,48
875,508	-47,1
875,681	-6,14
875,853	4,1
876,026	-16,38
876,199	-32,77
876,371	16,38
876,544	24,58
876,717	-47,1
876,889	-40,96
877,062	4,1
877,234	16,38
877,407	20,48
877,579	36,86
877,752	0
877,924	57,34
878,097	26,62
878,269	67,58
878,442	-12,29
878,614	43,01
878,786	16,38
878,959	4,1
879,131	86,01
879,303	-6,14
879,476	63,49
879,648	-24,58
879,82	-38,91
879,993	12,29
880,165	-53,25
880,337	-47,1
880,509	-8,19
880,681	-34,82
880,854	16,38
881,026	-6,14
881,198	18,43
881,37	-63,49
881,542	59,39
881,714	-73,73
881,886	24,58
882,058	32,77
882,23	-12,29
882,402	-28,67
882,574	2,05
882,746	67,58
882,918	67,58
883,09	36,86
883,262	-8,19
883,434	-75,77
883,606	-45,06
883,778	-10,24
883,95	49,15
884,122	-14,34
884,293	36,86
884,465	-28,67
884,637	10,24
884,809	-26,62
884,98	114,69
885,152	49,15
885,324	49,15
885,496	-45,06
885,667	26,62
885,839	34,82
886,011	36,86
886,182	18,43
886,354	-16,38
886,525	-14,34
886,697	-8,19
886,869	-20,48
887,04	-40,96
887,212	67,58
887,383	0
887,555	-38,91
887,726	8,19
887,897	53,25
888,069	0
888,24	0
888,412	-16,38
888,583	26,62
888,754	59,39
888,926	45,06
889,097	20,48
889,268	-20,48
889,44	55,3
889,611	-67,58
889,782	73,73
889,953	-79,87
890,125	81,92
890,296	-61,44
890,467	18,43
890,638	8,19
890,809	0
890,98	12,29
891,151	49,15
891,323	-38,91
891,494	-4,1
891,665	2,05
891,836	24,58
892,007	40,96
892,178	-24,58
892,349	0
892,52	-34,82
892,691	24,58
892,862	49,15
893,032	-47,1
893,203	8,19
893,374	-4,1
893,545	32,77
893,716	22,53
893,887	8,19
894,057	0
894,228	-4,1
894,399	0
894,57	34,82
894,74	-40,96
894,911	16,38
895,082	-14,34
895,253	100,35
895,423	26,62
895,594	-4,1
895,764	57,34
895,935	-28,67
896,106	-8,19
896,276	38,91
896,447	-22,53
896,617	36,86
896,788	-26,62
896,958	10,24
897,129	-12,29
897,299	-16,38
897,47	4,1
897,64	67,58
897,81	-2,05
897,981	8,19
898,151	45,06
898,322	45,06
898,492	102,4
898,662	-8,19
898,832	-18,43
899,003	40,96
899,173	34,82
899,343	75,77
899,513	-24,58
