Data from filtre430_USB4F104151__6__11-51-40-550.txt Node

Date: Wed Apr 15 11:51:40 EDT 2026
User: LaboPhy
Spectrometer: USB4F10415
Trigger mode: 4
Integration Time (sec): 2,500000E-2
Scans to average: 1
Electric dark correction enabled: true
Nonlinearity correction enabled: false
Boxcar width: 0
XAxis mode: Wavelengths
Number of Pixels in Spectrum: 3648
>>>>>Begin Spectral Data<<<<<
178,204	-78,33
178,424	-78,33
178,644	-78,33
178,864	-111,1
179,084	-104,96
179,304	-35,33
179,524	-20,99
179,744	48,64
179,964	-16,9
180,184	13,82
180,404	-4,61
180,624	22,02
180,844	28,16
181,064	-41,47
181,283	38,4
181,503	-31,23
181,723	-0,51
181,943	-80,38
182,163	77,31
182,383	1,54
182,602	17,92
182,822	-20,99
183,042	-29,18
183,262	38,4
183,482	-27,14
183,701	3,58
183,921	22,02
184,141	-41,47
184,361	60,93
184,58	-4,61
184,8	-27,14
185,02	-18,94
185,239	114,17
185,459	-27,14
185,679	-33,28
185,898	-80,38
186,118	26,11
186,338	-12,8
186,557	-8,7
186,777	5,63
186,997	-4,61
187,216	28,16
187,436	62,98
187,655	30,21
187,875	79,36
188,095	3,58
188,314	36,35
188,534	81,41
188,753	26,11
188,973	26,11
189,192	-10,75
189,412	71,17
189,631	1,54
189,851	-4,61
190,07	62,98
190,29	56,83
190,509	13,82
190,729	26,11
190,948	54,78
191,168	128,51
191,387	44,54
191,607	1,54
191,826	-0,51
192,045	5,63
192,265	-25,09
192,484	5,63
192,704	-66,05
192,923	1,54
193,142	60,93
193,362	17,92
193,581	36,35
193,8	-39,42
194,02	44,54
194,239	79,36
194,458	-12,8
194,678	54,78
194,897	28,16
195,116	19,97
195,335	56,83
195,555	5,63
195,774	3,58
195,993	9,73
196,212	-6,66
196,432	-12,8
196,651	-45,57
196,87	7,68
197,089	52,74
197,308	15,87
197,528	-0,51
197,747	-31,23
197,966	24,06
198,185	50,69
198,404	28,16
198,623	50,69
198,842	19,97
199,062	81,41
199,281	99,84
199,5	-47,62
199,719	15,87
199,938	60,93
200,157	-27,14
200,376	-27,14
200,595	24,06
200,814	67,07
201,033	-78,33
201,252	30,21
201,471	-49,66
201,69	42,5
201,909	24,06
202,128	44,54
202,347	-8,7
202,566	-4,61
202,785	3,58
203,004	-43,52
203,223	13,82
203,442	48,64
203,661	-10,75
203,879	28,16
204,098	15,87
204,317	-18,94
204,536	-12,8
204,755	-33,28
204,974	-4,61
205,193	-12,8
205,411	77,31
205,63	-4,61
205,849	-51,71
206,068	3,58
206,287	38,4
206,505	-90,62
206,724	46,59
206,943	15,87
207,162	-0,51
207,381	28,16
207,599	-27,14
207,818	-29,18
208,037	-4,61
208,255	22,02
208,474	19,97
208,693	-2,56
208,911	-43,52
209,13	-14,85
209,349	54,78
209,567	87,55
209,786	34,3
210,005	65,02
210,223	5,63
210,442	-12,8
210,661	52,74
210,879	13,82
211,098	36,35
211,316	65,02
211,535	38,4
211,753	-53,76
211,972	-27,14
212,191	-68,09
212,409	-4,61
212,628	5,63
212,846	-20,99
213,065	17,92
213,283	24,06
213,502	56,83
213,72	52,74
213,938	19,97
214,157	-16,9
214,375	5,63
214,594	54,78
214,812	9,73
215,031	32,26
215,249	-8,7
215,467	-4,61
215,686	-41,47
215,904	32,26
216,122	-41,47
216,341	40,45
216,559	9,73
216,778	34,3
216,996	38,4
217,214	71,17
217,432	46,59
217,651	26,11
217,869	11,78
218,087	-59,9
218,306	-35,33
218,524	44,54
218,742	11,78
218,96	-31,23
219,179	-43,52
219,397	-57,86
219,615	81,41
219,833	77,31
220,051	-0,51
220,27	36,35
220,488	-35,33
220,706	-16,9
220,924	-8,7
221,142	48,64
221,36	13,82
221,578	9,73
221,796	5,63
222,015	7,68
222,233	-37,38
222,451	54,78
222,669	40,45
222,887	1,54
223,105	-18,94
223,323	67,07
223,541	-47,62
223,759	13,82
223,977	-20,99
224,195	77,31
224,413	77,31
224,631	-0,51
224,849	52,74
225,067	24,06
225,285	11,78
225,503	71,17
225,721	9,73
225,939	19,97
226,157	65,02
226,375	69,12
226,592	24,06
226,81	-4,61
227,028	24,06
227,246	46,59
227,464	-43,52
227,682	46,59
227,9	58,88
228,117	-37,38
228,335	-6,66
228,553	26,11
228,771	30,21
228,989	7,68
229,206	30,21
229,424	22,02
229,642	-8,7
229,86	-53,76
230,077	38,4
230,295	-31,23
230,513	-53,76
230,731	77,31
230,948	3,58
231,166	-14,85
231,384	-2,56
231,601	-12,8
231,819	69,12
232,037	-61,95
232,254	-4,61
232,472	19,97
232,689	-16,9
232,907	44,54
233,125	19,97
233,342	19,97
233,56	34,3
233,777	-39,42
233,995	3,58
234,213	58,88
234,43	48,64
234,648	5,63
234,865	17,92
235,083	11,78
235,3	-31,23
235,518	26,11
235,735	24,06
235,953	54,78
236,17	-4,61
236,388	32,26
236,605	-12,8
236,822	50,69
237,04	81,41
237,257	79,36
237,475	-70,14
237,692	-18,94
237,909	28,16
238,127	-74,24
238,344	-25,09
238,562	-2,56
238,779	-82,43
238,996	-20,99
239,214	5,63
239,431	-76,29
239,648	-12,8
239,865	-0,51
240,083	30,21
240,3	-23,04
240,517	-37,38
240,735	24,06
240,952	11,78
241,169	19,97
241,386	42,5
241,603	13,82
241,821	-49,66
242,038	69,12
242,255	11,78
242,472	-25,09
242,689	-43,52
242,907	24,06
243,124	24,06
243,341	-20,99
243,558	-6,66
243,775	-61,95
243,992	-33,28
244,209	48,64
244,426	73,21
244,643	62,98
244,86	-33,28
245,078	52,74
245,295	83,45
245,512	44,54
245,729	46,59
245,946	19,97
246,163	1,54
246,38	54,78
246,597	-10,75
246,814	11,78
247,031	-31,23
247,248	-20,99
247,464	15,87
247,681	-47,62
247,898	42,5
248,115	77,31
248,332	42,5
248,549	56,83
248,766	3,58
248,983	54,78
249,2	36,35
249,417	-33,28
249,633	-43,52
249,85	44,54
250,067	-16,9
250,284	34,3
250,501	-4,61
250,717	95,74
250,934	-23,04
251,151	-0,51
251,368	-51,71
251,585	22,02
251,801	69,12
252,018	17,92
252,235	-14,85
252,451	-29,18
252,668	-2,56
252,885	-4,61
253,102	-2,56
253,318	-10,75
253,535	-27,14
253,752	-35,33
253,968	-29,18
254,185	-31,23
254,401	11,78
254,618	-20,99
254,835	-37,38
255,051	40,45
255,268	-16,9
255,484	28,16
255,701	15,87
255,917	38,4
256,134	17,92
256,351	1,54
256,567	1,54
256,784	44,54
257	-39,42
257,217	48,64
257,433	-29,18
257,65	19,97
257,866	-25,09
258,082	-0,51
258,299	1,54
258,515	17,92
258,732	-43,52
258,948	54,78
259,165	36,35
259,381	-12,8
259,597	15,87
259,814	-14,85
260,03	-12,8
260,246	44,54
260,463	-25,09
260,679	52,74
260,895	17,92
261,112	58,88
261,328	67,07
261,544	22,02
261,761	87,55
261,977	-33,28
262,193	-25,09
262,409	-10,75
262,626	-29,18
262,842	3,58
263,058	-2,56
263,274	69,12
263,49	-82,43
263,707	-0,51
263,923	60,93
264,139	-4,61
264,355	17,92
264,571	5,63
264,787	-4,61
265,004	79,36
265,22	28,16
265,436	-20,99
265,652	5,63
265,868	67,07
266,084	36,35
266,3	30,21
266,516	-53,76
266,732	54,78
266,948	-20,99
267,164	-29,18
267,38	15,87
267,596	-35,33
267,812	52,74
268,028	-37,38
268,244	-2,56
268,46	48,64
268,676	19,97
268,892	-20,99
269,108	11,78
269,324	-10,75
269,54	24,06
269,756	22,02
269,972	-51,71
270,188	-35,33
270,403	13,82
270,619	15,87
270,835	-12,8
271,051	-6,66
271,267	-10,75
271,483	-68,09
271,698	99,84
271,914	60,93
272,13	-12,8
272,346	-25,09
272,562	58,88
272,777	-4,61
272,993	3,58
273,209	67,07
273,425	-29,18
273,64	11,78
273,856	-8,7
274,072	-12,8
274,287	34,3
274,503	9,73
274,719	-6,66
274,934	95,74
275,15	-35,33
275,366	-4,61
275,581	-16,9
275,797	40,45
276,012	-47,62
276,228	-39,42
276,444	11,78
276,659	105,98
276,875	7,68
277,09	-25,09
277,306	-57,86
277,521	105,98
277,737	-16,9
277,952	11,78
278,168	58,88
278,383	58,88
278,599	15,87
278,814	13,82
279,03	3,58
279,245	110,08
279,461	-4,61
279,676	-31,23
279,892	-49,66
280,107	1,54
280,322	1,54
280,538	-8,7
280,753	-20,99
280,969	-16,9
281,184	-10,75
281,399	9,73
281,615	-18,94
281,83	52,74
282,045	36,35
282,26	-23,04
282,476	-20,99
282,691	28,16
282,906	-10,75
283,122	28,16
283,337	-0,51
283,552	3,58
283,767	-23,04
283,983	52,74
284,198	24,06
284,413	71,17
284,628	-20,99
284,843	44,54
285,058	-45,57
285,274	-41,47
285,489	7,68
285,704	36,35
285,919	34,3
286,134	-4,61
286,349	13,82
286,564	-37,38
286,779	103,93
286,995	30,21
287,21	-43,52
287,425	7,68
287,64	-94,72
287,855	11,78
288,07	24,06
288,285	46,59
288,5	-61,95
288,715	15,87
288,93	40,45
289,145	-4,61
289,36	-25,09
289,575	-18,94
289,79	5,63
290,004	46,59
290,219	28,16
290,434	11,78
290,649	-33,28
290,864	-16,9
291,079	-68,09
291,294	3,58
291,509	-14,85
291,724	5,63
291,938	-47,62
292,153	36,35
292,368	-31,23
292,583	38,4
292,798	-27,14
293,012	36,35
293,227	3,58
293,442	-6,66
293,657	5,63
293,871	-41,47
294,086	28,16
294,301	42,5
294,516	40,45
294,73	3,58
294,945	-16,9
295,16	24,06
295,374	42,5
295,589	28,16
295,804	-29,18
296,018	-37,38
296,233	7,68
296,447	130,56
296,662	-102,91
296,877	69,12
297,091	-4,61
297,306	9,73
297,52	-20,99
297,735	15,87
297,949	28,16
298,164	-4,61
298,378	-35,33
298,593	56,83
298,807	-0,51
299,022	15,87
299,236	38,4
299,451	-27,14
299,665	-31,23
299,88	13,82
300,094	-49,66
300,309	3,58
300,523	56,83
300,737	-2,56
300,952	-6,66
301,166	52,74
301,381	-0,51
301,595	-6,66
301,809	-39,42
302,024	62,98
302,238	-20,99
302,452	13,82
302,667	24,06
302,881	30,21
303,095	-33,28
303,309	-0,51
303,524	-25,09
303,738	3,58
303,952	-31,23
304,166	60,93
304,381	-31,23
304,595	19,97
304,809	38,4
305,023	-51,71
305,237	-0,51
305,452	-37,38
305,666	-20,99
305,88	32,26
306,094	-18,94
306,308	50,69
306,522	-47,62
306,736	54,78
306,95	11,78
307,164	-16,9
307,379	-18,94
307,593	60,93
307,807	36,35
308,021	42,5
308,235	5,63
308,449	1,54
308,663	7,68
308,877	30,21
309,091	15,87
309,305	5,63
309,519	-35,33
309,733	-33,28
309,947	-78,33
310,161	-55,81
310,374	15,87
310,588	50,69
310,802	9,73
311,016	9,73
311,23	26,11
311,444	38,4
311,658	-2,56
311,872	11,78
312,085	5,63
312,299	105,98
312,513	19,97
312,727	-4,61
312,941	-23,04
313,154	48,64
313,368	32,26
313,582	-31,23
313,796	-12,8
314,009	-12,8
314,223	-27,14
314,437	-29,18
314,651	24,06
314,864	28,16
315,078	-31,23
315,292	-72,19
315,505	19,97
315,719	-8,7
315,933	3,58
316,146	13,82
316,36	-61,95
316,573	24,06
316,787	-29,18
317,001	19,97
317,214	11,78
317,428	-57,86
317,641	28,16
317,855	19,97
318,068	22,02
318,282	5,63
318,495	-29,18
318,709	28,16
318,922	-61,95
319,136	85,5
319,349	9,73
319,563	-4,61
319,776	26,11
319,99	-66,05
320,203	-4,61
320,417	36,35
320,63	-4,61
320,843	-18,94
321,057	52,74
321,27	-68,09
321,483	40,45
321,697	3,58
321,91	19,97
322,124	42,5
322,337	-35,33
322,55	-70,14
322,763	50,69
322,977	-25,09
323,19	3,58
323,403	17,92
323,617	3,58
323,83	-12,8
324,043	19,97
324,256	-4,61
324,469	-29,18
324,683	95,74
324,896	-8,7
325,109	28,16
325,322	1,54
325,535	1,54
325,748	34,3
325,962	38,4
326,175	15,87
326,388	7,68
326,601	38,4
326,814	3,58
327,027	24,06
327,24	9,73
327,453	54,78
327,666	77,31
327,879	28,16
328,092	48,64
328,305	24,06
328,518	-27,14
328,731	-29,18
328,944	-74,24
329,157	54,78
329,37	-25,09
329,583	60,93
329,796	9,73
330,009	-4,61
330,222	60,93
330,435	3,58
330,648	-10,75
330,861	-12,8
331,073	30,21
331,286	48,64
331,499	65,02
331,712	13,82
331,925	5,63
332,138	26,11
332,35	-16,9
332,563	3,58
332,776	24,06
332,989	-8,7
333,202	13,82
333,414	67,07
333,627	-49,66
333,84	-10,75
334,053	5,63
334,265	-49,66
334,478	-4,61
334,691	22,02
334,903	30,21
335,116	-20,99
335,329	50,69
335,541	32,26
335,754	56,83
335,966	44,54
336,179	15,87
336,392	3,58
336,604	9,73
336,817	7,68
337,029	34,3
337,242	-64
337,454	120,32
337,667	-61,95
337,88	40,45
338,092	-10,75
338,305	22,02
338,517	-39,42
338,729	19,97
338,942	54,78
339,154	-41,47
339,367	-70,14
339,579	-2,56
339,792	-33,28
340,004	36,35
340,217	65,02
340,429	-8,7
340,641	28,16
340,854	69,12
341,066	-10,75
341,278	5,63
341,491	44,54
341,703	-35,33
341,915	-2,56
342,128	17,92
342,34	19,97
342,552	7,68
342,764	-12,8
342,977	85,5
343,189	-33,28
343,401	-76,29
343,613	-55,81
343,826	3,58
344,038	-0,51
344,25	19,97
344,462	19,97
344,674	3,58
344,886	54,78
345,099	17,92
345,311	-2,56
345,523	-6,66
345,735	-16,9
345,947	38,4
346,159	52,74
346,371	1,54
346,583	15,87
346,795	138,75
347,007	36,35
347,219	36,35
347,431	-86,53
347,643	-12,8
347,855	-45,57
348,067	22,02
348,279	-0,51
348,491	5,63
348,703	52,74
348,915	-2,56
349,127	-20,99
349,339	3,58
349,551	-27,14
349,763	15,87
349,975	85,5
350,187	54,78
350,399	-25,09
350,61	7,68
350,822	22,02
351,034	42,5
351,246	-4,61
351,458	15,87
351,669	52,74
351,881	28,16
352,093	-10,75
352,305	60,93
352,517	-25,09
352,728	58,88
352,94	24,06
353,152	1,54
353,363	58,88
353,575	138,75
353,787	13,82
353,999	11,78
354,21	30,21
354,422	-66,05
354,633	-27,14
354,845	34,3
355,057	-6,66
355,268	15,87
355,48	-41,47
355,692	-0,51
355,903	-57,86
356,115	1,54
356,326	-86,53
356,538	-53,76
356,749	1,54
356,961	75,26
357,172	69,12
357,384	22,02
357,595	65,02
357,807	38,4
358,018	48,64
358,23	36,35
358,441	120,32
358,653	15,87
358,864	-76,29
359,075	52,74
359,287	28,16
359,498	26,11
359,709	-59,9
359,921	-8,7
360,132	44,54
360,344	54,78
360,555	17,92
360,766	1,54
360,977	3,58
361,189	79,36
361,4	-45,57
361,611	28,16
361,823	65,02
362,034	54,78
362,245	-29,18
362,456	9,73
362,667	19,97
362,879	44,54
363,09	11,78
363,301	48,64
363,512	3,58
363,723	5,63
363,935	-33,28
364,146	19,97
364,357	-29,18
364,568	50,69
364,779	-47,62
364,99	34,3
365,201	52,74
365,412	60,93
365,623	-2,56
365,834	42,5
366,045	28,16
366,256	95,74
366,467	40,45
366,678	24,06
366,889	48,64
367,1	17,92
367,311	15,87
367,522	30,21
367,733	15,87
367,944	85,5
368,155	-47,62
368,366	30,21
368,577	34,3
368,788	22,02
368,999	13,82
369,209	40,45
369,42	19,97
369,631	13,82
369,842	71,17
370,053	54,78
370,264	54,78
370,474	-4,61
370,685	15,87
370,896	50,69
371,107	32,26
371,317	28,16
371,528	-31,23
371,739	81,41
371,95	60,93
372,16	36,35
372,371	-59,9
372,582	-8,7
372,792	-43,52
373,003	13,82
373,214	44,54
373,424	-59,9
373,635	-2,56
373,846	110,08
374,056	44,54
374,267	-29,18
374,477	-12,8
374,688	15,87
374,898	77,31
375,109	54,78
375,319	40,45
375,53	73,21
375,74	11,78
375,951	42,5
376,161	-35,33
376,372	28,16
376,582	-45,57
376,793	44,54
377,003	11,78
377,214	-33,28
377,424	69,12
377,635	-4,61
377,845	19,97
378,055	124,41
378,266	17,92
378,476	-35,33
378,686	11,78
378,897	48,64
379,107	3,58
379,317	-14,85
379,528	54,78
379,738	50,69
379,948	-27,14
380,158	28,16
380,369	-100,86
380,579	79,36
380,789	11,78
380,999	67,07
381,21	-55,81
381,42	69,12
381,63	-0,51
381,84	7,68
382,05	30,21
382,261	58,88
382,471	65,02
382,681	-51,71
382,891	81,41
383,101	5,63
383,311	-4,61
383,521	-51,71
383,731	81,41
383,941	-2,56
384,151	11,78
384,361	-25,09
384,571	7,68
384,781	28,16
384,991	7,68
385,201	126,46
385,411	85,5
385,621	36,35
385,831	-0,51
386,041	50,69
386,251	3,58
386,461	101,89
386,671	13,82
386,881	-12,8
387,091	-41,47
387,301	83,45
387,511	56,83
387,72	28,16
387,93	48,64
388,14	-33,28
388,35	-10,75
388,56	19,97
388,769	-27,14
388,979	34,3
389,189	-29,18
389,399	60,93
389,609	11,78
389,818	11,78
390,028	36,35
390,238	-0,51
390,447	3,58
390,657	19,97
390,867	17,92
391,076	-96,77
391,286	36,35
391,496	71,17
391,705	32,26
391,915	-66,05
392,125	69,12
392,334	-27,14
392,544	5,63
392,753	3,58
392,963	9,73
393,172	110,08
393,382	-20,99
393,591	134,65
393,801	-8,7
394,01	71,17
394,22	73,21
394,429	-12,8
394,639	42,5
394,848	-6,66
395,058	19,97
395,267	60,93
395,477	-0,51
395,686	44,54
395,895	58,88
396,105	42,5
396,314	89,6
396,524	54,78
396,733	1,54
396,942	-33,28
397,152	-33,28
397,361	81,41
397,57	30,21
397,78	-6,66
397,989	-18,94
398,198	134,65
398,407	-35,33
398,617	-70,14
398,826	44,54
399,035	26,11
399,244	67,07
399,453	-27,14
399,663	50,69
399,872	62,98
400,081	5,63
400,29	38,4
400,499	50,69
400,708	-35,33
400,917	11,78
401,127	22,02
401,336	62,98
401,545	52,74
401,754	-61,95
401,963	28,16
402,172	83,45
402,381	30,21
402,59	52,74
402,799	-33,28
403,008	24,06
403,217	-4,61
403,426	50,69
403,635	5,63
403,844	5,63
404,053	40,45
404,262	-31,23
404,471	91,65
404,68	54,78
404,888	-25,09
405,097	-0,51
405,306	-33,28
405,515	36,35
405,724	50,69
405,933	11,78
406,142	93,69
406,35	122,37
406,559	48,64
406,768	-2,56
406,977	71,17
407,185	67,07
407,394	40,45
407,603	-41,47
407,812	93,69
408,02	65,02
408,229	89,6
408,438	75,26
408,646	-25,09
408,855	7,68
409,064	-4,61
409,272	7,68
409,481	62,98
409,69	-27,14
409,898	38,4
410,107	-29,18
410,315	7,68
410,524	52,74
410,733	-10,75
410,941	-37,38
411,15	60,93
411,358	7,68
411,567	60,93
411,775	58,88
411,984	7,68
412,192	11,78
412,401	-4,61
412,609	134,65
412,818	56,83
413,026	54,78
413,234	26,11
413,443	11,78
413,651	19,97
413,86	93,69
414,068	32,26
414,276	91,65
414,485	67,07
414,693	1,54
414,901	42,5
415,11	48,64
415,318	54,78
415,526	56,83
415,734	44,54
415,943	89,6
416,151	110,08
416,359	60,93
416,567	89,6
416,776	114,17
416,984	97,79
417,192	36,35
417,4	71,17
417,608	58,88
417,817	-4,61
418,025	77,31
418,233	140,8
418,441	-16,9
418,649	34,3
418,857	-8,7
419,065	73,21
419,273	1,54
419,481	77,31
419,689	69,12
419,897	32,26
420,105	5,63
420,313	101,89
420,521	105,98
420,729	136,7
420,937	36,35
421,145	46,59
421,353	114,17
421,561	97,79
421,769	126,46
421,977	87,55
422,185	140,8
422,393	93,69
422,601	171,52
422,809	136,7
423,017	202,24
423,224	204,28
423,432	200,19
423,64	167,42
423,848	239,1
424,056	249,34
424,263	282,11
424,471	316,92
424,679	251,39
424,887	290,3
425,094	349,69
425,302	318,97
425,51	511,48
425,718	466,42
425,925	486,9
426,133	538,1
426,341	622,07
426,548	736,76
426,756	824,82
426,964	880,11
427,171	1005,04
427,379	1089,01
427,586	1246,7
427,794	1396,2
428,001	1666,53
428,209	1945,06
428,417	2014,69
428,624	2399,71
428,832	2704,85
429,039	3059,15
429,247	3485,13
429,454	4218,3
429,662	5029,3
429,869	5264,82
430,076	6378,91
430,284	6827,42
430,491	8050,05
430,699	9645,42
430,906	10792,28
431,114	11750,73
431,321	13532,47
431,528	15187,22
431,736	17698,03
431,943	19795,15
432,15	21081,28
432,358	22508,71
432,565	25515,13
432,772	27167,84
432,979	29766,71
433,187	31468,58
433,394	32721,93
433,601	35959,77
433,808	37276,62
434,016	36807,63
434,223	39431,08
434,43	42369,91
434,637	41497,48
434,844	44082,02
435,052	44923,73
435,259	44055,39
435,466	44884,82
435,673	43991,9
435,88	46508,86
436,087	48218,91
436,294	48204,58
436,501	46572,35
436,708	46506,81
436,915	47993,64
437,122	48950,04
437,329	48112,42
437,537	49623,82
437,743	49906,44
437,95	48356,13
438,157	49922,82
438,364	51788,52
438,571	51038,97
438,778	49744,65
438,985	53291,73
439,192	50979,57
439,399	51978,98
439,606	50500,35
439,813	51360,5
440,02	53576,4
440,227	51647,21
440,433	49308,43
440,64	50481,92
440,847	48370,46
441,054	47452,97
441,261	47708,97
441,467	45108,05
441,674	43703,14
441,881	41921,41
442,088	39404,45
442,294	36262,87
442,501	34554,86
442,708	31671,32
442,914	29787,19
443,121	27534,43
443,328	24226,96
443,534	23014,56
443,741	19191
443,948	16565,51
444,154	15734,03
444,361	13309,24
444,568	11851,08
444,774	10114,41
444,981	8850,81
445,187	7806,34
445,394	6933,91
445,6	6008,23
445,807	5760,42
446,013	4699,58
446,22	4189,63
446,426	3730,89
446,633	3329,49
446,839	2938,32
447,046	2534,87
447,252	2356,7
447,459	2024,93
447,665	1805,8
447,871	1758,69
448,078	1637,86
448,284	1381,87
448,491	1283,56
448,697	1166,83
448,903	1089,01
449,11	953,84
449,316	824,82
449,522	853,49
449,728	683,51
449,935	566,78
450,141	554,49
450,347	560,63
450,553	501,24
450,76	466,42
450,966	439,8
451,172	388,6
451,378	392,7
451,584	345,59
451,791	335,35
451,997	314,88
452,203	314,88
452,409	366,07
452,615	251,39
452,821	163,33
453,027	200,19
453,233	339,45
453,44	185,85
453,646	151,04
453,852	144,89
454,058	196,09
454,264	105,98
454,47	134,65
454,676	138,75
454,882	185,85
455,088	103,93
455,294	130,56
455,5	161,28
455,705	85,5
455,911	85,5
456,117	103,93
456,323	122,37
456,529	122,37
456,735	130,56
456,941	71,17
457,147	97,79
457,352	103,93
457,558	103,93
457,764	140,8
457,97	85,5
458,176	89,6
458,381	83,45
458,587	103,93
458,793	52,74
458,999	60,93
459,204	32,26
459,41	60,93
459,616	120,32
459,821	144,89
460,027	22,02
460,233	108,03
460,438	69,12
460,644	118,27
460,85	89,6
461,055	99,84
461,261	7,68
461,466	85,5
461,672	73,21
461,878	15,87
462,083	60,93
462,289	3,58
462,494	69,12
462,7	65,02
462,905	40,45
463,111	50,69
463,316	101,89
463,522	79,36
463,727	17,92
463,932	-4,61
464,138	46,59
464,343	1,54
464,549	56,83
464,754	73,21
464,959	44,54
465,165	-49,66
465,37	62,98
465,575	-10,75
465,781	3,58
465,986	38,4
466,191	48,64
466,397	67,07
466,602	112,13
466,807	17,92
467,012	48,64
467,218	-86,53
467,423	-8,7
467,628	-18,94
467,833	34,3
468,038	15,87
468,244	-68,09
468,449	101,89
468,654	13,82
468,859	19,97
469,064	99,84
469,269	-10,75
469,474	52,74
469,679	116,22
469,885	-18,94
470,09	44,54
470,295	52,74
470,5	-8,7
470,705	93,69
470,91	-10,75
471,115	-37,38
471,32	-2,56
471,525	62,98
471,73	60,93
471,935	50,69
472,139	73,21
472,344	42,5
472,549	-4,61
472,754	-16,9
472,959	13,82
473,164	36,35
473,369	3,58
473,574	11,78
473,778	13,82
473,983	54,78
474,188	36,35
474,393	-35,33
474,598	62,98
474,802	52,74
475,007	-29,18
475,212	9,73
475,417	5,63
475,621	56,83
475,826	65,02
476,031	-2,56
476,235	7,68
476,44	-27,14
476,645	-4,61
476,849	36,35
477,054	-53,76
477,259	44,54
477,463	30,21
477,668	5,63
477,872	56,83
478,077	42,5
478,282	-4,61
478,486	87,55
478,691	42,5
478,895	7,68
479,1	93,69
479,304	71,17
479,509	13,82
479,713	95,74
479,918	77,31
480,122	-20,99
480,326	22,02
480,531	-14,85
480,735	-27,14
480,94	-55,81
481,144	-4,61
481,348	30,21
481,553	58,88
481,757	56,83
481,961	-10,75
482,166	48,64
482,37	-31,23
482,574	65,02
482,778	15,87
482,983	54,78
483,187	5,63
483,391	3,58
483,595	7,68
483,8	77,31
484,004	7,68
484,208	-12,8
484,412	77,31
484,616	34,3
484,821	26,11
485,025	32,26
485,229	3,58
485,433	5,63
485,637	-2,56
485,841	60,93
486,045	67,07
486,249	56,83
486,453	7,68
486,657	-57,86
486,861	-33,28
487,065	-23,04
487,269	75,26
487,473	-29,18
487,677	120,32
487,881	118,27
488,085	15,87
488,289	77,31
488,493	-43,52
488,697	36,35
488,901	-23,04
489,105	26,11
489,309	19,97
489,512	60,93
489,716	9,73
489,92	38,4
490,124	-33,28
490,328	-10,75
490,531	-47,62
490,735	112,13
490,939	-0,51
491,143	56,83
491,346	48,64
491,55	3,58
491,754	-23,04
491,958	-4,61
492,161	-10,75
492,365	44,54
492,569	48,64
492,772	-0,51
492,976	71,17
493,18	5,63
493,383	3,58
493,587	28,16
493,79	-2,56
493,994	13,82
494,197	-27,14
494,401	-29,18
494,605	-74,24
494,808	40,45
495,012	77,31
495,215	-2,56
495,419	19,97
495,622	93,69
495,825	-16,9
496,029	-25,09
496,232	73,21
496,436	5,63
496,639	-27,14
496,843	11,78
497,046	-18,94
497,249	40,45
497,453	40,45
497,656	32,26
497,859	-41,47
498,063	5,63
498,266	-43,52
498,469	-68,09
498,673	34,3
498,876	-18,94
499,079	-86,53
499,282	-0,51
499,485	24,06
499,689	1,54
499,892	38,4
500,095	19,97
500,298	5,63
500,501	26,11
500,705	-74,24
500,908	22,02
501,111	60,93
501,314	40,45
501,517	-2,56
501,72	-18,94
501,923	101,89
502,126	1,54
502,329	-23,04
502,532	-4,61
502,735	-49,66
502,938	28,16
503,141	46,59
503,344	-37,38
503,547	-4,61
503,75	22,02
503,953	56,83
504,156	30,21
504,359	11,78
504,562	-25,09
504,765	-61,95
504,968	62,98
505,17	-57,86
505,373	85,5
505,576	5,63
505,779	40,45
505,982	-86,53
506,185	-33,28
506,387	-4,61
506,59	-2,56
506,793	17,92
506,996	-0,51
507,198	-2,56
507,401	103,93
507,604	44,54
507,807	24,06
508,009	36,35
508,212	19,97
508,415	-10,75
508,617	32,26
508,82	-8,7
509,022	36,35
509,225	22,02
509,428	-4,61
509,63	-12,8
509,833	95,74
510,035	89,6
510,238	11,78
510,44	38,4
510,643	11,78
510,845	44,54
511,048	38,4
511,25	7,68
511,453	17,92
511,655	69,12
511,858	65,02
512,06	17,92
512,262	-0,51
512,465	89,6
512,667	11,78
512,87	-31,23
513,072	62,98
513,274	46,59
513,477	19,97
513,679	-33,28
513,881	5,63
514,084	30,21
514,286	65,02
514,488	13,82
514,69	-29,18
514,893	-29,18
515,095	9,73
515,297	-27,14
515,499	93,69
515,701	34,3
515,904	95,74
516,106	34,3
516,308	3,58
516,51	5,63
516,712	-35,33
516,914	44,54
517,116	30,21
517,318	24,06
517,52	24,06
517,722	38,4
517,925	9,73
518,127	44,54
518,329	69,12
518,531	-51,71
518,733	32,26
518,935	11,78
519,136	62,98
519,338	-6,66
519,54	44,54
519,742	-6,66
519,944	56,83
520,146	-45,57
520,348	46,59
520,55	32,26
520,752	30,21
520,954	-86,53
521,155	-18,94
521,357	-8,7
521,559	52,74
521,761	-8,7
521,963	67,07
522,164	19,97
522,366	44,54
522,568	19,97
522,77	40,45
522,971	-14,85
523,173	17,92
523,375	11,78
523,576	-2,56
523,778	19,97
523,98	-53,76
524,181	52,74
524,383	-4,61
524,584	-47,62
524,786	-10,75
524,988	-14,85
525,189	-27,14
525,391	19,97
525,592	5,63
525,794	-78,33
525,995	32,26
526,197	1,54
526,398	60,93
526,6	-14,85
526,801	-53,76
527,003	1,54
527,204	-37,38
527,406	-18,94
527,607	67,07
527,808	-16,9
528,01	85,5
528,211	65,02
528,412	-45,57
528,614	19,97
528,815	36,35
529,016	-6,66
529,218	54,78
529,419	9,73
529,62	-72,19
529,822	52,74
530,023	15,87
530,224	-6,66
530,425	48,64
530,626	-12,8
530,828	1,54
531,029	19,97
531,23	36,35
531,431	1,54
531,632	34,3
531,833	19,97
532,035	-51,71
532,236	36,35
532,437	108,03
532,638	-4,61
532,839	-35,33
533,04	38,4
533,241	87,55
533,442	22,02
533,643	-10,75
533,844	-6,66
534,045	-0,51
534,246	-29,18
534,447	36,35
534,648	-90,62
534,849	79,36
535,05	1,54
535,251	-0,51
535,451	-51,71
535,652	44,54
535,853	-31,23
536,054	22,02
536,255	28,16
536,456	-8,7
536,657	-8,7
536,857	17,92
537,058	-35,33
537,259	-2,56
537,46	26,11
537,66	7,68
537,861	-12,8
538,062	87,55
538,263	-61,95
538,463	24,06
538,664	17,92
538,865	15,87
539,065	-27,14
539,266	62,98
539,466	-29,18
539,667	32,26
539,868	7,68
540,068	36,35
540,269	40,45
540,469	30,21
540,67	42,5
540,87	32,26
541,071	7,68
541,271	19,97
541,472	44,54
541,672	13,82
541,873	-4,61
542,073	28,16
542,274	3,58
542,474	-0,51
542,675	-0,51
542,875	-12,8
543,075	9,73
543,276	77,31
543,476	-16,9
543,676	1,54
543,877	-18,94
544,077	52,74
544,277	62,98
544,478	44,54
544,678	-14,85
544,878	-45,57
545,078	15,87
545,279	-2,56
545,479	11,78
545,679	-10,75
545,879	54,78
546,079	15,87
546,28	-31,23
546,48	-43,52
546,68	9,73
546,88	5,63
547,08	52,74
547,28	-12,8
547,48	-27,14
547,68	44,54
547,88	3,58
548,081	19,97
548,281	-47,62
548,481	-16,9
548,681	-29,18
548,881	32,26
549,081	36,35
549,28	28,16
549,48	11,78
549,68	-0,51
549,88	-33,28
550,08	-33,28
550,28	17,92
550,48	30,21
550,68	-6,66
550,88	17,92
551,08	-18,94
551,279	62,98
551,479	40,45
551,679	36,35
551,879	9,73
552,079	99,84
552,278	-35,33
552,478	52,74
552,678	11,78
552,878	40,45
553,077	13,82
553,277	-92,67
553,477	36,35
553,676	-10,75
553,876	7,68
554,076	22,02
554,275	24,06
554,475	-25,09
554,674	-45,57
554,874	110,08
555,074	30,21
555,273	-8,7
555,473	19,97
555,672	24,06
555,872	17,92
556,071	30,21
556,271	24,06
556,47	19,97
556,67	-18,94
556,869	65,02
557,068	40,45
557,268	11,78
557,467	-16,9
557,667	-14,85
557,866	11,78
558,065	7,68
558,265	-20,99
558,464	15,87
558,663	5,63
558,863	-39,42
559,062	13,82
559,261	67,07
559,461	-35,33
559,66	-20,99
559,859	-35,33
560,058	-4,61
560,258	-4,61
560,457	-68,09
560,656	5,63
560,855	3,58
561,054	67,07
561,253	58,88
561,453	-4,61
561,652	-53,76
561,851	-6,66
562,05	-43,52
562,249	-0,51
562,448	36,35
562,647	26,11
562,846	-49,66
563,045	-80,38
563,244	11,78
563,443	-29,18
563,642	-51,71
563,841	87,55
564,04	60,93
564,239	-6,66
564,438	36,35
564,637	3,58
564,836	77,31
565,035	13,82
565,234	3,58
565,432	-49,66
565,631	7,68
565,83	-47,62
566,029	-14,85
566,228	9,73
566,427	15,87
566,625	-76,29
566,824	-2,56
567,023	62,98
567,222	22,02
567,42	-23,04
567,619	-51,71
567,818	-41,47
568,016	67,07
568,215	-12,8
568,414	-10,75
568,612	-35,33
568,811	3,58
569,01	1,54
569,208	30,21
569,407	-10,75
569,605	60,93
569,804	28,16
570,002	46,59
570,201	19,97
570,4	93,69
570,598	-20,99
570,797	-10,75
570,995	-33,28
571,193	50,69
571,392	34,3
571,59	-88,57
571,789	-29,18
571,987	73,21
572,186	36,35
572,384	-2,56
572,582	-0,51
572,781	36,35
572,979	-35,33
573,177	28,16
573,376	69,12
573,574	118,27
573,772	-37,38
573,971	-37,38
574,169	-45,57
574,367	-37,38
574,565	-20,99
574,763	-45,57
574,962	-8,7
575,16	-37,38
575,358	-33,28
575,556	34,3
575,754	-45,57
575,952	-2,56
576,151	36,35
576,349	38,4
576,547	-18,94
576,745	9,73
576,943	9,73
577,141	7,68
577,339	54,78
577,537	-16,9
577,735	46,59
577,933	73,21
578,131	-66,05
578,329	60,93
578,527	-16,9
578,725	62,98
578,923	26,11
579,121	95,74
579,319	5,63
579,516	36,35
579,714	26,11
579,912	24,06
580,11	-37,38
580,308	-16,9
580,506	73,21
580,704	-2,56
580,901	-37,38
581,099	3,58
581,297	24,06
581,495	50,69
581,692	-53,76
581,89	48,64
582,088	-33,28
582,285	9,73
582,483	15,87
582,681	5,63
582,878	-12,8
583,076	58,88
583,274	1,54
583,471	-8,7
583,669	58,88
583,866	83,45
584,064	-20,99
584,262	9,73
584,459	-37,38
584,657	13,82
584,854	-6,66
585,052	34,3
585,249	32,26
585,447	44,54
585,644	-53,76
585,841	-23,04
586,039	9,73
586,236	69,12
586,434	-16,9
586,631	-2,56
586,828	52,74
587,026	48,64
587,223	-61,95
587,42	54,78
587,618	-53,76
587,815	38,4
588,012	30,21
588,21	54,78
588,407	38,4
588,604	46,59
588,801	22,02
588,999	-20,99
589,196	9,73
589,393	-27,14
589,59	-0,51
589,787	1,54
589,984	-12,8
590,182	-12,8
590,379	-4,61
590,576	40,45
590,773	3,58
590,97	-20,99
591,167	54,78
591,364	-0,51
591,561	-41,47
591,758	19,97
591,955	-12,8
592,152	9,73
592,349	3,58
592,546	28,16
592,743	-76,29
592,94	50,69
593,137	5,63
593,334	38,4
593,531	83,45
593,727	62,98
593,924	-53,76
594,121	-43,52
594,318	24,06
594,515	101,89
594,712	24,06
594,908	-4,61
595,105	1,54
595,302	11,78
595,499	36,35
595,696	15,87
595,892	-29,18
596,089	-4,61
596,286	36,35
596,482	-4,61
596,679	-23,04
596,876	15,87
597,072	-18,94
597,269	13,82
597,466	-10,75
597,662	-53,76
597,859	-35,33
598,055	-80,38
598,252	3,58
598,448	13,82
598,645	3,58
598,841	28,16
599,038	58,88
599,234	44,54
599,431	-10,75
599,627	42,5
599,824	71,17
600,02	-43,52
600,217	-27,14
600,413	52,74
600,609	-55,81
600,806	134,65
601,002	-8,7
601,198	-29,18
601,395	3,58
601,591	38,4
601,787	-55,81
601,984	36,35
602,18	3,58
602,376	13,82
602,572	1,54
602,769	28,16
602,965	15,87
603,161	5,63
603,357	-64
603,553	36,35
603,75	-68,09
603,946	36,35
604,142	38,4
604,338	71,17
604,534	-18,94
604,73	-53,76
604,926	-4,61
605,122	-4,61
605,318	-66,05
605,514	40,45
605,71	-43,52
605,906	22,02
606,102	-23,04
606,298	28,16
606,494	-37,38
606,69	50,69
606,886	28,16
607,082	58,88
607,278	-70,14
607,474	3,58
607,67	-43,52
607,866	-45,57
608,062	97,79
608,257	-16,9
608,453	30,21
608,649	15,87
608,845	-61,95
609,041	7,68
609,236	-10,75
609,432	-16,9
609,628	15,87
609,824	-6,66
610,019	-35,33
610,215	1,54
610,411	38,4
610,606	85,5
610,802	-4,61
610,998	-8,7
611,193	38,4
611,389	3,58
611,584	11,78
611,78	-98,81
611,976	-4,61
612,171	126,46
612,367	44,54
612,562	3,58
612,758	-8,7
612,953	-8,7
613,149	-29,18
613,344	60,93
613,539	42,5
613,735	-12,8
613,93	-51,71
614,126	-16,9
614,321	30,21
614,517	-27,14
614,712	-27,14
614,907	17,92
615,103	-29,18
615,298	1,54
615,493	-6,66
615,688	-33,28
615,884	-47,62
616,079	87,55
616,274	9,73
616,47	-76,29
616,665	-64
616,86	22,02
617,055	56,83
617,25	1,54
617,445	-66,05
617,641	-88,57
617,836	-53,76
618,031	7,68
618,226	-27,14
618,421	7,68
618,616	-14,85
618,811	26,11
619,006	-45,57
619,201	-23,04
619,396	-43,52
619,591	-100,86
619,786	34,3
619,981	-98,81
620,176	-2,56
620,371	19,97
620,566	-18,94
620,761	101,89
620,956	-2,56
621,151	-51,71
621,346	-6,66
621,541	7,68
621,735	56,83
621,93	40,45
622,125	-47,62
622,32	-53,76
622,515	-55,81
622,709	-18,94
622,904	71,17
623,099	-10,75
623,294	75,26
623,488	24,06
623,683	24,06
623,878	-6,66
624,072	-20,99
624,267	-70,14
624,462	7,68
624,656	-10,75
624,851	1,54
625,046	-14,85
625,24	-33,28
625,435	28,16
625,629	11,78
625,824	-12,8
626,018	-2,56
626,213	46,59
626,407	-23,04
626,602	42,5
626,796	13,82
626,991	34,3
627,185	-18,94
627,38	-37,38
627,574	28,16
627,768	-12,8
627,963	3,58
628,157	-20,99
628,352	7,68
628,546	17,92
628,74	17,92
628,935	1,54
629,129	-41,47
629,323	71,17
629,517	1,54
629,712	-27,14
629,906	-12,8
630,1	44,54
630,294	7,68
630,489	19,97
630,683	-6,66
630,877	-70,14
631,071	3,58
631,265	44,54
631,459	22,02
631,653	-8,7
631,848	7,68
632,042	28,16
632,236	-53,76
632,43	-0,51
632,624	-29,18
632,818	-2,56
633,012	42,5
633,206	-33,28
633,4	-41,47
633,594	9,73
633,788	-35,33
633,982	-39,42
634,176	26,11
634,369	-16,9
634,563	-18,94
634,757	-12,8
634,951	-39,42
635,145	5,63
635,339	-70,14
635,533	56,83
635,726	-33,28
635,92	42,5
636,114	5,63
636,308	15,87
636,501	-88,57
636,695	11,78
636,889	-20,99
637,083	46,59
637,276	11,78
637,47	-59,9
637,664	67,07
637,857	-98,81
638,051	-10,75
638,244	-20,99
638,438	-18,94
638,632	85,5
638,825	-51,71
639,019	-10,75
639,212	-23,04
639,406	15,87
639,599	36,35
639,793	-0,51
639,986	-16,9
640,18	-18,94
640,373	85,5
640,567	11,78
640,76	-57,86
640,954	9,73
641,147	7,68
641,34	-72,19
641,534	-10,75
641,727	5,63
641,92	-2,56
642,114	67,07
642,307	-25,09
642,5	-2,56
642,694	-10,75
642,887	-29,18
643,08	-33,28
643,273	-20,99
643,467	-2,56
643,66	19,97
643,853	-53,76
644,046	-18,94
644,239	5,63
644,432	-27,14
644,626	-76,29
644,819	-0,51
645,012	7,68
645,205	65,02
645,398	3,58
645,591	-2,56
645,784	5,63
645,977	46,59
646,17	-33,28
646,363	-61,95
646,556	-12,8
646,749	-2,56
646,942	13,82
647,135	22,02
647,328	22,02
647,521	26,11
647,714	-35,33
647,907	44,54
648,099	-6,66
648,292	83,45
648,485	28,16
648,678	-4,61
648,871	-12,8
649,064	-29,18
649,256	1,54
649,449	-18,94
649,642	22,02
649,835	-6,66
650,027	48,64
650,22	62,98
650,413	-12,8
650,605	42,5
650,798	36,35
650,991	17,92
651,183	-33,28
651,376	28,16
651,568	-12,8
651,761	46,59
651,954	34,3
652,146	28,16
652,339	30,21
652,531	-12,8
652,724	-2,56
652,916	52,74
653,109	-102,91
653,301	69,12
653,494	38,4
653,686	-25,09
653,879	54,78
654,071	60,93
654,263	19,97
654,456	-25,09
654,648	-18,94
654,84	48,64
655,033	-43,52
655,225	-2,56
655,417	28,16
655,61	30,21
655,802	48,64
655,994	69,12
656,186	26,11
656,379	22,02
656,571	3,58
656,763	-43,52
656,955	-4,61
657,148	-51,71
657,34	28,16
657,532	77,31
657,724	-61,95
657,916	79,36
658,108	32,26
658,3	-31,23
658,492	30,21
658,684	32,26
658,876	-37,38
659,068	3,58
659,26	-14,85
659,452	-8,7
659,644	36,35
659,836	-43,52
660,028	28,16
660,22	44,54
660,412	-10,75
660,604	-16,9
660,796	52,74
660,988	46,59
661,18	-49,66
661,372	52,74
661,563	3,58
661,755	-41,47
661,947	28,16
662,139	-29,18
662,331	-16,9
662,522	3,58
662,714	-6,66
662,906	-61,95
663,097	-57,86
663,289	-29,18
663,481	-57,86
663,673	-2,56
663,864	-10,75
664,056	-29,18
664,247	-29,18
664,439	15,87
664,631	-4,61
664,822	77,31
665,014	-0,51
665,205	-55,81
665,397	-16,9
665,588	15,87
665,78	60,93
665,971	-4,61
666,163	26,11
666,354	1,54
666,546	32,26
666,737	46,59
666,929	-23,04
667,12	38,4
667,311	-64
667,503	-0,51
667,694	36,35
667,885	54,78
668,077	-4,61
668,268	-92,67
668,459	13,82
668,651	-86,53
668,842	30,21
669,033	-12,8
669,224	-51,71
669,416	103,93
669,607	9,73
669,798	-76,29
669,989	-12,8
670,18	-37,38
670,371	50,69
670,563	-8,7
670,754	-25,09
670,945	11,78
671,136	-25,09
671,327	-12,8
671,518	75,26
671,709	22,02
671,9	-2,56
672,091	-10,75
672,282	5,63
672,473	9,73
672,664	34,3
672,855	28,16
673,046	77,31
673,237	38,4
673,428	-18,94
673,619	73,21
673,809	-23,04
674	13,82
674,191	13,82
674,382	15,87
674,573	-37,38
674,764	46,59
674,954	15,87
675,145	-25,09
675,336	1,54
675,527	3,58
675,717	3,58
675,908	-16,9
676,099	19,97
676,289	-6,66
676,48	-6,66
676,671	-10,75
676,861	-55,81
677,052	-45,57
677,243	-25,09
677,433	11,78
677,624	3,58
677,814	30,21
678,005	-12,8
678,195	26,11
678,386	54,78
678,576	13,82
678,767	-6,66
678,957	-16,9
679,148	13,82
679,338	-35,33
679,529	-61,95
679,719	-41,47
679,909	-2,56
680,1	44,54
680,29	30,21
680,481	-4,61
680,671	-68,09
680,861	69,12
681,052	-20,99
681,242	36,35
681,432	-27,14
681,622	24,06
681,813	-12,8
682,003	-29,18
682,193	-31,23
682,383	-37,38
682,573	24,06
682,764	-55,81
682,954	24,06
683,144	-10,75
683,334	11,78
683,524	42,5
683,714	-49,66
683,904	-53,76
684,094	13,82
684,284	9,73
684,474	5,63
684,664	-10,75
684,854	-51,71
685,044	5,63
685,234	-45,57
685,424	-49,66
685,614	-12,8
685,804	9,73
685,994	-109,05
686,184	77,31
686,374	58,88
686,564	44,54
686,753	22,02
686,943	1,54
687,133	32,26
687,323	34,3
687,513	28,16
687,702	-4,61
687,892	-4,61
688,082	-8,7
688,272	-25,09
688,461	48,64
688,651	28,16
688,841	-70,14
689,03	-45,57
689,22	44,54
689,41	-35,33
689,599	-23,04
689,789	11,78
689,979	-4,61
690,168	-16,9
690,358	52,74
690,547	52,74
690,737	-4,61
690,926	-12,8
691,116	-18,94
691,305	36,35
691,495	-16,9
691,684	-18,94
691,874	44,54
692,063	-33,28
692,252	-37,38
692,442	-33,28
692,631	-2,56
692,82	3,58
693,01	-70,14
693,199	-27,14
693,388	36,35
693,578	-76,29
693,767	28,16
693,956	-31,23
694,146	7,68
694,335	5,63
694,524	-16,9
694,713	42,5
694,902	19,97
695,092	-8,7
695,281	42,5
695,47	-41,47
695,659	3,58
695,848	11,78
696,037	11,78
696,226	-6,66
696,415	28,16
696,604	-16,9
696,793	112,13
696,982	-43,52
697,171	54,78
697,36	-23,04
697,549	-37,38
697,738	-51,71
697,927	-16,9
698,116	-51,71
698,305	69,12
698,494	-37,38
698,683	-0,51
698,872	34,3
699,061	-10,75
699,25	-20,99
699,438	28,16
699,627	-29,18
699,816	7,68
700,005	-4,61
700,193	-20,99
700,382	87,55
700,571	1,54
700,76	44,54
700,948	48,64
701,137	44,54
701,326	5,63
701,514	-41,47
701,703	75,26
701,892	32,26
702,08	28,16
702,269	1,54
702,457	52,74
702,646	36,35
702,834	52,74
703,023	5,63
703,212	22,02
703,4	38,4
703,589	13,82
703,777	-0,51
703,965	13,82
704,154	-25,09
704,342	-0,51
704,531	-10,75
704,719	-66,05
704,907	62,98
705,096	-43,52
705,284	-115,2
705,472	-27,14
705,661	-29,18
705,849	73,21
706,037	9,73
706,226	13,82
706,414	30,21
706,602	-18,94
706,79	30,21
706,979	-31,23
707,167	22,02
707,355	-45,57
707,543	-27,14
707,731	-66,05
707,919	79,36
708,107	-20,99
708,296	-94,72
708,484	38,4
708,672	-16,9
708,86	-16,9
709,048	13,82
709,236	17,92
709,424	26,11
709,612	-94,72
709,8	-49,66
709,988	-20,99
710,176	3,58
710,364	52,74
710,551	-43,52
710,739	9,73
710,927	28,16
711,115	30,21
711,303	17,92
711,491	-27,14
711,679	-41,47
711,866	65,02
712,054	-45,57
712,242	-10,75
712,43	65,02
712,617	-10,75
712,805	32,26
712,993	19,97
713,181	-43,52
713,368	24,06
713,556	-20,99
713,744	22,02
713,931	26,11
714,119	52,74
714,306	-72,19
714,494	3,58
714,682	46,59
714,869	-12,8
715,057	-0,51
715,244	-59,9
715,432	-33,28
715,619	-70,14
715,807	-82,43
715,994	-29,18
716,182	-6,66
716,369	19,97
716,556	56,83
716,744	-61,95
716,931	-43,52
717,119	3,58
717,306	-29,18
717,493	5,63
717,681	-45,57
717,868	15,87
718,055	-10,75
718,242	-20,99
718,43	-43,52
718,617	1,54
718,804	-29,18
718,991	77,31
719,179	24,06
719,366	-8,7
719,553	28,16
719,74	-45,57
719,927	-47,62
720,114	-27,14
720,301	-16,9
720,488	-2,56
720,676	48,64
720,863	-4,61
721,05	-18,94
721,237	-33,28
721,424	85,5
721,611	50,69
721,798	-33,28
721,985	-86,53
722,172	-6,66
722,358	-31,23
722,545	-35,33
722,732	-18,94
722,919	52,74
723,106	-33,28
723,293	-49,66
723,48	24,06
723,667	-70,14
723,853	81,41
724,04	19,97
724,227	46,59
724,414	-16,9
724,6	11,78
724,787	9,73
724,974	46,59
725,161	-25,09
725,347	-29,18
725,534	32,26
725,72	-45,57
725,907	11,78
726,094	3,58
726,28	-6,66
726,467	-41,47
726,653	7,68
726,84	32,26
727,027	32,26
727,213	-12,8
727,4	-0,51
727,586	-51,71
727,773	-16,9
727,959	28,16
728,145	-0,51
728,332	15,87
728,518	19,97
728,705	-4,61
728,891	-47,62
729,077	-12,8
729,264	9,73
729,45	36,35
729,636	-23,04
729,823	-10,75
730,009	-2,56
730,195	24,06
730,382	32,26
730,568	-31,23
730,754	32,26
730,94	19,97
731,126	-47,62
731,313	38,4
731,499	-37,38
731,685	-18,94
731,871	-68,09
732,057	24,06
732,243	-2,56
732,429	73,21
732,615	-2,56
732,801	32,26
732,987	-8,7
733,173	32,26
733,359	-0,51
733,545	67,07
733,731	-27,14
733,917	79,36
734,103	19,97
734,289	-37,38
734,475	9,73
734,661	-33,28
734,847	-76,29
735,033	-4,61
735,219	-45,57
735,404	69,12
735,59	-100,86
735,776	17,92
735,962	-61,95
736,148	-2,56
736,333	-6,66
736,519	-8,7
736,705	-18,94
736,89	-8,7
737,076	44,54
737,262	-78,33
737,447	58,88
737,633	-70,14
737,819	22,02
738,004	44,54
738,19	-45,57
738,375	-8,7
738,561	-72,19
738,747	1,54
738,932	-49,66
739,118	36,35
739,303	9,73
739,489	11,78
739,674	-20,99
739,859	-25,09
740,045	-57,86
740,23	-0,51
740,416	-88,57
740,601	-10,75
740,786	-2,56
740,972	13,82
741,157	-102,91
741,342	22,02
741,528	-27,14
741,713	-16,9
741,898	-2,56
742,084	15,87
742,269	-12,8
742,454	3,58
742,639	-20,99
742,824	28,16
743,01	-0,51
743,195	42,5
743,38	3,58
743,565	83,45
743,75	22,02
743,935	3,58
744,12	32,26
744,305	-27,14
744,49	105,98
744,675	-4,61
744,86	-18,94
745,045	-25,09
745,23	-16,9
745,415	-27,14
745,6	40,45
745,785	3,58
745,97	13,82
746,155	-27,14
746,34	-41,47
746,525	-41,47
746,71	65,02
746,895	-12,8
747,079	-66,05
747,264	38,4
747,449	28,16
747,634	69,12
747,819	-2,56
748,003	19,97
748,188	-12,8
748,373	11,78
748,557	28,16
748,742	7,68
748,927	-18,94
749,111	-16,9
749,296	-39,42
749,481	-25,09
749,665	-12,8
749,85	-20,99
750,034	34,3
750,219	17,92
750,404	-4,61
750,588	-31,23
750,773	-55,81
750,957	-10,75
751,141	-6,66
751,326	-0,51
751,51	-57,86
751,695	-35,33
751,879	-8,7
752,064	19,97
752,248	-2,56
752,432	-18,94
752,617	3,58
752,801	-14,85
752,985	-41,47
753,17	-29,18
753,354	-6,66
753,538	-2,56
753,722	-66,05
753,907	-8,7
754,091	-16,9
754,275	38,4
754,459	-12,8
754,643	-27,14
754,828	22,02
755,012	19,97
755,196	-20,99
755,38	19,97
755,564	30,21
755,748	22,02
755,932	-31,23
756,116	15,87
756,3	15,87
756,484	-18,94
756,668	-51,71
756,852	-47,62
757,036	-25,09
757,22	-41,47
757,404	24,06
757,588	-49,66
757,772	132,61
757,956	-35,33
758,14	50,69
758,323	-29,18
758,507	24,06
758,691	-47,62
758,875	17,92
759,059	71,17
759,242	-6,66
759,426	50,69
759,61	-0,51
759,794	-35,33
759,977	38,4
760,161	65,02
760,345	-0,51
760,528	13,82
760,712	40,45
760,895	-16,9
761,079	5,63
761,263	-59,9
761,446	26,11
761,63	22,02
761,813	54,78
761,997	-12,8
762,18	-4,61
762,364	13,82
762,547	-92,67
762,731	-14,85
762,914	34,3
763,098	-10,75
763,281	-43,52
763,464	-16,9
763,648	1,54
763,831	36,35
764,015	-61,95
764,198	-10,75
764,381	-2,56
764,564	28,16
764,748	42,5
764,931	-74,24
765,114	-64
765,297	46,59
765,481	19,97
765,664	-4,61
765,847	-29,18
766,03	-35,33
766,213	-16,9
766,397	-53,76
766,58	-64
766,763	-35,33
766,946	-78,33
767,129	-4,61
767,312	-64
767,495	-0,51
767,678	-16,9
767,861	-0,51
768,044	77,31
768,227	-23,04
768,41	-59,9
768,593	9,73
768,776	-88,57
768,959	52,74
769,142	-66,05
769,324	1,54
769,507	-8,7
769,69	-2,56
769,873	42,5
770,056	93,69
770,239	-8,7
770,421	19,97
770,604	-8,7
770,787	95,74
770,97	-31,23
771,152	-18,94
771,335	13,82
771,518	-2,56
771,7	-74,24
771,883	-59,9
772,066	-37,38
772,248	-18,94
772,431	22,02
772,613	-37,38
772,796	-2,56
772,978	128,51
773,161	-43,52
773,343	-72,19
773,526	54,78
773,708	-59,9
773,891	9,73
774,073	28,16
774,256	-29,18
774,438	-20,99
774,621	-29,18
774,803	69,12
774,985	-25,09
775,168	3,58
775,35	-37,38
775,532	-64
775,715	-55,81
775,897	-4,61
776,079	13,82
776,261	5,63
776,444	28,16
776,626	-4,61
776,808	-37,38
776,99	-113,15
777,173	-18,94
777,355	-6,66
777,537	-43,52
777,719	19,97
777,901	17,92
778,083	-51,71
778,265	-45,57
778,447	73,21
778,629	19,97
778,811	-47,62
778,993	60,93
779,175	32,26
779,357	-14,85
779,539	32,26
779,721	-20,99
779,903	93,69
780,085	-14,85
780,267	-16,9
780,449	7,68
780,631	48,64
780,812	48,64
780,994	11,78
781,176	30,21
781,358	11,78
781,54	-47,62
781,721	-53,76
781,903	-12,8
782,085	-39,42
782,267	24,06
782,448	-18,94
782,63	22,02
782,812	5,63
782,993	-2,56
783,175	-0,51
783,357	-35,33
783,538	-4,61
783,72	-49,66
783,901	-55,81
784,083	-18,94
784,264	-6,66
784,446	-78,33
784,627	36,35
784,809	3,58
784,99	-29,18
785,172	-4,61
785,353	-39,42
785,535	-25,09
785,716	-10,75
785,897	-41,47
786,079	-14,85
786,26	-41,47
786,441	48,64
786,623	-45,57
786,804	9,73
786,985	19,97
787,167	-10,75
787,348	-18,94
787,529	15,87
787,71	-8,7
787,891	28,16
788,073	-94,72
788,254	-23,04
788,435	52,74
788,616	-68,09
788,797	-20,99
788,978	-43,52
789,159	-96,77
789,34	-66,05
789,522	-12,8
789,703	-41,47
789,884	-43,52
790,065	32,26
790,246	15,87
790,427	-20,99
790,607	-8,7
790,788	36,35
790,969	-0,51
791,15	11,78
791,331	-45,57
791,512	48,64
791,693	-57,86
791,874	-57,86
792,054	120,32
792,235	36,35
792,416	62,98
792,597	22,02
792,778	5,63
792,958	11,78
793,139	-12,8
793,32	30,21
793,5	-45,57
793,681	-2,56
793,862	40,45
794,042	-27,14
794,223	5,63
794,404	-2,56
794,584	-100,86
794,765	-12,8
794,945	-16,9
795,126	46,59
795,306	-49,66
795,487	-55,81
795,667	-37,38
795,848	11,78
796,028	-29,18
796,209	69,12
796,389	-41,47
796,57	-0,51
796,75	-125,44
796,93	-49,66
797,111	-68,09
797,291	-20,99
797,471	30,21
797,652	-0,51
797,832	-37,38
798,012	36,35
798,192	-37,38
798,373	-20,99
798,553	40,45
798,733	-16,9
798,913	-4,61
799,093	110,08
799,274	-102,91
799,454	5,63
799,634	-33,28
799,814	56,83
799,994	1,54
800,174	-8,7
800,354	3,58
800,534	-29,18
800,714	5,63
800,894	-43,52
801,074	-6,66
801,254	11,78
801,434	-2,56
801,614	-47,62
801,794	-47,62
801,974	488,95
802,154	-57,86
802,334	83,45
802,514	-61,95
802,693	-16,9
802,873	44,54
803,053	19,97
803,233	-27,14
803,413	9,73
803,592	15,87
803,772	-123,39
803,952	-55,81
804,131	-82,43
804,311	-18,94
804,491	-4,61
804,67	-82,43
804,85	-86,53
805,03	-0,51
805,209	67,07
805,389	-6,66
805,568	19,97
805,748	15,87
805,928	-0,51
806,107	-20,99
806,287	-10,75
806,466	-16,9
806,646	32,26
806,825	-84,48
807,004	44,54
807,184	-4,61
807,363	22,02
807,543	17,92
807,722	32,26
807,901	-20,99
808,081	1,54
808,26	-59,9
808,439	-59,9
808,619	-14,85
808,798	75,26
808,977	-23,04
809,156	-27,14
809,336	-31,23
809,515	-29,18
809,694	-66,05
809,873	-49,66
810,052	52,74
810,231	9,73
810,411	13,82
810,59	11,78
810,769	-43,52
810,948	-45,57
811,127	-94,72
811,306	11,78
811,485	-59,9
811,664	42,5
811,843	-70,14
812,022	-2,56
812,201	-41,47
812,38	-53,76
812,559	-8,7
812,737	19,97
812,916	44,54
813,095	3,58
813,274	13,82
813,453	22,02
813,632	-4,61
813,811	-6,66
813,989	-10,75
814,168	-55,81
814,347	15,87
814,526	3,58
814,704	9,73
814,883	5,63
815,062	-51,71
815,24	-25,09
815,419	-12,8
815,598	-41,47
815,776	-20,99
815,955	22,02
816,133	-29,18
816,312	-27,14
816,49	-57,86
816,669	-0,51
816,847	-2,56
817,026	38,4
817,204	-8,7
817,383	-4,61
817,561	-76,29
817,74	28,16
817,918	-39,42
818,097	-10,75
818,275	-64
818,453	-43,52
818,632	-23,04
818,81	-29,18
818,988	46,59
819,167	17,92
819,345	-0,51
819,523	-2,56
819,701	-23,04
819,879	-8,7
820,058	-10,75
820,236	5,63
820,414	22,02
820,592	-0,51
820,77	-57,86
820,948	-20,99
821,127	-6,66
821,305	3,58
821,483	-70,14
821,661	11,78
821,839	-0,51
822,017	-27,14
822,195	-4,61
822,373	65,02
822,551	26,11
822,729	-31,23
822,907	-10,75
823,085	69,12
823,262	-43,52
823,44	-74,24
823,618	-37,38
823,796	-12,8
823,974	-0,51
824,152	-33,28
824,329	-29,18
824,507	-37,38
824,685	-59,9
824,863	-10,75
825,04	67,07
825,218	-4,61
825,396	7,68
825,574	15,87
825,751	-57,86
825,929	46,59
826,107	-49,66
826,284	-53,76
826,462	7,68
826,639	-125,44
826,817	22,02
826,994	-53,76
827,172	-49,66
827,349	62,98
827,527	-111,1
827,704	-18,94
827,882	-8,7
828,059	26,11
828,237	-6,66
828,414	-4,61
828,591	-72,19
828,769	-51,71
828,946	9,73
829,124	5,63
829,301	44,54
829,478	-4,61
829,655	-12,8
829,833	-31,23
830,01	-64
830,187	-16,9
830,364	-92,67
830,542	11,78
830,719	-72,19
830,896	52,74
831,073	-74,24
831,25	-25,09
831,427	-29,18
831,604	69,12
831,782	-74,24
831,959	19,97
832,136	-14,85
832,313	-0,51
832,49	-29,18
832,667	-29,18
832,844	-57,86
833,021	105,98
833,198	-35,33
833,374	-8,7
833,551	-16,9
833,728	-18,94
833,905	-4,61
834,082	-23,04
834,259	26,11
834,436	32,26
834,612	-16,9
834,789	-4,61
834,966	30,21
835,143	-12,8
835,319	-66,05
835,496	-12,8
835,673	32,26
835,85	-4,61
836,026	34,3
836,203	15,87
836,38	15,87
836,556	-49,66
836,733	-27,14
836,909	87,55
837,086	-68,09
837,262	-53,76
837,439	19,97
837,616	-16,9
837,792	3,58
837,968	7,68
838,145	-66,05
838,321	3,58
838,498	-0,51
838,674	-37,38
838,851	-16,9
839,027	-12,8
839,203	-14,85
839,38	28,16
839,556	-59,9
839,732	9,73
839,909	-2,56
840,085	-4,61
840,261	-23,04
840,437	38,4
840,614	-61,95
840,79	101,89
840,966	-0,51
841,142	36,35
841,318	-29,18
841,494	28,16
841,671	-57,86
841,847	-23,04
842,023	-18,94
842,199	-16,9
842,375	32,26
842,551	5,63
842,727	-14,85
842,903	-20,99
843,079	-70,14
843,255	46,59
843,431	52,74
843,607	3,58
843,783	-78,33
843,959	79,36
844,134	42,5
844,31	-16,9
844,486	3,58
844,662	7,68
844,838	13,82
845,013	-88,57
845,189	52,74
845,365	22,02
845,541	-25,09
845,716	22,02
845,892	-20,99
846,068	-25,09
846,244	-33,28
846,419	-61,95
846,595	9,73
846,77	-18,94
846,946	3,58
847,122	22,02
847,297	-33,28
847,473	54,78
847,648	-33,28
847,824	44,54
847,999	-45,57
848,175	38,4
848,35	52,74
848,526	42,5
848,701	67,07
848,876	-4,61
849,052	22,02
849,227	32,26
849,403	-41,47
849,578	7,68
849,753	-20,99
849,929	13,82
850,104	-37,38
850,279	36,35
850,454	36,35
850,63	-29,18
850,805	-18,94
850,98	17,92
851,155	38,4
851,33	11,78
851,505	-86,53
851,681	56,83
851,856	-43,52
852,031	26,11
852,206	-25,09
852,381	-64
852,556	34,3
852,731	-49,66
852,906	26,11
853,081	-20,99
853,256	71,17
853,431	-4,61
853,606	-147,97
853,781	-2,56
853,956	-66,05
854,131	40,45
854,305	-55,81
854,48	19,97
854,655	46,59
854,83	32,26
855,005	-8,7
855,18	34,3
855,354	-16,9
855,529	7,68
855,704	-10,75
855,879	40,45
856,053	-131,58
856,228	-43,52
856,403	-61,95
856,577	-8,7
856,752	-78,33
856,926	-25,09
857,101	-12,8
857,276	28,16
857,45	13,82
857,625	-37,38
857,799	32,26
857,974	-2,56
858,148	13,82
858,323	13,82
858,497	-53,76
858,672	5,63
858,846	-61,95
859,02	62,98
859,195	-6,66
859,369	36,35
859,543	3,58
859,718	-4,61
859,892	15,87
860,066	-12,8
860,241	7,68
860,415	-43,52
860,589	-61,95
860,763	-0,51
860,938	-25,09
861,112	-16,9
861,286	-53,76
861,46	-10,75
861,634	-8,7
861,808	17,92
861,982	-14,85
862,157	-37,38
862,331	-37,38
862,505	-64
862,679	-53,76
862,853	-37,38
863,027	40,45
863,201	-29,18
863,375	-45,57
863,549	19,97
863,722	42,5
863,896	24,06
864,07	-2,56
864,244	-23,04
864,418	32,26
864,592	-29,18
864,766	7,68
864,939	-33,28
865,113	-57,86
865,287	30,21
865,461	-78,33
865,634	-12,8
865,808	-59,9
865,982	-74,24
866,156	3,58
866,329	-12,8
866,503	-45,57
866,676	60,93
866,85	60,93
867,024	24,06
867,197	-47,62
867,371	3,58
867,544	-4,61
867,718	-31,23
867,891	-20,99
868,065	-16,9
868,238	3,58
868,412	-10,75
868,585	7,68
868,759	-23,04
868,932	9,73
869,105	-66,05
869,279	-86,53
869,452	-74,24
869,625	-18,94
869,799	44,54
869,972	-25,09
870,145	-41,47
870,319	-0,51
870,492	5,63
870,665	28,16
870,838	-16,9
871,011	-78,33
871,185	54,78
871,358	-43,52
871,531	-10,75
871,704	1,54
871,877	30,21
872,05	-16,9
872,223	17,92
872,396	3,58
872,569	-6,66
872,742	42,5
872,915	-0,51
873,088	-12,8
873,261	-35,33
873,434	5,63
873,607	-12,8
873,78	5,63
873,953	-41,47
874,126	-20,99
874,299	44,54
874,471	-45,57
874,644	5,63
874,817	-16,9
874,99	-20,99
875,163	-29,18
875,335	-41,47
875,508	-12,8
875,681	40,45
875,853	-82,43
876,026	-45,57
876,199	22,02
876,371	15,87
876,544	-20,99
876,717	-31,23
876,889	-33,28
877,062	-0,51
877,234	-29,18
877,407	-29,18
877,579	26,11
877,752	11,78
877,924	-20,99
878,097	5,63
878,269	-45,57
878,442	-72,19
878,614	-74,24
878,786	-18,94
878,959	1,54
879,131	-0,51
879,303	-18,94
879,476	-45,57
879,648	46,59
879,82	50,69
879,993	-70,14
880,165	-109,05
880,337	-61,95
880,509	48,64
880,681	-18,94
880,854	-43,52
881,026	-43,52
881,198	85,5
881,37	5,63
881,542	-14,85
881,714	-59,9
881,886	3,58
882,058	-68,09
882,23	-51,71
882,402	32,26
882,574	-14,85
882,746	7,68
882,918	24,06
883,09	36,35
883,262	-90,62
883,434	-10,75
883,606	-33,28
883,778	11,78
883,95	44,54
884,122	-18,94
884,293	-20,99
884,465	-33,28
884,637	-8,7
884,809	9,73
884,98	-20,99
885,152	-14,85
885,324	13,82
885,496	-29,18
885,667	5,63
885,839	-86,53
886,011	36,35
886,182	-45,57
886,354	-86,53
886,525	52,74
886,697	-35,33
886,869	36,35
887,04	44,54
887,212	-0,51
887,383	128,51
887,555	30,21
887,726	24,06
887,897	-20,99
888,069	24,06
888,24	19,97
888,412	-39,42
888,583	60,93
888,754	46,59
888,926	54,78
889,097	-29,18
889,268	-45,57
889,44	-18,94
889,611	-29,18
889,782	-78,33
889,953	-43,52
890,125	65,02
890,296	13,82
890,467	-51,71
890,638	32,26
890,809	9,73
890,98	-115,2
891,151	-33,28
891,323	13,82
891,494	-94,72
891,665	-33,28
891,836	-16,9
892,007	-68,09
892,178	-49,66
892,349	-49,66
892,52	-29,18
892,691	-111,1
892,862	-82,43
893,032	-70,14
893,203	-29,18
893,374	30,21
893,545	13,82
893,716	-37,38
893,887	5,63
894,057	-47,62
894,228	-35,33
894,399	-20,99
894,57	62,98
894,74	32,26
894,911	-23,04
895,082	15,87
895,253	-41,47
895,423	46,59
895,594	32,26
895,764	22,02
895,935	3,58
896,106	-16,9
896,276	5,63
896,447	-43,52
896,617	-29,18
896,788	-51,71
896,958	-92,67
897,129	-23,04
897,299	-12,8
897,47	17,92
897,64	-37,38
897,81	-53,76
897,981	3,58
898,151	-64
898,322	46,59
898,492	62,98
898,662	-59,9
898,832	-12,8
899,003	28,16
899,173	-35,33
899,343	-45,57
899,513	-49,66
