Data from filtre430_USB4F104151__3__11-51-40-475.txt Node

Date: Wed Apr 15 11:51:40 EDT 2026
User: LaboPhy
Spectrometer: USB4F10415
Trigger mode: 4
Integration Time (sec): 2,500000E-2
Scans to average: 1
Electric dark correction enabled: true
Nonlinearity correction enabled: false
Boxcar width: 0
XAxis mode: Wavelengths
Number of Pixels in Spectrum: 3648
>>>>>Begin Spectral Data<<<<<
178,204	-112,47
178,424	-112,47
178,644	-112,47
178,864	-100,18
179,084	-94,04
179,304	43,18
179,524	-32,6
179,744	43,18
179,964	67,75
180,184	32,94
180,404	-12,12
180,624	16,55
180,844	-61,27
181,064	-48,98
181,283	2,22
181,503	-16,21
181,723	-34,64
181,943	-40,79
182,163	71,85
182,383	6,31
182,602	75,95
182,822	34,99
183,042	8,36
183,262	53,42
183,482	49,32
183,701	4,27
183,921	-30,55
184,141	-44,88
184,361	69,8
184,58	24,75
184,8	-61,27
185,02	-57,17
185,239	59,56
185,459	-12,12
185,679	8,36
185,898	41,13
186,118	112,81
186,338	4,27
186,557	82,09
186,777	-38,74
186,997	16,55
187,216	22,7
187,436	57,51
187,655	69,8
187,875	8,36
188,095	22,7
188,314	4,27
188,534	69,8
188,753	-30,55
188,973	-18,26
189,192	67,75
189,412	49,32
189,631	-8,02
189,851	12,46
190,07	18,6
190,29	-46,93
190,509	-16,21
190,729	2,22
190,948	67,75
191,168	65,71
191,387	90,28
191,607	24,75
191,826	2,22
192,045	14,51
192,265	4,27
192,484	-24,4
192,704	-22,36
192,923	20,65
193,142	37,03
193,362	39,08
193,581	65,71
193,8	41,13
194,02	26,79
194,239	-12,12
194,458	69,8
194,678	53,42
194,897	49,32
195,116	43,18
195,335	102,57
195,555	37,03
195,774	59,56
195,993	43,18
196,212	34,99
196,432	10,41
196,651	2,22
196,87	-51,03
197,089	67,75
197,308	-20,31
197,528	0,17
197,747	-18,26
197,966	6,31
198,185	0,17
198,404	-44,88
198,623	-34,64
198,842	20,65
199,062	39,08
199,281	10,41
199,5	63,66
199,719	14,51
199,938	98,47
200,157	102,57
200,376	63,66
200,595	90,28
200,814	-12,12
201,033	-20,31
201,252	8,36
201,471	-16,21
201,69	57,51
201,909	57,51
202,128	61,61
202,347	8,36
202,566	0,17
202,785	14,51
203,004	32,94
203,223	90,28
203,442	30,89
203,661	8,36
203,879	57,51
204,098	34,99
204,317	-40,79
204,536	41,13
204,755	16,55
204,974	22,7
205,193	67,75
205,411	41,13
205,63	90,28
205,849	-12,12
206,068	53,42
206,287	0,17
206,505	16,55
206,724	34,99
206,943	16,55
207,162	65,71
207,381	-16,21
207,599	-24,4
207,818	-46,93
208,037	18,6
208,255	57,51
208,474	37,03
208,693	26,79
208,911	-1,88
209,13	12,46
209,349	12,46
209,567	-30,55
209,786	47,27
210,005	37,03
210,223	41,13
210,442	4,27
210,661	82,09
210,879	41,13
211,098	49,32
211,316	-8,02
211,535	65,71
211,753	10,41
211,972	-38,74
212,191	-8,02
212,409	84,14
212,628	49,32
212,846	-32,6
213,065	30,89
213,283	30,89
213,502	-5,97
213,72	57,51
213,938	-87,89
214,157	6,31
214,375	-8,02
214,594	-1,88
214,812	-44,88
215,031	26,79
215,249	2,22
215,467	0,17
215,686	2,22
215,904	41,13
216,122	-32,6
216,341	-1,88
216,559	-57,17
216,778	67,75
216,996	55,47
217,214	28,84
217,432	34,99
217,651	18,6
217,869	16,55
218,087	-30,55
218,306	-51,03
218,524	59,56
218,742	-38,74
218,96	-26,45
219,179	-24,4
219,397	-94,04
219,615	114,86
219,833	71,85
220,051	39,08
220,27	98,47
220,488	69,8
220,706	-30,55
220,924	2,22
221,142	4,27
221,36	30,89
221,578	-12,12
221,796	-14,17
222,015	-26,45
222,233	30,89
222,451	-14,17
222,669	20,65
222,887	32,94
223,105	-14,17
223,323	26,79
223,541	-36,69
223,759	-28,5
223,977	37,03
224,195	49,32
224,413	53,42
224,631	39,08
224,849	-14,17
225,067	18,6
225,285	4,27
225,503	65,71
225,721	-3,93
225,939	28,84
226,157	10,41
226,375	139,43
226,592	32,94
226,81	26,79
227,028	24,75
227,246	22,7
227,464	-46,93
227,682	88,23
227,9	-18,26
228,117	32,94
228,335	80,04
228,553	-20,31
228,771	-22,36
228,989	12,46
229,206	-28,5
229,424	-14,17
229,642	-14,17
229,86	-42,84
230,077	30,89
230,295	2,22
230,513	51,37
230,731	24,75
230,948	32,94
231,166	4,27
231,384	45,23
231,601	-8,02
231,819	24,75
232,037	26,79
232,254	-34,64
232,472	30,89
232,689	2,22
232,907	75,95
233,125	39,08
233,342	82,09
233,56	-5,97
233,777	0,17
233,995	118,95
234,213	73,9
234,43	92,33
234,648	53,42
234,865	24,75
235,083	39,08
235,3	-22,36
235,518	77,99
235,735	28,84
235,953	0,17
236,17	77,99
236,388	18,6
236,605	24,75
236,822	-40,79
237,04	45,23
237,257	51,37
237,475	-96,08
237,692	12,46
237,909	55,47
238,127	71,85
238,344	16,55
238,562	100,52
238,779	-8,02
238,996	-10,07
239,214	8,36
239,431	20,65
239,648	-46,93
239,865	-8,02
240,083	28,84
240,3	63,66
240,517	-114,52
240,735	-55,12
240,952	-32,6
241,169	14,51
241,386	2,22
241,603	-28,5
241,821	-1,88
242,038	-24,4
242,255	-26,45
242,472	-79,7
242,689	14,51
242,907	80,04
243,124	8,36
243,341	32,94
243,558	-75,6
243,775	51,37
243,992	-8,02
244,209	10,41
244,426	39,08
244,643	26,79
244,86	18,6
245,078	6,31
245,295	20,65
245,512	12,46
245,729	28,84
245,946	63,66
246,163	-20,31
246,38	24,75
246,597	63,66
246,814	-5,97
247,031	-32,6
247,248	53,42
247,464	6,31
247,681	24,75
247,898	-8,02
248,115	18,6
248,332	51,37
248,549	51,37
248,766	8,36
248,983	-16,21
249,2	16,55
249,417	41,13
249,633	10,41
249,85	-16,21
250,067	-32,6
250,284	57,51
250,501	65,71
250,717	59,56
250,934	39,08
251,151	-46,93
251,368	-8,02
251,585	18,6
251,801	51,37
252,018	-48,98
252,235	18,6
252,451	-30,55
252,668	51,37
252,885	61,61
253,102	28,84
253,318	16,55
253,535	-20,31
253,752	-5,97
253,968	45,23
254,185	67,75
254,401	32,94
254,618	-30,55
254,835	102,57
255,051	12,46
255,268	57,51
255,484	8,36
255,701	20,65
255,917	34,99
256,134	6,31
256,351	26,79
256,567	10,41
256,784	0,17
257	-59,22
257,217	30,89
257,433	39,08
257,65	12,46
257,866	57,51
258,082	-81,75
258,299	20,65
258,515	24,75
258,732	-40,79
258,948	26,79
259,165	24,75
259,381	10,41
259,597	12,46
259,814	75,95
260,03	69,8
260,246	24,75
260,463	96,43
260,679	22,7
260,895	-3,93
261,112	30,89
261,328	-48,98
261,544	16,55
261,761	47,27
261,977	-59,22
262,193	-51,03
262,409	18,6
262,626	8,36
262,842	-59,22
263,058	-30,55
263,274	-1,88
263,49	30,89
263,707	10,41
263,923	90,28
264,139	32,94
264,355	-24,4
264,571	-22,36
264,787	20,65
265,004	24,75
265,22	28,84
265,436	-30,55
265,652	0,17
265,868	6,31
266,084	-32,6
266,3	16,55
266,516	-71,51
266,732	32,94
266,948	-24,4
267,164	22,7
267,38	-18,26
267,596	-30,55
267,812	49,32
268,028	22,7
268,244	4,27
268,46	34,99
268,676	-22,36
268,892	10,41
269,108	-36,69
269,324	-24,4
269,54	-48,98
269,756	98,47
269,972	-1,88
270,188	-28,5
270,403	-57,17
270,619	16,55
270,835	-3,93
271,051	55,47
271,267	-32,6
271,483	26,79
271,698	0,17
271,914	34,99
272,13	45,23
272,346	65,71
272,562	10,41
272,777	12,46
272,993	30,89
273,209	24,75
273,425	63,66
273,64	57,51
273,856	-16,21
274,072	49,32
274,287	-16,21
274,503	26,79
274,719	51,37
274,934	-12,12
275,15	-36,69
275,366	34,99
275,581	-5,97
275,797	49,32
276,012	-8,02
276,228	-22,36
276,444	-24,4
276,659	41,13
276,875	-8,02
277,09	-53,08
277,306	-32,6
277,521	45,23
277,737	16,55
277,952	77,99
278,168	14,51
278,383	98,47
278,599	6,31
278,814	16,55
279,03	-16,21
279,245	84,14
279,461	-24,4
279,676	34,99
279,892	-16,21
280,107	20,65
280,322	-36,69
280,538	-16,21
280,753	24,75
280,969	26,79
281,184	0,17
281,399	55,47
281,615	26,79
281,83	67,75
282,045	-1,88
282,26	-22,36
282,476	2,22
282,691	12,46
282,906	-26,45
283,122	26,79
283,337	8,36
283,552	20,65
283,767	0,17
283,983	28,84
284,198	28,84
284,413	18,6
284,628	-61,27
284,843	34,99
285,058	-20,31
285,274	8,36
285,489	-32,6
285,704	20,65
285,919	12,46
286,134	34,99
286,349	-28,5
286,564	-5,97
286,779	63,66
286,995	39,08
287,21	16,55
287,425	65,71
287,64	-24,4
287,855	-14,17
288,07	-5,97
288,285	24,75
288,5	43,18
288,715	-10,07
288,93	34,99
289,145	43,18
289,36	98,47
289,575	10,41
289,79	16,55
290,004	-5,97
290,219	69,8
290,434	63,66
290,649	24,75
290,864	0,17
291,079	-16,21
291,294	32,94
291,509	-32,6
291,724	2,22
291,938	59,56
292,153	-3,93
292,368	0,17
292,583	4,27
292,798	24,75
293,012	-22,36
293,227	-24,4
293,442	24,75
293,657	2,22
293,871	20,65
294,086	-46,93
294,301	67,75
294,516	39,08
294,73	118,95
294,945	-61,27
295,16	-24,4
295,374	92,33
295,589	24,75
295,804	37,03
296,018	-5,97
296,233	110,76
296,447	10,41
296,662	-14,17
296,877	98,47
297,091	-10,07
297,306	6,31
297,52	8,36
297,735	26,79
297,949	-3,93
298,164	-8,02
298,378	-14,17
298,593	-30,55
298,807	-5,97
299,022	26,79
299,236	20,65
299,451	49,32
299,665	-14,17
299,88	-14,17
300,094	39,08
300,309	32,94
300,523	49,32
300,737	18,6
300,952	20,65
301,166	4,27
301,381	-20,31
301,595	20,65
301,809	-36,69
302,024	-5,97
302,238	-40,79
302,452	32,94
302,667	37,03
302,881	53,42
303,095	-8,02
303,309	-24,4
303,524	-30,55
303,738	37,03
303,952	8,36
304,166	67,75
304,381	-65,36
304,595	49,32
304,809	-59,22
305,023	-3,93
305,237	-87,89
305,452	-24,4
305,666	0,17
305,88	-8,02
306,094	65,71
306,308	75,95
306,522	45,23
306,736	65,71
306,95	84,14
307,164	26,79
307,379	20,65
307,593	39,08
307,807	69,8
308,021	84,14
308,235	0,17
308,449	-16,21
308,663	-65,36
308,877	6,31
309,091	-12,12
309,305	18,6
309,519	-63,32
309,733	30,89
309,947	-20,31
310,161	116,9
310,374	0,17
310,588	82,09
310,802	4,27
311,016	12,46
311,23	6,31
311,444	-12,12
311,658	-22,36
311,872	112,81
312,085	45,23
312,299	90,28
312,513	67,75
312,727	-26,45
312,941	-53,08
313,154	26,79
313,368	-85,84
313,582	22,7
313,796	37,03
314,009	-5,97
314,223	73,9
314,437	4,27
314,651	16,55
314,864	16,55
315,078	-46,93
315,292	-30,55
315,505	8,36
315,719	57,51
315,933	-28,5
316,146	-3,93
316,36	10,41
316,573	32,94
316,787	-12,12
317,001	26,79
317,214	57,51
317,428	22,7
317,641	-30,55
317,855	22,7
318,068	47,27
318,282	77,99
318,495	59,56
318,709	14,51
318,922	2,22
319,136	57,51
319,349	41,13
319,563	-14,17
319,776	51,37
319,99	53,42
320,203	69,8
320,417	49,32
320,63	98,47
320,843	102,57
321,057	8,36
321,27	16,55
321,483	43,18
321,697	10,41
321,91	24,75
322,124	32,94
322,337	57,51
322,55	-48,98
322,763	24,75
322,977	8,36
323,19	-106,32
323,403	4,27
323,617	20,65
323,83	-22,36
324,043	53,42
324,256	30,89
324,469	-46,93
324,683	22,7
324,896	61,61
325,109	8,36
325,322	-38,74
325,535	53,42
325,748	-30,55
325,962	59,56
326,175	-3,93
326,388	63,66
326,601	-40,79
326,814	32,94
327,027	20,65
327,24	0,17
327,453	-30,55
327,666	69,8
327,879	26,79
328,092	-46,93
328,305	6,31
328,518	-40,79
328,731	-1,88
328,944	-18,26
329,157	4,27
329,37	-24,4
329,583	65,71
329,796	0,17
330,009	-3,93
330,222	-32,6
330,435	63,66
330,648	-51,03
330,861	16,55
331,073	32,94
331,286	71,85
331,499	-8,02
331,712	-14,17
331,925	65,71
332,138	-24,4
332,35	18,6
332,563	65,71
332,776	-36,69
332,989	-10,07
333,202	22,7
333,414	26,79
333,627	22,7
333,84	49,32
334,053	-18,26
334,265	20,65
334,478	69,8
334,691	-12,12
334,903	84,14
335,116	-28,5
335,329	-48,98
335,541	43,18
335,754	2,22
335,966	20,65
336,179	41,13
336,392	-18,26
336,604	-53,08
336,817	47,27
337,029	41,13
337,242	-8,02
337,454	100,52
337,667	55,47
337,88	82,09
338,092	-32,6
338,305	20,65
338,517	4,27
338,729	100,52
338,942	118,95
339,154	16,55
339,367	-48,98
339,579	80,04
339,792	-48,98
340,004	84,14
340,217	61,61
340,429	-98,13
340,641	-10,07
340,854	-26,45
341,066	-8,02
341,278	75,95
341,491	63,66
341,703	34,99
341,915	-65,36
342,128	118,95
342,34	71,85
342,552	16,55
342,764	-12,12
342,977	-30,55
343,189	43,18
343,401	-36,69
343,613	-36,69
343,826	73,9
344,038	-65,36
344,25	-8,02
344,462	-40,79
344,674	26,79
344,886	-8,02
345,099	2,22
345,311	-24,4
345,523	-22,36
345,735	-12,12
345,947	22,7
346,159	57,51
346,371	0,17
346,583	-22,36
346,795	90,28
347,007	-46,93
347,219	53,42
347,431	20,65
347,643	6,31
347,855	77,99
348,067	10,41
348,279	-48,98
348,491	88,23
348,703	26,79
348,915	32,94
349,127	2,22
349,339	-5,97
349,551	-65,36
349,763	24,75
349,975	75,95
350,187	12,46
350,399	69,8
350,61	-46,93
350,822	26,79
351,034	4,27
351,246	104,62
351,458	0,17
351,669	-36,69
351,881	-26,45
352,093	-10,07
352,305	37,03
352,517	20,65
352,728	51,37
352,94	26,79
353,152	88,23
353,363	28,84
353,575	8,36
353,787	34,99
353,999	37,03
354,21	16,55
354,422	6,31
354,633	12,46
354,845	24,75
355,057	-65,36
355,268	8,36
355,48	0,17
355,692	39,08
355,903	-18,26
356,115	32,94
356,326	-5,97
356,538	0,17
356,749	24,75
356,961	67,75
357,172	8,36
357,384	-24,4
357,595	65,71
357,807	49,32
358,018	8,36
358,23	63,66
358,441	90,28
358,653	43,18
358,864	6,31
359,075	-16,21
359,287	18,6
359,498	39,08
359,709	-20,31
359,921	22,7
360,132	53,42
360,344	-24,4
360,555	51,37
360,766	39,08
360,977	2,22
361,189	-3,93
361,4	-28,5
361,611	6,31
361,823	47,27
362,034	26,79
362,245	39,08
362,456	10,41
362,667	22,7
362,879	-3,93
363,09	26,79
363,301	12,46
363,512	90,28
363,723	22,7
363,935	-77,65
364,146	-5,97
364,357	-36,69
364,568	34,99
364,779	-20,31
364,99	92,33
365,201	-30,55
365,412	77,99
365,623	-26,45
365,834	65,71
366,045	-28,5
366,256	-30,55
366,467	0,17
366,678	26,79
366,889	8,36
367,1	16,55
367,311	43,18
367,522	-28,5
367,733	-32,6
367,944	-28,5
368,155	-28,5
368,366	-18,26
368,577	37,03
368,788	55,47
368,999	-61,27
369,209	47,27
369,42	98,47
369,631	80,04
369,842	82,09
370,053	32,94
370,264	16,55
370,474	-8,02
370,685	34,99
370,896	55,47
371,107	2,22
371,317	8,36
371,528	20,65
371,739	20,65
371,95	37,03
372,16	24,75
372,371	12,46
372,582	55,47
372,792	30,89
373,003	8,36
373,214	-36,69
373,424	-32,6
373,635	-12,12
373,846	34,99
374,056	24,75
374,267	-32,6
374,477	2,22
374,688	-16,21
374,898	53,42
375,109	32,94
375,319	-28,5
375,53	49,32
375,74	92,33
375,951	39,08
376,161	-1,88
376,372	-24,4
376,582	-48,98
376,793	41,13
377,003	12,46
377,214	-32,6
377,424	63,66
377,635	32,94
377,845	-34,64
378,055	94,38
378,266	16,55
378,476	57,51
378,686	-5,97
378,897	32,94
379,107	41,13
379,317	73,9
379,528	-20,31
379,738	106,67
379,948	-8,02
380,158	-10,07
380,369	53,42
380,579	41,13
380,789	69,8
380,999	82,09
381,21	59,56
381,42	104,62
381,63	-36,69
381,84	100,52
382,05	69,8
382,261	45,23
382,471	104,62
382,681	51,37
382,891	4,27
383,101	69,8
383,311	16,55
383,521	-14,17
383,731	-59,22
383,941	75,95
384,151	57,51
384,361	-30,55
384,571	-3,93
384,781	73,9
384,991	114,86
385,201	84,14
385,411	12,46
385,621	49,32
385,831	-28,5
386,041	73,9
386,251	26,79
386,461	94,38
386,671	30,89
386,881	67,75
387,091	32,94
387,301	84,14
387,511	28,84
387,72	-44,88
387,93	10,41
388,14	16,55
388,35	8,36
388,56	30,89
388,769	-28,5
388,979	-32,6
389,189	-28,5
389,399	88,23
389,609	-26,45
389,818	65,71
390,028	4,27
390,238	41,13
390,447	0,17
390,657	28,84
390,867	18,6
391,076	-24,4
391,286	8,36
391,496	77,99
391,705	71,85
391,915	16,55
392,125	39,08
392,334	4,27
392,544	92,33
392,753	37,03
392,963	57,51
393,172	71,85
393,382	57,51
393,591	20,65
393,801	30,89
394,01	94,38
394,22	16,55
394,429	-20,31
394,639	8,36
394,848	59,56
395,058	55,47
395,267	41,13
395,477	-5,97
395,686	6,31
395,895	43,18
396,105	90,28
396,314	4,27
396,524	16,55
396,733	4,27
396,942	59,56
397,152	-40,79
397,361	55,47
397,57	49,32
397,78	73,9
397,989	20,65
398,198	100,52
398,407	24,75
398,617	34,99
398,826	32,94
399,035	-28,5
399,244	8,36
399,453	61,61
399,663	-14,17
399,872	10,41
400,081	-8,02
400,29	39,08
400,499	-14,17
400,708	108,71
400,917	24,75
401,127	53,42
401,336	-16,21
401,545	69,8
401,754	39,08
401,963	0,17
402,172	59,56
402,381	-36,69
402,59	-79,7
402,799	32,94
403,008	49,32
403,217	-14,17
403,426	77,99
403,635	-36,69
403,844	51,37
404,053	34,99
404,262	-20,31
404,471	-10,07
404,68	88,23
404,888	71,85
405,097	32,94
405,306	32,94
405,515	37,03
405,724	16,55
405,933	26,79
406,142	18,6
406,35	67,75
406,559	-20,31
406,768	-3,93
406,977	59,56
407,185	28,84
407,394	32,94
407,603	-38,74
407,812	34,99
408,02	4,27
408,229	61,61
408,438	28,84
408,646	-30,55
408,855	32,94
409,064	106,67
409,272	8,36
409,481	82,09
409,69	12,46
409,898	-5,97
410,107	39,08
410,315	4,27
410,524	26,79
410,733	57,51
410,941	59,56
411,15	90,28
411,358	73,9
411,567	129,19
411,775	10,41
411,984	75,95
412,192	45,23
412,401	104,62
412,609	73,9
412,818	32,94
413,026	82,09
413,234	43,18
413,443	8,36
413,651	-16,21
413,86	49,32
414,068	59,56
414,276	47,27
414,485	41,13
414,693	153,77
414,901	112,81
415,11	43,18
415,318	55,47
415,526	80,04
415,734	53,42
415,943	-1,88
416,151	69,8
416,359	37,03
416,567	45,23
416,776	22,7
416,984	18,6
417,192	69,8
417,4	90,28
417,608	41,13
417,817	4,27
418,025	69,8
418,233	49,32
418,441	45,23
418,649	34,99
418,857	96,43
419,065	129,19
419,273	-8,02
419,481	80,04
419,689	26,79
419,897	0,17
420,105	57,51
420,313	90,28
420,521	104,62
420,729	118,95
420,937	71,85
421,145	73,9
421,353	147,62
421,561	98,47
421,769	98,47
421,977	82,09
422,185	125,1
422,393	114,86
422,601	157,86
422,809	209,06
423,017	139,43
423,224	194,73
423,432	157,86
423,64	147,62
423,848	219,3
424,056	223,4
424,263	319,65
424,471	168,1
424,679	245,93
424,887	256,17
425,094	288,93
425,302	366,76
425,51	407,72
425,718	460,96
425,925	583,84
426,133	551,07
426,341	667,81
426,548	729,25
426,756	825,5
426,964	946,33
427,171	989,34
427,379	1073,31
427,586	1157,27
427,794	1417,37
428,001	1611,92
428,209	1863,82
428,417	2123,91
428,624	2461,83
428,832	2789,5
429,039	3072,12
429,247	3432,57
429,454	4264,04
429,662	5019,74
429,869	5251,16
430,076	6398,03
430,284	6844,48
430,491	8118,32
430,699	9547,8
430,906	10883,08
431,114	11972,6
431,321	13600,73
431,528	15036,36
431,736	18075,54
431,943	19996,54
432,15	21086,06
432,358	22617,94
432,565	25280,3
432,772	27219,72
432,979	29824,74
433,187	31375,05
433,394	32544,44
433,601	36404,86
433,808	36873,85
434,016	37275,25
434,223	39708,24
434,43	42939,93
434,637	41874,99
434,844	44207,62
435,052	45176,31
435,259	44553,73
435,466	44719,62
435,673	44080,65
435,88	46501,35
436,087	48182,73
436,294	48416,2
436,501	47381,98
436,708	46839,26
436,915	48141,77
437,122	49018,3
437,329	48285,13
437,537	49790,39
437,743	50032,05
437,95	48629,19
438,157	50279,85
438,364	51791,25
438,571	50754,98
438,778	50261,42
438,985	52923,78
439,192	51146,14
439,399	52157,84
439,606	50748,84
439,813	51563,93
440,02	53779,83
440,227	51463,58
440,433	49866,16
440,64	50625,96
440,847	48588,23
441,054	47560,15
441,261	48172,49
441,467	45268,47
441,674	43890,19
441,881	42114,6
442,088	39953,99
442,294	36939,38
442,501	35149,46
442,708	31809,22
442,914	29880,03
443,121	27799,3
443,328	24299,32
443,534	23064,39
443,741	19765,12
443,948	16316,34
444,154	15597,5
444,361	13520,86
444,568	11732,98
444,774	10145,81
444,981	8882,21
445,187	7913,52
445,394	7102,53
445,6	5988,43
445,807	5681,24
446,013	4800,61
446,22	4132,97
446,426	3836,02
446,633	3213,43
446,839	3002,49
447,046	2510,98
447,252	2449,54
447,459	2060,43
447,665	1792,14
447,871	1681,55
448,078	1607,83
448,284	1353,88
448,491	1278,1
448,697	1194,14
448,903	1077,4
449,11	936,09
449,316	850,08
449,522	905,37
449,728	776,35
449,935	710,82
450,141	598,18
450,347	551,07
450,553	514,21
450,76	524,45
450,966	379,04
451,172	471,2
451,378	393,38
451,584	336,04
451,791	321,7
451,997	350,37
452,203	354,47
452,409	331,94
452,615	299,17
452,821	231,59
453,027	266,41
453,233	278,69
453,44	180,39
453,646	164,01
453,852	217,26
454,058	131,24
454,264	184,49
454,47	215,21
454,676	135,34
454,882	170,15
455,088	233,64
455,294	164,01
455,5	143,53
455,705	108,71
455,911	100,52
456,117	164,01
456,323	161,96
456,529	129,19
456,735	104,62
456,941	67,75
457,147	90,28
457,352	96,43
457,558	47,27
457,764	82,09
457,97	71,85
458,176	49,32
458,381	53,42
458,587	108,71
458,793	90,28
458,999	-28,5
459,204	67,75
459,41	69,8
459,616	149,67
459,821	90,28
460,027	16,55
460,233	43,18
460,438	90,28
460,644	-14,17
460,85	84,14
461,055	8,36
461,261	82,09
461,466	53,42
461,672	49,32
461,878	41,13
462,083	133,29
462,289	2,22
462,494	55,47
462,7	53,42
462,905	59,56
463,111	59,56
463,316	49,32
463,522	47,27
463,727	53,42
463,932	59,56
464,138	82,09
464,343	53,42
464,549	182,44
464,754	108,71
464,959	26,79
465,165	24,75
465,37	22,7
465,575	10,41
465,781	57,51
465,986	-14,17
466,191	57,51
466,397	55,47
466,602	86,19
466,807	51,37
467,012	20,65
467,218	2,22
467,423	22,7
467,628	43,18
467,833	-40,79
468,038	43,18
468,244	12,46
468,449	24,75
468,654	82,09
468,859	24,75
469,064	18,6
469,269	49,32
469,474	32,94
469,679	82,09
469,885	51,37
470,09	18,6
470,295	86,19
470,5	2,22
470,705	37,03
470,91	59,56
471,115	24,75
471,32	4,27
471,525	147,62
471,73	82,09
471,935	-16,21
472,139	-38,74
472,344	37,03
472,549	47,27
472,754	67,75
472,959	82,09
473,164	14,51
473,369	49,32
473,574	65,71
473,778	-24,4
473,983	49,32
474,188	-24,4
474,393	16,55
474,598	-22,36
474,802	24,75
475,007	57,51
475,212	110,76
475,417	24,75
475,621	55,47
475,826	34,99
476,031	55,47
476,235	2,22
476,44	-12,12
476,645	10,41
476,849	59,56
477,054	-20,31
477,259	-12,12
477,463	43,18
477,668	131,24
477,872	26,79
478,077	57,51
478,282	8,36
478,486	18,6
478,691	10,41
478,895	24,75
479,1	55,47
479,304	108,71
479,509	-8,02
479,713	-40,79
479,918	71,85
480,122	16,55
480,326	18,6
480,531	6,31
480,735	-5,97
480,94	-20,31
481,144	-20,31
481,348	-18,26
481,553	8,36
481,757	-16,21
481,961	73,9
482,166	65,71
482,37	-8,02
482,574	18,6
482,778	-46,93
482,983	57,51
483,187	-12,12
483,391	106,67
483,595	-36,69
483,8	-22,36
484,004	-16,21
484,208	22,7
484,412	73,9
484,616	-5,97
484,821	16,55
485,025	41,13
485,229	-3,93
485,433	-51,03
485,637	-14,17
485,841	26,79
486,045	0,17
486,249	59,56
486,453	77,99
486,657	18,6
486,861	-83,8
487,065	59,56
487,269	16,55
487,473	-30,55
487,677	4,27
487,881	24,75
488,085	-63,32
488,289	16,55
488,493	12,46
488,697	-8,02
488,901	6,31
489,105	-5,97
489,309	59,56
489,512	90,28
489,716	73,9
489,92	59,56
490,124	12,46
490,328	57,51
490,531	43,18
490,735	41,13
490,939	-55,12
491,143	92,33
491,346	-40,79
491,55	57,51
491,754	-38,74
491,958	47,27
492,161	-10,07
492,365	-36,69
492,569	39,08
492,772	12,46
492,976	10,41
493,18	4,27
493,383	57,51
493,587	57,51
493,79	114,86
493,994	-48,98
494,197	55,47
494,401	65,71
494,605	-8,02
494,808	63,66
495,012	-16,21
495,215	57,51
495,419	12,46
495,622	53,42
495,825	14,51
496,029	-24,4
496,232	-14,17
496,436	67,75
496,639	63,66
496,843	65,71
497,046	8,36
497,249	67,75
497,453	30,89
497,656	-1,88
497,859	37,03
498,063	20,65
498,266	28,84
498,469	-20,31
498,673	-57,17
498,876	16,55
499,079	22,7
499,282	18,6
499,485	73,9
499,689	10,41
499,892	16,55
500,095	-14,17
500,298	69,8
500,501	20,65
500,705	65,71
500,908	24,75
501,111	32,94
501,314	-8,02
501,517	57,51
501,72	-20,31
501,923	98,47
502,126	16,55
502,329	57,51
502,532	16,55
502,735	123,05
502,938	39,08
503,141	-30,55
503,344	-14,17
503,547	4,27
503,75	-57,17
503,953	-8,02
504,156	102,57
504,359	4,27
504,562	-28,5
504,765	-44,88
504,968	90,28
505,17	24,75
505,373	41,13
505,576	18,6
505,779	-10,07
505,982	-81,75
506,185	-16,21
506,387	-30,55
506,59	-8,02
506,793	2,22
506,996	-12,12
507,198	65,71
507,401	39,08
507,604	16,55
507,807	26,79
508,009	37,03
508,212	10,41
508,415	-28,5
508,617	-28,5
508,82	-1,88
509,022	-20,31
509,225	24,75
509,428	20,65
509,63	-77,65
509,833	-36,69
510,035	16,55
510,238	-22,36
510,44	-61,27
510,643	26,79
510,845	12,46
511,048	10,41
511,25	41,13
511,453	92,33
511,655	16,55
511,858	14,51
512,06	24,75
512,262	2,22
512,465	20,65
512,667	34,99
512,87	65,71
513,072	41,13
513,274	-24,4
513,477	12,46
513,679	-55,12
513,881	45,23
514,084	-63,32
514,286	61,61
514,488	-12,12
514,69	-16,21
514,893	8,36
515,095	16,55
515,297	-30,55
515,499	-12,12
515,701	39,08
515,904	53,42
516,106	32,94
516,308	14,51
516,51	6,31
516,712	28,84
516,914	-10,07
517,116	-24,4
517,318	-14,17
517,52	86,19
517,722	16,55
517,925	24,75
518,127	57,51
518,329	30,89
518,531	-1,88
518,733	-8,02
518,935	30,89
519,136	59,56
519,338	20,65
519,54	28,84
519,742	24,75
519,944	18,6
520,146	37,03
520,348	10,41
520,55	73,9
520,752	-22,36
520,954	-16,21
521,155	77,99
521,357	-14,17
521,559	69,8
521,761	34,99
521,963	-20,31
522,164	55,47
522,366	4,27
522,568	-5,97
522,77	-24,4
522,971	51,37
523,173	8,36
523,375	69,8
523,576	0,17
523,778	-42,84
523,98	14,51
524,181	53,42
524,383	22,7
524,584	-22,36
524,786	26,79
524,988	-16,21
525,189	0,17
525,391	14,51
525,592	-38,74
525,794	51,37
525,995	-1,88
526,197	37,03
526,398	61,61
526,6	26,79
526,801	45,23
527,003	-46,93
527,204	16,55
527,406	43,18
527,607	-40,79
527,808	32,94
528,01	32,94
528,211	4,27
528,412	-1,88
528,614	73,9
528,815	16,55
529,016	-46,93
529,218	49,32
529,419	55,47
529,62	10,41
529,822	-22,36
530,023	-51,03
530,224	-28,5
530,425	59,56
530,626	69,8
530,828	41,13
531,029	-26,45
531,23	-20,31
531,431	14,51
531,632	41,13
531,833	-5,97
532,035	-12,12
532,236	-22,36
532,437	69,8
532,638	-100,18
532,839	-38,74
533,04	4,27
533,241	34,99
533,442	-3,93
533,643	65,71
533,844	10,41
534,045	-3,93
534,246	-79,7
534,447	4,27
534,648	-26,45
534,849	30,89
535,05	-53,08
535,251	-44,88
535,451	28,84
535,652	32,94
535,853	-18,26
536,054	59,56
536,255	0,17
536,456	32,94
536,657	-22,36
536,857	10,41
537,058	-14,17
537,259	51,37
537,46	10,41
537,66	-38,74
537,861	-22,36
538,062	18,6
538,263	-26,45
538,463	-63,32
538,664	69,8
538,865	-44,88
539,065	16,55
539,266	32,94
539,466	12,46
539,667	-26,45
539,868	20,65
540,068	49,32
540,269	63,66
540,469	-12,12
540,67	16,55
540,87	69,8
541,071	-1,88
541,271	57,51
541,472	-5,97
541,672	90,28
541,873	18,6
542,073	24,75
542,274	4,27
542,474	-26,45
542,675	24,75
542,875	-38,74
543,075	-57,17
543,276	32,94
543,476	39,08
543,676	39,08
543,877	45,23
544,077	-22,36
544,277	-3,93
544,478	80,04
544,678	-53,08
544,878	18,6
545,078	12,46
545,279	6,31
545,479	20,65
545,679	32,94
545,879	75,95
546,079	-22,36
546,28	12,46
546,48	26,79
546,68	10,41
546,88	8,36
547,08	-8,02
547,28	20,65
547,48	-22,36
547,68	45,23
547,88	-28,5
548,081	16,55
548,281	-40,79
548,481	-10,07
548,681	-53,08
548,881	2,22
549,081	-12,12
549,28	32,94
549,48	-22,36
549,68	-20,31
549,88	20,65
550,08	73,9
550,28	-16,21
550,48	71,85
550,68	4,27
550,88	49,32
551,08	2,22
551,279	-14,17
551,479	32,94
551,679	80,04
551,879	-42,84
552,079	28,84
552,278	8,36
552,478	137,38
552,678	14,51
552,878	10,41
553,077	-3,93
553,277	0,17
553,477	-18,26
553,676	-61,27
553,876	12,46
554,076	34,99
554,275	28,84
554,475	49,32
554,674	-32,6
554,874	-14,17
555,074	-36,69
555,273	-69,46
555,473	2,22
555,672	16,55
555,872	-28,5
556,071	71,85
556,271	65,71
556,47	45,23
556,67	0,17
556,869	-12,12
557,068	-42,84
557,268	-22,36
557,467	16,55
557,667	-65,36
557,866	22,7
558,065	-5,97
558,265	28,84
558,464	45,23
558,663	4,27
558,863	41,13
559,062	-38,74
559,261	12,46
559,461	65,71
559,66	34,99
559,859	-14,17
560,058	-16,21
560,258	2,22
560,457	59,56
560,656	37,03
560,855	53,42
561,054	-5,97
561,253	92,33
561,453	-53,08
561,652	-5,97
561,851	-8,02
562,05	10,41
562,249	-30,55
562,448	20,65
562,647	-10,07
562,846	-40,79
563,045	30,89
563,244	16,55
563,443	12,46
563,642	6,31
563,841	-16,21
564,04	-8,02
564,239	4,27
564,438	2,22
564,637	14,51
564,836	-5,97
565,035	-18,26
565,234	4,27
565,432	0,17
565,631	55,47
565,83	-63,32
566,029	37,03
566,228	-18,26
566,427	8,36
566,625	39,08
566,824	98,47
567,023	24,75
567,222	-8,02
567,42	-36,69
567,619	0,17
567,818	28,84
568,016	57,51
568,215	4,27
568,414	37,03
568,612	-1,88
568,811	80,04
569,01	6,31
569,208	49,32
569,407	77,99
569,605	28,84
569,804	-32,6
570,002	28,84
570,201	-44,88
570,4	0,17
570,598	51,37
570,797	-1,88
570,995	32,94
571,193	0,17
571,392	-24,4
571,59	28,84
571,789	37,03
571,987	-32,6
572,186	45,23
572,384	-57,17
572,582	18,6
572,781	43,18
572,979	-28,5
573,177	-24,4
573,376	41,13
573,574	16,55
573,772	6,31
573,971	-42,84
574,169	-81,75
574,367	2,22
574,565	-61,27
574,763	-5,97
574,962	-73,56
575,16	-81,75
575,358	-8,02
575,556	22,7
575,754	18,6
575,952	-24,4
576,151	22,7
576,349	8,36
576,547	-79,7
576,745	4,27
576,943	37,03
577,141	-1,88
577,339	-22,36
577,537	10,41
577,735	-38,74
577,933	82,09
578,131	24,75
578,329	84,14
578,527	49,32
578,725	-3,93
578,923	43,18
579,121	-40,79
579,319	-57,17
579,516	18,6
579,714	24,75
579,912	59,56
580,11	8,36
580,308	34,99
580,506	4,27
580,704	-24,4
580,901	59,56
581,099	90,28
581,297	-46,93
581,495	-40,79
581,692	16,55
581,89	102,57
582,088	-59,22
582,285	-3,93
582,483	71,85
582,681	-55,12
582,878	20,65
583,076	41,13
583,274	-10,07
583,471	2,22
583,669	10,41
583,866	-40,79
584,064	0,17
584,262	-22,36
584,459	-22,36
584,657	77,99
584,854	41,13
585,052	8,36
585,249	80,04
585,447	-44,88
585,644	-57,17
585,841	-40,79
586,039	4,27
586,236	53,42
586,434	-24,4
586,631	-1,88
586,828	-57,17
587,026	59,56
587,223	14,51
587,42	28,84
587,618	4,27
587,815	59,56
588,012	34,99
588,21	-42,84
588,407	45,23
588,604	63,66
588,801	20,65
588,999	-3,93
589,196	94,38
589,393	-26,45
589,59	-32,6
589,787	49,32
589,984	71,85
590,182	0,17
590,379	-8,02
590,576	-8,02
590,773	22,7
590,97	-26,45
591,167	18,6
591,364	41,13
591,561	26,79
591,758	-20,31
591,955	-12,12
592,152	65,71
592,349	-69,46
592,546	0,17
592,743	-71,51
592,94	65,71
593,137	59,56
593,334	32,94
593,531	4,27
593,727	-20,31
593,924	98,47
594,121	34,99
594,318	-20,31
594,515	-16,21
594,712	24,75
594,908	47,27
595,105	-36,69
595,302	12,46
595,499	-32,6
595,696	20,65
595,892	-1,88
596,089	0,17
596,286	32,94
596,482	75,95
596,679	-36,69
596,876	-46,93
597,072	16,55
597,269	94,38
597,466	28,84
597,662	-1,88
597,859	12,46
598,055	-69,46
598,252	-8,02
598,448	20,65
598,645	-79,7
598,841	14,51
599,038	55,47
599,234	-75,6
599,431	71,85
599,627	-8,02
599,824	49,32
600,02	-40,79
600,217	-34,64
600,413	-42,84
600,609	-102,23
600,806	121
601,002	14,51
601,198	-22,36
601,395	18,6
601,591	-3,93
601,787	-3,93
601,984	-61,27
602,18	0,17
602,376	2,22
602,572	-61,27
602,769	37,03
602,965	-5,97
603,161	18,6
603,357	0,17
603,553	57,51
603,75	-12,12
603,946	-12,12
604,142	-55,12
604,338	69,8
604,534	-8,02
604,73	4,27
604,926	0,17
605,122	-32,6
605,318	-8,02
605,514	0,17
605,71	-20,31
605,906	18,6
606,102	-10,07
606,298	0,17
606,494	24,75
606,69	14,51
606,886	-53,08
607,082	-57,17
607,278	-24,4
607,474	14,51
607,67	20,65
607,866	-71,51
608,062	-10,07
608,257	57,51
608,453	-14,17
608,649	-106,32
608,845	-53,08
609,041	8,36
609,236	8,36
609,432	-24,4
609,628	65,71
609,824	-8,02
610,019	-12,12
610,215	12,46
610,411	51,37
610,606	22,7
610,802	10,41
610,998	-16,21
611,193	22,7
611,389	-114,52
611,584	-24,4
611,78	8,36
611,976	-61,27
612,171	65,71
612,367	28,84
612,562	2,22
612,758	49,32
612,953	12,46
613,149	12,46
613,344	26,79
613,539	-1,88
613,735	41,13
613,93	-18,26
614,126	6,31
614,321	14,51
614,517	-46,93
614,712	-8,02
614,907	-32,6
615,103	-18,26
615,298	12,46
615,493	-48,98
615,688	-38,74
615,884	26,79
616,079	0,17
616,274	-26,45
616,47	6,31
616,665	34,99
616,86	-57,17
617,055	-112,47
617,25	69,8
617,445	10,41
617,641	18,6
617,836	32,94
618,031	-26,45
618,226	-14,17
618,421	24,75
618,616	-53,08
618,811	-3,93
619,006	-91,99
619,201	98,47
619,396	39,08
619,591	-16,21
619,786	65,71
619,981	32,94
620,176	24,75
620,371	-16,21
620,566	-55,12
620,761	24,75
620,956	-3,93
621,151	-26,45
621,346	34,99
621,541	51,37
621,735	-32,6
621,93	10,41
622,125	0,17
622,32	-104,28
622,515	-87,89
622,709	53,42
622,904	39,08
623,099	-1,88
623,294	6,31
623,488	10,41
623,683	-65,36
623,878	-30,55
624,072	-8,02
624,267	-65,36
624,462	-57,17
624,656	-65,36
624,851	-18,26
625,046	-18,26
625,24	-5,97
625,435	6,31
625,629	73,9
625,824	39,08
626,018	16,55
626,213	-32,6
626,407	-91,99
626,602	18,6
626,796	18,6
626,991	18,6
627,185	2,22
627,38	-53,08
627,574	34,99
627,768	8,36
627,963	-94,04
628,157	-3,93
628,352	-36,69
628,546	12,46
628,74	24,75
628,935	18,6
629,129	-1,88
629,323	43,18
629,517	-104,28
629,712	-16,21
629,906	59,56
630,1	-28,5
630,294	39,08
630,489	12,46
630,683	-1,88
630,877	34,99
631,071	6,31
631,265	-42,84
631,459	47,27
631,653	16,55
631,848	-12,12
632,042	-24,4
632,236	-3,93
632,43	63,66
632,624	43,18
632,818	8,36
633,012	69,8
633,206	26,79
633,4	2,22
633,594	14,51
633,788	26,79
633,982	-42,84
634,176	39,08
634,369	28,84
634,563	-22,36
634,757	-24,4
634,951	0,17
635,145	61,61
635,339	-30,55
635,533	84,14
635,726	131,24
635,92	-24,4
636,114	-14,17
636,308	-30,55
636,501	-53,08
636,695	10,41
636,889	-16,21
637,083	88,23
637,276	-34,64
637,47	-69,46
637,664	-18,26
637,857	24,75
638,051	65,71
638,244	-10,07
638,438	20,65
638,632	61,61
638,825	-57,17
639,019	55,47
639,212	-22,36
639,406	-10,07
639,599	-63,32
639,793	-18,26
639,986	-5,97
640,18	-30,55
640,373	24,75
640,567	-51,03
640,76	22,7
640,954	14,51
641,147	43,18
641,34	-44,88
641,534	-18,26
641,727	-10,07
641,92	-51,03
642,114	16,55
642,307	24,75
642,5	26,79
642,694	-20,31
642,887	-3,93
643,08	2,22
643,273	2,22
643,467	-24,4
643,66	-48,98
643,853	-81,75
644,046	96,43
644,239	51,37
644,432	57,51
644,626	-20,31
644,819	-8,02
645,012	26,79
645,205	82,09
645,398	26,79
645,591	8,36
645,784	-104,28
645,977	-57,17
646,17	0,17
646,363	55,47
646,556	-51,03
646,749	-12,12
646,942	-8,02
647,135	65,71
647,328	69,8
647,521	45,23
647,714	-38,74
647,907	45,23
648,099	-83,8
648,292	75,95
648,485	55,47
648,678	47,27
648,871	-5,97
649,064	0,17
649,256	14,51
649,449	-5,97
649,642	20,65
649,835	-20,31
650,027	-8,02
650,22	34,99
650,413	51,37
650,605	26,79
650,798	47,27
650,991	-16,21
651,183	26,79
651,376	-3,93
651,568	32,94
651,761	86,19
651,954	41,13
652,146	59,56
652,339	82,09
652,531	49,32
652,724	69,8
652,916	92,33
653,109	20,65
653,301	110,76
653,494	6,31
653,686	-8,02
653,879	77,99
654,071	45,23
654,263	-61,27
654,456	-10,07
654,648	-18,26
654,84	22,7
655,033	-59,22
655,225	0,17
655,417	20,65
655,61	86,19
655,802	30,89
655,994	24,75
656,186	0,17
656,379	82,09
656,571	8,36
656,763	34,99
656,955	67,75
657,148	26,79
657,34	75,95
657,532	16,55
657,724	12,46
657,916	-10,07
658,108	-51,03
658,3	32,94
658,492	-32,6
658,684	-53,08
658,876	-65,36
659,068	-30,55
659,26	28,84
659,452	0,17
659,644	18,6
659,836	59,56
660,028	-38,74
660,22	-30,55
660,412	12,46
660,604	43,18
660,796	8,36
660,988	73,9
661,18	-30,55
661,372	30,89
661,563	8,36
661,755	-46,93
661,947	-28,5
662,139	-8,02
662,331	-48,98
662,522	100,52
662,714	-14,17
662,906	-55,12
663,097	37,03
663,289	-71,51
663,481	2,22
663,673	-85,84
663,864	18,6
664,056	24,75
664,247	20,65
664,439	14,51
664,631	8,36
664,822	41,13
665,014	2,22
665,205	-14,17
665,397	-28,5
665,588	32,94
665,78	53,42
665,971	-44,88
666,163	-24,4
666,354	71,85
666,546	-73,56
666,737	37,03
666,929	-20,31
667,12	-14,17
667,311	18,6
667,503	-32,6
667,694	39,08
667,885	12,46
668,077	4,27
668,268	32,94
668,459	-32,6
668,651	59,56
668,842	-16,21
669,033	-1,88
669,224	-91,99
669,416	67,75
669,607	24,75
669,798	-57,17
669,989	28,84
670,18	-18,26
670,371	-10,07
670,563	8,36
670,754	-16,21
670,945	43,18
671,136	8,36
671,327	-32,6
671,518	-3,93
671,709	49,32
671,9	24,75
672,091	16,55
672,282	16,55
672,473	16,55
672,664	-14,17
672,855	51,37
673,046	14,51
673,237	-22,36
673,428	14,51
673,619	8,36
673,809	16,55
674	14,51
674,191	12,46
674,382	51,37
674,573	20,65
674,764	28,84
674,954	24,75
675,145	-44,88
675,336	-48,98
675,527	34,99
675,717	-3,93
675,908	45,23
676,099	-16,21
676,289	41,13
676,48	-1,88
676,671	-73,56
676,861	-24,4
677,052	18,6
677,243	-51,03
677,433	-8,02
677,624	-28,5
677,814	-48,98
678,005	20,65
678,195	53,42
678,386	-67,41
678,576	12,46
678,767	-5,97
678,957	-20,31
679,148	12,46
679,338	-63,32
679,529	-8,02
679,719	28,84
679,909	57,51
680,1	51,37
680,29	32,94
680,481	-85,84
680,671	-32,6
680,861	34,99
681,052	10,41
681,242	-10,07
681,432	-36,69
681,622	34,99
681,813	-59,22
682,003	-14,17
682,193	-30,55
682,383	20,65
682,573	-24,4
682,764	-55,12
682,954	2,22
683,144	30,89
683,334	59,56
683,524	43,18
683,714	34,99
683,904	-26,45
684,094	16,55
684,284	51,37
684,474	32,94
684,664	34,99
684,854	12,46
685,044	-55,12
685,234	-53,08
685,424	0,17
685,614	41,13
685,804	32,94
685,994	-71,51
686,184	51,37
686,374	41,13
686,564	26,79
686,753	24,75
686,943	16,55
687,133	-75,6
687,323	20,65
687,513	20,65
687,702	-5,97
687,892	-20,31
688,082	63,66
688,272	-8,02
688,461	6,31
688,651	49,32
688,841	10,41
689,03	-96,08
689,22	39,08
689,41	32,94
689,599	-24,4
689,789	-48,98
689,979	51,37
690,168	77,99
690,358	-8,02
690,547	-59,22
690,737	8,36
690,926	39,08
691,116	10,41
691,305	63,66
691,495	34,99
691,684	16,55
691,874	-8,02
692,063	0,17
692,252	49,32
692,442	-28,5
692,631	-55,12
692,82	-42,84
693,01	-3,93
693,199	-8,02
693,388	69,8
693,578	-24,4
693,767	41,13
693,956	26,79
694,146	16,55
694,335	-24,4
694,524	0,17
694,713	-8,02
694,902	65,71
695,092	41,13
695,281	-22,36
695,47	92,33
695,659	-57,17
695,848	45,23
696,037	-14,17
696,226	-30,55
696,415	-32,6
696,604	75,95
696,793	-14,17
696,982	14,51
697,171	28,84
697,36	28,84
697,549	20,65
697,738	-24,4
697,927	-57,17
698,116	8,36
698,305	8,36
698,494	0,17
698,683	-24,4
698,872	41,13
699,061	-48,98
699,25	-40,79
699,438	-24,4
699,627	-5,97
699,816	63,66
700,005	-91,99
700,193	43,18
700,382	49,32
700,571	49,32
700,76	53,42
700,948	32,94
701,137	-16,21
701,326	-20,31
701,514	30,89
701,703	26,79
701,892	-51,03
702,08	47,27
702,269	73,9
702,457	-5,97
702,646	-53,08
702,834	67,75
703,023	6,31
703,212	-53,08
703,4	37,03
703,589	-12,12
703,777	-3,93
703,965	-5,97
704,154	-44,88
704,342	2,22
704,531	-14,17
704,719	26,79
704,907	24,75
705,096	16,55
705,284	53,42
705,472	-1,88
705,661	-5,97
705,849	18,6
706,037	18,6
706,226	6,31
706,414	0,17
706,602	-32,6
706,79	32,94
706,979	-38,74
707,167	-8,02
707,355	-30,55
707,543	18,6
707,731	114,86
707,919	-3,93
708,107	4,27
708,296	-94,04
708,484	32,94
708,672	32,94
708,86	-32,6
709,048	-110,42
709,236	18,6
709,424	45,23
709,612	-18,26
709,8	-73,56
709,988	49,32
710,176	-3,93
710,364	37,03
710,551	22,7
710,739	26,79
710,927	10,41
711,115	28,84
711,303	0,17
711,491	-3,93
711,679	-14,17
711,866	0,17
712,054	4,27
712,242	18,6
712,43	53,42
712,617	47,27
712,805	-16,21
712,993	-24,4
713,181	-40,79
713,368	63,66
713,556	-32,6
713,744	34,99
713,931	77,99
714,119	26,79
714,306	8,36
714,494	26,79
714,682	73,9
714,869	12,46
715,057	16,55
715,244	-5,97
715,432	-12,12
715,619	41,13
715,807	-48,98
715,994	41,13
716,182	-65,36
716,369	26,79
716,556	-8,02
716,744	-57,17
716,931	2,22
717,119	18,6
717,306	-28,5
717,493	41,13
717,681	49,32
717,868	-8,02
718,055	73,9
718,242	-14,17
718,43	18,6
718,617	43,18
718,804	20,65
718,991	69,8
719,179	0,17
719,366	-12,12
719,553	-18,26
719,74	39,08
719,927	-12,12
720,114	-30,55
720,301	-5,97
720,488	-30,55
720,676	-40,79
720,863	8,36
721,05	4,27
721,237	28,84
721,424	100,52
721,611	32,94
721,798	-53,08
721,985	-10,07
722,172	-48,98
722,358	41,13
722,545	10,41
722,732	67,75
722,919	45,23
723,106	-22,36
723,293	-8,02
723,48	67,75
723,667	8,36
723,853	24,75
724,04	-20,31
724,227	2,22
724,414	-69,46
724,6	4,27
724,787	-57,17
724,974	18,6
725,161	-32,6
725,347	16,55
725,534	16,55
725,72	80,04
725,907	57,51
726,094	14,51
726,28	0,17
726,467	2,22
726,653	-61,27
726,84	39,08
727,027	39,08
727,213	-40,79
727,4	-20,31
727,586	28,84
727,773	28,84
727,959	22,7
728,145	26,79
728,332	-30,55
728,518	28,84
728,705	18,6
728,891	6,31
729,077	30,89
729,264	-1,88
729,45	20,65
729,636	32,94
729,823	-32,6
730,009	37,03
730,195	-44,88
730,382	45,23
730,568	18,6
730,754	-20,31
730,94	-28,5
731,126	90,28
731,313	8,36
731,499	-24,4
731,685	47,27
731,871	0,17
732,057	-14,17
732,243	-16,21
732,429	-61,27
732,615	-22,36
732,801	37,03
732,987	-28,5
733,173	-28,5
733,359	10,41
733,545	-14,17
733,731	-87,89
733,917	75,95
734,103	10,41
734,289	-36,69
734,475	-22,36
734,661	77,99
734,847	-38,74
735,033	-8,02
735,219	28,84
735,404	80,04
735,59	-55,12
735,776	20,65
735,962	57,51
736,148	16,55
736,333	61,61
736,519	-14,17
736,705	16,55
736,89	-20,31
737,076	-110,42
737,262	-20,31
737,447	-20,31
737,633	-40,79
737,819	63,66
738,004	12,46
738,19	-28,5
738,375	-20,31
738,561	43,18
738,747	47,27
738,932	57,51
739,118	61,61
739,303	77,99
739,489	-10,07
739,674	57,51
739,859	-30,55
740,045	30,89
740,23	10,41
740,416	-81,75
740,601	41,13
740,786	0,17
740,972	-16,21
741,157	-22,36
741,342	-14,17
741,528	6,31
741,713	98,47
741,898	-38,74
742,084	-14,17
742,269	-20,31
742,454	8,36
742,639	20,65
742,824	-28,5
743,01	63,66
743,195	22,7
743,38	12,46
743,565	-57,17
743,75	34,99
743,935	84,14
744,12	65,71
744,305	51,37
744,49	2,22
744,675	26,79
744,86	67,75
745,045	32,94
745,23	-20,31
745,415	-53,08
745,6	51,37
745,785	20,65
745,97	67,75
746,155	-8,02
746,34	24,75
746,525	-32,6
746,71	114,86
746,895	-5,97
747,079	-34,64
747,264	-30,55
747,449	24,75
747,634	37,03
747,819	-55,12
748,003	49,32
748,188	4,27
748,373	20,65
748,557	39,08
748,742	24,75
748,927	28,84
749,111	-8,02
749,296	-26,45
749,481	43,18
749,665	-24,4
749,85	-32,6
750,034	-57,17
750,219	-5,97
750,404	-24,4
750,588	32,94
750,773	-14,17
750,957	34,99
751,141	10,41
751,326	16,55
751,51	2,22
751,695	-16,21
751,879	-16,21
752,064	102,57
752,248	-38,74
752,432	26,79
752,617	45,23
752,801	-8,02
752,985	-40,79
753,17	37,03
753,354	-8,02
753,538	53,42
753,722	16,55
753,907	-77,65
754,091	8,36
754,275	24,75
754,459	10,41
754,643	-3,93
754,828	69,8
755,012	-57,17
755,196	-32,6
755,38	10,41
755,564	20,65
755,748	-14,17
755,932	37,03
756,116	2,22
756,3	-69,46
756,484	24,75
756,668	-32,6
756,852	-26,45
757,036	-55,12
757,22	16,55
757,404	10,41
757,588	-24,4
757,772	43,18
757,956	-63,32
758,14	4,27
758,323	10,41
758,507	2,22
758,691	-32,6
758,875	65,71
759,059	41,13
759,242	59,56
759,426	10,41
759,61	-36,69
759,794	-3,93
759,977	-10,07
760,161	131,24
760,345	-3,93
760,528	71,85
760,712	-55,12
760,895	4,27
761,079	45,23
761,263	18,6
761,446	-38,74
761,63	4,27
761,813	-61,27
761,997	-63,32
762,18	53,42
762,364	53,42
762,547	-1,88
762,731	-12,12
762,914	57,51
763,098	-34,64
763,281	18,6
763,464	-24,4
763,648	-32,6
763,831	-12,12
764,015	-12,12
764,198	24,75
764,381	-53,08
764,564	0,17
764,748	-46,93
764,931	-28,5
765,114	-48,98
765,297	-40,79
765,481	-59,22
765,664	-3,93
765,847	24,75
766,03	0,17
766,213	-36,69
766,397	16,55
766,58	-28,5
766,763	30,89
766,946	2,22
767,129	47,27
767,312	-28,5
767,495	67,75
767,678	-69,46
767,861	34,99
768,044	-24,4
768,227	-16,21
768,41	26,79
768,593	22,7
768,776	18,6
768,959	-8,02
769,142	-8,02
769,324	32,94
769,507	-5,97
769,69	-8,02
769,873	43,18
770,056	12,46
770,239	-34,64
770,421	43,18
770,604	61,61
770,787	-94,04
770,97	-32,6
771,152	20,65
771,335	16,55
771,518	-51,03
771,7	57,51
771,883	-32,6
772,066	-10,07
772,248	67,75
772,431	63,66
772,613	0,17
772,796	-5,97
772,978	20,65
773,161	73,9
773,343	26,79
773,526	32,94
773,708	-30,55
773,891	-28,5
774,073	-24,4
774,256	8,36
774,438	63,66
774,621	-67,41
774,803	0,17
774,985	8,36
775,168	77,99
775,35	-69,46
775,532	-22,36
775,715	0,17
775,897	8,36
776,079	32,94
776,261	-30,55
776,444	28,84
776,626	-34,64
776,808	-24,4
776,99	-87,89
777,173	-40,79
777,355	-53,08
777,537	-14,17
777,719	-12,12
777,901	-8,02
778,083	-51,03
778,265	-42,84
778,447	-8,02
778,629	63,66
778,811	16,55
778,993	59,56
779,175	-5,97
779,357	2,22
779,539	-53,08
779,721	84,14
779,903	16,55
780,085	32,94
780,267	73,9
780,449	-18,26
780,631	51,37
780,812	69,8
780,994	-24,4
781,176	10,41
781,358	-3,93
781,54	49,32
781,721	34,99
781,903	-32,6
782,085	6,31
782,267	57,51
782,448	-32,6
782,63	43,18
782,812	34,99
782,993	24,75
783,175	-16,21
783,357	16,55
783,538	2,22
783,72	-69,46
783,901	24,75
784,083	45,23
784,264	4,27
784,446	34,99
784,627	-22,36
784,809	10,41
784,99	6,31
785,172	6,31
785,353	-8,02
785,535	-38,74
785,716	4,27
785,897	6,31
786,079	10,41
786,26	80,04
786,441	-10,07
786,623	-36,69
786,804	12,46
786,985	-10,07
787,167	-24,4
787,348	-3,93
787,529	-5,97
787,71	8,36
787,891	6,31
788,073	-30,55
788,254	-22,36
788,435	80,04
788,616	4,27
788,797	-48,98
788,978	24,75
789,159	-3,93
789,34	-73,56
789,522	24,75
789,703	-20,31
789,884	-102,23
790,065	69,8
790,246	-46,93
790,427	26,79
790,607	-8,02
790,788	63,66
790,969	-71,51
791,15	45,23
791,331	-53,08
791,512	-18,26
791,693	28,84
791,874	24,75
792,054	41,13
792,235	69,8
792,416	-67,41
792,597	-102,23
792,778	59,56
792,958	-14,17
793,139	-38,74
793,32	-10,07
793,5	-10,07
793,681	26,79
793,862	-24,4
794,042	16,55
794,223	30,89
794,404	32,94
794,584	-38,74
794,765	-24,4
794,945	18,6
795,126	8,36
795,306	-34,64
795,487	-3,93
795,667	-8,02
795,848	2,22
796,028	-28,5
796,209	51,37
796,389	139,43
796,57	41,13
796,75	2,22
796,93	-18,26
797,111	-16,21
797,291	37,03
797,471	39,08
797,652	37,03
797,832	-30,55
798,012	53,42
798,192	-30,55
798,373	-38,74
798,553	-65,36
798,733	-8,02
798,913	30,89
799,093	24,75
799,274	-87,89
799,454	-16,21
799,634	-38,74
799,814	-14,17
799,994	8,36
800,174	41,13
800,354	-59,22
800,534	14,51
800,714	-44,88
800,894	-40,79
801,074	-57,17
801,254	12,46
801,434	41,13
801,614	-44,88
801,794	-44,88
801,974	479,4
802,154	-83,8
802,334	49,32
802,514	-14,17
802,693	-38,74
802,873	-14,17
803,053	41,13
803,233	59,56
803,413	-30,55
803,592	0,17
803,772	-3,93
803,952	63,66
804,131	-22,36
804,311	37,03
804,491	43,18
804,67	6,31
804,85	51,37
805,03	-8,02
805,209	77,99
805,389	-32,6
805,568	10,41
805,748	-106,32
805,928	28,84
806,107	-75,6
806,287	-71,51
806,466	-55,12
806,646	-3,93
806,825	-44,88
807,004	-36,69
807,184	-10,07
807,363	-1,88
807,543	-5,97
807,722	-77,65
807,901	28,84
808,081	118,95
808,26	-71,51
808,439	-55,12
808,619	34,99
808,798	-42,84
808,977	12,46
809,156	49,32
809,336	20,65
809,515	-16,21
809,694	-16,21
809,873	-46,93
810,052	-77,65
810,231	0,17
810,411	0,17
810,59	-14,17
810,769	-14,17
810,948	-36,69
811,127	-55,12
811,306	75,95
811,485	26,79
811,664	32,94
811,843	77,99
812,022	49,32
812,201	32,94
812,38	28,84
812,559	-12,12
812,737	53,42
812,916	-12,12
813,095	12,46
813,274	-18,26
813,453	-22,36
813,632	57,51
813,811	8,36
813,989	-14,17
814,168	67,75
814,347	-30,55
814,526	34,99
814,704	-8,02
814,883	37,03
815,062	-14,17
815,24	10,41
815,419	18,6
815,598	-59,22
815,776	-55,12
815,955	-30,55
816,133	-48,98
816,312	2,22
816,49	6,31
816,669	32,94
816,847	-3,93
817,026	-20,31
817,204	-53,08
817,383	18,6
817,561	-87,89
817,74	12,46
817,918	-12,12
818,097	18,6
818,275	0,17
818,453	0,17
818,632	-38,74
818,81	16,55
818,988	-73,56
819,167	10,41
819,345	-73,56
819,523	-12,12
819,701	2,22
819,879	-5,97
820,058	-14,17
820,236	-5,97
820,414	-20,31
820,592	20,65
820,77	8,36
820,948	-12,12
821,127	-71,51
821,305	-28,5
821,483	-16,21
821,661	88,23
821,839	37,03
822,017	-63,32
822,195	16,55
822,373	32,94
822,551	18,6
822,729	-22,36
822,907	-110,42
823,085	22,7
823,262	16,55
823,44	4,27
823,618	-40,79
823,796	-5,97
823,974	-112,47
824,152	-40,79
824,329	4,27
824,507	32,94
824,685	-53,08
824,863	-18,26
825,04	-36,69
825,218	24,75
825,396	-12,12
825,574	-12,12
825,751	41,13
825,929	24,75
826,107	12,46
826,284	-14,17
826,462	18,6
826,639	-32,6
826,817	-46,93
826,994	-30,55
827,172	-44,88
827,349	53,42
827,527	-22,36
827,704	14,51
827,882	34,99
828,059	-57,17
828,237	-30,55
828,414	26,79
828,591	-10,07
828,769	-28,5
828,946	39,08
829,124	43,18
829,301	-1,88
829,478	-8,02
829,655	24,75
829,833	43,18
830,01	-89,94
830,187	-8,02
830,364	-38,74
830,542	10,41
830,719	16,55
830,896	-32,6
831,073	57,51
831,25	-32,6
831,427	39,08
831,604	20,65
831,782	28,84
831,959	-40,79
832,136	-73,56
832,313	-16,21
832,49	-53,08
832,667	-28,5
832,844	-73,56
833,021	2,22
833,198	45,23
833,374	12,46
833,551	-75,6
833,728	-1,88
833,905	24,75
834,082	-34,64
834,259	-81,75
834,436	0,17
834,612	-16,21
834,789	16,55
834,966	14,51
835,143	-42,84
835,319	30,89
835,496	-8,02
835,673	-22,36
835,85	-36,69
836,026	39,08
836,203	26,79
836,38	39,08
836,556	-36,69
836,733	-63,32
836,909	57,51
837,086	49,32
837,262	-10,07
837,439	-34,64
837,616	-14,17
837,792	37,03
837,968	-22,36
838,145	-104,28
838,321	41,13
838,498	-10,07
838,674	80,04
838,851	-81,75
839,027	94,38
839,203	14,51
839,38	8,36
839,556	-77,65
839,732	8,36
839,909	37,03
840,085	-38,74
840,261	-10,07
840,437	10,41
840,614	10,41
840,79	-8,02
840,966	34,99
841,142	-51,03
841,318	-57,17
841,494	12,46
841,671	41,13
841,847	32,94
842,023	20,65
842,199	-30,55
842,375	43,18
842,551	-53,08
842,727	-87,89
842,903	6,31
843,079	-42,84
843,255	-1,88
843,431	-8,02
843,607	-20,31
843,783	-108,37
843,959	-71,51
844,134	-53,08
844,31	28,84
844,486	-28,5
844,662	-1,88
844,838	16,55
845,013	32,94
845,189	2,22
845,365	-1,88
845,541	-14,17
845,716	-18,26
845,892	-69,46
846,068	-30,55
846,244	-12,12
846,419	-98,13
846,595	-38,74
846,77	28,84
846,946	57,51
847,122	-32,6
847,297	20,65
847,473	41,13
847,648	-12,12
847,824	-8,02
847,999	-55,12
848,175	4,27
848,35	-69,46
848,526	18,6
848,701	24,75
848,876	16,55
849,052	16,55
849,227	-32,6
849,403	-32,6
849,578	-51,03
849,753	55,47
849,929	49,32
850,104	-30,55
850,279	12,46
850,454	-77,65
850,63	-22,36
850,805	57,51
850,98	-20,31
851,155	69,8
851,33	-16,21
851,505	-1,88
851,681	67,75
851,856	-55,12
852,031	14,51
852,206	4,27
852,381	-20,31
852,556	-12,12
852,731	-32,6
852,906	-67,41
853,081	-30,55
853,256	8,36
853,431	30,89
853,606	-14,17
853,781	24,75
853,956	4,27
854,131	2,22
854,305	-3,93
854,48	-46,93
854,655	-32,6
854,83	-65,36
855,005	-44,88
855,18	-12,12
855,354	28,84
855,529	24,75
855,704	-65,36
855,879	-48,98
856,053	-28,5
856,228	0,17
856,403	16,55
856,577	32,94
856,752	-32,6
856,926	34,99
857,101	2,22
857,276	-40,79
857,45	37,03
857,625	123,05
857,799	4,27
857,974	-32,6
858,148	-53,08
858,323	71,85
858,497	-5,97
858,672	59,56
858,846	41,13
859,02	-22,36
859,195	49,32
859,369	-5,97
859,543	-48,98
859,718	30,89
859,892	12,46
860,066	-10,07
860,241	-12,12
860,415	16,55
860,589	-24,4
860,763	34,99
860,938	26,79
861,112	4,27
861,286	-77,65
861,46	-36,69
861,634	4,27
861,808	106,67
861,982	-40,79
862,157	-12,12
862,331	-16,21
862,505	-32,6
862,679	-40,79
862,853	0,17
863,027	-14,17
863,201	34,99
863,375	45,23
863,549	6,31
863,722	-22,36
863,896	-44,88
864,07	-65,36
864,244	4,27
864,418	8,36
864,592	-32,6
864,766	-67,41
864,939	26,79
865,113	-28,5
865,287	61,61
865,461	-59,22
865,634	-26,45
865,808	-59,22
865,982	-30,55
866,156	-24,4
866,329	-108,37
866,503	12,46
866,676	8,36
866,85	-16,21
867,024	32,94
867,197	-3,93
867,371	90,28
867,544	-32,6
867,718	8,36
867,891	51,37
868,065	41,13
868,238	12,46
868,412	24,75
868,585	-40,79
868,759	-16,21
868,932	-55,12
869,105	20,65
869,279	0,17
869,452	-12,12
869,625	2,22
869,799	18,6
869,972	-38,74
870,145	6,31
870,319	-28,5
870,492	2,22
870,665	-30,55
870,838	-16,21
871,011	-85,84
871,185	-12,12
871,358	12,46
871,531	-16,21
871,704	-71,51
871,877	-32,6
872,05	-48,98
872,223	-55,12
872,396	-46,93
872,569	-36,69
872,742	16,55
872,915	67,75
873,088	-48,98
873,261	-51,03
873,434	75,95
873,607	8,36
873,78	-22,36
873,953	-40,79
874,126	28,84
874,299	63,66
874,471	-14,17
874,644	71,85
874,817	-18,26
874,99	82,09
875,163	-57,17
875,335	-24,4
875,508	53,42
875,681	32,94
875,853	37,03
876,026	-42,84
876,199	-1,88
876,371	22,7
876,544	80,04
876,717	12,46
876,889	-24,4
877,062	-10,07
877,234	-1,88
877,407	-55,12
877,579	-67,41
877,752	28,84
877,924	34,99
878,097	49,32
878,269	49,32
878,442	-1,88
878,614	20,65
878,786	-36,69
878,959	22,7
879,131	-16,21
879,303	-114,52
879,476	-44,88
879,648	-22,36
879,82	10,41
879,993	24,75
880,165	0,17
880,337	-118,61
880,509	73,9
880,681	-24,4
880,854	-22,36
881,026	-10,07
881,198	14,51
881,37	47,27
881,542	63,66
881,714	30,89
881,886	-59,22
882,058	-44,88
882,23	41,13
882,402	-24,4
882,574	-5,97
882,746	-44,88
882,918	14,51
883,09	16,55
883,262	-16,21
883,434	86,19
883,606	-28,5
883,778	34,99
883,95	30,89
884,122	0,17
884,293	37,03
884,465	-14,17
884,637	47,27
884,809	-5,97
884,98	39,08
885,152	45,23
885,324	39,08
885,496	8,36
885,667	-40,79
885,839	28,84
886,011	65,71
886,182	57,51
886,354	41,13
886,525	20,65
886,697	-5,97
886,869	-12,12
887,04	-36,69
887,212	-26,45
887,383	32,94
887,555	2,22
887,726	22,7
887,897	8,36
888,069	39,08
888,24	-12,12
888,412	4,27
888,583	82,09
888,754	-5,97
888,926	-55,12
889,097	-12,12
889,268	2,22
889,44	-77,65
889,611	-130,9
889,782	47,27
889,953	-36,69
890,125	49,32
890,296	-73,56
890,467	-55,12
890,638	-91,99
890,809	65,71
890,98	-77,65
891,151	67,75
891,323	65,71
891,494	-22,36
891,665	-16,21
891,836	-14,17
892,007	-14,17
892,178	-18,26
892,349	14,51
892,52	-48,98
892,691	-57,17
892,862	65,71
893,032	-38,74
893,203	-14,17
893,374	2,22
893,545	51,37
893,716	0,17
893,887	47,27
894,057	-10,07
894,228	-32,6
894,399	-8,02
894,57	49,32
894,74	63,66
894,911	-36,69
895,082	-22,36
895,253	12,46
895,423	4,27
895,594	-20,31
895,764	-30,55
895,935	-24,4
896,106	37,03
896,276	-48,98
896,447	-42,84
896,617	12,46
896,788	12,46
896,958	-61,27
897,129	-22,36
897,299	-32,6
897,47	-63,32
897,64	28,84
897,81	-12,12
897,981	2,22
898,151	-61,27
898,322	-24,4
898,492	-10,07
898,662	0,17
898,832	6,31
899,003	-32,6
899,173	49,32
899,343	-5,97
899,513	8,36
