Data from filtre430_USB4F104151__9__11-51-40-625.txt Node

Date: Wed Apr 15 11:51:40 EDT 2026
User: LaboPhy
Spectrometer: USB4F10415
Trigger mode: 4
Integration Time (sec): 2,500000E-2
Scans to average: 1
Electric dark correction enabled: true
Nonlinearity correction enabled: false
Boxcar width: 0
XAxis mode: Wavelengths
Number of Pixels in Spectrum: 3648
>>>>>Begin Spectral Data<<<<<
178,204	-36,86
178,424	-36,86
178,644	-36,86
178,864	-28,67
179,084	-94,21
179,304	-28,67
179,524	12,29
179,744	-32,77
179,964	61,44
180,184	0
180,404	94,21
180,624	-10,24
180,844	-30,72
181,064	-16,38
181,283	-16,38
181,503	-40,96
181,723	8,19
181,943	24,58
182,163	61,44
182,383	-12,29
182,602	92,16
182,822	49,15
183,042	-16,38
183,262	55,3
183,482	53,25
183,701	122,88
183,921	45,06
184,141	12,29
184,361	92,16
184,58	40,96
184,8	57,34
185,02	22,53
185,239	28,67
185,459	28,67
185,679	45,06
185,898	28,67
186,118	47,1
186,338	45,06
186,557	12,29
186,777	22,53
186,997	57,34
187,216	-8,19
187,436	32,77
187,655	69,63
187,875	102,4
188,095	-45,06
188,314	61,44
188,534	102,4
188,753	36,86
188,973	28,67
189,192	73,73
189,412	32,77
189,631	36,86
189,851	47,1
190,07	67,58
190,29	12,29
190,509	4,1
190,729	0
190,948	69,63
191,168	151,55
191,387	61,44
191,607	45,06
191,826	51,2
192,045	61,44
192,265	10,24
192,484	0
192,704	-36,86
192,923	-2,05
193,142	83,97
193,362	49,15
193,581	63,49
193,8	-2,05
194,02	45,06
194,239	-22,53
194,458	94,21
194,678	47,1
194,897	14,34
195,116	36,86
195,335	106,49
195,555	-24,58
195,774	28,67
195,993	47,1
196,212	53,25
196,432	45,06
196,651	108,54
196,87	-26,62
197,089	61,44
197,308	86,01
197,528	40,96
197,747	22,53
197,966	22,53
198,185	137,21
198,404	30,72
198,623	86,01
198,842	18,43
199,062	79,87
199,281	65,53
199,5	77,82
199,719	-10,24
199,938	-12,29
200,157	77,82
200,376	-28,67
200,595	61,44
200,814	24,58
201,033	14,34
201,252	67,58
201,471	30,72
201,69	83,97
201,909	10,24
202,128	151,55
202,347	-4,1
202,566	-10,24
202,785	30,72
203,004	-49,15
203,223	96,25
203,442	20,48
203,661	16,38
203,879	28,67
204,098	100,35
204,317	4,1
204,536	88,06
204,755	8,19
204,974	57,34
205,193	14,34
205,411	94,21
205,63	79,87
205,849	86,01
206,068	94,21
206,287	94,21
206,505	100,35
206,724	-28,67
206,943	-28,67
207,162	-36,86
207,381	86,01
207,599	53,25
207,818	55,3
208,037	38,91
208,255	6,14
208,474	57,34
208,693	18,43
208,911	4,1
209,13	90,11
209,349	14,34
209,567	57,34
209,786	30,72
210,005	38,91
210,223	40,96
210,442	-10,24
210,661	-10,24
210,879	69,63
211,098	106,49
211,316	81,92
211,535	73,73
211,753	61,44
211,972	12,29
212,191	-34,82
212,409	49,15
212,628	10,24
212,846	-61,44
213,065	133,12
213,283	96,25
213,502	81,92
213,72	65,53
213,938	6,14
214,157	69,63
214,375	28,67
214,594	61,44
214,812	43,01
215,031	-4,1
215,249	16,38
215,467	22,53
215,686	34,82
215,904	-36,86
216,122	49,15
216,341	65,53
216,559	57,34
216,778	4,1
216,996	26,62
217,214	-10,24
217,432	69,63
217,651	6,14
217,869	22,53
218,087	75,77
218,306	22,53
218,524	71,68
218,742	28,67
218,96	24,58
219,179	28,67
219,397	61,44
219,615	14,34
219,833	71,68
220,051	-2,05
220,27	102,4
220,488	-4,1
220,706	22,53
220,924	73,73
221,142	8,19
221,36	69,63
221,578	40,96
221,796	55,3
222,015	61,44
222,233	32,77
222,451	75,77
222,669	14,34
222,887	36,86
223,105	-8,19
223,323	40,96
223,541	-34,82
223,759	47,1
223,977	133,12
224,195	86,01
224,413	12,29
224,631	-36,86
224,849	24,58
225,067	88,06
225,285	53,25
225,503	-12,29
225,721	22,53
225,939	28,67
226,157	47,1
226,375	116,73
226,592	0
226,81	61,44
227,028	57,34
227,246	-2,05
227,464	55,3
227,682	28,67
227,9	77,82
228,117	73,73
228,335	45,06
228,553	124,93
228,771	10,24
228,989	22,53
229,206	114,69
229,424	2,05
229,642	-10,24
229,86	0
230,077	65,53
230,295	59,39
230,513	40,96
230,731	73,73
230,948	14,34
231,166	34,82
231,384	71,68
231,601	20,48
231,819	0
232,037	20,48
232,254	18,43
232,472	-2,05
232,689	-8,19
232,907	71,68
233,125	55,3
233,342	24,58
233,56	22,53
233,777	-6,14
233,995	59,39
234,213	30,72
234,43	100,35
234,648	6,14
234,865	45,06
235,083	75,77
235,3	2,05
235,518	4,1
235,735	43,01
235,953	43,01
236,17	18,43
236,388	47,1
236,605	22,53
236,822	110,59
237,04	114,69
237,257	94,21
237,475	12,29
237,692	16,38
237,909	51,2
238,127	47,1
238,344	43,01
238,562	98,3
238,779	-28,67
238,996	73,73
239,214	-20,48
239,431	24,58
239,648	20,48
239,865	45,06
240,083	51,2
240,3	-2,05
240,517	28,67
240,735	28,67
240,952	-10,24
241,169	-24,58
241,386	69,63
241,603	34,82
241,821	57,34
242,038	57,34
242,255	47,1
242,472	-12,29
242,689	38,91
242,907	26,62
243,124	36,86
243,341	8,19
243,558	-26,62
243,775	43,01
243,992	-32,77
244,209	40,96
244,426	86,01
244,643	49,15
244,86	-88,06
245,078	40,96
245,295	32,77
245,512	65,53
245,729	12,29
245,946	63,49
246,163	49,15
246,38	116,73
246,597	4,1
246,814	36,86
247,031	6,14
247,248	34,82
247,464	14,34
247,681	8,19
247,898	-26,62
248,115	43,01
248,332	86,01
248,549	30,72
248,766	26,62
248,983	-2,05
249,2	49,15
249,417	-12,29
249,633	96,25
249,85	67,58
250,067	90,11
250,284	-2,05
250,501	43,01
250,717	96,25
250,934	-18,43
251,151	69,63
251,368	22,53
251,585	36,86
251,801	20,48
252,018	-38,91
252,235	73,73
252,451	47,1
252,668	-2,05
252,885	12,29
253,102	-2,05
253,318	-2,05
253,535	26,62
253,752	43,01
253,968	-57,34
254,185	-49,15
254,401	61,44
254,618	-6,14
254,835	61,44
255,051	47,1
255,268	55,3
255,484	30,72
255,701	120,83
255,917	53,25
256,134	4,1
256,351	-63,49
256,567	45,06
256,784	77,82
257	4,1
257,217	-2,05
257,433	34,82
257,65	69,63
257,866	145,41
258,082	36,86
258,299	10,24
258,515	53,25
258,732	53,25
258,948	32,77
259,165	24,58
259,381	96,25
259,597	0
259,814	36,86
260,03	-34,82
260,246	86,01
260,463	14,34
260,679	77,82
260,895	30,72
261,112	79,87
261,328	-110,59
261,544	-30,72
261,761	100,35
261,977	94,21
262,193	47,1
262,409	34,82
262,626	53,25
262,842	75,77
263,058	36,86
263,274	61,44
263,49	49,15
263,707	45,06
263,923	40,96
264,139	-36,86
264,355	-45,06
264,571	4,1
264,787	14,34
265,004	129,02
265,22	-16,38
265,436	-10,24
265,652	26,62
265,868	20,48
266,084	-2,05
266,3	8,19
266,516	18,43
266,732	63,49
266,948	38,91
267,164	-2,05
267,38	8,19
267,596	88,06
267,812	110,59
268,028	0
268,244	8,19
268,46	-26,62
268,676	49,15
268,892	-12,29
269,108	65,53
269,324	2,05
269,54	-49,15
269,756	69,63
269,972	-4,1
270,188	24,58
270,403	51,2
270,619	6,14
270,835	106,49
271,051	108,54
271,267	77,82
271,483	92,16
271,698	36,86
271,914	12,29
272,13	-51,2
272,346	4,1
272,562	24,58
272,777	-16,38
272,993	69,63
273,209	4,1
273,425	10,24
273,64	69,63
273,856	67,58
274,072	-30,72
274,287	-2,05
274,503	40,96
274,719	28,67
274,934	22,53
275,15	-53,25
275,366	28,67
275,581	0
275,797	79,87
276,012	6,14
276,228	126,97
276,444	0
276,659	2,05
276,875	90,11
277,09	-20,48
277,306	40,96
277,521	36,86
277,737	-36,86
277,952	-4,1
278,168	12,29
278,383	22,53
278,599	57,34
278,814	63,49
279,03	69,63
279,245	96,25
279,461	108,54
279,676	79,87
279,892	24,58
280,107	32,77
280,322	-47,1
280,538	14,34
280,753	10,24
280,969	63,49
281,184	67,58
281,399	126,97
281,615	38,91
281,83	12,29
282,045	-10,24
282,26	61,44
282,476	100,35
282,691	88,06
282,906	57,34
283,122	57,34
283,337	45,06
283,552	147,45
283,767	-32,77
283,983	40,96
284,198	-8,19
284,413	-51,2
284,628	45,06
284,843	45,06
285,058	73,73
285,274	51,2
285,489	6,14
285,704	77,82
285,919	-38,91
286,134	30,72
286,349	65,53
286,564	20,48
286,779	79,87
286,995	79,87
287,21	90,11
287,425	40,96
287,64	-8,19
287,855	-10,24
288,07	14,34
288,285	30,72
288,5	36,86
288,715	43,01
288,93	38,91
289,145	20,48
289,36	51,2
289,575	-24,58
289,79	45,06
290,004	69,63
290,219	135,17
290,434	22,53
290,649	16,38
290,864	28,67
291,079	36,86
291,294	10,24
291,509	47,1
291,724	6,14
291,938	81,92
292,153	16,38
292,368	-57,34
292,583	-55,3
292,798	47,1
293,012	-30,72
293,227	26,62
293,442	24,58
293,657	-10,24
293,871	92,16
294,086	79,87
294,301	71,68
294,516	-30,72
294,73	-43,01
294,945	47,1
295,16	24,58
295,374	-26,62
295,589	49,15
295,804	-40,96
296,018	28,67
296,233	18,43
296,447	8,19
296,662	-26,62
296,877	69,63
297,091	18,43
297,306	69,63
297,52	10,24
297,735	34,82
297,949	53,25
298,164	36,86
298,378	47,1
298,593	10,24
298,807	0
299,022	36,86
299,236	49,15
299,451	20,48
299,665	2,05
299,88	67,58
300,094	61,44
300,309	20,48
300,523	34,82
300,737	28,67
300,952	59,39
301,166	-81,92
301,381	16,38
301,595	49,15
301,809	36,86
302,024	55,3
302,238	-16,38
302,452	57,34
302,667	10,24
302,881	155,65
303,095	53,25
303,309	24,58
303,524	12,29
303,738	14,34
303,952	32,77
304,166	28,67
304,381	59,39
304,595	61,44
304,809	45,06
305,023	10,24
305,237	24,58
305,452	45,06
305,666	-28,67
305,88	129,02
306,094	-28,67
306,308	-28,67
306,522	79,87
306,736	106,49
306,95	8,19
307,164	-20,48
307,379	36,86
307,593	-26,62
307,807	55,3
308,021	124,93
308,235	-10,24
308,449	61,44
308,663	20,48
308,877	137,21
309,091	-69,63
309,305	61,44
309,519	-20,48
309,733	86,01
309,947	38,91
310,161	90,11
310,374	38,91
310,588	30,72
310,802	14,34
311,016	24,58
311,23	-2,05
311,444	-18,43
311,658	4,1
311,872	55,3
312,085	-22,53
312,299	71,68
312,513	2,05
312,727	-2,05
312,941	51,2
313,154	90,11
313,368	20,48
313,582	69,63
313,796	26,62
314,009	131,07
314,223	36,86
314,437	-2,05
314,651	18,43
314,864	28,67
315,078	53,25
315,292	36,86
315,505	16,38
315,719	110,59
315,933	16,38
316,146	38,91
316,36	-26,62
316,573	124,93
316,787	20,48
317,001	65,53
317,214	14,34
317,428	47,1
317,641	-18,43
317,855	53,25
318,068	75,77
318,282	28,67
318,495	55,3
318,709	55,3
318,922	22,53
319,136	65,53
319,349	73,73
319,563	6,14
319,776	30,72
319,99	63,49
320,203	-10,24
320,417	55,3
320,63	94,21
320,843	43,01
321,057	26,62
321,27	69,63
321,483	-4,1
321,697	28,67
321,91	36,86
322,124	79,87
322,337	61,44
322,55	20,48
322,763	22,53
322,977	36,86
323,19	8,19
323,403	-8,19
323,617	32,77
323,83	12,29
324,043	10,24
324,256	71,68
324,469	32,77
324,683	73,73
324,896	47,1
325,109	-18,43
325,322	-12,29
325,535	88,06
325,748	98,3
325,962	-20,48
326,175	67,58
326,388	63,49
326,601	16,38
326,814	61,44
327,027	-45,06
327,24	141,31
327,453	4,1
327,666	49,15
327,879	79,87
328,092	34,82
328,305	4,1
328,518	57,34
328,731	57,34
328,944	20,48
329,157	36,86
329,37	24,58
329,583	120,83
329,796	139,26
330,009	28,67
330,222	18,43
330,435	69,63
330,648	73,73
330,861	10,24
331,073	32,77
331,286	79,87
331,499	24,58
331,712	34,82
331,925	77,82
332,138	8,19
332,35	102,4
332,563	55,3
332,776	8,19
332,989	61,44
333,202	92,16
333,414	81,92
333,627	34,82
333,84	-61,44
334,053	-2,05
334,265	53,25
334,478	32,77
334,691	22,53
334,903	-75,77
335,116	51,2
335,329	-18,43
335,541	73,73
335,754	57,34
335,966	4,1
336,179	102,4
336,392	-10,24
336,604	22,53
336,817	69,63
337,029	69,63
337,242	90,11
337,454	4,1
337,667	38,91
337,88	57,34
338,092	110,59
338,305	120,83
338,517	-20,48
338,729	90,11
338,942	98,3
339,154	22,53
339,367	6,14
339,579	-47,1
339,792	-12,29
340,004	14,34
340,217	-2,05
340,429	81,92
340,641	-10,24
340,854	36,86
341,066	16,38
341,278	24,58
341,491	45,06
341,703	6,14
341,915	-20,48
342,128	38,91
342,34	61,44
342,552	-24,58
342,764	55,3
342,977	12,29
343,189	12,29
343,401	81,92
343,613	4,1
343,826	49,15
344,038	55,3
344,25	90,11
344,462	-4,1
344,674	36,86
344,886	30,72
345,099	51,2
345,311	51,2
345,523	69,63
345,735	14,34
345,947	59,39
346,159	53,25
346,371	73,73
346,583	28,67
346,795	28,67
347,007	4,1
347,219	-71,68
347,431	-40,96
347,643	28,67
347,855	-34,82
348,067	73,73
348,279	22,53
348,491	83,97
348,703	102,4
348,915	30,72
349,127	12,29
349,339	43,01
349,551	30,72
349,763	24,58
349,975	36,86
350,187	65,53
350,399	22,53
350,61	0
350,822	73,73
351,034	65,53
351,246	30,72
351,458	10,24
351,669	40,96
351,881	10,24
352,093	24,58
352,305	49,15
352,517	65,53
352,728	10,24
352,94	151,55
353,152	106,49
353,363	-20,48
353,575	116,73
353,787	30,72
353,999	77,82
354,21	92,16
354,422	45,06
354,633	40,96
354,845	-22,53
355,057	-2,05
355,268	34,82
355,48	-12,29
355,692	14,34
355,903	28,67
356,115	16,38
356,326	24,58
356,538	96,25
356,749	49,15
356,961	61,44
357,172	-10,24
357,384	90,11
357,595	24,58
357,807	36,86
358,018	38,91
358,23	45,06
358,441	51,2
358,653	88,06
358,864	-2,05
359,075	-47,1
359,287	86,01
359,498	28,67
359,709	-8,19
359,921	69,63
360,132	71,68
360,344	32,77
360,555	-6,14
360,766	-61,44
360,977	88,06
361,189	36,86
361,4	79,87
361,611	20,48
361,823	40,96
362,034	20,48
362,245	-28,67
362,456	57,34
362,667	79,87
362,879	28,67
363,09	114,69
363,301	112,64
363,512	65,53
363,723	12,29
363,935	-2,05
364,146	14,34
364,357	47,1
364,568	36,86
364,779	71,68
364,99	36,86
365,201	-8,19
365,412	90,11
365,623	-18,43
365,834	51,2
366,045	30,72
366,256	116,73
366,467	69,63
366,678	-6,14
366,889	45,06
367,1	16,38
367,311	110,59
367,522	67,58
367,733	-10,24
367,944	14,34
368,155	59,39
368,366	45,06
368,577	55,3
368,788	124,93
368,999	96,25
369,209	69,63
369,42	34,82
369,631	122,88
369,842	65,53
370,053	38,91
370,264	4,1
370,474	20,48
370,685	2,05
370,896	22,53
371,107	45,06
371,317	45,06
371,528	-22,53
371,739	73,73
371,95	106,49
372,16	73,73
372,371	-8,19
372,582	14,34
372,792	53,25
373,003	8,19
373,214	106,49
373,424	12,29
373,635	-20,48
373,846	32,77
374,056	2,05
374,267	40,96
374,477	122,88
374,688	-6,14
374,898	40,96
375,109	-36,86
375,319	30,72
375,53	118,78
375,74	0
375,951	-36,86
376,161	-4,1
376,372	65,53
376,582	-8,19
376,793	30,72
377,003	22,53
377,214	69,63
377,424	2,05
377,635	2,05
377,845	-63,49
378,055	141,31
378,266	6,14
378,476	81,92
378,686	28,67
378,897	-36,86
379,107	59,39
379,317	61,44
379,528	-2,05
379,738	26,62
379,948	26,62
380,158	24,58
380,369	24,58
380,579	-51,2
380,789	20,48
380,999	112,64
381,21	67,58
381,42	45,06
381,63	53,25
381,84	38,91
382,05	61,44
382,261	79,87
382,471	16,38
382,681	-59,39
382,891	55,3
383,101	98,3
383,311	2,05
383,521	20,48
383,731	96,25
383,941	90,11
384,151	96,25
384,361	43,01
384,571	26,62
384,781	69,63
384,991	131,07
385,201	129,02
385,411	137,21
385,621	22,53
385,831	55,3
386,041	16,38
386,251	47,1
386,461	34,82
386,671	22,53
386,881	49,15
387,091	49,15
387,301	135,17
387,511	61,44
387,72	106,49
387,93	104,45
388,14	12,29
388,35	28,67
388,56	100,35
388,769	6,14
388,979	-32,77
389,189	143,36
389,399	65,53
389,609	28,67
389,818	63,49
390,028	18,43
390,238	6,14
390,447	45,06
390,657	40,96
390,867	79,87
391,076	4,1
391,286	28,67
391,496	22,53
391,705	0
391,915	112,64
392,125	14,34
392,334	24,58
392,544	-2,05
392,753	92,16
392,963	108,54
393,172	16,38
393,382	4,1
393,591	71,68
393,801	45,06
394,01	135,17
394,22	67,58
394,429	2,05
394,639	0
394,848	12,29
395,058	45,06
395,267	77,82
395,477	77,82
395,686	-40,96
395,895	94,21
396,105	110,59
396,314	55,3
396,524	49,15
396,733	38,91
396,942	77,82
397,152	0
397,361	139,26
397,57	-30,72
397,78	40,96
397,989	108,54
398,198	116,73
398,407	45,06
398,617	-6,14
398,826	47,1
399,035	92,16
399,244	90,11
399,453	88,06
399,663	14,34
399,872	34,82
400,081	47,1
400,29	61,44
400,499	65,53
400,708	30,72
400,917	-12,29
401,127	30,72
401,336	4,1
401,545	94,21
401,754	36,86
401,963	102,4
402,172	61,44
402,381	12,29
402,59	112,64
402,799	18,43
403,008	12,29
403,217	98,3
403,426	-2,05
403,635	20,48
403,844	81,92
404,053	24,58
404,262	-12,29
404,471	110,59
404,68	20,48
404,888	124,93
405,097	88,06
405,306	65,53
405,515	28,67
405,724	-12,29
405,933	102,4
406,142	38,91
406,35	69,63
406,559	10,24
406,768	24,58
406,977	110,59
407,185	79,87
407,394	69,63
407,603	-49,15
407,812	102,4
408,02	-14,34
408,229	94,21
408,438	98,3
408,646	-24,58
408,855	67,58
409,064	53,25
409,272	47,1
409,481	45,06
409,69	12,29
409,898	86,01
410,107	26,62
410,315	83,97
410,524	6,14
410,733	65,53
410,941	40,96
411,15	55,3
411,358	4,1
411,567	86,01
411,775	32,77
411,984	73,73
412,192	71,68
412,401	30,72
412,609	55,3
412,818	75,77
413,026	114,69
413,234	6,14
413,443	104,45
413,651	40,96
413,86	34,82
414,068	6,14
414,276	63,49
414,485	20,48
414,693	61,44
414,901	112,64
415,11	57,34
415,318	65,53
415,526	69,63
415,734	112,64
415,943	32,77
416,151	145,41
416,359	-2,05
416,567	-2,05
416,776	61,44
416,984	135,17
417,192	22,53
417,4	63,49
417,608	2,05
417,817	86,01
418,025	100,35
418,233	112,64
418,441	45,06
418,649	40,96
418,857	65,53
419,065	98,3
419,273	34,82
419,481	126,97
419,689	45,06
419,897	49,15
420,105	98,3
420,313	106,49
420,521	169,98
420,729	98,3
420,937	129,02
421,145	61,44
421,353	94,21
421,561	155,65
421,769	192,51
421,977	180,22
422,185	286,72
422,393	217,08
422,601	108,54
422,809	149,5
423,017	188,41
423,224	221,18
423,432	202,75
423,64	202,75
423,848	221,18
424,056	174,08
424,263	319,48
424,471	266,24
424,679	352,25
424,887	290,81
425,094	421,88
425,302	393,21
425,51	423,93
425,718	481,27
425,925	501,75
426,133	555
426,341	634,87
426,548	755,7
426,756	780,28
426,964	950,26
427,171	983,02
427,379	1118,19
427,586	1255,4
427,794	1417,19
428,001	1699,81
428,209	1986,53
428,417	1949,67
428,624	2375,64
428,832	2754,52
429,039	3112,91
429,247	3485,64
429,454	4214,72
429,662	4995
429,869	5330,86
430,076	6363,04
430,284	6971,29
430,491	8200,07
430,699	9777
430,906	10755,93
431,114	11951,95
431,321	13711,15
431,528	15343,38
431,736	17841,9
431,943	19918,54
432,15	21159,61
432,358	22714,02
432,565	25364,09
432,772	27397,73
432,979	29763,13
433,187	31497,76
433,394	32708,11
433,601	36617,68
433,808	37137,87
434,016	37610,95
434,223	39523,75
434,43	42370,43
434,637	41807,23
434,844	44354,91
435,052	45202,77
435,259	44496,22
435,466	44922,19
435,673	43810,15
435,88	46714,17
436,087	48463,13
436,294	48592,15
436,501	47312,17
436,708	46851,38
436,915	48235,81
437,122	49360,14
437,329	48241,95
437,537	49732,87
437,743	50357,5
437,95	48305,44
438,157	50580,73
438,364	51549,42
438,571	51066,1
438,778	50296,06
438,985	52882,65
439,192	51293,43
439,399	51778,79
439,606	50273,54
439,813	51848,42
440,02	54049,99
440,227	51520,75
440,433	49845,51
440,64	50752,76
440,847	48258,34
441,054	47600,94
441,261	48444,7
441,467	45434,19
441,674	43971,94
441,881	42085,76
442,088	39800,22
442,294	36611,54
442,501	34819,56
442,708	32071,19
442,914	29926,97
443,121	27420,25
443,328	24321,68
443,534	22976,16
443,741	19678,93
443,948	16721,66
444,154	15888,14
444,361	13666,1
444,568	11835,21
444,774	10166,12
444,981	8710,01
445,187	7835,53
445,394	7102,36
445,6	6127,52
445,807	5709,74
446,013	4747,19
446,22	4263,87
446,426	3827,65
446,633	3375,05
446,839	3157,97
447,046	2596,82
447,252	2494,43
447,459	2058,21
447,665	1839,08
447,871	1757,16
448,078	1581,03
448,284	1347,56
448,491	1230,83
448,697	1173,49
448,903	1089,52
449,11	1011,7
449,316	833,52
449,522	827,38
449,728	874,48
449,935	737,27
450,141	681,97
450,347	602,1
450,553	499,7
450,76	366,59
450,966	497,66
451,172	428,03
451,378	413,69
451,584	368,63
451,791	321,53
451,997	329,72
452,203	284,67
452,409	274,43
452,615	335,87
452,821	229,37
453,027	249,85
453,233	284,67
453,44	204,8
453,646	186,37
453,852	219,13
454,058	237,56
454,264	176,13
454,47	151,55
454,676	143,36
454,882	174,08
455,088	192,51
455,294	190,46
455,5	208,89
455,705	149,5
455,911	225,28
456,117	139,26
456,323	96,25
456,529	77,82
456,735	221,18
456,941	165,89
457,147	190,46
457,352	118,78
457,558	79,87
457,764	92,16
457,97	88,06
458,176	86,01
458,381	59,39
458,587	129,02
458,793	102,4
458,999	118,78
459,204	141,31
459,41	94,21
459,616	102,4
459,821	53,25
460,027	67,58
460,233	143,36
460,438	176,13
460,644	88,06
460,85	61,44
461,055	30,72
461,261	126,97
461,466	102,4
461,672	77,82
461,878	45,06
462,083	124,93
462,289	12,29
462,494	94,21
462,7	159,74
462,905	71,68
463,111	32,77
463,316	69,63
463,522	112,64
463,727	-8,19
463,932	96,25
464,138	53,25
464,343	126,97
464,549	102,4
464,754	114,69
464,959	45,06
465,165	71,68
465,37	49,15
465,575	53,25
465,781	20,48
465,986	2,05
466,191	67,58
466,397	98,3
466,602	120,83
466,807	102,4
467,012	34,82
467,218	88,06
467,423	63,49
467,628	53,25
467,833	34,82
468,038	24,58
468,244	28,67
468,449	14,34
468,654	32,77
468,859	40,96
469,064	38,91
469,269	47,1
469,474	96,25
469,679	81,92
469,885	94,21
470,09	24,58
470,295	104,45
470,5	86,01
470,705	131,07
470,91	124,93
471,115	79,87
471,32	79,87
471,525	65,53
471,73	102,4
471,935	2,05
472,139	-10,24
472,344	69,63
472,549	75,77
472,754	118,78
472,959	20,48
473,164	88,06
473,369	-6,14
473,574	114,69
473,778	30,72
473,983	73,73
474,188	24,58
474,393	126,97
474,598	55,3
474,802	-10,24
475,007	77,82
475,212	45,06
475,417	71,68
475,621	61,44
475,826	-18,43
476,031	-18,43
476,235	16,38
476,44	79,87
476,645	-12,29
476,849	55,3
477,054	-18,43
477,259	88,06
477,463	83,97
477,668	122,88
477,872	40,96
478,077	100,35
478,282	-14,34
478,486	79,87
478,691	67,58
478,895	118,78
479,1	59,39
479,304	71,68
479,509	-30,72
479,713	30,72
479,918	36,86
480,122	-4,1
480,326	12,29
480,531	53,25
480,735	22,53
480,94	67,58
481,144	71,68
481,348	28,67
481,553	77,82
481,757	65,53
481,961	77,82
482,166	34,82
482,37	28,67
482,574	137,21
482,778	28,67
482,983	12,29
483,187	38,91
483,391	0
483,595	104,45
483,8	73,73
484,004	47,1
484,208	12,29
484,412	90,11
484,616	6,14
484,821	40,96
485,025	61,44
485,229	22,53
485,433	24,58
485,637	57,34
485,841	47,1
486,045	49,15
486,249	59,39
486,453	100,35
486,657	55,3
486,861	-24,58
487,065	-8,19
487,269	96,25
487,473	-45,06
487,677	77,82
487,881	96,25
488,085	34,82
488,289	63,49
488,493	86,01
488,697	73,73
488,901	77,82
489,105	77,82
489,309	16,38
489,512	61,44
489,716	20,48
489,92	24,58
490,124	32,77
490,328	94,21
490,531	12,29
490,735	104,45
490,939	-36,86
491,143	81,92
491,346	-34,82
491,55	86,01
491,754	67,58
491,958	-26,62
492,161	104,45
492,365	59,39
492,569	16,38
492,772	65,53
492,976	10,24
493,18	6,14
493,383	-8,19
493,587	53,25
493,79	110,59
493,994	81,92
494,197	12,29
494,401	24,58
494,605	8,19
494,808	51,2
495,012	12,29
495,215	10,24
495,419	2,05
495,622	-18,43
495,825	-51,2
496,029	106,49
496,232	65,53
496,436	18,43
496,639	71,68
496,843	38,91
497,046	-63,49
497,249	75,77
497,453	69,63
497,656	34,82
497,859	12,29
498,063	45,06
498,266	102,4
498,469	-28,67
498,673	-6,14
498,876	4,1
499,079	16,38
499,282	47,1
499,485	139,26
499,689	81,92
499,892	38,91
500,095	34,82
500,298	-36,86
500,501	-28,67
500,705	38,91
500,908	98,3
501,111	-40,96
501,314	47,1
501,517	120,83
501,72	45,06
501,923	32,77
502,126	-24,58
502,329	26,62
502,532	79,87
502,735	24,58
502,938	14,34
503,141	22,53
503,344	34,82
503,547	61,44
503,75	-34,82
503,953	18,43
504,156	18,43
504,359	59,39
504,562	49,15
504,765	88,06
504,968	108,54
505,17	-6,14
505,373	38,91
505,576	51,2
505,779	75,77
505,982	88,06
506,185	36,86
506,387	22,53
506,59	22,53
506,793	69,63
506,996	63,49
507,198	53,25
507,401	92,16
507,604	43,01
507,807	55,3
508,009	-45,06
508,212	88,06
508,415	47,1
508,617	24,58
508,82	36,86
509,022	45,06
509,225	12,29
509,428	24,58
509,63	26,62
509,833	57,34
510,035	135,17
510,238	18,43
510,44	43,01
510,643	-16,38
510,845	14,34
511,048	65,53
511,25	16,38
511,453	43,01
511,655	2,05
511,858	90,11
512,06	36,86
512,262	79,87
512,465	6,14
512,667	49,15
512,87	61,44
513,072	36,86
513,274	0
513,477	38,91
513,679	2,05
513,881	18,43
514,084	86,01
514,286	75,77
514,488	43,01
514,69	36,86
514,893	-14,34
515,095	10,24
515,297	51,2
515,499	94,21
515,701	36,86
515,904	47,1
516,106	53,25
516,308	45,06
516,51	86,01
516,712	108,54
516,914	8,19
517,116	4,1
517,318	53,25
517,52	-4,1
517,722	-18,43
517,925	-14,34
518,127	34,82
518,329	38,91
518,531	-32,77
518,733	55,3
518,935	-40,96
519,136	14,34
519,338	2,05
519,54	12,29
519,742	51,2
519,944	102,4
520,146	4,1
520,348	79,87
520,55	55,3
520,752	32,77
520,954	-8,19
521,155	32,77
521,357	-12,29
521,559	24,58
521,761	45,06
521,963	12,29
522,164	83,97
522,366	10,24
522,568	22,53
522,77	14,34
522,971	75,77
523,173	10,24
523,375	71,68
523,576	63,49
523,778	-14,34
523,98	45,06
524,181	55,3
524,383	-16,38
524,584	69,63
524,786	53,25
524,988	124,93
525,189	4,1
525,391	98,3
525,592	65,53
525,794	-4,1
525,995	40,96
526,197	112,64
526,398	88,06
526,6	45,06
526,801	81,92
527,003	-45,06
527,204	86,01
527,406	65,53
527,607	36,86
527,808	77,82
528,01	38,91
528,211	20,48
528,412	22,53
528,614	106,49
528,815	14,34
529,016	-4,1
529,218	38,91
529,419	6,14
529,62	38,91
529,822	47,1
530,023	88,06
530,224	112,64
530,425	-32,77
530,626	-18,43
530,828	20,48
531,029	-2,05
531,23	98,3
531,431	-34,82
531,632	122,88
531,833	-59,39
532,035	-22,53
532,236	-20,48
532,437	28,67
532,638	69,63
532,839	-6,14
533,04	-36,86
533,241	-4,1
533,442	12,29
533,643	65,53
533,844	-2,05
534,045	22,53
534,246	12,29
534,447	-61,44
534,648	43,01
534,849	28,67
535,05	53,25
535,251	-12,29
535,451	49,15
535,652	43,01
535,853	2,05
536,054	73,73
536,255	8,19
536,456	-32,77
536,657	-22,53
536,857	53,25
537,058	-38,91
537,259	112,64
537,46	-18,43
537,66	67,58
537,861	38,91
538,062	22,53
538,263	-26,62
538,463	98,3
538,664	49,15
538,865	-2,05
539,065	77,82
539,266	45,06
539,466	6,14
539,667	73,73
539,868	8,19
540,068	57,34
540,269	53,25
540,469	40,96
540,67	63,49
540,87	61,44
541,071	-67,58
541,271	67,58
541,472	57,34
541,672	59,39
541,873	55,3
542,073	81,92
542,274	-47,1
542,474	-8,19
542,675	63,49
542,875	22,53
543,075	-8,19
543,276	-36,86
543,476	49,15
543,676	59,39
543,877	8,19
544,077	86,01
544,277	-12,29
544,478	10,24
544,678	53,25
544,878	63,49
545,078	118,78
545,279	-43,01
545,479	-40,96
545,679	-34,82
545,879	67,58
546,079	79,87
546,28	-88,06
546,48	30,72
546,68	69,63
546,88	94,21
547,08	20,48
547,28	49,15
547,48	69,63
547,68	53,25
547,88	-6,14
548,081	55,3
548,281	-8,19
548,481	24,58
548,681	-18,43
548,881	-12,29
549,081	-16,38
549,28	40,96
549,48	45,06
549,68	36,86
549,88	-26,62
550,08	88,06
550,28	43,01
550,48	55,3
550,68	65,53
550,88	96,25
551,08	-92,16
551,279	94,21
551,479	-8,19
551,679	65,53
551,879	30,72
552,079	47,1
552,278	38,91
552,478	61,44
552,678	61,44
552,878	45,06
553,077	28,67
553,277	-53,25
553,477	55,3
553,676	40,96
553,876	53,25
554,076	-26,62
554,275	55,3
554,475	-16,38
554,674	8,19
554,874	4,1
555,074	4,1
555,273	18,43
555,473	14,34
555,672	-59,39
555,872	-14,34
556,071	-12,29
556,271	69,63
556,47	79,87
556,67	40,96
556,869	43,01
557,068	77,82
557,268	24,58
557,467	38,91
557,667	40,96
557,866	67,58
558,065	40,96
558,265	71,68
558,464	-61,44
558,663	-12,29
558,863	110,59
559,062	-18,43
559,261	18,43
559,461	69,63
559,66	61,44
559,859	18,43
560,058	12,29
560,258	18,43
560,457	45,06
560,656	98,3
560,855	45,06
561,054	-45,06
561,253	32,77
561,453	20,48
561,652	32,77
561,851	73,73
562,05	20,48
562,249	43,01
562,448	88,06
562,647	-16,38
562,846	-20,48
563,045	24,58
563,244	8,19
563,443	-18,43
563,642	24,58
563,841	8,19
564,04	57,34
564,239	53,25
564,438	-22,53
564,637	0
564,836	20,48
565,035	-14,34
565,234	40,96
565,432	69,63
565,631	34,82
565,83	0
566,029	53,25
566,228	-8,19
566,427	2,05
566,625	2,05
566,824	4,1
567,023	26,62
567,222	26,62
567,42	47,1
567,619	75,77
567,818	67,58
568,016	86,01
568,215	38,91
568,414	73,73
568,612	55,3
568,811	10,24
569,01	-38,91
569,208	-30,72
569,407	45,06
569,605	75,77
569,804	38,91
570,002	98,3
570,201	49,15
570,4	32,77
570,598	20,48
570,797	55,3
570,995	-30,72
571,193	22,53
571,392	18,43
571,59	-61,44
571,789	38,91
571,987	-18,43
572,186	22,53
572,384	59,39
572,582	-26,62
572,781	45,06
572,979	0
573,177	-45,06
573,376	69,63
573,574	94,21
573,772	18,43
573,971	-30,72
574,169	49,15
574,367	-12,29
574,565	-2,05
574,763	26,62
574,962	10,24
575,16	-2,05
575,358	-4,1
575,556	45,06
575,754	0
575,952	6,14
576,151	69,63
576,349	71,68
576,547	12,29
576,745	67,58
576,943	-4,1
577,141	-26,62
577,339	-4,1
577,537	24,58
577,735	90,11
577,933	149,5
578,131	65,53
578,329	22,53
578,527	90,11
578,725	-4,1
578,923	14,34
579,121	14,34
579,319	-16,38
579,516	22,53
579,714	155,65
579,912	94,21
580,11	-24,58
580,308	4,1
580,506	-8,19
580,704	-55,3
580,901	77,82
581,099	116,73
581,297	6,14
581,495	40,96
581,692	40,96
581,89	-2,05
582,088	51,2
582,285	36,86
582,483	28,67
582,681	28,67
582,878	-26,62
583,076	18,43
583,274	22,53
583,471	65,53
583,669	59,39
583,866	34,82
584,064	34,82
584,262	-14,34
584,459	-4,1
584,657	71,68
584,854	28,67
585,052	61,44
585,249	94,21
585,447	6,14
585,644	59,39
585,841	106,49
586,039	-55,3
586,236	71,68
586,434	-18,43
586,631	36,86
586,828	32,77
587,026	32,77
587,223	-53,25
587,42	30,72
587,618	-24,58
587,815	-18,43
588,012	73,73
588,21	-18,43
588,407	10,24
588,604	45,06
588,801	-18,43
588,999	-49,15
589,196	86,01
589,393	45,06
589,59	22,53
589,787	24,58
589,984	-45,06
590,182	-63,49
590,379	4,1
590,576	38,91
590,773	77,82
590,97	43,01
591,167	24,58
591,364	-12,29
591,561	-12,29
591,758	47,1
591,955	53,25
592,152	12,29
592,349	55,3
592,546	10,24
592,743	47,1
592,94	59,39
593,137	34,82
593,334	43,01
593,531	40,96
593,727	86,01
593,924	20,48
594,121	59,39
594,318	47,1
594,515	-26,62
594,712	45,06
594,908	86,01
595,105	-16,38
595,302	-4,1
595,499	-10,24
595,696	36,86
595,892	6,14
596,089	36,86
596,286	40,96
596,482	34,82
596,679	-36,86
596,876	4,1
597,072	14,34
597,269	32,77
597,466	0
597,662	65,53
597,859	10,24
598,055	-45,06
598,252	12,29
598,448	-4,1
598,645	20,48
598,841	0
599,038	-12,29
599,234	-2,05
599,431	8,19
599,627	-24,58
599,824	10,24
600,02	49,15
600,217	-43,01
600,413	22,53
600,609	-32,77
600,806	51,2
601,002	79,87
601,198	45,06
601,395	75,77
601,591	-8,19
601,787	67,58
601,984	30,72
602,18	-12,29
602,376	-8,19
602,572	-38,91
602,769	22,53
602,965	-24,58
603,161	8,19
603,357	86,01
603,553	104,45
603,75	65,53
603,946	12,29
604,142	61,44
604,338	22,53
604,534	-14,34
604,73	14,34
604,926	6,14
605,122	53,25
605,318	-71,68
605,514	49,15
605,71	32,77
605,906	73,73
606,102	36,86
606,298	73,73
606,494	10,24
606,69	59,39
606,886	96,25
607,082	10,24
607,278	-61,44
607,474	65,53
607,67	61,44
607,866	59,39
608,062	38,91
608,257	79,87
608,453	51,2
608,649	28,67
608,845	-24,58
609,041	8,19
609,236	79,87
609,432	12,29
609,628	24,58
609,824	34,82
610,019	51,2
610,215	22,53
610,411	110,59
610,606	43,01
610,802	83,97
610,998	-43,01
611,193	4,1
611,389	10,24
611,584	59,39
611,78	45,06
611,976	4,1
612,171	100,35
612,367	45,06
612,562	30,72
612,758	-8,19
612,953	75,77
613,149	-14,34
613,344	12,29
613,539	57,34
613,735	49,15
613,93	43,01
614,126	20,48
614,321	-8,19
614,517	22,53
614,712	34,82
614,907	77,82
615,103	51,2
615,298	22,53
615,493	-18,43
615,688	36,86
615,884	6,14
616,079	2,05
616,274	22,53
616,47	14,34
616,665	-86,01
616,86	14,34
617,055	-57,34
617,25	16,38
617,445	26,62
617,641	-24,58
617,836	-10,24
618,031	57,34
618,226	32,77
618,421	4,1
618,616	-6,14
618,811	47,1
619,006	26,62
619,201	51,2
619,396	45,06
619,591	88,06
619,786	14,34
619,981	59,39
620,176	20,48
620,371	-4,1
620,566	14,34
620,761	-36,86
620,956	-8,19
621,151	26,62
621,346	45,06
621,541	135,17
621,735	2,05
621,93	6,14
622,125	63,49
622,32	24,58
622,515	-22,53
622,709	40,96
622,904	90,11
623,099	24,58
623,294	98,3
623,488	49,15
623,683	-8,19
623,878	36,86
624,072	-2,05
624,267	38,91
624,462	32,77
624,656	-18,43
624,851	34,82
625,046	-14,34
625,24	14,34
625,435	88,06
625,629	-67,58
625,824	86,01
626,018	38,91
626,213	75,77
626,407	-10,24
626,602	30,72
626,796	18,43
626,991	14,34
627,185	-8,19
627,38	-45,06
627,574	67,58
627,768	57,34
627,963	53,25
628,157	40,96
628,352	30,72
628,546	24,58
628,74	-2,05
628,935	0
629,129	-18,43
629,323	-18,43
629,517	-8,19
629,712	28,67
629,906	49,15
630,1	45,06
630,294	-10,24
630,489	36,86
630,683	12,29
630,877	51,2
631,071	24,58
631,265	104,45
631,459	12,29
631,653	-36,86
631,848	73,73
632,042	26,62
632,236	38,91
632,43	20,48
632,624	24,58
632,818	12,29
633,012	12,29
633,206	36,86
633,4	-12,29
633,594	28,67
633,788	-2,05
633,982	79,87
634,176	153,6
634,369	26,62
634,563	30,72
634,757	-10,24
634,951	24,58
635,145	53,25
635,339	20,48
635,533	81,92
635,726	36,86
635,92	47,1
636,114	-10,24
636,308	30,72
636,501	-18,43
636,695	71,68
636,889	-28,67
637,083	43,01
637,276	61,44
637,47	8,19
637,664	55,3
637,857	-24,58
638,051	18,43
638,244	88,06
638,438	-18,43
638,632	20,48
638,825	-2,05
639,019	79,87
639,212	45,06
639,406	79,87
639,599	-40,96
639,793	-12,29
639,986	0
640,18	30,72
640,373	34,82
640,567	43,01
640,76	6,14
640,954	12,29
641,147	61,44
641,34	36,86
641,534	-79,87
641,727	47,1
641,92	6,14
642,114	43,01
642,307	20,48
642,5	24,58
642,694	-4,1
642,887	20,48
643,08	38,91
643,273	51,2
643,467	69,63
643,66	36,86
643,853	14,34
644,046	69,63
644,239	-20,48
644,432	28,67
644,626	28,67
644,819	24,58
645,012	38,91
645,205	34,82
645,398	71,68
645,591	30,72
645,784	69,63
645,977	-22,53
646,17	-10,24
646,363	53,25
646,556	45,06
646,749	-16,38
646,942	65,53
647,135	129,02
647,328	36,86
647,521	86,01
647,714	47,1
647,907	88,06
648,099	65,53
648,292	55,3
648,485	106,49
648,678	30,72
648,871	-2,05
649,064	38,91
649,256	63,49
649,449	81,92
649,642	20,48
649,835	24,58
650,027	28,67
650,22	-10,24
650,413	49,15
650,605	34,82
650,798	40,96
650,991	24,58
651,183	0
651,376	94,21
651,568	55,3
651,761	-2,05
651,954	45,06
652,146	-20,48
652,339	77,82
652,531	45,06
652,724	14,34
652,916	53,25
653,109	-20,48
653,301	73,73
653,494	77,82
653,686	10,24
653,879	45,06
654,071	0
654,263	63,49
654,456	69,63
654,648	53,25
654,84	94,21
655,033	-10,24
655,225	71,68
655,417	-28,67
655,61	141,31
655,802	86,01
655,994	51,2
656,186	10,24
656,379	143,36
656,571	8,19
656,763	14,34
656,955	69,63
657,148	-30,72
657,34	98,3
657,532	4,1
657,724	45,06
657,916	94,21
658,108	71,68
658,3	22,53
658,492	49,15
658,684	-8,19
658,876	32,77
659,068	24,58
659,26	-20,48
659,452	20,48
659,644	57,34
659,836	36,86
660,028	40,96
660,22	-24,58
660,412	-30,72
660,604	22,53
660,796	61,44
660,988	59,39
661,18	-40,96
661,372	12,29
661,563	59,39
661,755	65,53
661,947	-10,24
662,139	38,91
662,331	49,15
662,522	-40,96
662,714	0
662,906	143,36
663,097	8,19
663,289	12,29
663,481	2,05
663,673	28,67
663,864	0
664,056	32,77
664,247	-20,48
664,439	14,34
664,631	53,25
664,822	18,43
665,014	14,34
665,205	61,44
665,397	69,63
665,588	-10,24
665,78	18,43
665,971	-4,1
666,163	71,68
666,354	94,21
666,546	-36,86
666,737	61,44
666,929	-28,67
667,12	83,97
667,311	71,68
667,503	12,29
667,694	88,06
667,885	45,06
668,077	77,82
668,268	20,48
668,459	6,14
668,651	40,96
668,842	24,58
669,033	-34,82
669,224	12,29
669,416	49,15
669,607	59,39
669,798	47,1
669,989	-4,1
670,18	32,77
670,371	40,96
670,563	47,1
670,754	45,06
670,945	63,49
671,136	59,39
671,327	28,67
671,518	6,14
671,709	0
671,9	65,53
672,091	36,86
672,282	16,38
672,473	8,19
672,664	-69,63
672,855	77,82
673,046	-8,19
673,237	79,87
673,428	14,34
673,619	32,77
673,809	49,15
674	69,63
674,191	104,45
674,382	28,67
674,573	-28,67
674,764	86,01
674,954	73,73
675,145	-4,1
675,336	51,2
675,527	8,19
675,717	12,29
675,908	55,3
676,099	30,72
676,289	-71,68
676,48	-34,82
676,671	30,72
676,861	-12,29
677,052	0
677,243	-4,1
677,433	18,43
677,624	98,3
677,814	55,3
678,005	28,67
678,195	4,1
678,386	2,05
678,576	18,43
678,767	-43,01
678,957	14,34
679,148	61,44
679,338	63,49
679,529	63,49
679,719	22,53
679,909	-28,67
680,1	20,48
680,29	38,91
680,481	-24,58
680,671	28,67
680,861	-20,48
681,052	-10,24
681,242	-24,58
681,432	-2,05
681,622	-2,05
681,813	0
682,003	-8,19
682,193	2,05
682,383	73,73
682,573	0
682,764	18,43
682,954	0
683,144	94,21
683,334	0
683,524	126,97
683,714	2,05
683,904	-8,19
684,094	24,58
684,284	6,14
684,474	71,68
684,664	69,63
684,854	49,15
685,044	20,48
685,234	-61,44
685,424	57,34
685,614	36,86
685,804	96,25
685,994	32,77
686,184	73,73
686,374	-12,29
686,564	45,06
686,753	-10,24
686,943	-4,1
687,133	63,49
687,323	45,06
687,513	47,1
687,702	73,73
687,892	-6,14
688,082	51,2
688,272	65,53
688,461	81,92
688,651	43,01
688,841	36,86
689,03	2,05
689,22	69,63
689,41	8,19
689,599	73,73
689,789	43,01
689,979	122,88
690,168	71,68
690,358	8,19
690,547	-18,43
690,737	57,34
690,926	20,48
691,116	45,06
691,305	6,14
691,495	22,53
691,684	-4,1
691,874	24,58
692,063	49,15
692,252	14,34
692,442	14,34
692,631	28,67
692,82	81,92
693,01	-45,06
693,199	6,14
693,388	24,58
693,578	102,4
693,767	69,63
693,956	-22,53
694,146	47,1
694,335	51,2
694,524	22,53
694,713	47,1
694,902	38,91
695,092	0
695,281	-12,29
695,47	38,91
695,659	55,3
695,848	8,19
696,037	6,14
696,226	57,34
696,415	30,72
696,604	38,91
696,793	26,62
696,982	45,06
697,171	108,54
697,36	-49,15
697,549	51,2
697,738	49,15
697,927	20,48
698,116	63,49
698,305	63,49
698,494	0
698,683	86,01
698,872	131,07
699,061	20,48
699,25	8,19
699,438	53,25
699,627	40,96
699,816	79,87
700,005	-10,24
700,193	-2,05
700,382	47,1
700,571	30,72
700,76	53,25
700,948	20,48
701,137	32,77
701,326	-2,05
701,514	-26,62
701,703	55,3
701,892	20,48
702,08	126,97
702,269	-12,29
702,457	-12,29
702,646	129,02
702,834	94,21
703,023	86,01
703,212	79,87
703,4	34,82
703,589	59,39
703,777	40,96
703,965	81,92
704,154	-38,91
704,342	4,1
704,531	28,67
704,719	75,77
704,907	59,39
705,096	-20,48
705,284	30,72
705,472	83,97
705,661	40,96
705,849	61,44
706,037	12,29
706,226	-4,1
706,414	36,86
706,602	22,53
706,79	88,06
706,979	20,48
707,167	-4,1
707,355	-28,67
707,543	-8,19
707,731	55,3
707,919	49,15
708,107	47,1
708,296	55,3
708,484	4,1
708,672	73,73
708,86	55,3
709,048	12,29
709,236	-10,24
709,424	14,34
709,612	-34,82
709,8	10,24
709,988	36,86
710,176	73,73
710,364	8,19
710,551	61,44
710,739	-2,05
710,927	6,14
711,115	55,3
711,303	-22,53
711,491	16,38
711,679	26,62
711,866	36,86
712,054	65,53
712,242	40,96
712,43	36,86
712,617	-18,43
712,805	-8,19
712,993	12,29
713,181	-6,14
713,368	47,1
713,556	53,25
713,744	6,14
713,931	104,45
714,119	45,06
714,306	22,53
714,494	26,62
714,682	34,82
714,869	18,43
715,057	-16,38
715,244	14,34
715,432	30,72
715,619	114,69
715,807	65,53
715,994	67,58
716,182	45,06
716,369	-12,29
716,556	-12,29
716,744	-32,77
716,931	14,34
717,119	69,63
717,306	49,15
717,493	61,44
717,681	-32,77
717,868	49,15
718,055	-12,29
718,242	40,96
718,43	102,4
718,617	108,54
718,804	47,1
718,991	126,97
719,179	77,82
719,366	81,92
719,553	-28,67
719,74	61,44
719,927	-45,06
720,114	69,63
720,301	-81,92
720,488	8,19
720,676	-20,48
720,863	86,01
721,05	88,06
721,237	26,62
721,424	49,15
721,611	38,91
721,798	6,14
721,985	38,91
722,172	20,48
722,358	0
722,545	26,62
722,732	-40,96
722,919	63,49
723,106	26,62
723,293	51,2
723,48	12,29
723,667	2,05
723,853	-4,1
724,04	47,1
724,227	55,3
724,414	-2,05
724,6	83,97
724,787	-57,34
724,974	0
725,161	-22,53
725,347	-32,77
725,534	-10,24
725,72	-12,29
725,907	124,93
726,094	10,24
726,28	-53,25
726,467	69,63
726,653	28,67
726,84	104,45
727,027	-6,14
727,213	0
727,4	-32,77
727,586	-6,14
727,773	24,58
727,959	-20,48
728,145	36,86
728,332	-30,72
728,518	12,29
728,705	55,3
728,891	20,48
729,077	73,73
729,264	-4,1
729,45	86,01
729,636	47,1
729,823	20,48
730,009	49,15
730,195	69,63
730,382	22,53
730,568	-10,24
730,754	49,15
730,94	-8,19
731,126	24,58
731,313	122,88
731,499	4,1
731,685	4,1
731,871	51,2
732,057	30,72
732,243	77,82
732,429	51,2
732,615	4,1
732,801	32,77
732,987	2,05
733,173	18,43
733,359	-12,29
733,545	-2,05
733,731	30,72
733,917	77,82
734,103	20,48
734,289	34,82
734,475	-43,01
734,661	98,3
734,847	-20,48
735,033	18,43
735,219	43,01
735,404	28,67
735,59	24,58
735,776	47,1
735,962	36,86
736,148	55,3
736,333	0
736,519	-8,19
736,705	65,53
736,89	-4,1
737,076	53,25
737,262	20,48
737,447	-40,96
737,633	-34,82
737,819	57,34
738,004	32,77
738,19	36,86
738,375	-6,14
738,561	22,53
738,747	40,96
738,932	4,1
739,118	77,82
739,303	34,82
739,489	69,63
739,674	-28,67
739,859	49,15
740,045	4,1
740,23	110,59
740,416	-28,67
740,601	49,15
740,786	10,24
740,972	-16,38
741,157	61,44
741,342	43,01
741,528	-36,86
741,713	63,49
741,898	61,44
742,084	71,68
742,269	22,53
742,454	47,1
742,639	34,82
742,824	4,1
743,01	47,1
743,195	75,77
743,38	-34,82
743,565	98,3
743,75	14,34
743,935	28,67
744,12	43,01
744,305	22,53
744,49	49,15
744,675	-8,19
744,86	12,29
745,045	61,44
745,23	92,16
745,415	-53,25
745,6	59,39
745,785	-8,19
745,97	47,1
746,155	53,25
746,34	106,49
746,525	45,06
746,71	-4,1
746,895	2,05
747,079	28,67
747,264	4,1
747,449	38,91
747,634	53,25
747,819	-30,72
748,003	61,44
748,188	-51,2
748,373	-6,14
748,557	47,1
748,742	16,38
748,927	18,43
749,111	26,62
749,296	65,53
749,481	-38,91
749,665	32,77
749,85	45,06
750,034	73,73
750,219	22,53
750,404	22,53
750,588	45,06
750,773	98,3
750,957	45,06
751,141	20,48
751,326	135,17
751,51	57,34
751,695	-4,1
751,879	-26,62
752,064	61,44
752,248	34,82
752,432	63,49
752,617	-34,82
752,801	65,53
752,985	-18,43
753,17	49,15
753,354	-61,44
753,538	53,25
753,722	-26,62
753,907	26,62
754,091	12,29
754,275	-24,58
754,459	-71,68
754,643	-2,05
754,828	30,72
755,012	63,49
755,196	-24,58
755,38	-12,29
755,564	-32,77
755,748	14,34
755,932	34,82
756,116	86,01
756,3	81,92
756,484	102,4
756,668	10,24
756,852	14,34
757,036	49,15
757,22	22,53
757,404	-36,86
757,588	-47,1
757,772	65,53
757,956	22,53
758,14	40,96
758,323	59,39
758,507	-28,67
758,691	30,72
758,875	61,44
759,059	92,16
759,242	79,87
759,426	30,72
759,61	8,19
759,794	-28,67
759,977	75,77
760,161	88,06
760,345	38,91
760,528	69,63
760,712	4,1
760,895	94,21
761,079	4,1
761,263	-6,14
761,446	12,29
761,63	24,58
761,813	45,06
761,997	0
762,18	26,62
762,364	12,29
762,547	4,1
762,731	8,19
762,914	71,68
763,098	16,38
763,281	51,2
763,464	67,58
763,648	51,2
763,831	61,44
764,015	20,48
764,198	-8,19
764,381	90,11
764,564	28,67
764,748	53,25
764,931	16,38
765,114	40,96
765,297	53,25
765,481	-26,62
765,664	61,44
765,847	-8,19
766,03	139,26
766,213	-45,06
766,397	-40,96
766,58	-65,54
766,763	28,67
766,946	24,58
767,129	-12,29
767,312	-38,91
767,495	12,29
767,678	-4,1
767,861	-83,97
768,044	20,48
768,227	26,62
768,41	-6,14
768,593	28,67
768,776	22,53
768,959	-36,86
769,142	-8,19
769,324	8,19
769,507	-36,86
769,69	-12,29
769,873	57,34
770,056	106,49
770,239	83,97
770,421	4,1
770,604	45,06
770,787	0
770,97	-18,43
771,152	14,34
771,335	36,86
771,518	-30,72
771,7	90,11
771,883	88,06
772,066	8,19
772,248	36,86
772,431	22,53
772,613	-6,14
772,796	55,3
772,978	55,3
773,161	-22,53
773,343	-24,58
773,526	2,05
773,708	-4,1
773,891	-36,86
774,073	-26,62
774,256	-4,1
774,438	-51,2
774,621	38,91
774,803	40,96
774,985	49,15
775,168	10,24
775,35	81,92
775,532	55,3
775,715	-10,24
775,897	8,19
776,079	53,25
776,261	28,67
776,444	6,14
776,626	12,29
776,808	-12,29
776,99	-6,14
777,173	38,91
777,355	8,19
777,537	-2,05
777,719	75,77
777,901	-26,62
778,083	22,53
778,265	-57,34
778,447	63,49
778,629	-2,05
778,811	8,19
778,993	6,14
779,175	20,48
779,357	-24,58
779,539	-43,01
779,721	-2,05
779,903	2,05
780,085	14,34
780,267	73,73
780,449	-8,19
780,631	6,14
780,812	110,59
780,994	18,43
781,176	12,29
781,358	55,3
781,54	-20,48
781,721	8,19
781,903	-26,62
782,085	14,34
782,267	12,29
782,448	-4,1
782,63	38,91
782,812	73,73
782,993	-61,44
783,175	14,34
783,357	-30,72
783,538	22,53
783,72	51,2
783,901	6,14
784,083	55,3
784,264	26,62
784,446	10,24
784,627	55,3
784,809	-16,38
784,99	18,43
785,172	22,53
785,353	6,14
785,535	2,05
785,716	83,97
785,897	-18,43
786,079	6,14
786,26	28,67
786,441	6,14
786,623	53,25
786,804	26,62
786,985	-12,29
787,167	36,86
787,348	18,43
787,529	22,53
787,71	28,67
787,891	-49,15
788,073	-22,53
788,254	18,43
788,435	53,25
788,616	102,4
788,797	-24,58
788,978	28,67
789,159	53,25
789,34	106,49
789,522	-24,58
789,703	-40,96
789,884	4,1
790,065	28,67
790,246	69,63
790,427	36,86
790,607	51,2
790,788	36,86
790,969	-53,25
791,15	77,82
791,331	2,05
791,512	24,58
791,693	-22,53
791,874	53,25
792,054	18,43
792,235	53,25
792,416	45,06
792,597	4,1
792,778	47,1
792,958	6,14
793,139	4,1
793,32	-12,29
793,5	-10,24
793,681	12,29
793,862	36,86
794,042	36,86
794,223	6,14
794,404	16,38
794,584	43,01
794,765	-45,06
794,945	-16,38
795,126	4,1
795,306	-43,01
795,487	18,43
795,667	28,67
795,848	24,58
796,028	16,38
796,209	40,96
796,389	104,45
796,57	28,67
796,75	-38,91
796,93	55,3
797,111	-67,58
797,291	36,86
797,471	51,2
797,652	-10,24
797,832	2,05
798,012	-36,86
798,192	-24,58
798,373	8,19
798,553	16,38
798,733	57,34
798,913	4,1
799,093	0
799,274	-14,34
799,454	61,44
799,634	34,82
799,814	139,26
799,994	88,06
800,174	8,19
800,354	8,19
800,534	-14,34
800,714	59,39
800,894	-36,86
801,074	61,44
801,254	-2,05
801,434	36,86
801,614	12,29
801,794	-26,62
801,974	581,62
802,154	-12,29
802,334	53,25
802,514	-34,82
802,693	69,63
802,873	6,14
803,053	36,86
803,233	6,14
803,413	45,06
803,592	-22,53
803,772	4,1
803,952	28,67
804,131	-88,06
804,311	45,06
804,491	36,86
804,67	-24,58
804,85	-71,68
805,03	-4,1
805,209	57,34
805,389	-24,58
805,568	-2,05
805,748	83,97
805,928	26,62
806,107	-22,53
806,287	32,77
806,466	32,77
806,646	38,91
806,825	-20,48
807,004	12,29
807,184	-34,82
807,363	8,19
807,543	45,06
807,722	-59,39
807,901	38,91
808,081	10,24
808,26	-120,83
808,439	40,96
808,619	-28,67
808,798	-40,96
808,977	0
809,156	94,21
809,336	-38,91
809,515	8,19
809,694	8,19
809,873	16,38
810,052	-32,77
810,231	63,49
810,411	-53,25
810,59	57,34
810,769	-14,34
810,948	49,15
811,127	28,67
811,306	28,67
811,485	24,58
811,664	96,25
811,843	30,72
812,022	-2,05
812,201	-51,2
812,38	14,34
812,559	-49,15
812,737	73,73
812,916	-26,62
813,095	-34,82
813,274	16,38
813,453	49,15
813,632	-18,43
813,811	14,34
813,989	36,86
814,168	-10,24
814,347	-18,43
814,526	14,34
814,704	-26,62
814,883	12,29
815,062	-18,43
815,24	8,19
815,419	-43,01
815,598	40,96
815,776	-36,86
815,955	-34,82
816,133	-100,35
816,312	90,11
816,49	-26,62
816,669	-34,82
816,847	73,73
817,026	-57,34
817,204	-47,1
817,383	45,06
817,561	-18,43
817,74	4,1
817,918	-63,49
818,097	-4,1
818,275	67,58
818,453	71,68
818,632	-32,77
818,81	4,1
818,988	-53,25
819,167	59,39
819,345	-36,86
819,523	-16,38
819,701	-32,77
819,879	32,77
820,058	-28,67
820,236	69,63
820,414	12,29
820,592	61,44
820,77	12,29
820,948	49,15
821,127	51,2
821,305	-26,62
821,483	22,53
821,661	36,86
821,839	12,29
822,017	-4,1
822,195	20,48
822,373	20,48
822,551	49,15
822,729	24,58
822,907	36,86
823,085	18,43
823,262	16,38
823,44	-28,67
823,618	-81,92
823,796	-53,25
823,974	26,62
824,152	-24,58
824,329	-36,86
824,507	81,92
824,685	-28,67
824,863	28,67
825,04	53,25
825,218	10,24
825,396	22,53
825,574	77,82
825,751	-36,86
825,929	-47,1
826,107	65,53
826,284	-30,72
826,462	-32,77
826,639	-49,15
826,817	-30,72
826,994	36,86
827,172	6,14
827,349	110,59
827,527	53,25
827,704	-14,34
827,882	-2,05
828,059	4,1
828,237	30,72
828,414	-40,96
828,591	-71,68
828,769	-2,05
828,946	-14,34
829,124	45,06
829,301	47,1
829,478	-4,1
829,655	65,53
829,833	75,77
830,01	-8,19
830,187	38,91
830,364	-10,24
830,542	12,29
830,719	34,82
830,896	59,39
831,073	18,43
831,25	-32,77
831,427	94,21
831,604	-2,05
831,782	-2,05
831,959	10,24
832,136	98,3
832,313	51,2
832,49	-12,29
832,667	20,48
832,844	4,1
833,021	-8,19
833,198	-16,38
833,374	36,86
833,551	36,86
833,728	36,86
833,905	104,45
834,082	-22,53
834,259	30,72
834,436	102,4
834,612	-4,1
834,789	12,29
834,966	45,06
835,143	-2,05
835,319	-32,77
835,496	49,15
835,673	40,96
835,85	4,1
836,026	32,77
836,203	79,87
836,38	16,38
836,556	14,34
836,733	71,68
836,909	12,29
837,086	20,48
837,262	36,86
837,439	36,86
837,616	73,73
837,792	43,01
837,968	-49,15
838,145	12,29
838,321	30,72
838,498	20,48
838,674	55,3
838,851	-16,38
839,027	-6,14
839,203	-14,34
839,38	0
839,556	47,1
839,732	4,1
839,909	86,01
840,085	61,44
840,261	32,77
840,437	8,19
840,614	6,14
840,79	53,25
840,966	67,58
841,142	-36,86
841,318	14,34
841,494	10,24
841,671	51,2
841,847	2,05
842,023	16,38
842,199	47,1
842,375	57,34
842,551	-28,67
842,727	-8,19
842,903	67,58
843,079	-22,53
843,255	65,53
843,431	106,49
843,607	45,06
843,783	-4,1
843,959	65,53
844,134	-51,2
844,31	-2,05
844,486	73,73
844,662	47,1
844,838	40,96
845,013	65,53
845,189	40,96
845,365	10,24
845,541	36,86
845,716	100,35
845,892	16,38
846,068	-14,34
846,244	-30,72
846,419	40,96
846,595	53,25
846,77	26,62
846,946	-18,43
847,122	30,72
847,297	-4,1
847,473	10,24
847,648	32,77
847,824	40,96
847,999	-18,43
848,175	2,05
848,35	-61,44
848,526	34,82
848,701	6,14
848,876	30,72
849,052	30,72
849,227	-2,05
849,403	-18,43
849,578	40,96
849,753	-45,06
849,929	61,44
850,104	-83,97
850,279	4,1
850,454	79,87
850,63	-8,19
850,805	-4,1
850,98	22,53
851,155	-57,34
851,33	30,72
851,505	10,24
851,681	65,53
851,856	-36,86
852,031	6,14
852,206	28,67
852,381	71,68
852,556	30,72
852,731	-10,24
852,906	-36,86
853,081	69,63
853,256	-8,19
853,431	12,29
853,606	45,06
853,781	-73,73
853,956	-102,4
854,131	-8,19
854,305	38,91
854,48	-36,86
854,655	14,34
854,83	-32,77
855,005	26,62
855,18	10,24
855,354	36,86
855,529	32,77
855,704	75,77
855,879	57,34
856,053	-47,1
856,228	36,86
856,403	-18,43
856,577	43,01
856,752	-59,39
856,926	112,64
857,101	16,38
857,276	-49,15
857,45	-26,62
857,625	61,44
857,799	6,14
857,974	16,38
858,148	-36,86
858,323	43,01
858,497	-34,82
858,672	0
858,846	45,06
859,02	-6,14
859,195	-36,86
859,369	24,58
859,543	28,67
859,718	-16,38
859,892	-32,77
860,066	43,01
860,241	14,34
860,415	-8,19
860,589	4,1
860,763	-4,1
860,938	47,1
861,112	-10,24
861,286	-53,25
861,46	40,96
861,634	-59,39
861,808	28,67
861,982	86,01
862,157	24,58
862,331	0
862,505	-63,49
862,679	-22,53
862,853	-18,43
863,027	16,38
863,201	98,3
863,375	69,63
863,549	16,38
863,722	28,67
863,896	79,87
864,07	-49,15
864,244	16,38
864,418	53,25
864,592	43,01
864,766	65,53
864,939	83,97
865,113	-34,82
865,287	36,86
865,461	53,25
865,634	-26,62
865,808	-59,39
865,982	-10,24
866,156	-24,58
866,329	32,77
866,503	2,05
866,676	36,86
866,85	-18,43
867,024	-69,63
867,197	32,77
867,371	18,43
867,544	-45,06
867,718	4,1
867,891	34,82
868,065	-14,34
868,238	4,1
868,412	92,16
868,585	79,87
868,759	-51,2
868,932	-24,58
869,105	-28,67
869,279	-10,24
869,452	28,67
869,625	86,01
869,799	-32,77
869,972	38,91
870,145	77,82
870,319	12,29
870,492	49,15
870,665	-8,19
870,838	-51,2
871,011	-45,06
871,185	-30,72
871,358	63,49
871,531	-43,01
871,704	8,19
871,877	45,06
872,05	-40,96
872,223	-20,48
872,396	36,86
872,569	12,29
872,742	49,15
872,915	-30,72
873,088	-49,15
873,261	14,34
873,434	47,1
873,607	88,06
873,78	61,44
873,953	38,91
874,126	6,14
874,299	-6,14
874,471	45,06
874,644	-12,29
874,817	28,67
874,99	108,54
875,163	4,1
875,335	-34,82
875,508	16,38
875,681	28,67
875,853	-45,06
876,026	-26,62
876,199	32,77
876,371	43,01
876,544	69,63
876,717	34,82
876,889	-14,34
877,062	-12,29
877,234	-28,67
877,407	26,62
877,579	73,73
877,752	43,01
877,924	14,34
878,097	38,91
878,269	61,44
878,442	30,72
878,614	8,19
878,786	47,1
878,959	-6,14
879,131	38,91
879,303	-49,15
879,476	38,91
879,648	32,77
879,82	32,77
879,993	-4,1
880,165	-2,05
880,337	-12,29
880,509	28,67
880,681	-45,06
880,854	45,06
881,026	-2,05
881,198	79,87
881,37	-6,14
881,542	86,01
881,714	73,73
881,886	-10,24
882,058	-63,49
882,23	-38,91
882,402	-57,34
882,574	45,06
882,746	-2,05
882,918	38,91
883,09	77,82
883,262	-47,1
883,434	24,58
883,606	-18,43
883,778	-4,1
883,95	55,3
884,122	-6,14
884,293	-36,86
884,465	0
884,637	45,06
884,809	-51,2
884,98	24,58
885,152	32,77
885,324	20,48
885,496	30,72
885,667	16,38
885,839	-8,19
886,011	-28,67
886,182	26,62
886,354	79,87
886,525	32,77
886,697	0
886,869	-51,2
887,04	-49,15
887,212	34,82
887,383	18,43
887,555	47,1
887,726	14,34
887,897	-12,29
888,069	-12,29
888,24	14,34
888,412	12,29
888,583	0
888,754	8,19
888,926	-77,82
889,097	-47,1
889,268	12,29
889,44	26,62
889,611	30,72
889,782	-24,58
889,953	4,1
890,125	8,19
890,296	61,44
890,467	-77,82
890,638	16,38
890,809	-18,43
890,98	22,53
891,151	61,44
891,323	20,48
891,494	6,14
891,665	-32,77
891,836	-8,19
892,007	57,34
892,178	2,05
892,349	47,1
892,52	-22,53
892,691	81,92
892,862	-6,14
893,032	12,29
893,203	-2,05
893,374	-32,77
893,545	6,14
893,716	61,44
893,887	45,06
894,057	22,53
894,228	-8,19
894,399	38,91
894,57	61,44
894,74	32,77
894,911	14,34
895,082	-18,43
895,253	10,24
895,423	63,49
895,594	-2,05
895,764	49,15
895,935	28,67
896,106	-94,21
896,276	24,58
896,447	71,68
896,617	-8,19
896,788	24,58
896,958	-4,1
897,129	-28,67
897,299	6,14
897,47	61,44
897,64	53,25
897,81	71,68
897,981	43,01
898,151	-55,3
898,322	53,25
898,492	12,29
898,662	-32,77
898,832	2,05
899,003	8,19
899,173	67,58
899,343	-12,29
899,513	-4,1
