Data from filtre430_USB4F104151__2__11-51-40-450.txt Node

Date: Wed Apr 15 11:51:40 EDT 2026
User: LaboPhy
Spectrometer: USB4F10415
Trigger mode: 4
Integration Time (sec): 2,500000E-2
Scans to average: 1
Electric dark correction enabled: true
Nonlinearity correction enabled: false
Boxcar width: 0
XAxis mode: Wavelengths
Number of Pixels in Spectrum: 3648
>>>>>Begin Spectral Data<<<<<
178,204	-105,98
178,424	-105,98
178,644	-105,98
178,864	-60,93
179,084	-144,89
179,304	-36,35
179,524	10,75
179,744	-26,11
179,964	4,61
180,184	18,94
180,404	-5,63
180,624	33,28
180,844	-1,54
181,064	-1,54
181,283	-15,87
181,503	-9,73
181,723	29,18
181,943	-36,35
182,163	59,9
182,383	-28,16
182,602	18,94
182,822	57,86
183,042	16,9
183,262	-5,63
183,482	47,62
183,701	61,95
183,921	29,18
184,141	-15,87
184,361	35,33
184,58	-24,06
184,8	20,99
185,02	20,99
185,239	18,94
185,459	27,14
185,679	29,18
185,898	-62,98
186,118	-52,74
186,338	-30,21
186,557	12,8
186,777	-56,83
186,997	-38,4
187,216	-56,83
187,436	43,52
187,655	-77,31
187,875	4,61
188,095	2,56
188,314	37,38
188,534	61,95
188,753	2,56
188,973	-1,54
189,192	20,99
189,412	41,47
189,631	33,28
189,851	66,05
190,07	102,91
190,29	23,04
190,509	-87,55
190,729	-91,65
190,948	70,14
191,168	37,38
191,387	-15,87
191,607	-19,97
191,826	0,51
192,045	-3,58
192,265	51,71
192,484	74,24
192,704	-30,21
192,923	-26,11
193,142	-13,82
193,362	-28,16
193,581	-36,35
193,8	-7,68
194,02	10,75
194,239	16,9
194,458	-17,92
194,678	-19,97
194,897	25,09
195,116	39,42
195,335	57,86
195,555	18,94
195,774	98,81
195,993	-17,92
196,212	-13,82
196,432	27,14
196,651	-1,54
196,87	-40,45
197,089	107,01
197,308	-85,5
197,528	-26,11
197,747	25,09
197,966	45,57
198,185	-11,78
198,404	20,99
198,623	16,9
198,842	29,18
199,062	59,9
199,281	-40,45
199,5	35,33
199,719	16,9
199,938	43,52
200,157	84,48
200,376	16,9
200,595	61,95
200,814	8,7
201,033	59,9
201,252	-11,78
201,471	-40,45
201,69	39,42
201,909	16,9
202,128	2,56
202,347	37,38
202,566	-65,02
202,785	-1,54
203,004	-15,87
203,223	80,38
203,442	-9,73
203,661	57,86
203,879	2,56
204,098	16,9
204,317	-9,73
204,536	10,75
204,755	-13,82
204,974	0,51
205,193	-69,12
205,411	12,8
205,63	33,28
205,849	23,04
206,068	43,52
206,287	-1,54
206,505	27,14
206,724	-60,93
206,943	-22,02
207,162	8,7
207,381	49,66
207,599	33,28
207,818	35,33
208,037	-11,78
208,255	-40,45
208,474	72,19
208,693	76,29
208,911	20,99
209,13	-38,4
209,349	31,23
209,567	-13,82
209,786	41,47
210,005	16,9
210,223	-5,63
210,442	-85,5
210,661	111,1
210,879	-30,21
211,098	51,71
211,316	35,33
211,535	-22,02
211,753	25,09
211,972	2,56
212,191	-42,5
212,409	0,51
212,628	12,8
212,846	-73,21
213,065	-24,06
213,283	-1,54
213,502	-38,4
213,72	35,33
213,938	-24,06
214,157	-15,87
214,375	2,56
214,594	-19,97
214,812	-48,64
215,031	33,28
215,249	29,18
215,467	14,85
215,686	16,9
215,904	-7,68
216,122	25,09
216,341	-40,45
216,559	-62,98
216,778	14,85
216,996	14,85
217,214	-3,58
217,432	-19,97
217,651	-24,06
217,869	59,9
218,087	-77,31
218,306	29,18
218,524	-22,02
218,742	-7,68
218,96	49,66
219,179	2,56
219,397	6,66
219,615	20,99
219,833	0,51
220,051	-17,92
220,27	43,52
220,488	68,09
220,706	-44,54
220,924	-15,87
221,142	-26,11
221,36	37,38
221,578	66,05
221,796	-7,68
222,015	45,57
222,233	94,72
222,451	57,86
222,669	-62,98
222,887	8,7
223,105	-32,26
223,323	14,85
223,541	-26,11
223,759	-65,02
223,977	27,14
224,195	14,85
224,413	6,66
224,631	78,33
224,849	-40,45
225,067	133,63
225,285	88,57
225,503	-15,87
225,721	-40,45
225,939	-65,02
226,157	37,38
226,375	49,66
226,592	2,56
226,81	-17,92
227,028	10,75
227,246	92,67
227,464	-32,26
227,682	59,9
227,9	45,57
228,117	-7,68
228,335	25,09
228,553	10,75
228,771	76,29
228,989	-24,06
229,206	-44,54
229,424	8,7
229,642	35,33
229,86	20,99
230,077	39,42
230,295	-38,4
230,513	-79,36
230,731	37,38
230,948	8,7
231,166	94,72
231,384	4,61
231,601	0,51
231,819	33,28
232,037	-5,63
232,254	23,04
232,472	-11,78
232,689	-62,98
232,907	-40,45
233,125	8,7
233,342	35,33
233,56	-67,07
233,777	-5,63
233,995	2,56
234,213	0,51
234,43	-1,54
234,648	-19,97
234,865	4,61
235,083	-3,58
235,3	-22,02
235,518	92,67
235,735	6,66
235,953	76,29
236,17	-19,97
236,388	12,8
236,605	43,52
236,822	43,52
237,04	-22,02
237,257	53,76
237,475	66,05
237,692	45,57
237,909	35,33
238,127	29,18
238,344	102,91
238,562	-32,26
238,779	-50,69
238,996	-60,93
239,214	-19,97
239,431	-3,58
239,648	-15,87
239,865	53,76
240,083	-7,68
240,3	-3,58
240,517	49,66
240,735	18,94
240,952	-62,98
241,169	0,51
241,386	29,18
241,603	-13,82
241,821	4,61
242,038	25,09
242,255	-13,82
242,472	-110,08
242,689	18,94
242,907	-24,06
243,124	-15,87
243,341	-3,58
243,558	25,09
243,775	-40,45
243,992	47,62
244,209	14,85
244,426	66,05
244,643	70,14
244,86	-118,27
245,078	-19,97
245,295	4,61
245,512	16,9
245,729	-105,98
245,946	-5,63
246,163	-38,4
246,38	-36,35
246,597	-7,68
246,814	29,18
247,031	47,62
247,248	10,75
247,464	55,81
247,681	2,56
247,898	47,62
248,115	16,9
248,332	8,7
248,549	43,52
248,766	68,09
248,983	-7,68
249,2	51,71
249,417	8,7
249,633	59,9
249,85	27,14
250,067	31,23
250,284	2,56
250,501	35,33
250,717	-7,68
250,934	-44,54
251,151	10,75
251,368	49,66
251,585	-40,45
251,801	25,09
252,018	0,51
252,235	18,94
252,451	-40,45
252,668	-56,83
252,885	68,09
253,102	45,57
253,318	-7,68
253,535	-32,26
253,752	-46,59
253,968	6,66
254,185	57,86
254,401	74,24
254,618	-15,87
254,835	0,51
255,051	12,8
255,268	8,7
255,484	-13,82
255,701	33,28
255,917	33,28
256,134	6,66
256,351	2,56
256,567	0,51
256,784	33,28
257	-36,35
257,217	47,62
257,433	-28,16
257,65	-13,82
257,866	25,09
258,082	18,94
258,299	-38,4
258,515	23,04
258,732	51,71
258,948	66,05
259,165	25,09
259,381	18,94
259,597	41,47
259,814	-3,58
260,03	0,51
260,246	43,52
260,463	129,53
260,679	8,7
260,895	10,75
261,112	82,43
261,328	14,85
261,544	-36,35
261,761	41,47
261,977	53,76
262,193	12,8
262,409	41,47
262,626	-15,87
262,842	-5,63
263,058	31,23
263,274	45,57
263,49	-42,5
263,707	-15,87
263,923	90,62
264,139	-32,26
264,355	25,09
264,571	59,9
264,787	-32,26
265,004	18,94
265,22	14,85
265,436	-24,06
265,652	16,9
265,868	29,18
266,084	-65,02
266,3	51,71
266,516	-52,74
266,732	49,66
266,948	-13,82
267,164	-11,78
267,38	51,71
267,596	-56,83
267,812	31,23
268,028	33,28
268,244	-56,83
268,46	10,75
268,676	57,86
268,892	-7,68
269,108	20,99
269,324	18,94
269,54	-83,45
269,756	61,95
269,972	-30,21
270,188	-46,59
270,403	-3,58
270,619	10,75
270,835	51,71
271,051	53,76
271,267	57,86
271,483	25,09
271,698	-28,16
271,914	-30,21
272,13	-34,3
272,346	23,04
272,562	64
272,777	18,94
272,993	-54,78
273,209	68,09
273,425	-5,63
273,64	-48,64
273,856	35,33
274,072	-3,58
274,287	25,09
274,503	25,09
274,719	0,51
274,934	10,75
275,15	-1,54
275,366	25,09
275,581	-34,3
275,797	-11,78
276,012	-40,45
276,228	-30,21
276,444	-15,87
276,659	88,57
276,875	-7,68
277,09	27,14
277,306	-11,78
277,521	-1,54
277,737	20,99
277,952	-1,54
278,168	-17,92
278,383	53,76
278,599	66,05
278,814	0,51
279,03	-73,21
279,245	-3,58
279,461	-24,06
279,676	47,62
279,892	-32,26
280,107	-40,45
280,322	-48,64
280,538	2,56
280,753	-3,58
280,969	-11,78
281,184	-11,78
281,399	6,66
281,615	0,51
281,83	66,05
282,045	-15,87
282,26	-24,06
282,476	70,14
282,691	41,47
282,906	4,61
283,122	-28,16
283,337	-22,02
283,552	25,09
283,767	43,52
283,983	35,33
284,198	8,7
284,413	-5,63
284,628	-48,64
284,843	6,66
285,058	8,7
285,274	-13,82
285,489	-56,83
285,704	100,86
285,919	16,9
286,134	-17,92
286,349	14,85
286,564	18,94
286,779	86,53
286,995	4,61
287,21	-69,12
287,425	23,04
287,64	-9,73
287,855	33,28
288,07	-71,17
288,285	82,43
288,5	-15,87
288,715	-48,64
288,93	2,56
289,145	-22,02
289,36	12,8
289,575	41,47
289,79	45,57
290,004	12,8
290,219	20,99
290,434	76,29
290,649	12,8
290,864	-44,54
291,079	-46,59
291,294	-19,97
291,509	23,04
291,724	-56,83
291,938	27,14
292,153	53,76
292,368	0,51
292,583	6,66
292,798	-54,78
293,012	-5,63
293,227	-67,07
293,442	-15,87
293,657	-26,11
293,871	88,57
294,086	29,18
294,301	49,66
294,516	74,24
294,73	68,09
294,945	-99,84
295,16	61,95
295,374	55,81
295,589	-17,92
295,804	-38,4
296,018	27,14
296,233	-9,73
296,447	6,66
296,662	33,28
296,877	-28,16
297,091	-28,16
297,306	-15,87
297,52	-50,69
297,735	70,14
297,949	66,05
298,164	57,86
298,378	39,42
298,593	-56,83
298,807	-5,63
299,022	-5,63
299,236	68,09
299,451	8,7
299,665	-42,5
299,88	-5,63
300,094	68,09
300,309	-32,26
300,523	18,94
300,737	41,47
300,952	-71,17
301,166	25,09
301,381	6,66
301,595	51,71
301,809	18,94
302,024	16,9
302,238	16,9
302,452	-3,58
302,667	4,61
302,881	41,47
303,095	31,23
303,309	-97,79
303,524	-56,83
303,738	8,7
303,952	-15,87
304,166	66,05
304,381	-40,45
304,595	74,24
304,809	-1,54
305,023	-7,68
305,237	-17,92
305,452	-54,78
305,666	2,56
305,88	33,28
306,094	33,28
306,308	-7,68
306,522	115,2
306,736	0,51
306,95	-32,26
307,164	-50,69
307,379	-24,06
307,593	39,42
307,807	-32,26
308,021	8,7
308,235	29,18
308,449	-60,93
308,663	-11,78
308,877	57,86
309,091	-42,5
309,305	-48,64
309,519	8,7
309,733	49,66
309,947	-30,21
310,161	33,28
310,374	20,99
310,588	14,85
310,802	33,28
311,016	-11,78
311,23	0,51
311,444	-7,68
311,658	2,56
311,872	-28,16
312,085	-40,45
312,299	-32,26
312,513	55,81
312,727	-13,82
312,941	-9,73
313,154	29,18
313,368	-13,82
313,582	-46,59
313,796	29,18
314,009	18,94
314,223	55,81
314,437	4,61
314,651	16,9
314,864	-28,16
315,078	45,57
315,292	-38,4
315,505	-46,59
315,719	57,86
315,933	27,14
316,146	8,7
316,36	-34,3
316,573	-7,68
316,787	18,94
317,001	-34,3
317,214	-15,87
317,428	8,7
317,641	-38,4
317,855	29,18
318,068	-48,64
318,282	-85,5
318,495	-17,92
318,709	37,38
318,922	4,61
319,136	2,56
319,349	33,28
319,563	-42,5
319,776	6,66
319,99	-65,02
320,203	90,62
320,417	37,38
320,63	66,05
320,843	29,18
321,057	49,66
321,27	-42,5
321,483	10,75
321,697	35,33
321,91	23,04
322,124	31,23
322,337	82,43
322,55	29,18
322,763	2,56
322,977	6,66
323,19	-36,35
323,403	-73,21
323,617	27,14
323,83	25,09
324,043	-13,82
324,256	-38,4
324,469	-32,26
324,683	-52,74
324,896	-54,78
325,109	12,8
325,322	-5,63
325,535	47,62
325,748	-15,87
325,962	20,99
326,175	-19,97
326,388	16,9
326,601	33,28
326,814	12,8
327,027	-32,26
327,24	41,47
327,453	-79,36
327,666	90,62
327,879	14,85
328,092	-5,63
328,305	53,76
328,518	-30,21
328,731	-73,21
328,944	-5,63
329,157	152,06
329,37	-11,78
329,583	-1,54
329,796	80,38
330,009	-46,59
330,222	104,96
330,435	-3,58
330,648	-5,63
330,861	23,04
331,073	-7,68
331,286	-22,02
331,499	57,86
331,712	-58,88
331,925	-17,92
332,138	-40,45
332,35	141,82
332,563	-26,11
332,776	27,14
332,989	0,51
333,202	20,99
333,414	-44,54
333,627	-48,64
333,84	18,94
334,053	66,05
334,265	23,04
334,478	2,56
334,691	68,09
334,903	35,33
335,116	-26,11
335,329	18,94
335,541	33,28
335,754	25,09
335,966	-65,02
336,179	-58,88
336,392	-89,6
336,604	43,52
336,817	117,25
337,029	31,23
337,242	-5,63
337,454	41,47
337,667	-7,68
337,88	-38,4
338,092	-15,87
338,305	41,47
338,517	-54,78
338,729	57,86
338,942	-17,92
339,154	-77,31
339,367	-79,36
339,579	-9,73
339,792	6,66
340,004	64
340,217	12,8
340,429	2,56
340,641	-22,02
340,854	-17,92
341,066	-24,06
341,278	-7,68
341,491	55,81
341,703	12,8
341,915	-22,02
342,128	70,14
342,34	-28,16
342,552	4,61
342,764	14,85
342,977	35,33
343,189	23,04
343,401	2,56
343,613	-19,97
343,826	-38,4
344,038	12,8
344,25	31,23
344,462	-36,35
344,674	-32,26
344,886	-46,59
345,099	25,09
345,311	-54,78
345,523	33,28
345,735	-15,87
345,947	57,86
346,159	-73,21
346,371	8,7
346,583	10,75
346,795	8,7
347,007	-19,97
347,219	33,28
347,431	-38,4
347,643	47,62
347,855	8,7
348,067	-24,06
348,279	-5,63
348,491	-7,68
348,703	29,18
348,915	-32,26
349,127	-28,16
349,339	10,75
349,551	6,66
349,763	-89,6
349,975	-22,02
350,187	72,19
350,399	45,57
350,61	18,94
350,822	20,99
351,034	18,94
351,246	20,99
351,458	-13,82
351,669	-7,68
351,881	92,67
352,093	57,86
352,305	-3,58
352,517	10,75
352,728	25,09
352,94	0,51
353,152	61,95
353,363	25,09
353,575	-32,26
353,787	57,86
353,999	92,67
354,21	109,05
354,422	-32,26
354,633	47,62
354,845	47,62
355,057	-40,45
355,268	64
355,48	80,38
355,692	8,7
355,903	2,56
356,115	-36,35
356,326	-19,97
356,538	57,86
356,749	-15,87
356,961	25,09
357,172	23,04
357,384	-34,3
357,595	29,18
357,807	4,61
358,018	-79,36
358,23	-30,21
358,441	74,24
358,653	8,7
358,864	55,81
359,075	-91,65
359,287	57,86
359,498	41,47
359,709	0,51
359,921	23,04
360,132	53,76
360,344	-30,21
360,555	35,33
360,766	16,9
360,977	35,33
361,189	18,94
361,4	-17,92
361,611	-32,26
361,823	0,51
362,034	8,7
362,245	-65,02
362,456	25,09
362,667	29,18
362,879	35,33
363,09	0,51
363,301	66,05
363,512	12,8
363,723	-17,92
363,935	-3,58
364,146	18,94
364,357	16,9
364,568	4,61
364,779	0,51
364,99	82,43
365,201	-54,78
365,412	-13,82
365,623	-30,21
365,834	49,66
366,045	-28,16
366,256	39,42
366,467	18,94
366,678	0,51
366,889	-24,06
367,1	18,94
367,311	90,62
367,522	59,9
367,733	-3,58
367,944	-5,63
368,155	-3,58
368,366	-65,02
368,577	25,09
368,788	35,33
368,999	16,9
369,209	8,7
369,42	-22,02
369,631	20,99
369,842	8,7
370,053	70,14
370,264	23,04
370,474	-15,87
370,685	-56,83
370,896	61,95
371,107	27,14
371,317	-3,58
371,528	-26,11
371,739	45,57
371,95	16,9
372,16	86,53
372,371	-11,78
372,582	6,66
372,792	10,75
373,003	41,47
373,214	37,38
373,424	0,51
373,635	-3,58
373,846	51,71
374,056	-13,82
374,267	76,29
374,477	20,99
374,688	-48,64
374,898	20,99
375,109	47,62
375,319	55,81
375,53	33,28
375,74	-1,54
375,951	4,61
376,161	-9,73
376,372	100,86
376,582	-11,78
376,793	76,29
377,003	-30,21
377,214	-36,35
377,424	57,86
377,635	18,94
377,845	10,75
378,055	49,66
378,266	-1,54
378,476	-62,98
378,686	25,09
378,897	-7,68
379,107	16,9
379,317	-7,68
379,528	-40,45
379,738	41,47
379,948	-30,21
380,158	6,66
380,369	8,7
380,579	25,09
380,789	55,81
380,999	6,66
381,21	12,8
381,42	53,76
381,63	45,57
381,84	43,52
382,05	2,56
382,261	-19,97
382,471	74,24
382,681	-56,83
382,891	-36,35
383,101	-5,63
383,311	-24,06
383,521	35,33
383,731	33,28
383,941	-44,54
384,151	57,86
384,361	29,18
384,571	12,8
384,781	8,7
384,991	16,9
385,201	57,86
385,411	4,61
385,621	-11,78
385,831	-3,58
386,041	4,61
386,251	-73,21
386,461	55,81
386,671	12,8
386,881	41,47
387,091	64
387,301	0,51
387,511	51,71
387,72	-44,54
387,93	0,51
388,14	-9,73
388,35	23,04
388,56	41,47
388,769	64
388,979	8,7
389,189	-22,02
389,399	16,9
389,609	76,29
389,818	55,81
390,028	35,33
390,238	41,47
390,447	0,51
390,657	57,86
390,867	64
391,076	27,14
391,286	45,57
391,496	-32,26
391,705	18,94
391,915	2,56
392,125	-11,78
392,334	-9,73
392,544	-46,59
392,753	27,14
392,963	-34,3
393,172	59,9
393,382	51,71
393,591	59,9
393,801	-28,16
394,01	4,61
394,22	100,86
394,429	33,28
394,639	-5,63
394,848	-13,82
395,058	-28,16
395,267	-32,26
395,477	-30,21
395,686	-13,82
395,895	31,23
396,105	55,81
396,314	109,05
396,524	-26,11
396,733	70,14
396,942	-13,82
397,152	90,62
397,361	72,19
397,57	8,7
397,78	0,51
397,989	37,38
398,198	92,67
398,407	10,75
398,617	-7,68
398,826	57,86
399,035	68,09
399,244	25,09
399,453	61,95
399,663	84,48
399,872	10,75
400,081	-62,98
400,29	-19,97
400,499	-42,5
400,708	31,23
400,917	68,09
401,127	-28,16
401,336	-54,78
401,545	33,28
401,754	31,23
401,963	41,47
402,172	39,42
402,381	-17,92
402,59	27,14
402,799	16,9
403,008	-19,97
403,217	-40,45
403,426	8,7
403,635	70,14
403,844	100,86
404,053	82,43
404,262	-1,54
404,471	27,14
404,68	16,9
404,888	37,38
405,097	31,23
405,306	27,14
405,515	2,56
405,724	96,77
405,933	49,66
406,142	4,61
406,35	16,9
406,559	-3,58
406,768	49,66
406,977	74,24
407,185	47,62
407,394	31,23
407,603	-30,21
407,812	27,14
408,02	6,66
408,229	74,24
408,438	23,04
408,646	66,05
408,855	10,75
409,064	4,61
409,272	90,62
409,481	10,75
409,69	29,18
409,898	2,56
410,107	72,19
410,315	55,81
410,524	18,94
410,733	39,42
410,941	-67,07
411,15	86,53
411,358	6,66
411,567	68,09
411,775	18,94
411,984	10,75
412,192	78,33
412,401	-13,82
412,609	57,86
412,818	160,25
413,026	84,48
413,234	98,81
413,443	39,42
413,651	55,81
413,86	-97,79
414,068	-7,68
414,276	41,47
414,485	8,7
414,693	117,25
414,901	57,86
415,11	27,14
415,318	25,09
415,526	41,47
415,734	57,86
415,943	10,75
416,151	29,18
416,359	68,09
416,567	53,76
416,776	10,75
416,984	123,39
417,192	109,05
417,4	53,76
417,608	0,51
417,817	59,9
418,025	-30,21
418,233	111,1
418,441	66,05
418,649	43,52
418,857	53,76
419,065	94,72
419,273	-5,63
419,481	90,62
419,689	102,91
419,897	45,57
420,105	49,66
420,313	158,21
420,521	121,34
420,729	78,33
420,937	109,05
421,145	92,67
421,353	84,48
421,561	123,39
421,769	100,86
421,977	45,57
422,185	57,86
422,393	184,83
422,601	174,59
422,809	107,01
423,017	139,77
423,224	139,77
423,432	154,11
423,64	188,93
423,848	207,36
424,056	215,55
424,263	268,8
424,471	178,69
424,679	180,73
424,887	295,42
425,094	258,56
425,302	334,33
425,51	379,39
425,718	444,92
425,925	506,36
426,133	510,46
426,341	586,23
426,548	719,35
426,756	741,88
426,964	934,39
427,171	999,92
427,379	1114,61
427,586	1188,33
427,794	1468,91
428,001	1626,6
428,209	1888,74
428,417	2023,91
428,624	2427,35
428,832	2640,34
429,039	3045,84
429,247	3441,1
429,454	4213,18
429,662	4989,36
429,869	5276,08
430,076	6381,98
430,284	6818,2
430,491	8006,02
430,699	9595,25
430,906	10797,4
431,114	11942,22
431,321	13623,6
431,528	15321,37
431,736	17842,42
431,943	20054,22
432,15	20932,8
432,358	22735,01
432,565	25233,53
432,772	27076,71
432,979	29532,22
433,187	31359,01
433,394	32505,87
433,601	36173,78
433,808	37208,01
434,016	36972,49
434,223	39641
434,43	42463,1
434,637	41881,47
434,844	43976,54
435,052	45104,98
435,259	44445,53
435,466	44711,77
435,673	44326,75
435,88	46489,4
436,087	48584,47
436,294	48338,72
436,501	47081,27
436,708	46487,35
436,915	47951,65
437,122	49237,78
437,329	48240,42
437,537	49493,77
437,743	49612,55
437,95	48418,59
438,157	49940,23
438,364	51465,97
438,571	50910,97
438,778	50421,5
438,985	52885,21
439,192	51138,29
439,399	51951,34
439,606	50556,67
439,813	51705,58
440,02	54052,55
440,227	51484,4
440,433	49864,46
440,64	50757,37
440,847	48303,9
441,054	47329,07
441,261	48035,62
441,467	45125,46
441,674	43837,28
441,881	42053,5
442,088	39778,21
442,294	36640,72
442,501	34582,51
442,708	32442,38
442,914	29954,1
443,121	27811,93
443,328	23750,81
443,534	23109,79
443,741	19515,61
443,948	16554,24
444,154	15704,34
444,361	13721,9
444,568	11659,6
444,774	10103,14
444,981	8782,2
445,187	7844,23
445,394	7037,33
445,6	6089,12
445,807	5652,91
446,013	4886,97
446,22	4217,28
446,426	3729,86
446,633	3271,12
446,839	2963,92
447,046	2511,32
447,252	2253,28
447,459	2038,24
447,665	1884,64
447,871	1745,38
448,078	1532,39
448,284	1264,11
448,491	1278,44
448,697	1229,29
448,903	1069,55
449,11	879,09
449,316	813,56
449,522	772,6
449,728	750,07
449,935	641,53
450,141	553,46
450,347	623,09
450,553	434,68
450,76	477,69
450,966	438,78
451,172	338,43
451,378	377,34
451,584	369,15
451,791	328,19
451,997	320
452,203	279,04
452,409	320
452,615	274,94
452,821	270,84
453,027	172,54
453,233	213,5
453,44	172,54
453,646	199,16
453,852	231,93
454,058	203,26
454,264	94,72
454,47	219,64
454,676	150,01
454,882	168,45
455,088	223,74
455,294	43,52
455,5	205,31
455,705	154,11
455,911	74,24
456,117	141,82
456,323	76,29
456,529	98,81
456,735	123,39
456,941	66,05
457,147	131,58
457,352	76,29
457,558	115,2
457,764	80,38
457,97	164,35
458,176	64
458,381	6,66
458,587	64
458,793	123,39
458,999	94,72
459,204	123,39
459,41	68,09
459,616	16,9
459,821	37,38
460,027	57,86
460,233	64
460,438	117,25
460,644	6,66
460,85	-5,63
461,055	78,33
461,261	37,38
461,466	20,99
461,672	96,77
461,878	55,81
462,083	55,81
462,289	18,94
462,494	-26,11
462,7	51,71
462,905	111,1
463,111	10,75
463,316	76,29
463,522	98,81
463,727	39,42
463,932	2,56
464,138	70,14
464,343	8,7
464,549	57,86
464,754	49,66
464,959	53,76
465,165	-24,06
465,37	6,66
465,575	-1,54
465,781	61,95
465,986	20,99
466,191	90,62
466,397	4,61
466,602	156,16
466,807	47,62
467,012	78,33
467,218	12,8
467,423	70,14
467,628	35,33
467,833	0,51
468,038	-24,06
468,244	-32,26
468,449	-32,26
468,654	-15,87
468,859	-40,45
469,064	-7,68
469,269	0,51
469,474	51,71
469,679	-13,82
469,885	117,25
470,09	-13,82
470,295	-22,02
470,5	43,52
470,705	-46,59
470,91	57,86
471,115	57,86
471,32	55,81
471,525	80,38
471,73	123,39
471,935	29,18
472,139	-54,78
472,344	49,66
472,549	-69,12
472,754	35,33
472,959	-7,68
473,164	86,53
473,369	35,33
473,574	25,09
473,778	23,04
473,983	-40,45
474,188	10,75
474,393	-85,5
474,598	16,9
474,802	25,09
475,007	2,56
475,212	49,66
475,417	41,47
475,621	16,9
475,826	27,14
476,031	0,51
476,235	-26,11
476,44	2,56
476,645	8,7
476,849	57,86
477,054	12,8
477,259	59,9
477,463	104,96
477,668	59,9
477,872	29,18
478,077	14,85
478,282	-81,41
478,486	8,7
478,691	78,33
478,895	84,48
479,1	-17,92
479,304	76,29
479,509	8,7
479,713	-44,54
479,918	64
480,122	25,09
480,326	72,19
480,531	45,57
480,735	-5,63
480,94	61,95
481,144	12,8
481,348	41,47
481,553	76,29
481,757	25,09
481,961	57,86
482,166	47,62
482,37	0,51
482,574	-60,93
482,778	-1,54
482,983	-1,54
483,187	57,86
483,391	-3,58
483,595	41,47
483,8	-3,58
484,004	115,2
484,208	-11,78
484,412	23,04
484,616	-7,68
484,821	43,52
485,025	-22,02
485,229	8,7
485,433	123,39
485,637	6,66
485,841	-9,73
486,045	-7,68
486,249	-7,68
486,453	-7,68
486,657	23,04
486,861	-15,87
487,065	35,33
487,269	37,38
487,473	-24,06
487,677	-32,26
487,881	102,91
488,085	61,95
488,289	-34,3
488,493	-32,26
488,697	-36,35
488,901	16,9
489,105	8,7
489,309	10,75
489,512	16,9
489,716	86,53
489,92	68,09
490,124	-30,21
490,328	37,38
490,531	12,8
490,735	55,81
490,939	-81,41
491,143	6,66
491,346	-9,73
491,55	0,51
491,754	-15,87
491,958	-5,63
492,161	-38,4
492,365	-15,87
492,569	51,71
492,772	117,25
492,976	4,61
493,18	-5,63
493,383	10,75
493,587	-13,82
493,79	-36,35
493,994	-15,87
494,197	-71,17
494,401	-3,58
494,605	-24,06
494,808	14,85
495,012	-13,82
495,215	66,05
495,419	82,43
495,622	35,33
495,825	-93,69
496,029	16,9
496,232	14,85
496,436	82,43
496,639	12,8
496,843	-7,68
497,046	-17,92
497,249	-17,92
497,453	-50,69
497,656	57,86
497,859	35,33
498,063	82,43
498,266	4,61
498,469	-73,21
498,673	-7,68
498,876	-5,63
499,079	57,86
499,282	41,47
499,485	45,57
499,689	41,47
499,892	84,48
500,095	-30,21
500,298	39,42
500,501	-30,21
500,705	-26,11
500,908	-30,21
501,111	-17,92
501,314	10,75
501,517	55,81
501,72	0,51
501,923	-19,97
502,126	-9,73
502,329	59,9
502,532	33,28
502,735	-7,68
502,938	23,04
503,141	61,95
503,344	-42,5
503,547	-44,54
503,75	-1,54
503,953	-13,82
504,156	66,05
504,359	2,56
504,562	8,7
504,765	-30,21
504,968	-40,45
505,17	-3,58
505,373	23,04
505,576	-1,54
505,779	-3,58
505,982	-38,4
506,185	10,75
506,387	0,51
506,59	27,14
506,793	10,75
506,996	43,52
507,198	-9,73
507,401	0,51
507,604	29,18
507,807	-3,58
508,009	31,23
508,212	55,81
508,415	39,42
508,617	4,61
508,82	-30,21
509,022	41,47
509,225	92,67
509,428	35,33
509,63	76,29
509,833	25,09
510,035	80,38
510,238	14,85
510,44	57,86
510,643	-11,78
510,845	45,57
511,048	41,47
511,25	0,51
511,453	25,09
511,655	53,76
511,858	68,09
512,06	109,05
512,262	45,57
512,465	37,38
512,667	-19,97
512,87	49,66
513,072	-1,54
513,274	47,62
513,477	-22,02
513,679	66,05
513,881	-36,35
514,084	-46,59
514,286	51,71
514,488	12,8
514,69	2,56
514,893	-5,63
515,095	4,61
515,297	31,23
515,499	-30,21
515,701	29,18
515,904	-13,82
516,106	-9,73
516,308	2,56
516,51	-11,78
516,712	53,76
516,914	16,9
517,116	20,99
517,318	-40,45
517,52	10,75
517,722	-22,02
517,925	-24,06
518,127	16,9
518,329	59,9
518,531	-7,68
518,733	-9,73
518,935	2,56
519,136	-24,06
519,338	2,56
519,54	-34,3
519,742	94,72
519,944	51,71
520,146	-28,16
520,348	33,28
520,55	-46,59
520,752	47,62
520,954	-9,73
521,155	-40,45
521,357	-56,83
521,559	-24,06
521,761	25,09
521,963	27,14
522,164	-13,82
522,366	33,28
522,568	-36,35
522,77	6,66
522,971	66,05
523,173	-19,97
523,375	14,85
523,576	-40,45
523,778	29,18
523,98	27,14
524,181	27,14
524,383	33,28
524,584	-26,11
524,786	41,47
524,988	27,14
525,189	35,33
525,391	8,7
525,592	-7,68
525,794	-48,64
525,995	57,86
526,197	33,28
526,398	51,71
526,6	8,7
526,801	-153,09
527,003	-46,59
527,204	33,28
527,406	53,76
527,607	6,66
527,808	76,29
528,01	6,66
528,211	14,85
528,412	-13,82
528,614	-3,58
528,815	18,94
529,016	68,09
529,218	41,47
529,419	-101,89
529,62	39,42
529,822	-60,93
530,023	2,56
530,224	16,9
530,425	-13,82
530,626	2,56
530,828	-44,54
531,029	-46,59
531,23	82,43
531,431	20,99
531,632	2,56
531,833	-56,83
532,035	-54,78
532,236	47,62
532,437	43,52
532,638	20,99
532,839	61,95
533,04	47,62
533,241	-30,21
533,442	-52,74
533,643	8,7
533,844	-26,11
534,045	33,28
534,246	25,09
534,447	-38,4
534,648	-15,87
534,849	-24,06
535,05	-50,69
535,251	12,8
535,451	-36,35
535,652	-26,11
535,853	-34,3
536,054	-30,21
536,255	43,52
536,456	49,66
536,657	57,86
536,857	-28,16
537,058	-42,5
537,259	39,42
537,46	37,38
537,66	8,7
537,861	-30,21
538,062	-30,21
538,263	-48,64
538,463	25,09
538,664	20,99
538,865	6,66
539,065	-73,21
539,266	-1,54
539,466	45,57
539,667	10,75
539,868	55,81
540,068	12,8
540,269	-7,68
540,469	16,9
540,67	-22,02
540,87	98,81
541,071	-11,78
541,271	4,61
541,472	70,14
541,672	2,56
541,873	92,67
542,073	29,18
542,274	-24,06
542,474	27,14
542,675	29,18
542,875	-1,54
543,075	18,94
543,276	74,24
543,476	33,28
543,676	10,75
543,877	2,56
544,077	33,28
544,277	14,85
544,478	-22,02
544,678	25,09
544,878	-15,87
545,078	-7,68
545,279	-24,06
545,479	27,14
545,679	-36,35
545,879	-3,58
546,079	-7,68
546,28	6,66
546,48	-11,78
546,68	-56,83
546,88	47,62
547,08	-26,11
547,28	35,33
547,48	-40,45
547,68	86,53
547,88	10,75
548,081	20,99
548,281	-11,78
548,481	41,47
548,681	49,66
548,881	-83,45
549,081	37,38
549,28	47,62
549,48	102,91
549,68	6,66
549,88	-44,54
550,08	-87,55
550,28	-22,02
550,48	-15,87
550,68	-26,11
550,88	59,9
551,08	-32,26
551,279	12,8
551,479	-42,5
551,679	14,85
551,879	10,75
552,079	-24,06
552,278	2,56
552,478	41,47
552,678	-7,68
552,878	25,09
553,077	-3,58
553,277	8,7
553,477	-75,26
553,676	37,38
553,876	33,28
554,076	14,85
554,275	68,09
554,475	20,99
554,674	20,99
554,874	-30,21
555,074	6,66
555,273	-1,54
555,473	10,75
555,672	-22,02
555,872	8,7
556,071	76,29
556,271	80,38
556,47	-5,63
556,67	-7,68
556,869	-32,26
557,068	6,66
557,268	49,66
557,467	-13,82
557,667	84,48
557,866	-13,82
558,065	43,52
558,265	-13,82
558,464	-5,63
558,663	37,38
558,863	-89,6
559,062	27,14
559,261	-34,3
559,461	12,8
559,66	-58,88
559,859	-1,54
560,058	-3,58
560,258	-75,26
560,457	41,47
560,656	18,94
560,855	4,61
561,054	57,86
561,253	45,57
561,453	47,62
561,652	61,95
561,851	4,61
562,05	-38,4
562,249	-48,64
562,448	-5,63
562,647	-48,64
562,846	23,04
563,045	57,86
563,244	10,75
563,443	14,85
563,642	35,33
563,841	-15,87
564,04	2,56
564,239	-1,54
564,438	14,85
564,637	12,8
564,836	-81,41
565,035	-81,41
565,234	-3,58
565,432	-11,78
565,631	2,56
565,83	39,42
566,029	35,33
566,228	-56,83
566,427	61,95
566,625	-24,06
566,824	53,76
567,023	-22,02
567,222	-24,06
567,42	4,61
567,619	-28,16
567,818	-3,58
568,016	96,77
568,215	0,51
568,414	16,9
568,612	113,15
568,811	53,76
569,01	84,48
569,208	4,61
569,407	-34,3
569,605	39,42
569,804	23,04
570,002	-7,68
570,201	10,75
570,4	8,7
570,598	25,09
570,797	-19,97
570,995	-24,06
571,193	20,99
571,392	6,66
571,59	-38,4
571,789	-42,5
571,987	-24,06
572,186	-44,54
572,384	23,04
572,582	45,57
572,781	35,33
572,979	-38,4
573,177	-22,02
573,376	16,9
573,574	8,7
573,772	-42,5
573,971	-5,63
574,169	-120,32
574,367	37,38
574,565	-56,83
574,763	4,61
574,962	12,8
575,16	-11,78
575,358	-5,63
575,556	-65,02
575,754	-19,97
575,952	-36,35
576,151	51,71
576,349	23,04
576,547	-58,88
576,745	84,48
576,943	-19,97
577,141	18,94
577,339	-67,07
577,537	-26,11
577,735	-40,45
577,933	-3,58
578,131	-46,59
578,329	29,18
578,527	-62,98
578,725	31,23
578,923	-71,17
579,121	-58,88
579,319	-36,35
579,516	0,51
579,714	66,05
579,912	20,99
580,11	-52,74
580,308	20,99
580,506	-5,63
580,704	-28,16
580,901	-50,69
581,099	27,14
581,297	-42,5
581,495	-24,06
581,692	-30,21
581,89	25,09
582,088	-1,54
582,285	-24,06
582,483	12,8
582,681	-73,21
582,878	16,9
583,076	64
583,274	-60,93
583,471	27,14
583,669	31,23
583,866	-26,11
584,064	-17,92
584,262	-75,26
584,459	45,57
584,657	16,9
584,854	23,04
585,052	-40,45
585,249	53,76
585,447	-13,82
585,644	23,04
585,841	90,62
586,039	41,47
586,236	-11,78
586,434	-56,83
586,631	45,57
586,828	-85,5
587,026	59,9
587,223	-50,69
587,42	41,47
587,618	8,7
587,815	-36,35
588,012	-42,5
588,21	-19,97
588,407	-13,82
588,604	80,38
588,801	25,09
588,999	-73,21
589,196	-15,87
589,393	-52,74
589,59	-40,45
589,787	-17,92
589,984	20,99
590,182	-24,06
590,379	8,7
590,576	10,75
590,773	-13,82
590,97	33,28
591,167	43,52
591,364	20,99
591,561	-32,26
591,758	70,14
591,955	41,47
592,152	-97,79
592,349	-48,64
592,546	18,94
592,743	27,14
592,94	76,29
593,137	-19,97
593,334	41,47
593,531	33,28
593,727	-32,26
593,924	43,52
594,121	59,9
594,318	-62,98
594,515	0,51
594,712	8,7
594,908	4,61
595,105	18,94
595,302	-19,97
595,499	23,04
595,696	45,57
595,892	-30,21
596,089	51,71
596,286	-9,73
596,482	59,9
596,679	14,85
596,876	-5,63
597,072	-9,73
597,269	41,47
597,466	-56,83
597,662	-62,98
597,859	-56,83
598,055	4,61
598,252	37,38
598,448	31,23
598,645	2,56
598,841	25,09
599,038	76,29
599,234	-9,73
599,431	6,66
599,627	-15,87
599,824	10,75
600,02	-7,68
600,217	80,38
600,413	-30,21
600,609	-32,26
600,806	25,09
601,002	12,8
601,198	-60,93
601,395	-3,58
601,591	-77,31
601,787	-3,58
601,984	-32,26
602,18	-7,68
602,376	-30,21
602,572	61,95
602,769	16,9
602,965	41,47
603,161	27,14
603,357	39,42
603,553	74,24
603,75	27,14
603,946	-1,54
604,142	-38,4
604,338	33,28
604,534	-60,93
604,73	31,23
604,926	-15,87
605,122	57,86
605,318	18,94
605,514	20,99
605,71	-130,56
605,906	68,09
606,102	82,43
606,298	51,71
606,494	18,94
606,69	53,76
606,886	-1,54
607,082	-19,97
607,278	-48,64
607,474	16,9
607,67	-5,63
607,866	-54,78
608,062	-38,4
608,257	43,52
608,453	-97,79
608,649	16,9
608,845	-11,78
609,041	25,09
609,236	-7,68
609,432	-38,4
609,628	25,09
609,824	18,94
610,019	-17,92
610,215	20,99
610,411	49,66
610,606	2,56
610,802	37,38
610,998	-30,21
611,193	41,47
611,389	-13,82
611,584	-69,12
611,78	-3,58
611,976	-15,87
612,171	100,86
612,367	16,9
612,562	78,33
612,758	-9,73
612,953	-85,5
613,149	16,9
613,344	45,57
613,539	-7,68
613,735	-58,88
613,93	2,56
614,126	-15,87
614,321	57,86
614,517	25,09
614,712	0,51
614,907	39,42
615,103	-62,98
615,298	27,14
615,493	-50,69
615,688	-108,03
615,884	-24,06
616,079	33,28
616,274	-24,06
616,47	-32,26
616,665	25,09
616,86	-91,65
617,055	-3,58
617,25	4,61
617,445	-85,5
617,641	-48,64
617,836	-15,87
618,031	-1,54
618,226	4,61
618,421	8,7
618,616	-77,31
618,811	-19,97
619,006	-9,73
619,201	57,86
619,396	18,94
619,591	-30,21
619,786	-15,87
619,981	2,56
620,176	-52,74
620,371	-15,87
620,566	10,75
620,761	33,28
620,956	76,29
621,151	57,86
621,346	51,71
621,541	-52,74
621,735	66,05
621,93	25,09
622,125	25,09
622,32	-11,78
622,515	-58,88
622,709	49,66
622,904	20,99
623,099	39,42
623,294	14,85
623,488	8,7
623,683	-85,5
623,878	-46,59
624,072	-108,03
624,267	-22,02
624,462	-30,21
624,656	-32,26
624,851	12,8
625,046	27,14
625,24	37,38
625,435	-1,54
625,629	-36,35
625,824	8,7
626,018	0,51
626,213	53,76
626,407	-13,82
626,602	0,51
626,796	-11,78
626,991	43,52
627,185	4,61
627,38	10,75
627,574	-5,63
627,768	41,47
627,963	-7,68
628,157	-15,87
628,352	-48,64
628,546	16,9
628,74	-13,82
628,935	29,18
629,129	41,47
629,323	0,51
629,517	-38,4
629,712	-15,87
629,906	29,18
630,1	0,51
630,294	10,75
630,489	-30,21
630,683	-97,79
630,877	18,94
631,071	43,52
631,265	-36,35
631,459	-71,17
631,653	-9,73
631,848	-65,02
632,042	-3,58
632,236	-60,93
632,43	59,9
632,624	-7,68
632,818	10,75
633,012	59,9
633,206	-56,83
633,4	35,33
633,594	10,75
633,788	33,28
633,982	70,14
634,176	25,09
634,369	37,38
634,563	-1,54
634,757	33,28
634,951	-73,21
635,145	64
635,339	-15,87
635,533	23,04
635,726	-30,21
635,92	-5,63
636,114	41,47
636,308	-5,63
636,501	12,8
636,695	8,7
636,889	-77,31
637,083	-32,26
637,276	-79,36
637,47	-5,63
637,664	-13,82
637,857	-7,68
638,051	-9,73
638,244	-15,87
638,438	27,14
638,632	59,9
638,825	-3,58
639,019	-34,3
639,212	-24,06
639,406	16,9
639,599	29,18
639,793	-32,26
639,986	-26,11
640,18	-26,11
640,373	-56,83
640,567	-28,16
640,76	-30,21
640,954	-7,68
641,147	2,56
641,34	18,94
641,534	-15,87
641,727	37,38
641,92	14,85
642,114	-30,21
642,307	86,53
642,5	-15,87
642,694	-9,73
642,887	-1,54
643,08	0,51
643,273	8,7
643,467	-52,74
643,66	-3,58
643,853	25,09
644,046	-9,73
644,239	-60,93
644,432	49,66
644,626	-73,21
644,819	4,61
645,012	-24,06
645,205	14,85
645,398	-24,06
645,591	-19,97
645,784	-32,26
645,977	8,7
646,17	82,43
646,363	51,71
646,556	-7,68
646,749	76,29
646,942	-22,02
647,135	33,28
647,328	12,8
647,521	25,09
647,714	-19,97
647,907	8,7
648,099	-50,69
648,292	80,38
648,485	86,53
648,678	0,51
648,871	57,86
649,064	43,52
649,256	-1,54
649,449	-13,82
649,642	12,8
649,835	35,33
650,027	25,09
650,22	-13,82
650,413	-67,07
650,605	78,33
650,798	47,62
650,991	53,76
651,183	-36,35
651,376	16,9
651,568	-99,84
651,761	-36,35
651,954	-15,87
652,146	-5,63
652,339	12,8
652,531	57,86
652,724	-13,82
652,916	10,75
653,109	-56,83
653,301	25,09
653,494	23,04
653,686	35,33
653,879	-28,16
654,071	129,53
654,263	23,04
654,456	14,85
654,648	-7,68
654,84	16,9
655,033	-11,78
655,225	10,75
655,417	-38,4
655,61	37,38
655,802	37,38
655,994	-15,87
656,186	68,09
656,379	94,72
656,571	10,75
656,763	20,99
656,955	2,56
657,148	33,28
657,34	33,28
657,532	-38,4
657,724	53,76
657,916	-40,45
658,108	18,94
658,3	20,99
658,492	-44,54
658,684	-28,16
658,876	43,52
659,068	-30,21
659,26	-124,41
659,452	-9,73
659,644	33,28
659,836	33,28
660,028	35,33
660,22	-36,35
660,412	-22,02
660,604	47,62
660,796	0,51
660,988	-5,63
661,18	78,33
661,372	-22,02
661,563	-13,82
661,755	-15,87
661,947	-79,36
662,139	-48,64
662,331	-30,21
662,522	-22,02
662,714	27,14
662,906	-32,26
663,097	-32,26
663,289	12,8
663,481	-89,6
663,673	0,51
663,864	-17,92
664,056	10,75
664,247	-69,12
664,439	41,47
664,631	25,09
664,822	-15,87
665,014	-24,06
665,205	-48,64
665,397	-73,21
665,588	20,99
665,78	-36,35
665,971	16,9
666,163	2,56
666,354	-3,58
666,546	-11,78
666,737	45,57
666,929	16,9
667,12	-19,97
667,311	-30,21
667,503	-19,97
667,694	-46,59
667,885	-48,64
668,077	90,62
668,268	8,7
668,459	41,47
668,651	27,14
668,842	27,14
669,033	4,61
669,224	-60,93
669,416	-5,63
669,607	39,42
669,798	-40,45
669,989	25,09
670,18	-5,63
670,371	-30,21
670,563	27,14
670,754	53,76
670,945	-7,68
671,136	20,99
671,327	-54,78
671,518	20,99
671,709	125,44
671,9	0,51
672,091	-9,73
672,282	-24,06
672,473	55,81
672,664	2,56
672,855	18,94
673,046	-32,26
673,237	10,75
673,428	-36,35
673,619	10,75
673,809	8,7
674	92,67
674,191	47,62
674,382	0,51
674,573	-15,87
674,764	-48,64
674,954	16,9
675,145	-5,63
675,336	-30,21
675,527	-28,16
675,717	-1,54
675,908	-19,97
676,099	6,66
676,289	-28,16
676,48	-54,78
676,671	59,9
676,861	-38,4
677,052	-71,17
677,243	-28,16
677,433	16,9
677,624	-65,02
677,814	18,94
678,005	-83,45
678,195	45,57
678,386	35,33
678,576	-15,87
678,767	-36,35
678,957	-32,26
679,148	-54,78
679,338	51,71
679,529	-54,78
679,719	20,99
679,909	18,94
680,1	84,48
680,29	-28,16
680,481	-40,45
680,671	-5,63
680,861	8,7
681,052	-1,54
681,242	-73,21
681,432	-1,54
681,622	-19,97
681,813	-118,27
682,003	66,05
682,193	-19,97
682,383	-108,03
682,573	-48,64
682,764	-38,4
682,954	6,66
683,144	20,99
683,334	-50,69
683,524	-38,4
683,714	-15,87
683,904	41,47
684,094	-73,21
684,284	-11,78
684,474	-1,54
684,664	57,86
684,854	-28,16
685,044	14,85
685,234	-9,73
685,424	20,99
685,614	-56,83
685,804	20,99
685,994	14,85
686,184	-73,21
686,374	-15,87
686,564	12,8
686,753	-9,73
686,943	-5,63
687,133	-71,17
687,323	27,14
687,513	-32,26
687,702	70,14
687,892	20,99
688,082	18,94
688,272	-3,58
688,461	-1,54
688,651	25,09
688,841	66,05
689,03	2,56
689,22	-24,06
689,41	-65,02
689,599	-56,83
689,789	-28,16
689,979	82,43
690,168	33,28
690,358	-22,02
690,547	-44,54
690,737	68,09
690,926	-89,6
691,116	35,33
691,305	51,71
691,495	-48,64
691,684	6,66
691,874	27,14
692,063	-22,02
692,252	51,71
692,442	-40,45
692,631	-65,02
692,82	-38,4
693,01	33,28
693,199	-7,68
693,388	0,51
693,578	-15,87
693,767	-34,3
693,956	35,33
694,146	16,9
694,335	-15,87
694,524	-65,02
694,713	-9,73
694,902	16,9
695,092	-9,73
695,281	68,09
695,47	-9,73
695,659	-13,82
695,848	16,9
696,037	-44,54
696,226	-13,82
696,415	18,94
696,604	-24,06
696,793	31,23
696,982	16,9
697,171	121,34
697,36	-36,35
697,549	8,7
697,738	-5,63
697,927	33,28
698,116	37,38
698,305	68,09
698,494	-69,12
698,683	-3,58
698,872	51,71
699,061	43,52
699,25	8,7
699,438	-19,97
699,627	70,14
699,816	8,7
700,005	-22,02
700,193	2,56
700,382	-69,12
700,571	33,28
700,76	25,09
700,948	45,57
701,137	18,94
701,326	18,94
701,514	-7,68
701,703	-11,78
701,892	-40,45
702,08	49,66
702,269	4,61
702,457	25,09
702,646	-40,45
702,834	0,51
703,023	12,8
703,212	10,75
703,4	25,09
703,589	43,52
703,777	-38,4
703,965	-19,97
704,154	-13,82
704,342	-26,11
704,531	0,51
704,719	64
704,907	-24,06
705,096	-36,35
705,284	0,51
705,472	-7,68
705,661	-24,06
705,849	74,24
706,037	64
706,226	0,51
706,414	10,75
706,602	23,04
706,79	-40,45
706,979	-22,02
707,167	12,8
707,355	-40,45
707,543	-60,93
707,731	-9,73
707,919	-15,87
708,107	45,57
708,296	-15,87
708,484	-13,82
708,672	20,99
708,86	-3,58
709,048	-19,97
709,236	-5,63
709,424	37,38
709,612	8,7
709,8	27,14
709,988	37,38
710,176	-17,92
710,364	78,33
710,551	-13,82
710,739	-11,78
710,927	-30,21
711,115	-30,21
711,303	18,94
711,491	4,61
711,679	-32,26
711,866	53,76
712,054	-95,74
712,242	-17,92
712,43	59,9
712,617	0,51
712,805	-81,41
712,993	-11,78
713,181	12,8
713,368	6,66
713,556	0,51
713,744	-46,59
713,931	94,72
714,119	-19,97
714,306	-19,97
714,494	-30,21
714,682	31,23
714,869	25,09
715,057	-40,45
715,244	-28,16
715,432	-5,63
715,619	-22,02
715,807	12,8
715,994	-46,59
716,182	14,85
716,369	25,09
716,556	-38,4
716,744	-3,58
716,931	-101,89
717,119	55,81
717,306	35,33
717,493	74,24
717,681	-42,5
717,868	-71,17
718,055	-58,88
718,242	-38,4
718,43	47,62
718,617	74,24
718,804	-9,73
718,991	8,7
719,179	10,75
719,366	41,47
719,553	53,76
719,74	-42,5
719,927	-60,93
720,114	47,62
720,301	-9,73
720,488	20,99
720,676	8,7
720,863	-54,78
721,05	31,23
721,237	16,9
721,424	-7,68
721,611	-65,02
721,798	-40,45
721,985	-34,3
722,172	-81,41
722,358	-38,4
722,545	43,52
722,732	-42,5
722,919	-15,87
723,106	-7,68
723,293	-32,26
723,48	-73,21
723,667	6,66
723,853	-15,87
724,04	27,14
724,227	33,28
724,414	-26,11
724,6	20,99
724,787	-3,58
724,974	59,9
725,161	-54,78
725,347	-44,54
725,534	10,75
725,72	-9,73
725,907	49,66
726,094	-38,4
726,28	-46,59
726,467	-9,73
726,653	-7,68
726,84	-36,35
727,027	-19,97
727,213	-9,73
727,4	-19,97
727,586	84,48
727,773	12,8
727,959	-52,74
728,145	-11,78
728,332	-13,82
728,518	-34,3
728,705	33,28
728,891	-52,74
729,077	-62,98
729,264	-52,74
729,45	27,14
729,636	51,71
729,823	-24,06
730,009	-40,45
730,195	-5,63
730,382	-52,74
730,568	23,04
730,754	16,9
730,94	23,04
731,126	-32,26
731,313	16,9
731,499	-48,64
731,685	-7,68
731,871	8,7
732,057	-40,45
732,243	16,9
732,429	-44,54
732,615	12,8
732,801	29,18
732,987	-60,93
733,173	-7,68
733,359	-15,87
733,545	8,7
733,731	-13,82
733,917	96,77
734,103	-5,63
734,289	31,23
734,475	-67,07
734,661	16,9
734,847	35,33
735,033	76,29
735,219	39,42
735,404	-38,4
735,59	2,56
735,776	104,96
735,962	49,66
736,148	16,9
736,333	41,47
736,519	-40,45
736,705	-48,64
736,89	33,28
737,076	-46,59
737,262	37,38
737,447	12,8
737,633	-7,68
737,819	-5,63
738,004	-9,73
738,19	-52,74
738,375	27,14
738,561	51,71
738,747	16,9
738,932	-7,68
739,118	16,9
739,303	25,09
739,489	-13,82
739,674	-36,35
739,859	57,86
740,045	41,47
740,23	-13,82
740,416	-28,16
740,601	12,8
740,786	25,09
740,972	-54,78
741,157	51,71
741,342	-24,06
741,528	-44,54
741,713	4,61
741,898	-52,74
742,084	25,09
742,269	-28,16
742,454	16,9
742,639	25,09
742,824	-48,64
743,01	66,05
743,195	43,52
743,38	-11,78
743,565	49,66
743,75	53,76
743,935	8,7
744,12	-24,06
744,305	-48,64
744,49	-54,78
744,675	-7,68
744,86	61,95
745,045	-7,68
745,23	-60,93
745,415	-24,06
745,6	33,28
745,785	-19,97
745,97	33,28
746,155	-7,68
746,34	12,8
746,525	55,81
746,71	37,38
746,895	-42,5
747,079	-3,58
747,264	8,7
747,449	41,47
747,634	6,66
747,819	25,09
748,003	10,75
748,188	-40,45
748,373	35,33
748,557	-11,78
748,742	-34,3
748,927	-11,78
749,111	18,94
749,296	61,95
749,481	-7,68
749,665	68,09
749,85	-1,54
750,034	29,18
750,219	-13,82
750,404	0,51
750,588	6,66
750,773	10,75
750,957	-9,73
751,141	-7,68
751,326	12,8
751,51	-40,45
751,695	31,23
751,879	-48,64
752,064	68,09
752,248	-30,21
752,432	43,52
752,617	-15,87
752,801	6,66
752,985	-40,45
753,17	49,66
753,354	25,09
753,538	-24,06
753,722	-30,21
753,907	-30,21
754,091	-60,93
754,275	-22,02
754,459	-42,5
754,643	8,7
754,828	-5,63
755,012	53,76
755,196	-32,26
755,38	-52,74
755,564	-56,83
755,748	-32,26
755,932	-1,54
756,116	35,33
756,3	-54,78
756,484	-15,87
756,668	12,8
756,852	-89,6
757,036	43,52
757,22	-24,06
757,404	-30,21
757,588	4,61
757,772	-15,87
757,956	14,85
758,14	16,9
758,323	-65,02
758,507	-19,97
758,691	8,7
758,875	64
759,059	-3,58
759,242	-34,3
759,426	-89,6
759,61	-5,63
759,794	8,7
759,977	29,18
760,161	27,14
760,345	-26,11
760,528	68,09
760,712	-19,97
760,895	55,81
761,079	10,75
761,263	-75,26
761,446	-56,83
761,63	-19,97
761,813	4,61
761,997	-36,35
762,18	-5,63
762,364	-24,06
762,547	-13,82
762,731	-42,5
762,914	-22,02
763,098	6,66
763,281	-19,97
763,464	-17,92
763,648	-7,68
763,831	-1,54
764,015	-3,58
764,198	-7,68
764,381	-30,21
764,564	20,99
764,748	45,57
764,931	61,95
765,114	70,14
765,297	29,18
765,481	-71,17
765,664	-40,45
765,847	0,51
766,03	57,86
766,213	-17,92
766,397	-22,02
766,58	16,9
766,763	25,09
766,946	-7,68
767,129	49,66
767,312	-44,54
767,495	-15,87
767,678	-50,69
767,861	45,57
768,044	20,99
768,227	-44,54
768,41	-11,78
768,593	0,51
768,776	-40,45
768,959	16,9
769,142	31,23
769,324	-5,63
769,507	-46,59
769,69	-40,45
769,873	-79,36
770,056	51,71
770,239	-34,3
770,421	-24,06
770,604	23,04
770,787	10,75
770,97	12,8
771,152	-15,87
771,335	33,28
771,518	8,7
771,7	33,28
771,883	-22,02
772,066	-11,78
772,248	14,85
772,431	2,56
772,613	66,05
772,796	-7,68
772,978	33,28
773,161	72,19
773,343	-46,59
773,526	-44,54
773,708	-122,37
773,891	10,75
774,073	-5,63
774,256	-87,55
774,438	37,38
774,621	-34,3
774,803	-42,5
774,985	-58,88
775,168	-81,41
775,35	-34,3
775,532	-52,74
775,715	-87,55
775,897	8,7
776,079	4,61
776,261	68,09
776,444	-22,02
776,626	-38,4
776,808	12,8
776,99	-77,31
777,173	-28,16
777,355	51,71
777,537	2,56
777,719	-36,35
777,901	-5,63
778,083	-26,11
778,265	0,51
778,447	29,18
778,629	-22,02
778,811	8,7
778,993	-30,21
779,175	20,99
779,357	-69,12
779,539	-11,78
779,721	-44,54
779,903	72,19
780,085	2,56
780,267	-67,07
780,449	-15,87
780,631	-34,3
780,812	-19,97
780,994	16,9
781,176	49,66
781,358	4,61
781,54	-56,83
781,721	59,9
781,903	68,09
782,085	-11,78
782,267	66,05
782,448	-19,97
782,63	8,7
782,812	10,75
782,993	27,14
783,175	-15,87
783,357	-48,64
783,538	-62,98
783,72	20,99
783,901	-77,31
784,083	-32,26
784,264	16,9
784,446	-38,4
784,627	-73,21
784,809	8,7
784,99	-3,58
785,172	-60,93
785,353	27,14
785,535	-52,74
785,716	-24,06
785,897	-17,92
786,079	-11,78
786,26	14,85
786,441	-36,35
786,623	-48,64
786,804	-17,92
786,985	27,14
787,167	41,47
787,348	-22,02
787,529	-60,93
787,71	33,28
787,891	27,14
788,073	-3,58
788,254	14,85
788,435	47,62
788,616	35,33
788,797	-73,21
788,978	-24,06
789,159	-48,64
789,34	-65,02
789,522	-17,92
789,703	12,8
789,884	-17,92
790,065	35,33
790,246	29,18
790,427	-13,82
790,607	-38,4
790,788	-32,26
790,969	-1,54
791,15	57,86
791,331	-32,26
791,512	12,8
791,693	-105,98
791,874	-48,64
792,054	55,81
792,235	-7,68
792,416	-5,63
792,597	-28,16
792,778	-32,26
792,958	-52,74
793,139	14,85
793,32	-19,97
793,5	-22,02
793,681	102,91
793,862	-65,02
794,042	12,8
794,223	8,7
794,404	33,28
794,584	4,61
794,765	-13,82
794,945	-30,21
795,126	25,09
795,306	0,51
795,487	-38,4
795,667	-11,78
795,848	-5,63
796,028	14,85
796,209	-5,63
796,389	-26,11
796,57	-54,78
796,75	4,61
796,93	-15,87
797,111	-48,64
797,291	-32,26
797,471	-79,36
797,652	-71,17
797,832	-38,4
798,012	51,71
798,192	-19,97
798,373	-58,88
798,553	12,8
798,733	-11,78
798,913	-50,69
799,093	-3,58
799,274	16,9
799,454	55,81
799,634	-9,73
799,814	27,14
799,994	-65,02
800,174	20,99
800,354	-42,5
800,534	-17,92
800,714	18,94
800,894	45,57
801,074	-73,21
801,254	2,56
801,434	-105,98
801,614	16,9
801,794	-62,98
801,974	502,26
802,154	-36,35
802,334	20,99
802,514	-3,58
802,693	-13,82
802,873	-77,31
803,053	31,23
803,233	57,86
803,413	-50,69
803,592	-65,02
803,772	-36,35
803,952	-69,12
804,131	-38,4
804,311	53,76
804,491	-5,63
804,67	-1,54
804,85	-7,68
805,03	-24,06
805,209	-11,78
805,389	-5,63
805,568	-24,06
805,748	-32,26
805,928	20,99
806,107	-81,41
806,287	0,51
806,466	10,75
806,646	18,94
806,825	-34,3
807,004	74,24
807,184	-95,74
807,363	57,86
807,543	-15,87
807,722	10,75
807,901	-7,68
808,081	4,61
808,26	-36,35
808,439	27,14
808,619	14,85
808,798	55,81
808,977	-32,26
809,156	29,18
809,336	59,9
809,515	-13,82
809,694	18,94
809,873	-15,87
810,052	43,52
810,231	45,57
810,411	-40,45
810,59	-38,4
810,769	14,85
810,948	-15,87
811,127	-81,41
811,306	4,61
811,485	12,8
811,664	90,62
811,843	14,85
812,022	-7,68
812,201	-13,82
812,38	16,9
812,559	-34,3
812,737	4,61
812,916	-11,78
813,095	-30,21
813,274	-40,45
813,453	-48,64
813,632	-3,58
813,811	41,47
813,989	-77,31
814,168	53,76
814,347	25,09
814,526	45,57
814,704	-15,87
814,883	-11,78
815,062	-7,68
815,24	55,81
815,419	-56,83
815,598	-40,45
815,776	4,61
815,955	-19,97
816,133	-101,89
816,312	6,66
816,49	41,47
816,669	6,66
816,847	-95,74
817,026	10,75
817,204	-24,06
817,383	-46,59
817,561	-48,64
817,74	8,7
817,918	-17,92
818,097	12,8
818,275	-28,16
818,453	-3,58
818,632	14,85
818,81	29,18
818,988	0,51
819,167	8,7
819,345	2,56
819,523	-71,17
819,701	-22,02
819,879	-56,83
820,058	-67,07
820,236	-15,87
820,414	-58,88
820,592	-15,87
820,77	-48,64
820,948	-26,11
821,127	-69,12
821,305	-32,26
821,483	4,61
821,661	-73,21
821,839	-48,64
822,017	-36,35
822,195	-48,64
822,373	8,7
822,551	-19,97
822,729	-28,16
822,907	-50,69
823,085	-30,21
823,262	-30,21
823,44	-44,54
823,618	55,81
823,796	16,9
823,974	-19,97
824,152	-24,06
824,329	25,09
824,507	-15,87
824,685	18,94
824,863	-19,97
825,04	-48,64
825,218	-24,06
825,396	-11,78
825,574	-30,21
825,751	-15,87
825,929	8,7
826,107	-48,64
826,284	27,14
826,462	23,04
826,639	-7,68
826,817	-7,68
826,994	-22,02
827,172	-42,5
827,349	-32,26
827,527	49,66
827,704	-17,92
827,882	-17,92
828,059	41,47
828,237	-1,54
828,414	-60,93
828,591	-101,89
828,769	74,24
828,946	-89,6
829,124	-22,02
829,301	-30,21
829,478	49,66
829,655	18,94
829,833	-7,68
830,01	-38,4
830,187	53,76
830,364	10,75
830,542	-13,82
830,719	8,7
830,896	31,23
831,073	-5,63
831,25	61,95
831,427	-5,63
831,604	2,56
831,782	-30,21
831,959	10,75
832,136	-38,4
832,313	-30,21
832,49	33,28
832,667	-7,68
832,844	57,86
833,021	-1,54
833,198	-46,59
833,374	8,7
833,551	20,99
833,728	4,61
833,905	35,33
834,082	-52,74
834,259	45,57
834,436	-3,58
834,612	-56,83
834,789	37,38
834,966	-62,98
835,143	8,7
835,319	-32,26
835,496	35,33
835,673	41,47
835,85	-15,87
836,026	-38,4
836,203	57,86
836,38	0,51
836,556	-7,68
836,733	-48,64
836,909	-26,11
837,086	31,23
837,262	-71,17
837,439	0,51
837,616	-73,21
837,792	-11,78
837,968	16,9
838,145	-3,58
838,321	-15,87
838,498	-15,87
838,674	29,18
838,851	59,9
839,027	0,51
839,203	-42,5
839,38	49,66
839,556	-36,35
839,732	41,47
839,909	12,8
840,085	-69,12
840,261	27,14
840,437	-48,64
840,614	-1,54
840,79	47,62
840,966	16,9
841,142	-52,74
841,318	-46,59
841,494	-44,54
841,671	-40,45
841,847	-32,26
842,023	-73,21
842,199	66,05
842,375	20,99
842,551	4,61
842,727	-38,4
842,903	78,33
843,079	-26,11
843,255	8,7
843,431	-46,59
843,607	-30,21
843,783	-89,6
843,959	-62,98
844,134	-71,17
844,31	-48,64
844,486	-32,26
844,662	6,66
844,838	12,8
845,013	-9,73
845,189	29,18
845,365	70,14
845,541	-42,5
845,716	-46,59
845,892	31,23
846,068	43,52
846,244	-65,02
846,419	-38,4
846,595	-83,45
846,77	-13,82
846,946	10,75
847,122	57,86
847,297	0,51
847,473	74,24
847,648	-65,02
847,824	-24,06
847,999	14,85
848,175	14,85
848,35	-24,06
848,526	-7,68
848,701	0,51
848,876	-13,82
849,052	-58,88
849,227	-5,63
849,403	20,99
849,578	25,09
849,753	12,8
849,929	-11,78
850,104	-50,69
850,279	-56,83
850,454	-1,54
850,63	55,81
850,805	-36,35
850,98	-5,63
851,155	-32,26
851,33	-52,74
851,505	-46,59
851,681	80,38
851,856	-19,97
852,031	16,9
852,206	-73,21
852,381	-44,54
852,556	0,51
852,731	-44,54
852,906	-24,06
853,081	-11,78
853,256	92,67
853,431	-50,69
853,606	-73,21
853,781	-7,68
853,956	-52,74
854,131	12,8
854,305	16,9
854,48	-7,68
854,655	-30,21
854,83	-15,87
855,005	8,7
855,18	-3,58
855,354	66,05
855,529	-36,35
855,704	-34,3
855,879	-17,92
856,053	-46,59
856,228	-93,69
856,403	-22,02
856,577	43,52
856,752	-32,26
856,926	16,9
857,101	-19,97
857,276	-22,02
857,45	-19,97
857,625	6,66
857,799	-89,6
857,974	14,85
858,148	-48,64
858,323	-48,64
858,497	-40,45
858,672	43,52
858,846	-24,06
859,02	49,66
859,195	6,66
859,369	-44,54
859,543	72,19
859,718	18,94
859,892	-11,78
860,066	-56,83
860,241	31,23
860,415	57,86
860,589	-30,21
860,763	8,7
860,938	-36,35
861,112	-24,06
861,286	-99,84
861,46	33,28
861,634	-7,68
861,808	-5,63
861,982	-81,41
862,157	18,94
862,331	4,61
862,505	-26,11
862,679	-5,63
862,853	-19,97
863,027	2,56
863,201	12,8
863,375	-52,74
863,549	16,9
863,722	-22,02
863,896	-7,68
864,07	76,29
864,244	-22,02
864,418	-13,82
864,592	-7,68
864,766	41,47
864,939	-15,87
865,113	31,23
865,287	0,51
865,461	-46,59
865,634	70,14
865,808	16,9
865,982	-15,87
866,156	6,66
866,329	-48,64
866,503	-19,97
866,676	-5,63
866,85	-85,5
867,024	-60,93
867,197	-5,63
867,371	4,61
867,544	-65,02
867,718	39,42
867,891	4,61
868,065	-114,17
868,238	31,23
868,412	-65,02
868,585	-32,26
868,759	-65,02
868,932	-62,98
869,105	25,09
869,279	-48,64
869,452	27,14
869,625	14,85
869,799	18,94
869,972	20,99
870,145	33,28
870,319	-19,97
870,492	12,8
870,665	-54,78
870,838	0,51
871,011	2,56
871,185	4,61
871,358	-15,87
871,531	-15,87
871,704	-22,02
871,877	-15,87
872,05	41,47
872,223	76,29
872,396	4,61
872,569	-11,78
872,742	-101,89
872,915	-5,63
873,088	-13,82
873,261	-7,68
873,434	-81,41
873,607	16,9
873,78	-1,54
873,953	-42,5
874,126	61,95
874,299	-32,26
874,471	-48,64
874,644	-5,63
874,817	-95,74
874,99	16,9
875,163	-17,92
875,335	-36,35
875,508	-9,73
875,681	72,19
875,853	-40,45
876,026	-46,59
876,199	55,81
876,371	-7,68
876,544	-19,97
876,717	33,28
876,889	-3,58
877,062	49,66
877,234	-67,07
877,407	-22,02
877,579	-34,3
877,752	-5,63
877,924	-32,26
878,097	35,33
878,269	-65,02
878,442	-32,26
878,614	-24,06
878,786	31,23
878,959	-65,02
879,131	-24,06
879,303	-40,45
879,476	-48,64
879,648	-26,11
879,82	-17,92
879,993	-48,64
880,165	-44,54
880,337	-44,54
880,509	-13,82
880,681	-71,17
880,854	-24,06
881,026	41,47
881,198	12,8
881,37	-56,83
881,542	33,28
881,714	-60,93
881,886	-40,45
882,058	-56,83
882,23	16,9
882,402	76,29
882,574	18,94
882,746	-38,4
882,918	-67,07
883,09	10,75
883,262	-44,54
883,434	-15,87
883,606	-28,16
883,778	-15,87
883,95	-22,02
884,122	0,51
884,293	25,09
884,465	-5,63
884,637	-44,54
884,809	-32,26
884,98	4,61
885,152	66,05
885,324	-7,68
885,496	37,38
885,667	-34,3
885,839	-54,78
886,011	18,94
886,182	-34,3
886,354	-105,98
886,525	12,8
886,697	0,51
886,869	-38,4
887,04	-40,45
887,212	51,71
887,383	-24,06
887,555	2,56
887,726	-13,82
887,897	16,9
888,069	-19,97
888,24	0,51
888,412	-38,4
888,583	-15,87
888,754	-118,27
888,926	-34,3
889,097	8,7
889,268	-56,83
889,44	-7,68
889,611	-54,78
889,782	-24,06
889,953	-89,6
890,125	61,95
890,296	-71,17
890,467	0,51
890,638	-79,36
890,809	6,66
890,98	16,9
891,151	-34,3
891,323	-56,83
891,494	-24,06
891,665	6,66
891,836	-11,78
892,007	10,75
892,178	-28,16
892,349	-32,26
892,52	-30,21
892,691	10,75
892,862	-24,06
893,032	-93,69
893,203	-38,4
893,374	-52,74
893,545	-65,02
893,716	-46,59
893,887	4,61
894,057	-54,78
894,228	-5,63
894,399	-65,02
894,57	51,71
894,74	14,85
894,911	2,56
895,082	-32,26
895,253	-40,45
895,423	23,04
895,594	-83,45
895,764	16,9
895,935	-17,92
896,106	-62,98
896,276	14,85
896,447	-5,63
896,617	10,75
896,788	-36,35
896,958	-26,11
897,129	-67,07
897,299	-7,68
897,47	41,47
897,64	33,28
897,81	-44,54
897,981	18,94
898,151	-56,83
898,322	-26,11
898,492	61,95
898,662	33,28
898,832	-38,4
899,003	-28,16
899,173	8,7
899,343	25,09
899,513	-60,93
