Data from hydrogene_USB4F104151__1__09-04-09-810.txt Node

Date: Wed Apr 15 09:04:09 EDT 2026
User: LaboPhy
Spectrometer: USB4F10415
Trigger mode: 4
Integration Time (sec): 1,000000E-1
Scans to average: 1
Electric dark correction enabled: true
Nonlinearity correction enabled: false
Boxcar width: 0
XAxis mode: Wavelengths
Number of Pixels in Spectrum: 3648
>>>>>Begin Spectral Data<<<<<
178,204	-312,49
178,424	-312,49
178,644	-312,49
178,864	-292,01
179,084	-296,1
179,304	-1,19
179,524	4,95
179,744	-7,34
179,964	70,48
180,184	-1,19
180,404	19,29
180,624	-36,01
180,844	-38,06
181,064	-38,06
181,283	39,76
181,503	-5,29
181,723	-7,34
181,943	-87,21
182,163	121,68
182,383	2,9
182,602	113,49
182,822	97,11
183,042	27,48
183,262	-50,35
183,482	-23,72
183,701	47,96
183,921	23,38
184,141	-83,11
184,361	86,87
184,58	82,77
184,8	72,53
185,02	-66,73
185,239	101,2
185,459	113,49
185,679	-7,34
185,898	-74,92
186,118	41,81
186,338	86,87
186,557	70,48
186,777	-33,96
186,997	97,11
187,216	39,76
187,436	117,59
187,655	152,4
187,875	111,44
188,095	66,39
188,314	97,11
188,534	86,87
188,753	72,53
188,973	121,68
189,192	93,01
189,412	21,33
189,631	-7,34
189,851	64,34
190,07	115,54
190,29	-9,39
190,509	-52,39
190,729	31,57
190,948	142,16
191,168	244,56
191,387	-7,34
191,607	-23,72
191,826	93,01
192,045	41,81
192,265	45,91
192,484	111,44
192,704	7
192,923	-48,3
193,142	203,6
193,362	129,88
193,581	86,87
193,8	68,44
194,02	82,77
194,239	56,15
194,458	152,4
194,678	15,19
194,897	39,76
195,116	29,52
195,335	105,3
195,555	70,48
195,774	7
195,993	117,59
196,212	97,11
196,432	-38,06
196,651	-1,19
196,87	-38,06
197,089	183,12
197,308	29,52
197,528	19,29
197,747	2,9
197,966	76,63
198,185	203,6
198,404	-3,24
198,623	107,35
198,842	41,81
199,062	113,49
199,281	154,45
199,5	9,05
199,719	60,24
199,938	33,62
200,157	129,88
200,376	64,34
200,595	86,87
200,814	70,48
201,033	41,81
201,252	154,45
201,471	80,72
201,69	45,91
201,909	99,16
202,128	174,93
202,347	111,44
202,566	105,3
202,785	-21,67
203,004	-42,15
203,223	262,99
203,442	56,15
203,661	-74,92
203,879	-21,67
204,098	111,44
204,317	-7,34
204,536	80,72
204,755	76,63
204,974	60,24
205,193	27,48
205,411	217,94
205,63	31,57
205,849	80,72
206,068	2,9
206,287	-9,39
206,505	119,64
206,724	-13,48
206,943	68,44
207,162	99,16
207,381	105,3
207,599	-21,67
207,818	60,24
208,037	52,05
208,255	70,48
208,474	148,31
208,693	121,68
208,911	78,68
209,13	9,05
209,349	62,29
209,567	76,63
209,786	78,68
210,005	121,68
210,223	62,29
210,442	-25,77
210,661	-3,24
210,879	64,34
211,098	84,82
211,316	70,48
211,535	119,64
211,753	78,68
211,972	-5,29
212,191	-50,35
212,409	-52,39
212,628	131,92
212,846	-13,48
213,065	99,16
213,283	123,73
213,502	13,14
213,72	133,97
213,938	23,38
214,157	4,95
214,375	82,77
214,594	45,91
214,812	133,97
215,031	25,43
215,249	-29,87
215,467	56,15
215,686	-5,29
215,904	88,92
216,122	62,29
216,341	52,05
216,559	84,82
216,778	64,34
216,996	31,57
217,214	39,76
217,432	39,76
217,651	-25,77
217,869	13,14
218,087	-25,77
218,306	84,82
218,524	54,1
218,742	56,15
218,96	80,72
219,179	31,57
219,397	11,09
219,615	265,04
219,833	121,68
220,051	-13,48
220,27	148,31
220,488	72,53
220,706	56,15
220,924	-29,87
221,142	29,52
221,36	56,15
221,578	43,86
221,796	-17,58
222,015	17,24
222,233	-5,29
222,451	117,59
222,669	-13,48
222,887	142,16
223,105	11,09
223,323	13,14
223,541	-25,77
223,759	47,96
223,977	27,48
224,195	156,5
224,413	47,96
224,631	23,38
224,849	35,67
225,067	125,78
225,285	47,96
225,503	52,05
225,721	-81,07
225,939	37,72
226,157	80,72
226,375	234,32
226,592	-21,67
226,81	56,15
227,028	15,19
227,246	76,63
227,464	60,24
227,682	125,78
227,9	148,31
228,117	4,95
228,335	56,15
228,553	7
228,771	35,67
228,989	80,72
229,206	43,86
229,424	7
229,642	-1,19
229,86	-7,34
230,077	101,2
230,295	54,1
230,513	111,44
230,731	72,53
230,948	138,07
231,166	160,59
231,384	35,67
231,601	17,24
231,819	168,79
232,037	35,67
232,254	-36,01
232,472	66,39
232,689	-1,19
232,907	123,73
233,125	56,15
233,342	-52,39
233,56	-1,19
233,777	54,1
233,995	70,48
234,213	179,03
234,43	15,19
234,648	62,29
234,865	13,14
235,083	90,96
235,3	52,05
235,518	129,88
235,735	125,78
235,953	47,96
236,17	47,96
236,388	86,87
236,605	54,1
236,822	66,39
237,04	74,58
237,257	9,05
237,475	-21,67
237,692	39,76
237,909	39,76
238,127	-17,58
238,344	80,72
238,562	93,01
238,779	-36,01
238,996	-60,59
239,214	-52,39
239,431	103,25
239,648	13,14
239,865	58,2
240,083	50
240,3	-23,72
240,517	78,68
240,735	21,33
240,952	125,78
241,169	76,63
241,386	35,67
241,603	27,48
241,821	-25,77
242,038	125,78
242,255	113,49
242,472	-31,91
242,689	68,44
242,907	105,3
243,124	11,09
243,341	31,57
243,558	-31,91
243,775	-33,96
243,992	-36,01
244,209	21,33
244,426	146,26
244,643	78,68
244,86	23,38
245,078	64,34
245,295	129,88
245,512	45,91
245,729	35,67
245,946	21,33
246,163	13,14
246,38	19,29
246,597	58,2
246,814	33,62
247,031	21,33
247,248	29,52
247,464	54,1
247,681	39,76
247,898	125,78
248,115	7
248,332	-11,43
248,549	103,25
248,766	129,88
248,983	72,53
249,2	121,68
249,417	152,4
249,633	-46,25
249,85	-1,19
250,067	-9,39
250,284	90,96
250,501	29,52
250,717	74,58
250,934	-52,39
251,151	62,29
251,368	19,29
251,585	82,77
251,801	76,63
252,018	-19,63
252,235	93,01
252,451	-21,67
252,668	17,24
252,885	107,35
253,102	15,19
253,318	23,38
253,535	-42,15
253,752	-31,91
253,968	-27,82
254,185	-50,35
254,401	62,29
254,618	80,72
254,835	7
255,051	119,64
255,268	45,91
255,484	72,53
255,701	47,96
255,917	82,77
256,134	-3,24
256,351	-3,24
256,567	-44,2
256,784	-17,58
257	-115,88
257,217	62,29
257,433	93,01
257,65	37,72
257,866	160,59
258,082	-52,39
258,299	-62,63
258,515	78,68
258,732	-42,15
258,948	-17,58
259,165	23,38
259,381	-33,96
259,597	74,58
259,814	86,87
260,03	-17,58
260,246	33,62
260,463	136,02
260,679	54,1
260,895	72,53
261,112	56,15
261,328	17,24
261,544	33,62
261,761	193,36
261,977	13,14
262,193	-11,43
262,409	52,05
262,626	88,92
262,842	15,19
263,058	-1,19
263,274	93,01
263,49	-38,06
263,707	80,72
263,923	84,82
264,139	-54,44
264,355	15,19
264,571	129,88
264,787	64,34
265,004	64,34
265,22	-33,96
265,436	21,33
265,652	50
265,868	17,24
266,084	-1,19
266,3	-9,39
266,516	-17,58
266,732	2,9
266,948	50
267,164	9,05
267,38	111,44
267,596	19,29
267,812	133,97
268,028	13,14
268,244	9,05
268,46	47,96
268,676	93,01
268,892	21,33
269,108	21,33
269,324	-5,29
269,54	-50,35
269,756	70,48
269,972	-58,54
270,188	-13,48
270,403	-27,82
270,619	-1,19
270,835	47,96
271,051	103,25
271,267	56,15
271,483	60,24
271,698	39,76
271,914	35,67
272,13	56,15
272,346	62,29
272,562	105,3
272,777	82,77
272,993	-5,29
273,209	-25,77
273,425	97,11
273,64	7
273,856	60,24
274,072	4,95
274,287	84,82
274,503	56,15
274,719	43,86
274,934	25,43
275,15	-15,53
275,366	107,35
275,581	13,14
275,797	11,09
276,012	109,4
276,228	-46,25
276,444	88,92
276,659	109,4
276,875	13,14
277,09	-36,01
277,306	-25,77
277,521	72,53
277,737	78,68
277,952	84,82
278,168	23,38
278,383	101,2
278,599	17,24
278,814	39,76
279,03	45,91
279,245	68,44
279,461	-5,29
279,676	105,3
279,892	-87,21
280,107	-17,58
280,322	-21,67
280,538	60,24
280,753	19,29
280,969	0,85
281,184	-44,2
281,399	109,4
281,615	80,72
281,83	70,48
282,045	-33,96
282,26	-5,29
282,476	-5,29
282,691	105,3
282,906	31,57
283,122	62,29
283,337	-60,59
283,552	88,92
283,767	-68,78
283,983	119,64
284,198	43,86
284,413	97,11
284,628	68,44
284,843	4,95
285,058	80,72
285,274	68,44
285,489	-64,68
285,704	97,11
285,919	-3,24
286,134	-13,48
286,349	56,15
286,564	-27,82
286,779	152,4
286,995	58,2
287,21	-95,4
287,425	23,38
287,64	70,48
287,855	56,15
288,07	-9,39
288,285	93,01
288,5	95,06
288,715	41,81
288,93	76,63
289,145	47,96
289,36	56,15
289,575	37,72
289,79	93,01
290,004	-33,96
290,219	23,38
290,434	-11,43
290,649	-25,77
290,864	-27,82
291,079	68,44
291,294	70,48
291,509	170,83
291,724	-1,19
291,938	-11,43
292,153	37,72
292,368	29,52
292,583	-11,43
292,798	52,05
293,012	39,76
293,227	39,76
293,442	-11,43
293,657	123,73
293,871	150,36
294,086	17,24
294,301	52,05
294,516	154,45
294,73	37,72
294,945	-52,39
295,16	125,78
295,374	90,96
295,589	111,44
295,804	45,91
296,018	-21,67
296,233	105,3
296,447	37,72
296,662	-36,01
296,877	99,16
297,091	19,29
297,306	-27,82
297,52	9,05
297,735	43,86
297,949	125,78
298,164	107,35
298,378	39,76
298,593	-23,72
298,807	60,24
299,022	7
299,236	64,34
299,451	-1,19
299,665	72,53
299,88	56,15
300,094	39,76
300,309	70,48
300,523	-5,29
300,737	25,43
300,952	43,86
301,166	9,05
301,381	-31,91
301,595	13,14
301,809	33,62
302,024	-9,39
302,238	-99,5
302,452	60,24
302,667	45,91
302,881	115,54
303,095	80,72
303,309	13,14
303,524	31,57
303,738	121,68
303,952	50
304,166	84,82
304,381	-11,43
304,595	80,72
304,809	23,38
305,023	-33,96
305,237	-7,34
305,452	7
305,666	-9,39
305,88	11,09
306,094	174,93
306,308	56,15
306,522	64,34
306,736	66,39
306,95	74,58
307,164	15,19
307,379	37,72
307,593	80,72
307,807	97,11
308,021	80,72
308,235	133,97
308,449	-54,44
308,663	-17,58
308,877	314,19
309,091	125,78
309,305	31,57
309,519	-103,59
309,733	97,11
309,947	-68,78
310,161	31,57
310,374	76,63
310,588	113,49
310,802	-13,48
311,016	15,19
311,23	111,44
311,444	-44,2
311,658	15,19
311,872	115,54
312,085	228,18
312,299	99,16
312,513	80,72
312,727	64,34
312,941	-44,2
313,154	78,68
313,368	35,67
313,582	39,76
313,796	78,68
314,009	56,15
314,223	117,59
314,437	31,57
314,651	62,29
314,864	47,96
315,078	-9,39
315,292	-19,63
315,505	35,67
315,719	166,74
315,933	25,43
316,146	0,85
316,36	35,67
316,573	113,49
316,787	76,63
317,001	95,06
317,214	-13,48
317,428	70,48
317,641	4,95
317,855	31,57
318,068	93,01
318,282	72,53
318,495	146,26
318,709	-9,39
318,922	66,39
319,136	80,72
319,349	82,77
319,563	-44,2
319,776	54,1
319,99	21,33
320,203	-9,39
320,417	31,57
320,63	103,25
320,843	181,07
321,057	105,3
321,27	113,49
321,483	90,96
321,697	205,65
321,91	29,52
322,124	66,39
322,337	9,05
322,55	23,38
322,763	86,87
322,977	35,67
323,19	-44,2
323,403	88,92
323,617	121,68
323,83	56,15
324,043	29,52
324,256	43,86
324,469	-5,29
324,683	41,81
324,896	78,68
325,109	7
325,322	15,19
325,535	105,3
325,748	97,11
325,962	2,9
326,175	9,05
326,388	66,39
326,601	125,78
326,814	58,2
327,027	31,57
327,24	17,24
327,453	-50,35
327,666	60,24
327,879	105,3
328,092	90,96
328,305	109,4
328,518	4,95
328,731	-11,43
328,944	97,11
329,157	86,87
329,37	4,95
329,583	129,88
329,796	45,91
330,009	-33,96
330,222	64,34
330,435	121,68
330,648	21,33
330,861	33,62
331,073	-9,39
331,286	115,54
331,499	68,44
331,712	-42,15
331,925	95,06
332,138	52,05
332,35	45,91
332,563	56,15
332,776	168,79
332,989	23,38
333,202	-58,54
333,414	11,09
333,627	43,86
333,84	15,19
334,053	17,24
334,265	27,48
334,478	-44,2
334,691	-19,63
334,903	39,76
335,116	13,14
335,329	62,29
335,541	86,87
335,754	170,83
335,966	13,14
336,179	80,72
336,392	15,19
336,604	56,15
336,817	129,88
337,029	101,2
337,242	23,38
337,454	183,12
337,667	7
337,88	150,36
338,092	88,92
338,305	154,45
338,517	11,09
338,729	43,86
338,942	152,4
339,154	39,76
339,367	19,29
339,579	172,88
339,792	78,68
340,004	125,78
340,217	-15,53
340,429	103,25
340,641	45,91
340,854	31,57
341,066	27,48
341,278	119,64
341,491	125,78
341,703	-38,06
341,915	-36,01
342,128	148,31
342,34	31,57
342,552	27,48
342,764	86,87
342,977	121,68
343,189	56,15
343,401	80,72
343,613	-25,77
343,826	70,48
344,038	-29,87
344,25	43,86
344,462	-42,15
344,674	74,58
344,886	-1,19
345,099	72,53
345,311	39,76
345,523	88,92
345,735	0,85
345,947	121,68
346,159	97,11
346,371	82,77
346,583	4,95
346,795	191,31
347,007	93,01
347,219	138,07
347,431	62,29
347,643	150,36
347,855	80,72
348,067	86,87
348,279	-25,77
348,491	68,44
348,703	66,39
348,915	105,3
349,127	52,05
349,339	105,3
349,551	80,72
349,763	125,78
349,975	86,87
350,187	74,58
350,399	236,37
350,61	113,49
350,822	56,15
351,034	86,87
351,246	138,07
351,458	84,82
351,669	129,88
351,881	193,36
352,093	127,83
352,305	105,3
352,517	152,4
352,728	228,18
352,94	47,96
353,152	138,07
353,363	68,44
353,575	82,77
353,787	174,93
353,999	84,82
354,21	133,97
354,422	17,24
354,633	52,05
354,845	82,77
355,057	80,72
355,268	64,34
355,48	193,36
355,692	-40,11
355,903	74,58
356,115	39,76
356,326	31,57
356,538	140,12
356,749	56,15
356,961	150,36
357,172	86,87
357,384	17,24
357,595	211,79
357,807	56,15
358,018	66,39
358,23	105,3
358,441	244,56
358,653	43,86
358,864	23,38
359,075	21,33
359,287	97,11
359,498	62,29
359,709	154,45
359,921	158,55
360,132	50
360,344	58,2
360,555	35,67
360,766	103,25
360,977	29,52
361,189	109,4
361,4	72,53
361,611	168,79
361,823	154,45
362,034	105,3
362,245	19,29
362,456	84,82
362,667	123,73
362,879	31,57
363,09	70,48
363,301	101,2
363,512	162,64
363,723	80,72
363,935	41,81
364,146	88,92
364,357	37,72
364,568	86,87
364,779	-17,58
364,99	119,64
365,201	74,58
365,412	170,83
365,623	64,34
365,834	133,97
366,045	97,11
366,256	129,88
366,467	95,06
366,678	7
366,889	113,49
367,1	97,11
367,311	176,98
367,522	105,3
367,733	109,4
367,944	146,26
368,155	95,06
368,366	138,07
368,577	215,89
368,788	136,02
368,999	19,29
369,209	99,16
369,42	224,08
369,631	189,27
369,842	105,3
370,053	52,05
370,264	84,82
370,474	66,39
370,685	-27,82
370,896	78,68
371,107	97,11
371,317	47,96
371,528	76,63
371,739	187,22
371,95	123,73
372,16	129,88
372,371	-29,87
372,582	56,15
372,792	105,3
373,003	90,96
373,214	125,78
373,424	162,64
373,635	68,44
373,846	217,94
374,056	41,81
374,267	95,06
374,477	39,76
374,688	37,72
374,898	127,83
375,109	158,55
375,319	246,61
375,53	181,07
375,74	191,31
375,951	47,96
376,161	205,65
376,372	121,68
376,582	95,06
376,793	97,11
377,003	23,38
377,214	93,01
377,424	152,4
377,635	160,59
377,845	115,54
378,055	226,13
378,266	52,05
378,476	13,14
378,686	129,88
378,897	125,78
379,107	195,41
379,317	168,79
379,528	136,02
379,738	185,17
379,948	23,38
380,158	228,18
380,369	131,92
380,579	133,97
380,789	125,78
380,999	97,11
381,21	125,78
381,42	260,95
381,63	76,63
381,84	252,75
382,05	168,79
382,261	174,93
382,471	191,31
382,681	78,68
382,891	183,12
383,101	170,83
383,311	72,53
383,521	105,3
383,731	183,12
383,941	160,59
384,151	58,2
384,361	125,78
384,571	150,36
384,781	193,36
384,991	267,09
385,201	254,8
385,411	170,83
385,621	142,16
385,831	142,16
386,041	121,68
386,251	131,92
386,461	205,65
386,671	115,54
386,881	148,31
387,091	125,78
387,301	127,83
387,511	121,68
387,72	168,79
387,93	195,41
388,14	115,54
388,35	162,64
388,56	152,4
388,769	195,41
388,979	136,02
389,189	136,02
389,399	119,64
389,609	176,98
389,818	133,97
390,028	86,87
390,238	168,79
390,447	154,45
390,657	119,64
390,867	97,11
391,076	19,29
391,286	86,87
391,496	70,48
391,705	197,46
391,915	234,32
392,125	168,79
392,334	27,48
392,544	179,03
392,753	121,68
392,963	-44,2
393,172	119,64
393,382	70,48
393,591	207,7
393,801	107,35
394,01	244,56
394,22	176,98
394,429	129,88
394,639	39,76
394,848	129,88
395,058	62,29
395,267	76,63
395,477	160,59
395,686	146,26
395,895	297,81
396,105	238,42
396,314	158,55
396,524	179,03
396,733	54,1
396,942	232,27
397,152	160,59
397,361	193,36
397,57	131,92
397,78	146,26
397,989	228,18
398,198	336,72
398,407	119,64
398,617	41,81
398,826	111,44
399,035	68,44
399,244	222,03
399,453	142,16
399,663	115,54
399,872	152,4
400,081	88,92
400,29	193,36
400,499	64,34
400,708	158,55
400,917	95,06
401,127	150,36
401,336	111,44
401,545	293,71
401,754	277,33
401,963	170,83
402,172	66,39
402,381	72,53
402,59	125,78
402,799	121,68
403,008	203,6
403,217	88,92
403,426	224,08
403,635	19,29
403,844	70,48
404,053	95,06
404,262	66,39
404,471	258,9
404,68	146,26
404,888	113,49
405,097	62,29
405,306	156,5
405,515	228,18
405,724	146,26
405,933	179,03
406,142	148,31
406,35	203,6
406,559	158,55
406,768	119,64
406,977	269,14
407,185	101,2
407,394	158,55
407,603	7
407,812	158,55
408,02	170,83
408,229	142,16
408,438	144,21
408,646	80,72
408,855	131,92
409,064	195,41
409,272	170,83
409,481	205,65
409,69	164,69
409,898	174,93
410,107	250,71
410,315	293,71
410,524	262,99
410,733	250,71
410,941	250,71
411,15	297,81
411,358	234,32
411,567	209,75
411,775	117,59
411,984	138,07
412,192	150,36
412,401	41,81
412,609	191,31
412,818	203,6
413,026	72,53
413,234	193,36
413,443	113,49
413,651	113,49
413,86	111,44
414,068	203,6
414,276	256,85
414,485	78,68
414,693	244,56
414,901	203,6
415,11	123,73
415,318	129,88
415,526	123,73
415,734	174,93
415,943	86,87
416,151	105,3
416,359	84,82
416,567	54,1
416,776	154,45
416,984	207,7
417,192	279,38
417,4	162,64
417,608	105,3
417,817	68,44
418,025	142,16
418,233	199,51
418,441	127,83
418,649	64,34
418,857	113,49
419,065	234,32
419,273	101,2
419,481	133,97
419,689	181,07
419,897	41,81
420,105	35,67
420,313	185,17
420,521	72,53
420,729	222,03
420,937	60,24
421,145	80,72
421,353	185,17
421,561	158,55
421,769	162,64
421,977	101,2
422,185	121,68
422,393	43,86
422,601	230,23
422,809	127,83
423,017	138,07
423,224	146,26
423,432	64,34
423,64	111,44
423,848	129,88
424,056	107,35
424,263	138,07
424,471	41,81
424,679	86,87
424,887	35,67
425,094	170,83
425,302	78,68
425,51	72,53
425,718	136,02
425,925	56,15
426,133	19,29
426,341	181,07
426,548	129,88
426,756	64,34
426,964	97,11
427,171	41,81
427,379	95,06
427,586	113,49
427,794	11,09
428,001	119,64
428,209	121,68
428,417	168,79
428,624	111,44
428,832	123,73
429,039	121,68
429,247	72,53
429,454	154,45
429,662	191,31
429,869	115,54
430,076	164,69
430,284	148,31
430,491	154,45
430,699	211,79
430,906	195,41
431,114	72,53
431,321	154,45
431,528	99,16
431,736	113,49
431,943	148,31
432,15	158,55
432,358	203,6
432,565	369,49
432,772	224,08
432,979	484,17
433,187	408,4
433,394	781,13
433,601	701,26
433,808	787,27
434,016	899,91
434,223	772,94
434,43	852,81
434,637	797,51
434,844	711,5
435,052	621,39
435,259	512,85
435,466	375,63
435,673	330,58
435,88	256,85
436,087	230,23
436,294	275,28
436,501	168,79
436,708	146,26
436,915	88,92
437,122	185,17
437,329	35,67
437,537	82,77
437,743	152,4
437,95	150,36
438,157	142,16
438,364	64,34
438,571	123,73
438,778	127,83
438,985	154,45
439,192	138,07
439,399	74,58
439,606	97,11
439,813	136,02
440,02	179,03
440,227	201,55
440,433	152,4
440,64	88,92
440,847	19,29
441,054	105,3
441,261	248,66
441,467	154,45
441,674	47,96
441,881	197,46
442,088	68,44
442,294	203,6
442,501	129,88
442,708	117,59
442,914	62,29
443,121	111,44
443,328	189,27
443,534	125,78
443,741	64,34
443,948	58,2
444,154	115,54
444,361	279,38
444,568	158,55
444,774	56,15
444,981	93,01
445,187	129,88
445,394	129,88
445,6	76,63
445,807	103,25
446,013	166,74
446,22	7
446,426	111,44
446,633	191,31
446,839	271,19
447,046	64,34
447,252	193,36
447,459	82,77
447,665	7
447,871	150,36
448,078	148,31
448,284	95,06
448,491	133,97
448,697	144,21
448,903	140,12
449,11	121,68
449,316	129,88
449,522	164,69
449,728	129,88
449,935	213,84
450,141	111,44
450,347	187,22
450,553	150,36
450,76	72,53
450,966	158,55
451,172	125,78
451,378	86,87
451,584	68,44
451,791	195,41
451,997	168,79
452,203	29,52
452,409	127,83
452,615	43,86
452,821	129,88
453,027	-3,24
453,233	273,23
453,44	136,02
453,646	72,53
453,852	138,07
454,058	56,15
454,264	162,64
454,47	105,3
454,676	62,29
454,882	138,07
455,088	105,3
455,294	86,87
455,5	158,55
455,705	154,45
455,911	93,01
456,117	119,64
456,323	176,98
456,529	160,59
456,735	133,97
456,941	236,37
457,147	213,84
457,352	54,1
457,558	95,06
457,764	109,4
457,97	50
458,176	146,26
458,381	109,4
458,587	244,56
458,793	158,55
458,999	39,76
459,204	125,78
459,41	103,25
459,616	17,24
459,821	111,44
460,027	113,49
460,233	129,88
460,438	148,31
460,644	109,4
460,85	103,25
461,055	168,79
461,261	146,26
461,466	78,68
461,672	125,78
461,878	54,1
462,083	174,93
462,289	17,24
462,494	101,2
462,7	146,26
462,905	115,54
463,111	195,41
463,316	158,55
463,522	211,79
463,727	64,34
463,932	90,96
464,138	142,16
464,343	240,47
464,549	138,07
464,754	170,83
464,959	113,49
465,165	80,72
465,37	52,05
465,575	90,96
465,781	129,88
465,986	101,2
466,191	70,48
466,397	164,69
466,602	191,31
466,807	191,31
467,012	172,88
467,218	111,44
467,423	88,92
467,628	11,09
467,833	43,86
468,038	56,15
468,244	113,49
468,449	7
468,654	93,01
468,859	39,76
469,064	152,4
469,269	138,07
469,474	82,77
469,679	156,5
469,885	209,75
470,09	121,68
470,295	133,97
470,5	78,68
470,705	172,88
470,91	39,76
471,115	193,36
471,32	127,83
471,525	228,18
471,73	244,56
471,935	88,92
472,139	84,82
472,344	101,2
472,549	131,92
472,754	179,03
472,959	195,41
473,164	99,16
473,369	133,97
473,574	273,23
473,778	64,34
473,983	148,31
474,188	93,01
474,393	72,53
474,598	97,11
474,802	133,97
475,007	105,3
475,212	226,13
475,417	156,5
475,621	185,17
475,826	111,44
476,031	33,62
476,235	127,83
476,44	47,96
476,645	129,88
476,849	97,11
477,054	50
477,259	125,78
477,463	113,49
477,668	287,57
477,872	201,55
478,077	166,74
478,282	117,59
478,486	152,4
478,691	138,07
478,895	148,31
479,1	154,45
479,304	183,12
479,509	142,16
479,713	256,85
479,918	195,41
480,122	146,26
480,326	162,64
480,531	125,78
480,735	158,55
480,94	105,3
481,144	203,6
481,348	146,26
481,553	199,51
481,757	64,34
481,961	138,07
482,166	88,92
482,37	103,25
482,574	146,26
482,778	121,68
482,983	181,07
483,187	142,16
483,391	93,01
483,595	164,69
483,8	250,71
484,004	568,14
484,208	760,65
484,412	1219,39
484,616	1844,03
484,821	2659,12
485,025	3463,97
485,229	4832,01
485,433	5980,92
485,637	7111,4
485,841	8264,41
486,045	9071,31
486,249	9734,85
486,453	9376,45
486,657	8825,55
486,861	7873,25
487,065	6818,54
487,269	5880,57
487,473	4461,33
487,677	3846,94
487,881	3240,74
488,085	2405,17
488,289	1995,57
488,493	1379,14
488,697	1246,02
488,901	869,19
489,105	617,29
489,309	332,62
489,512	293,71
489,716	240,47
489,92	146,26
490,124	172,88
490,328	262,99
490,531	222,03
490,735	246,61
490,939	88,92
491,143	146,26
491,346	203,6
491,55	86,87
491,754	160,59
491,958	125,78
492,161	211,79
492,365	203,6
492,569	172,88
492,772	217,94
492,976	301,9
493,18	166,74
493,383	252,75
493,587	168,79
493,79	203,6
493,994	52,05
494,197	129,88
494,401	154,45
494,605	84,82
494,808	97,11
495,012	179,03
495,215	189,27
495,419	219,99
495,622	93,01
495,825	150,36
496,029	111,44
496,232	176,98
496,436	195,41
496,639	197,46
496,843	152,4
497,046	66,39
497,249	271,19
497,453	105,3
497,656	52,05
497,859	119,64
498,063	158,55
498,266	181,07
498,469	70,48
498,673	111,44
498,876	88,92
499,079	54,1
499,282	72,53
499,485	285,52
499,689	60,24
499,892	248,66
500,095	-5,29
500,298	123,73
500,501	82,77
500,705	88,92
500,908	39,76
501,111	72,53
501,314	193,36
501,517	170,83
501,72	144,21
501,923	150,36
502,126	93,01
502,329	183,12
502,532	185,17
502,735	279,38
502,938	201,55
503,141	111,44
503,344	39,76
503,547	195,41
503,75	31,57
503,953	68,44
504,156	82,77
504,359	138,07
504,562	166,74
504,765	74,58
504,968	129,88
505,17	125,78
505,373	146,26
505,576	224,08
505,779	111,44
505,982	103,25
506,185	146,26
506,387	29,52
506,59	131,92
506,793	62,29
506,996	97,11
507,198	146,26
507,401	244,56
507,604	195,41
507,807	93,01
508,009	109,4
508,212	201,55
508,415	121,68
508,617	56,15
508,82	43,86
509,022	95,06
509,225	115,54
509,428	60,24
509,63	39,76
509,833	56,15
510,035	228,18
510,238	111,44
510,44	50
510,643	111,44
510,845	166,74
511,048	158,55
511,25	39,76
511,453	176,98
511,655	179,03
511,858	219,99
512,06	193,36
512,262	88,92
512,465	101,2
512,667	121,68
512,87	127,83
513,072	181,07
513,274	187,22
513,477	7
513,679	107,35
513,881	58,2
514,084	80,72
514,286	80,72
514,488	62,29
514,69	-5,29
514,893	54,1
515,095	138,07
515,297	35,67
515,499	43,86
515,701	27,48
515,904	133,97
516,106	260,95
516,308	54,1
516,51	174,93
516,712	64,34
516,914	101,2
517,116	-9,39
517,318	117,59
517,52	97,11
517,722	88,92
517,925	52,05
518,127	99,16
518,329	176,98
518,531	70,48
518,733	142,16
518,935	138,07
519,136	113,49
519,338	-1,19
519,54	78,68
519,742	199,51
519,944	232,27
520,146	90,96
520,348	88,92
520,55	168,79
520,752	60,24
520,954	97,11
521,155	150,36
521,357	47,96
521,559	211,79
521,761	111,44
521,963	123,73
522,164	144,21
522,366	105,3
522,568	162,64
522,77	183,12
522,971	160,59
523,173	86,87
523,375	111,44
523,576	119,64
523,778	4,95
523,98	17,24
524,181	111,44
524,383	162,64
524,584	129,88
524,786	174,93
524,988	27,48
525,189	125,78
525,391	121,68
525,592	35,67
525,794	43,86
525,995	113,49
526,197	168,79
526,398	262,99
526,6	185,17
526,801	84,82
527,003	31,57
527,204	80,72
527,406	140,12
527,607	146,26
527,808	113,49
528,01	45,91
528,211	162,64
528,412	35,67
528,614	152,4
528,815	162,64
529,016	179,03
529,218	166,74
529,419	138,07
529,62	82,77
529,822	181,07
530,023	54,1
530,224	136,02
530,425	226,13
530,626	15,19
530,828	80,72
531,029	23,38
531,23	203,6
531,431	-52,39
531,632	62,29
531,833	-1,19
532,035	31,57
532,236	43,86
532,437	127,83
532,638	123,73
532,839	37,72
533,04	101,2
533,241	95,06
533,442	99,16
533,643	76,63
533,844	35,67
534,045	127,83
534,246	47,96
534,447	76,63
534,648	0,85
534,849	109,4
535,05	133,97
535,251	-48,3
535,451	115,54
535,652	19,29
535,853	80,72
536,054	76,63
536,255	72,53
536,456	115,54
536,657	15,19
536,857	113,49
537,058	33,62
537,259	41,81
537,46	111,44
537,66	107,35
537,861	105,3
538,062	97,11
538,263	7
538,463	68,44
538,664	58,2
538,865	78,68
539,065	121,68
539,266	113,49
539,466	0,85
539,667	162,64
539,868	29,52
540,068	70,48
540,269	195,41
540,469	123,73
540,67	209,75
540,87	219,99
541,071	9,05
541,271	140,12
541,472	146,26
541,672	58,2
541,873	133,97
542,073	45,91
542,274	88,92
542,474	129,88
542,675	123,73
542,875	80,72
543,075	-33,96
543,276	82,77
543,476	195,41
543,676	119,64
543,877	56,15
544,077	129,88
544,277	170,83
544,478	97,11
544,678	103,25
544,878	86,87
545,078	80,72
545,279	82,77
545,479	88,92
545,679	-50,35
545,879	19,29
546,079	129,88
546,28	-54,44
546,48	25,43
546,68	170,83
546,88	105,3
547,08	101,2
547,28	121,68
547,48	72,53
547,68	203,6
547,88	-1,19
548,081	103,25
548,281	-19,63
548,481	29,52
548,681	56,15
548,881	29,52
549,081	179,03
549,28	72,53
549,48	31,57
549,68	127,83
549,88	33,62
550,08	25,43
550,28	56,15
550,48	203,6
550,68	35,67
550,88	99,16
551,08	-9,39
551,279	219,99
551,479	11,09
551,679	105,3
551,879	13,14
552,079	129,88
552,278	105,3
552,478	144,21
552,678	64,34
552,878	142,16
553,077	-46,25
553,277	-27,82
553,477	105,3
553,676	183,12
553,876	60,24
554,076	125,78
554,275	29,52
554,475	37,72
554,674	121,68
554,874	58,2
555,074	-31,91
555,273	95,06
555,473	86,87
555,672	39,76
555,872	62,29
556,071	115,54
556,271	127,83
556,47	101,2
556,67	11,09
556,869	179,03
557,068	29,52
557,268	72,53
557,467	97,11
557,667	52,05
557,866	105,3
558,065	97,11
558,265	56,15
558,464	129,88
558,663	113,49
558,863	115,54
559,062	101,2
559,261	2,9
559,461	76,63
559,66	90,96
559,859	84,82
560,058	56,15
560,258	-42,15
560,457	82,77
560,656	250,71
560,855	-11,43
561,054	93,01
561,253	191,31
561,453	62,29
561,652	13,14
561,851	164,69
562,05	33,62
562,249	35,67
562,448	80,72
562,647	68,44
562,846	97,11
563,045	80,72
563,244	80,72
563,443	152,4
563,642	37,72
563,841	101,2
564,04	47,96
564,239	11,09
564,438	95,06
564,637	-48,3
564,836	99,16
565,035	99,16
565,234	64,34
565,432	146,26
565,631	117,59
565,83	125,78
566,029	127,83
566,228	78,68
566,427	187,22
566,625	0,85
566,824	78,68
567,023	74,58
567,222	131,92
567,42	105,3
567,619	52,05
567,818	74,58
568,016	260,95
568,215	193,36
568,414	230,23
568,612	162,64
568,811	162,64
569,01	129,88
569,208	97,11
569,407	269,14
569,605	213,84
569,804	144,21
570,002	217,94
570,201	142,16
570,4	252,75
570,598	146,26
570,797	168,79
570,995	138,07
571,193	174,93
571,392	146,26
571,59	109,4
571,789	236,37
571,987	146,26
572,186	238,42
572,384	95,06
572,582	172,88
572,781	258,9
572,979	109,4
573,177	142,16
573,376	228,18
573,574	258,9
573,772	209,75
573,971	150,36
574,169	148,31
574,367	148,31
574,565	213,84
574,763	131,92
574,962	234,32
575,16	117,59
575,358	64,34
575,556	228,18
575,754	111,44
575,952	119,64
576,151	217,94
576,349	232,27
576,547	117,59
576,745	88,92
576,943	269,14
577,141	215,89
577,339	131,92
577,537	226,13
577,735	330,58
577,933	205,65
578,131	269,14
578,329	375,63
578,527	199,51
578,725	248,66
578,923	123,73
579,121	283,47
579,319	113,49
579,516	244,56
579,714	389,97
579,912	318,29
580,11	228,18
580,308	283,47
580,506	279,38
580,704	244,56
580,901	310,1
581,099	402,26
581,297	283,47
581,495	330,58
581,692	406,35
581,89	463,69
582,088	310,1
582,285	330,58
582,483	273,23
582,681	277,33
582,878	242,51
583,076	369,49
583,274	308,05
583,471	420,69
583,669	254,8
583,866	158,55
584,064	195,41
584,262	125,78
584,459	207,7
584,657	205,65
584,854	246,61
585,052	185,17
585,249	299,86
585,447	236,37
585,644	133,97
585,841	283,47
586,039	306
586,236	230,23
586,434	158,55
586,631	97,11
586,828	152,4
587,026	144,21
587,223	162,64
587,42	183,12
587,618	303,95
587,815	299,86
588,012	238,42
588,21	244,56
588,407	326,48
588,604	293,71
588,801	199,51
588,999	248,66
589,196	271,19
589,393	217,94
589,59	211,79
589,787	215,89
589,984	289,62
590,182	277,33
590,379	162,64
590,576	201,55
590,773	209,75
590,97	136,02
591,167	234,32
591,364	258,9
591,561	219,99
591,758	211,79
591,955	189,27
592,152	256,85
592,349	68,44
592,546	211,79
592,743	183,12
592,94	224,08
593,137	254,8
593,334	265,04
593,531	234,32
593,727	318,29
593,924	301,9
594,121	230,23
594,318	258,9
594,515	285,52
594,712	406,35
594,908	349,01
595,105	109,4
595,302	244,56
595,499	228,18
595,696	330,58
595,892	160,59
596,089	291,66
596,286	148,31
596,482	285,52
596,679	291,66
596,876	109,4
597,072	260,95
597,269	195,41
597,466	242,51
597,662	211,79
597,859	172,88
598,055	199,51
598,252	273,23
598,448	195,41
598,645	312,14
598,841	203,6
599,038	297,81
599,234	301,9
599,431	283,47
599,627	185,17
599,824	176,98
600,02	201,55
600,217	185,17
600,413	222,03
600,609	146,26
600,806	314,19
601,002	162,64
601,198	72,53
601,395	195,41
601,591	277,33
601,787	271,19
601,984	226,13
602,18	201,55
602,376	258,9
602,572	365,39
602,769	328,53
602,965	242,51
603,161	312,14
603,357	252,75
603,553	346,96
603,75	265,04
603,946	195,41
604,142	211,79
604,338	291,66
604,534	142,16
604,73	189,27
604,926	201,55
605,122	203,6
605,318	136,02
605,514	275,28
605,71	160,59
605,906	252,75
606,102	236,37
606,298	281,43
606,494	287,57
606,69	170,83
606,886	244,56
607,082	201,55
607,278	256,85
607,474	289,62
607,67	152,4
607,866	121,68
608,062	211,79
608,257	226,13
608,453	103,25
608,649	262,99
608,845	211,79
609,041	217,94
609,236	179,03
609,432	234,32
609,628	256,85
609,824	228,18
610,019	119,64
610,215	168,79
610,411	254,8
610,606	226,13
610,802	101,2
610,998	93,01
611,193	172,88
611,389	117,59
611,584	201,55
611,78	68,44
611,976	170,83
612,171	267,09
612,367	244,56
612,562	230,23
612,758	217,94
612,953	31,57
613,149	150,36
613,344	267,09
613,539	166,74
613,735	236,37
613,93	279,38
614,126	121,68
614,321	271,19
614,517	293,71
614,712	168,79
614,907	123,73
615,103	97,11
615,298	154,45
615,493	56,15
615,688	105,3
615,884	129,88
616,079	86,87
616,274	187,22
616,47	105,3
616,665	144,21
616,86	252,75
617,055	115,54
617,25	95,06
617,445	176,98
617,641	183,12
617,836	121,68
618,031	56,15
618,226	129,88
618,421	76,63
618,616	62,29
618,811	119,64
619,006	27,48
619,201	234,32
619,396	129,88
619,591	50
619,786	201,55
619,981	187,22
620,176	72,53
620,371	150,36
620,566	158,55
620,761	107,35
620,956	111,44
621,151	43,86
621,346	95,06
621,541	-42,15
621,735	80,72
621,93	115,54
622,125	121,68
622,32	39,76
622,515	23,38
622,709	230,23
622,904	281,43
623,099	142,16
623,294	244,56
623,488	207,7
623,683	121,68
623,878	179,03
624,072	162,64
624,267	31,57
624,462	95,06
624,656	62,29
624,851	156,5
625,046	131,92
625,24	146,26
625,435	101,2
625,629	144,21
625,824	195,41
626,018	133,97
626,213	191,31
626,407	43,86
626,602	107,35
626,796	84,82
626,991	86,87
627,185	150,36
627,38	-7,34
627,574	97,11
627,768	113,49
627,963	33,62
628,157	136,02
628,352	19,29
628,546	84,82
628,74	88,92
628,935	140,12
629,129	-5,29
629,323	146,26
629,517	52,05
629,712	58,2
629,906	133,97
630,1	154,45
630,294	154,45
630,489	86,87
630,683	84,82
630,877	88,92
631,071	181,07
631,265	54,1
631,459	88,92
631,653	133,97
631,848	86,87
632,042	113,49
632,236	125,78
632,43	179,03
632,624	56,15
632,818	127,83
633,012	168,79
633,206	187,22
633,4	97,11
633,594	193,36
633,788	160,59
633,982	123,73
634,176	160,59
634,369	164,69
634,563	66,39
634,757	31,57
634,951	97,11
635,145	176,98
635,339	54,1
635,533	168,79
635,726	86,87
635,92	105,3
636,114	27,48
636,308	33,62
636,501	47,96
636,695	144,21
636,889	-17,58
637,083	154,45
637,276	119,64
637,47	4,95
637,664	174,93
637,857	115,54
638,051	74,58
638,244	56,15
638,438	62,29
638,632	203,6
638,825	25,43
639,019	176,98
639,212	47,96
639,406	146,26
639,599	179,03
639,793	154,45
639,986	111,44
640,18	224,08
640,373	101,2
640,567	170,83
640,76	189,27
640,954	150,36
641,147	17,24
641,34	35,67
641,534	115,54
641,727	133,97
641,92	103,25
642,114	113,49
642,307	107,35
642,5	213,84
642,694	97,11
642,887	158,55
643,08	129,88
643,273	236,37
643,467	74,58
643,66	-1,19
643,853	88,92
644,046	170,83
644,239	105,3
644,432	29,52
644,626	-23,72
644,819	74,58
645,012	113,49
645,205	226,13
645,398	197,46
645,591	39,76
645,784	-11,43
645,977	9,05
646,17	109,4
646,363	97,11
646,556	43,86
646,749	58,2
646,942	131,92
647,135	115,54
647,328	76,63
647,521	142,16
647,714	162,64
647,907	129,88
648,099	-5,29
648,292	224,08
648,485	37,72
648,678	131,92
648,871	82,77
649,064	158,55
649,256	90,96
649,449	17,24
649,642	86,87
649,835	78,68
650,027	56,15
650,22	191,31
650,413	56,15
650,605	90,96
650,798	88,92
650,991	129,88
651,183	97,11
651,376	187,22
651,568	138,07
651,761	47,96
651,954	172,88
652,146	117,59
652,339	269,14
652,531	217,94
652,724	176,98
652,916	117,59
653,109	136,02
653,301	193,36
653,494	215,89
653,686	191,31
653,879	256,85
654,071	211,79
654,263	256,85
654,456	271,19
654,648	742,22
654,84	2603,82
655,033	6664,94
655,225	13163,15
655,417	22741,5
655,61	33091,93
655,802	42557,64
655,994	51806,27
656,186	59295,69
656,379	61861,8
656,571	61915,04
656,763	59207,63
656,955	56469,5
657,148	52848,69
657,34	48799,85
657,532	43669,69
657,724	39508,22
657,916	35184,96
658,108	30357,89
658,3	25129,43
658,492	21113,36
658,684	17011,28
658,876	14242,43
659,068	11969,18
659,26	9560,77
659,452	7539,43
659,644	5323,52
659,836	3935
660,028	2749,23
660,22	2003,77
660,412	1241,92
660,604	1037,13
660,796	748,36
660,988	674,64
661,18	541,52
661,372	459,6
661,563	365,39
661,755	275,28
661,947	170,83
662,139	152,4
662,331	232,27
662,522	138,07
662,714	101,2
662,906	121,68
663,097	152,4
663,289	113,49
663,481	95,06
663,673	174,93
663,864	121,68
664,056	191,31
664,247	11,09
664,439	224,08
664,631	121,68
664,822	148,31
665,014	60,24
665,205	93,01
665,397	43,86
665,588	121,68
665,78	64,34
665,971	170,83
666,163	-17,58
666,354	99,16
666,546	103,25
666,737	60,24
666,929	2,9
667,12	90,96
667,311	144,21
667,503	60,24
667,694	105,3
667,885	125,78
668,077	97,11
668,268	-31,91
668,459	52,05
668,651	76,63
668,842	56,15
669,033	0,85
669,224	21,33
669,416	213,84
669,607	37,72
669,798	-25,77
669,989	80,72
670,18	11,09
670,371	103,25
670,563	-1,19
670,754	193,36
670,945	76,63
671,136	129,88
671,327	41,81
671,518	9,05
671,709	183,12
671,9	125,78
672,091	174,93
672,282	62,29
672,473	56,15
672,664	-5,29
672,855	13,14
673,046	146,26
673,237	203,6
673,428	35,67
673,619	136,02
673,809	76,63
674	105,3
674,191	162,64
674,382	58,2
674,573	121,68
674,764	72,53
674,954	150,36
675,145	43,86
675,336	27,48
675,527	-29,87
675,717	27,48
675,908	39,76
676,099	78,68
676,289	111,44
676,48	-1,19
676,671	21,33
676,861	103,25
677,052	21,33
677,243	37,72
677,433	-23,72
677,624	146,26
677,814	50
678,005	43,86
678,195	156,5
678,386	-44,2
678,576	-3,24
678,767	-3,24
678,957	2,9
679,148	84,82
679,338	56,15
679,529	74,58
679,719	0,85
679,909	121,68
680,1	97,11
680,29	-3,24
680,481	-48,3
680,671	103,25
680,861	39,76
681,052	90,96
681,242	52,05
681,432	138,07
681,622	97,11
681,813	-54,44
682,003	23,38
682,193	33,62
682,383	76,63
682,573	-25,77
682,764	-9,39
682,954	47,96
683,144	146,26
683,334	97,11
683,524	-25,77
683,714	72,53
683,904	78,68
684,094	70,48
684,284	-11,43
684,474	176,98
684,664	60,24
684,854	43,86
685,044	2,9
685,234	64,34
685,424	-1,19
685,614	-25,77
685,804	136,02
685,994	37,72
686,184	31,57
686,374	60,24
686,564	21,33
686,753	-5,29
686,943	-5,29
687,133	35,67
687,323	47,96
687,513	19,29
687,702	66,39
687,892	-27,82
688,082	56,15
688,272	43,86
688,461	29,52
688,651	95,06
688,841	47,96
689,03	9,05
689,22	4,95
689,41	84,82
689,599	25,43
689,789	-21,67
689,979	103,25
690,168	76,63
690,358	70,48
690,547	74,58
690,737	113,49
690,926	58,2
691,116	31,57
691,305	80,72
691,495	37,72
691,684	-33,96
691,874	45,91
692,063	82,77
692,252	56,15
692,442	56,15
692,631	45,91
692,82	-17,58
693,01	23,38
693,199	138,07
693,388	23,38
693,578	-1,19
693,767	45,91
693,956	97,11
694,146	-36,01
694,335	111,44
694,524	-17,58
694,713	64,34
694,902	-5,29
695,092	4,95
695,281	62,29
695,47	54,1
695,659	-38,06
695,848	25,43
696,037	64,34
696,226	142,16
696,415	-19,63
696,604	103,25
696,793	103,25
696,982	9,05
697,171	111,44
697,36	60,24
697,549	47,96
697,738	-66,73
697,927	-25,77
698,116	47,96
698,305	88,92
698,494	109,4
698,683	-21,67
698,872	193,36
699,061	88,92
699,25	-58,54
699,438	52,05
699,627	-81,07
699,816	146,26
700,005	-52,39
700,193	43,86
700,382	105,3
700,571	19,29
700,76	43,86
700,948	117,59
701,137	72,53
701,326	99,16
701,514	21,33
701,703	56,15
701,892	19,29
702,08	181,07
702,269	11,09
702,457	-38,06
702,646	113,49
702,834	56,15
703,023	54,1
703,212	45,91
703,4	58,2
703,589	-17,58
703,777	-7,34
703,965	-36,01
704,154	70,48
704,342	-36,01
704,531	31,57
704,719	64,34
704,907	72,53
705,096	39,76
705,284	-79,02
705,472	84,82
705,661	88,92
705,849	-15,53
706,037	101,2
706,226	56,15
706,414	74,58
706,602	-46,25
706,79	99,16
706,979	72,53
707,167	-38,06
707,355	-21,67
707,543	31,57
707,731	99,16
707,919	111,44
708,107	7
708,296	31,57
708,484	15,19
708,672	68,44
708,86	93,01
709,048	19,29
709,236	-48,3
709,424	23,38
709,612	33,62
709,8	-27,82
709,988	33,62
710,176	37,72
710,364	105,3
710,551	21,33
710,739	7
710,927	19,29
711,115	-3,24
711,303	97,11
711,491	47,96
711,679	47,96
711,866	148,31
712,054	70,48
712,242	27,48
712,43	64,34
712,617	-7,34
712,805	19,29
712,993	88,92
713,181	-109,74
713,368	72,53
713,556	-7,34
713,744	-3,24
713,931	129,88
714,119	80,72
714,306	-29,87
714,494	64,34
714,682	-11,43
714,869	-46,25
715,057	4,95
715,244	-54,44
715,432	64,34
715,619	-21,67
715,807	11,09
715,994	21,33
716,182	95,06
716,369	45,91
716,556	64,34
716,744	15,19
716,931	-36,01
717,119	86,87
717,306	-29,87
717,493	62,29
717,681	-1,19
717,868	-40,11
718,055	31,57
718,242	29,52
718,43	74,58
718,617	97,11
718,804	80,72
718,991	66,39
719,179	68,44
719,366	25,43
719,553	-52,39
719,74	43,86
719,927	39,76
720,114	13,14
720,301	19,29
720,488	13,14
720,676	-17,58
720,863	119,64
721,05	121,68
721,237	56,15
721,424	45,91
721,611	-1,19
721,798	-52,39
721,985	-46,25
722,172	37,72
722,358	-23,72
722,545	47,96
722,732	70,48
722,919	138,07
723,106	7
723,293	0,85
723,48	68,44
723,667	-9,39
723,853	74,58
724,04	41,81
724,227	95,06
724,414	-62,63
724,6	56,15
724,787	88,92
724,974	195,41
725,161	54,1
725,347	27,48
725,534	119,64
725,72	80,72
725,907	58,2
726,094	-17,58
726,28	-29,87
726,467	37,72
726,653	-21,67
726,84	191,31
727,027	181,07
727,213	27,48
727,4	58,2
727,586	45,91
727,773	66,39
727,959	19,29
728,145	19,29
728,332	66,39
728,518	7
728,705	31,57
728,891	64,34
729,077	17,24
729,264	-17,58
729,45	35,67
729,636	64,34
729,823	64,34
730,009	58,2
730,195	17,24
730,382	56,15
730,568	-38,06
730,754	103,25
730,94	56,15
731,126	23,38
731,313	43,86
731,499	31,57
731,685	76,63
731,871	105,3
732,057	41,81
732,243	95,06
732,429	88,92
732,615	170,83
732,801	105,3
732,987	72,53
733,173	39,76
733,359	-19,63
733,545	72,53
733,731	60,24
733,917	156,5
734,103	84,82
734,289	52,05
734,475	43,86
734,661	127,83
734,847	52,05
735,033	-27,82
735,219	111,44
735,404	31,57
735,59	-25,77
735,776	25,43
735,962	23,38
736,148	74,58
736,333	95,06
736,519	23,38
736,705	136,02
736,89	47,96
737,076	39,76
737,262	97,11
737,447	0,85
737,633	-29,87
737,819	86,87
738,004	19,29
738,19	15,19
738,375	-11,43
738,561	107,35
738,747	52,05
738,932	-42,15
739,118	121,68
739,303	80,72
739,489	43,86
739,674	7
739,859	-3,24
740,045	125,78
740,23	35,67
740,416	-111,78
740,601	43,86
740,786	72,53
740,972	-15,53
741,157	-1,19
741,342	-31,91
741,528	-124,07
741,713	50
741,898	7
742,084	0,85
742,269	76,63
742,454	-9,39
742,639	86,87
742,824	41,81
743,01	64,34
743,195	117,59
743,38	60,24
743,565	60,24
743,75	-7,34
743,935	-1,19
744,12	17,24
744,305	-42,15
744,49	7
744,675	33,62
744,86	43,86
745,045	7
745,23	19,29
745,415	47,96
745,6	121,68
745,785	-9,39
745,97	95,06
746,155	68,44
746,34	115,54
746,525	7
746,71	179,03
746,895	7
747,079	-5,29
747,264	47,96
747,449	97,11
747,634	39,76
747,819	31,57
748,003	15,19
748,188	15,19
748,373	97,11
748,557	29,52
748,742	80,72
748,927	70,48
749,111	-33,96
749,296	56,15
749,481	105,3
749,665	25,43
749,85	-85,16
750,034	-17,58
750,219	62,29
750,404	27,48
750,588	144,21
750,773	-46,25
750,957	-17,58
751,141	31,57
751,326	31,57
751,51	27,48
751,695	-1,19
751,879	11,09
752,064	129,88
752,248	125,78
752,432	154,45
752,617	-9,39
752,801	62,29
752,985	39,76
753,17	150,36
753,354	80,72
753,538	70,48
753,722	31,57
753,907	66,39
754,091	27,48
754,275	82,77
754,459	-25,77
754,643	43,86
754,828	72,53
755,012	82,77
755,196	-29,87
755,38	47,96
755,564	-21,67
755,748	66,39
755,932	93,01
756,116	129,88
756,3	-31,91
756,484	-25,77
756,668	125,78
756,852	-91,31
757,036	39,76
757,22	-31,91
757,404	-1,19
757,588	-17,58
757,772	109,4
757,956	58,2
758,14	187,22
758,323	64,34
758,507	52,05
758,691	23,38
758,875	68,44
759,059	45,91
759,242	-36,01
759,426	113,49
759,61	47,96
759,794	11,09
759,977	41,81
760,161	185,17
760,345	88,92
760,528	60,24
760,712	70,48
760,895	90,96
761,079	19,29
761,263	47,96
761,446	-31,91
761,63	-13,48
761,813	107,35
761,997	13,14
762,18	17,24
762,364	70,48
762,547	-83,11
762,731	33,62
762,914	31,57
763,098	-11,43
763,281	0,85
763,464	13,14
763,648	29,52
763,831	70,48
764,015	41,81
764,198	78,68
764,381	-19,63
764,564	19,29
764,748	47,96
764,931	64,34
765,114	-93,35
765,297	68,44
765,481	-19,63
765,664	45,91
765,847	43,86
766,03	113,49
766,213	-52,39
766,397	29,52
766,58	31,57
766,763	64,34
766,946	-25,77
767,129	-95,4
767,312	17,24
767,495	-42,15
767,678	39,76
767,861	39,76
768,044	101,2
768,227	-15,53
768,41	-5,29
768,593	-29,87
768,776	52,05
768,959	31,57
769,142	105,3
769,324	129,88
769,507	-5,29
769,69	11,09
769,873	52,05
770,056	209,75
770,239	-58,54
770,421	80,72
770,604	72,53
770,787	70,48
770,97	95,06
771,152	66,39
771,335	72,53
771,518	4,95
771,7	31,57
771,883	109,4
772,066	-42,15
772,248	39,76
772,431	109,4
772,613	117,59
772,796	23,38
772,978	39,76
773,161	121,68
773,343	17,24
773,526	-31,91
773,708	0,85
773,891	-70,83
774,073	-15,53
774,256	21,33
774,438	144,21
774,621	-29,87
774,803	-15,53
774,985	37,72
775,168	37,72
775,35	-19,63
775,532	111,44
775,715	-33,96
775,897	23,38
776,079	-21,67
776,261	2,9
776,444	54,1
776,626	64,34
776,808	60,24
776,99	31,57
777,173	144,21
777,355	125,78
777,537	213,84
777,719	150,36
777,901	70,48
778,083	74,58
778,265	68,44
778,447	230,23
778,629	86,87
778,811	119,64
778,993	90,96
779,175	105,3
779,357	72,53
779,539	60,24
779,721	105,3
779,903	70,48
780,085	4,95
780,267	13,14
780,449	23,38
780,631	56,15
780,812	121,68
780,994	-68,78
781,176	54,1
781,358	-1,19
781,54	-11,43
781,721	23,38
781,903	84,82
782,085	-17,58
782,267	119,64
782,448	-1,19
782,63	27,48
782,812	13,14
782,993	-5,29
783,175	47,96
783,357	7
783,538	23,38
783,72	-25,77
783,901	-27,82
784,083	56,15
784,264	105,3
784,446	-132,26
784,627	-62,63
784,809	99,16
784,99	-25,77
785,172	31,57
785,353	56,15
785,535	29,52
785,716	-62,63
785,897	-36,01
786,079	21,33
786,26	-44,2
786,441	50
786,623	-119,98
786,804	-17,58
786,985	43,86
787,167	60,24
787,348	39,76
787,529	-15,53
787,71	105,3
787,891	23,38
788,073	-83,11
788,254	23,38
788,435	119,64
788,616	45,91
788,797	-1,19
788,978	-36,01
789,159	-11,43
789,34	56,15
789,522	-11,43
789,703	-50,35
789,884	50
790,065	11,09
790,246	138,07
790,427	47,96
790,607	115,54
790,788	133,97
790,969	-68,78
791,15	17,24
791,331	-5,29
791,512	11,09
791,693	-31,91
791,874	45,91
792,054	154,45
792,235	138,07
792,416	-76,97
792,597	-17,58
792,778	90,96
792,958	62,29
793,139	74,58
793,32	54,1
793,5	41,81
793,681	146,26
793,862	54,1
794,042	7
794,223	-42,15
794,404	-7,34
794,584	-38,06
794,765	-115,88
794,945	17,24
795,126	70,48
795,306	133,97
795,487	-15,53
795,667	-38,06
795,848	15,19
796,028	66,39
796,209	54,1
796,389	13,14
796,57	-5,29
796,75	-60,59
796,93	4,95
797,111	4,95
797,291	-46,25
797,471	84,82
797,652	7
797,832	-15,53
798,012	50
798,192	7
798,373	-87,21
798,553	-25,77
798,733	47,96
798,913	7
799,093	-1,19
799,274	-13,48
799,454	31,57
799,634	125,78
799,814	72,53
799,994	90,96
800,174	-11,43
800,354	-46,25
800,534	-40,11
800,714	62,29
800,894	-23,72
801,074	-111,78
801,254	-3,24
801,434	47,96
801,614	84,82
801,794	-21,67
801,974	1479,49
802,154	-52,39
802,334	39,76
802,514	-42,15
802,693	-17,58
802,873	-36,01
803,053	45,91
803,233	-36,01
803,413	-9,39
803,592	-64,68
803,772	-3,24
803,952	-7,34
804,131	-33,96
804,311	84,82
804,491	9,05
804,67	-36,01
804,85	-52,39
805,03	19,29
805,209	95,06
805,389	60,24
805,568	-36,01
805,748	37,72
805,928	15,19
806,107	-25,77
806,287	7
806,466	15,19
806,646	-19,63
806,825	13,14
807,004	-46,25
807,184	88,92
807,363	101,2
807,543	23,38
807,722	-21,67
807,901	58,2
808,081	60,24
808,26	-70,83
808,439	88,92
808,619	-3,24
808,798	39,76
808,977	-36,01
809,156	52,05
809,336	11,09
809,515	54,1
809,694	-42,15
809,873	-64,68
810,052	117,59
810,231	31,57
810,411	-17,58
810,59	138,07
810,769	19,29
810,948	99,16
811,127	-93,35
811,306	39,76
811,485	9,05
811,664	39,76
811,843	-83,11
812,022	86,87
812,201	-31,91
812,38	-70,83
812,559	23,38
812,737	45,91
812,916	-70,83
813,095	-13,48
813,274	2,9
813,453	39,76
813,632	-7,34
813,811	29,52
813,989	-50,35
814,168	54,1
814,347	-91,31
814,526	13,14
814,704	62,29
814,883	78,68
815,062	-19,63
815,24	117,59
815,419	-44,2
815,598	-3,24
815,776	-74,92
815,955	17,24
816,133	-134,31
816,312	-7,34
816,49	-58,54
816,669	4,95
816,847	-21,67
817,026	39,76
817,204	4,95
817,383	33,62
817,561	39,76
817,74	58,2
817,918	27,48
818,097	-23,72
818,275	7
818,453	64,34
818,632	13,14
818,81	-66,73
818,988	-9,39
819,167	-19,63
819,345	-19,63
819,523	35,67
819,701	84,82
819,879	-11,43
820,058	-1,19
820,236	76,63
820,414	37,72
820,592	-31,91
820,77	-13,48
820,948	-109,74
821,127	-52,39
821,305	-33,96
821,483	-93,35
821,661	52,05
821,839	-3,24
822,017	-7,34
822,195	-9,39
822,373	90,96
822,551	41,81
822,729	33,62
822,907	-13,48
823,085	7
823,262	-1,19
823,44	56,15
823,618	-33,96
823,796	2,9
823,974	-9,39
824,152	-13,48
824,329	-50,35
824,507	-15,53
824,685	56,15
824,863	72,53
825,04	70,48
825,218	-11,43
825,396	17,24
825,574	2,9
825,751	-17,58
825,929	45,91
826,107	-87,21
826,284	39,76
826,462	76,63
826,639	-74,92
826,817	-25,77
826,994	64,34
827,172	-38,06
827,349	131,92
827,527	80,72
827,704	-25,77
827,882	35,67
828,059	-19,63
828,237	-54,44
828,414	64,34
828,591	-103,59
828,769	-60,59
828,946	-33,96
829,124	43,86
829,301	109,4
829,478	-27,82
829,655	60,24
829,833	52,05
830,01	-99,5
830,187	27,48
830,364	-19,63
830,542	27,48
830,719	74,58
830,896	-17,58
831,073	72,53
831,25	-46,25
831,427	-1,19
831,604	29,52
831,782	-70,83
831,959	103,25
832,136	31,57
832,313	52,05
832,49	-85,16
832,667	15,19
832,844	-56,49
833,021	80,72
833,198	52,05
833,374	-15,53
833,551	29,52
833,728	39,76
833,905	66,39
834,082	-46,25
834,259	45,91
834,436	47,96
834,612	-93,35
834,789	-52,39
834,966	-13,48
835,143	-54,44
835,319	-91,31
835,496	31,57
835,673	-105,64
835,85	80,72
836,026	-9,39
836,203	15,19
836,38	78,68
836,556	15,19
836,733	-74,92
836,909	62,29
837,086	-25,77
837,262	-142,5
837,439	27,48
837,616	-25,77
837,792	-5,29
837,968	-21,67
838,145	-107,69
838,321	-36,01
838,498	-7,34
838,674	62,29
838,851	33,62
839,027	27,48
839,203	19,29
839,38	43,86
839,556	7
839,732	129,88
839,909	29,52
840,085	58,2
840,261	11,09
840,437	-40,11
840,614	31,57
840,79	101,2
840,966	13,14
841,142	58,2
841,318	4,95
841,494	23,38
841,671	23,38
841,847	-74,92
842,023	-79,02
842,199	72,53
842,375	125,78
842,551	-97,45
842,727	-3,24
842,903	144,21
843,079	-17,58
843,255	105,3
843,431	-60,59
843,607	35,67
843,783	-101,55
843,959	129,88
844,134	7
844,31	144,21
844,486	74,58
844,662	21,33
844,838	43,86
845,013	9,05
845,189	39,76
845,365	41,81
845,541	-25,77
845,716	35,67
845,892	45,91
846,068	60,24
846,244	4,95
846,419	39,76
846,595	-62,63
846,77	-68,78
846,946	52,05
847,122	-9,39
847,297	-48,3
847,473	148,31
847,648	-99,5
847,824	7
847,999	-103,59
848,175	-9,39
848,35	39,76
848,526	9,05
848,701	52,05
848,876	37,72
849,052	146,26
849,227	-25,77
849,403	-13,48
849,578	-52,39
849,753	7
849,929	35,67
850,104	-27,82
850,279	21,33
850,454	35,67
850,63	4,95
850,805	78,68
850,98	-48,3
851,155	31,57
851,33	-29,87
851,505	7
851,681	68,44
851,856	-23,72
852,031	101,2
852,206	68,44
852,381	-21,67
852,556	21,33
852,731	60,24
852,906	56,15
853,081	60,24
853,256	80,72
853,431	17,24
853,606	-81,07
853,781	19,29
853,956	-85,16
854,131	-42,15
854,305	19,29
854,48	37,72
854,655	-79,02
854,83	-58,54
855,005	-1,19
855,18	35,67
855,354	-40,11
855,529	29,52
855,704	-38,06
855,879	39,76
856,053	-62,63
856,228	-29,87
856,403	-27,82
856,577	-56,49
856,752	-66,73
856,926	19,29
857,101	-33,96
857,276	-76,97
857,45	-42,15
857,625	-19,63
857,799	39,76
857,974	15,19
858,148	-1,19
858,323	19,29
858,497	-56,49
858,672	17,24
858,846	-76,97
859,02	86,87
859,195	-60,59
859,369	-72,87
859,543	29,52
859,718	-119,98
859,892	-17,58
860,066	-23,72
860,241	39,76
860,415	-72,87
860,589	-1,19
860,763	-17,58
860,938	-60,59
861,112	97,11
861,286	45,91
861,46	47,96
861,634	23,38
861,808	23,38
861,982	-9,39
862,157	-40,11
862,331	-74,92
862,505	-31,91
862,679	-115,88
862,853	-17,58
863,027	-5,29
863,201	60,24
863,375	7
863,549	-5,29
863,722	-66,73
863,896	-9,39
864,07	13,14
864,244	15,19
864,418	86,87
864,592	-21,67
864,766	99,16
864,939	-25,77
865,113	-97,45
865,287	105,3
865,461	2,9
865,634	27,48
865,808	-17,58
865,982	31,57
866,156	-87,21
866,329	-44,2
866,503	117,59
866,676	43,86
866,85	93,01
867,024	-25,77
867,197	97,11
867,371	33,62
867,544	-13,48
867,718	-54,44
867,891	80,72
868,065	-50,35
868,238	35,67
868,412	90,96
868,585	-1,19
868,759	-15,53
868,932	56,15
869,105	-13,48
869,279	-11,43
869,452	-42,15
869,625	97,11
869,799	0,85
869,972	-117,93
870,145	9,05
870,319	9,05
870,492	-7,34
870,665	15,19
870,838	-54,44
871,011	-142,5
871,185	-46,25
871,358	13,14
871,531	27,48
871,704	-19,63
871,877	-1,19
872,05	-50,35
872,223	-38,06
872,396	11,09
872,569	56,15
872,742	-64,68
872,915	41,81
873,088	-7,34
873,261	-27,82
873,434	13,14
873,607	52,05
873,78	68,44
873,953	-85,16
874,126	-17,58
874,299	76,63
874,471	-42,15
874,644	52,05
874,817	127,83
874,99	119,64
875,163	-11,43
875,335	47,96
875,508	31,57
875,681	60,24
875,853	-25,77
876,026	-5,29
876,199	0,85
876,371	88,92
876,544	19,29
876,717	4,95
876,889	-15,53
877,062	-33,96
877,234	-72,87
877,407	27,48
877,579	-21,67
877,752	-17,58
877,924	47,96
878,097	-31,91
878,269	21,33
878,442	-74,92
878,614	27,48
878,786	60,24
878,959	-56,49
879,131	27,48
879,303	-97,45
879,476	-64,68
879,648	144,21
879,82	21,33
879,993	2,9
880,165	-27,82
880,337	-95,4
880,509	-13,48
880,681	-66,73
880,854	2,9
881,026	76,63
881,198	125,78
881,37	70,48
881,542	-33,96
881,714	45,91
881,886	-33,96
882,058	-40,11
882,23	86,87
882,402	64,34
882,574	27,48
882,746	121,68
882,918	76,63
883,09	72,53
883,262	-33,96
883,434	13,14
883,606	-111,78
883,778	-25,77
883,95	15,19
884,122	-44,2
884,293	60,24
884,465	-5,29
884,637	70,48
884,809	-44,2
884,98	62,29
885,152	47,96
885,324	43,86
885,496	-19,63
885,667	-25,77
885,839	-33,96
886,011	103,25
886,182	52,05
886,354	9,05
886,525	33,62
886,697	-19,63
886,869	-58,54
887,04	13,14
887,212	76,63
887,383	62,29
887,555	-70,83
887,726	31,57
887,897	-33,96
888,069	4,95
888,24	138,07
888,412	103,25
888,583	-66,73
888,754	-95,4
888,926	-89,26
889,097	-162,98
889,268	-21,67
889,44	31,57
889,611	-36,01
889,782	-19,63
889,953	-23,72
890,125	4,95
890,296	-25,77
890,467	-5,29
890,638	72,53
890,809	-5,29
890,98	37,72
891,151	-1,19
891,323	95,06
891,494	-3,24
891,665	31,57
891,836	72,53
892,007	43,86
892,178	52,05
892,349	43,86
892,52	7
892,691	45,91
892,862	-7,34
893,032	-109,74
893,203	-42,15
893,374	95,06
893,545	52,05
893,716	-36,01
893,887	-46,25
894,057	2,9
894,228	54,1
894,399	-5,29
894,57	93,01
894,74	45,91
894,911	66,39
895,082	-42,15
895,253	-31,91
895,423	37,72
895,594	90,96
895,764	37,72
895,935	-27,82
896,106	13,14
896,276	47,96
896,447	-25,77
896,617	-56,49
896,788	-58,54
896,958	50
897,129	-50,35
897,299	-48,3
897,47	66,39
897,64	4,95
897,81	21,33
897,981	-11,43
898,151	-44,2
898,322	-1,19
898,492	13,14
898,662	-50,35
898,832	21,33
899,003	37,72
899,173	-13,48
899,343	23,38
899,513	-117,93
