Data from hydrogene_USB4F104151__9__09-04-10-311.txt Node

Date: Wed Apr 15 09:04:10 EDT 2026
User: LaboPhy
Spectrometer: USB4F10415
Trigger mode: 4
Integration Time (sec): 1,000000E-1
Scans to average: 1
Electric dark correction enabled: true
Nonlinearity correction enabled: false
Boxcar width: 0
XAxis mode: Wavelengths
Number of Pixels in Spectrum: 3648
>>>>>Begin Spectral Data<<<<<
178,204	-320,85
178,424	-320,85
178,644	-320,85
178,864	-320,85
179,084	-333,14
179,304	19,11
179,524	-46,42
179,744	49,83
179,964	92,84
180,184	-11,61
180,404	-15,7
180,624	-36,18
180,844	-19,8
181,064	-71
181,283	21,16
181,503	-32,08
181,723	49,83
181,943	-91,48
182,163	125,61
182,383	10,92
182,602	125,61
182,822	92,84
183,042	43,69
183,262	-30,04
183,482	-66,9
183,701	0,68
183,921	27,31
184,141	-71
184,361	10,92
184,58	41,64
184,8	109,23
185,02	-27,99
185,239	115,37
185,459	80,55
185,679	33,45
185,898	-116,05
186,118	107,18
186,338	47,79
186,557	148,14
186,777	-66,9
186,997	4,78
187,216	68,27
187,436	131,75
187,655	-23,89
187,875	141,99
188,095	19,11
188,314	111,27
188,534	70,31
188,753	-23,89
188,973	45,74
189,192	158,38
189,412	60,07
189,631	8,87
189,851	60,07
190,07	115,37
190,29	-71
190,509	6,83
190,729	41,64
190,948	43,69
191,168	244,39
191,387	121,51
191,607	39,59
191,826	37,55
192,045	49,83
192,265	27,31
192,484	105,13
192,704	15,02
192,923	-7,51
193,142	150,18
193,362	49,83
193,581	96,94
193,8	-1,37
194,02	68,27
194,239	-21,84
194,458	-3,41
194,678	-40,28
194,897	141,99
195,116	84,65
195,335	86,7
195,555	90,79
195,774	-36,18
195,993	101,03
196,212	10,92
196,432	29,35
196,651	2,73
196,87	27,31
197,089	170,66
197,308	115,37
197,528	55,98
197,747	-13,65
197,966	49,83
198,185	70,31
198,404	31,4
198,623	129,7
198,842	53,93
199,062	123,56
199,281	144,04
199,5	80,55
199,719	41,64
199,938	96,94
200,157	-1,37
200,376	113,32
200,595	82,6
200,814	82,6
201,033	6,83
201,252	172,71
201,471	103,08
201,69	137,9
201,909	78,51
202,128	101,03
202,347	27,31
202,566	-44,37
202,785	-9,56
203,004	0,68
203,223	283,3
203,442	41,64
203,661	23,21
203,879	15,02
204,098	92,84
204,317	6,83
204,536	80,55
204,755	17,07
204,974	51,88
205,193	37,55
205,411	174,76
205,63	55,98
205,849	84,65
206,068	-21,84
206,287	-56,66
206,505	141,99
206,724	2,73
206,943	-15,7
207,162	-23,89
207,381	113,32
207,599	90,79
207,818	0,68
208,037	-40,28
208,255	86,7
208,474	2,73
208,693	66,22
208,911	-9,56
209,13	25,26
209,349	92,84
209,567	76,46
209,786	88,75
210,005	0,68
210,223	4,78
210,442	-85,33
210,661	64,17
210,879	27,31
211,098	-3,41
211,316	72,36
211,535	58,03
211,753	60,07
211,972	58,03
212,191	55,98
212,409	-40,28
212,628	133,8
212,846	39,59
213,065	55,98
213,283	125,61
213,502	27,31
213,72	51,88
213,938	45,74
214,157	-23,89
214,375	133,8
214,594	-13,65
214,812	58,03
215,031	41,64
215,249	53,93
215,467	47,79
215,686	23,21
215,904	115,37
216,122	94,89
216,341	148,14
216,559	51,88
216,778	96,94
216,996	105,13
217,214	27,31
217,432	-30,04
217,651	-54,61
217,869	21,16
218,087	-1,37
218,306	-5,46
218,524	74,41
218,742	31,4
218,96	60,07
219,179	43,69
219,397	31,4
219,615	246,44
219,833	39,59
220,051	31,4
220,27	129,7
220,488	129,7
220,706	10,92
220,924	-5,46
221,142	-27,99
221,36	64,17
221,578	76,46
221,796	-17,75
222,015	25,26
222,233	82,6
222,451	137,9
222,669	-54,61
222,887	31,4
223,105	-34,13
223,323	-25,94
223,541	-34,13
223,759	25,26
223,977	45,74
224,195	148,14
224,413	74,41
224,631	60,07
224,849	45,74
225,067	213,67
225,285	43,69
225,503	135,85
225,721	-44,37
225,939	43,69
226,157	37,55
226,375	213,67
226,592	-9,56
226,81	43,69
227,028	127,66
227,246	180,9
227,464	10,92
227,682	60,07
227,9	72,36
228,117	80,55
228,335	19,11
228,553	-1,37
228,771	4,78
228,989	105,13
229,206	27,31
229,424	-34,13
229,642	19,11
229,86	-21,84
230,077	19,11
230,295	70,31
230,513	121,51
230,731	74,41
230,948	121,51
231,166	86,7
231,384	-7,51
231,601	-21,84
231,819	162,47
232,037	29,35
232,254	-54,61
232,472	29,35
232,689	33,45
232,907	121,51
233,125	82,6
233,342	4,78
233,56	23,21
233,777	-62,8
233,995	21,16
234,213	92,84
234,43	58,03
234,648	-48,47
234,865	-42,32
235,083	74,41
235,3	-13,65
235,518	101,03
235,735	158,38
235,953	144,04
236,17	43,69
236,388	-73,04
236,605	2,73
236,822	101,03
237,04	80,55
237,257	66,22
237,475	-32,08
237,692	33,45
237,909	92,84
238,127	-7,51
238,344	92,84
238,562	-13,65
238,779	-73,04
238,996	-7,51
239,214	-9,56
239,431	84,65
239,648	33,45
239,865	37,55
240,083	84,65
240,3	25,26
240,517	-56,66
240,735	53,93
240,952	121,51
241,169	60,07
241,386	60,07
241,603	-56,66
241,821	-52,56
242,038	53,93
242,255	115,37
242,472	-19,8
242,689	74,41
242,907	27,31
243,124	51,88
243,341	76,46
243,558	15,02
243,775	-21,84
243,992	-62,8
244,209	31,4
244,426	170,66
244,643	92,84
244,86	60,07
245,078	68,27
245,295	78,51
245,512	27,31
245,729	10,92
245,946	96,94
246,163	101,03
246,38	-34,13
246,597	23,21
246,814	86,7
247,031	60,07
247,248	6,83
247,464	35,5
247,681	10,92
247,898	92,84
248,115	31,4
248,332	-27,99
248,549	105,13
248,766	92,84
248,983	109,23
249,2	74,41
249,417	88,75
249,633	25,26
249,85	84,65
250,067	-5,46
250,284	47,79
250,501	96,94
250,717	25,26
250,934	-7,51
251,151	2,73
251,368	29,35
251,585	88,75
251,801	58,03
252,018	33,45
252,235	60,07
252,451	-50,52
252,668	76,46
252,885	47,79
253,102	47,79
253,318	31,4
253,535	17,07
253,752	-9,56
253,968	49,83
254,185	-58,71
254,401	0,68
254,618	74,41
254,835	53,93
255,051	195,24
255,268	96,94
255,484	25,26
255,701	10,92
255,917	96,94
256,134	-44,37
256,351	25,26
256,567	64,17
256,784	39,59
257	17,07
257,217	101,03
257,433	109,23
257,65	-9,56
257,866	162,47
258,082	-1,37
258,299	8,87
258,515	35,5
258,732	8,87
258,948	-30,04
259,165	107,18
259,381	-40,28
259,597	19,11
259,814	27,31
260,03	15,02
260,246	41,64
260,463	152,23
260,679	107,18
260,895	96,94
261,112	39,59
261,328	10,92
261,544	-25,94
261,761	185
261,977	-56,66
262,193	-42,32
262,409	62,12
262,626	8,87
262,842	-38,23
263,058	17,07
263,274	49,83
263,49	29,35
263,707	92,84
263,923	64,17
264,139	-97,62
264,355	60,07
264,571	84,65
264,787	107,18
265,004	72,36
265,22	21,16
265,436	-23,89
265,652	27,31
265,868	76,46
266,084	-75,09
266,3	-1,37
266,516	-75,09
266,732	10,92
266,948	-60,76
267,164	-30,04
267,38	117,42
267,596	35,5
267,812	92,84
268,028	55,98
268,244	-56,66
268,46	-56,66
268,676	-23,89
268,892	88,75
269,108	35,5
269,324	-109,91
269,54	49,83
269,756	88,75
269,972	-48,47
270,188	4,78
270,403	-9,56
270,619	25,26
270,835	19,11
271,051	39,59
271,267	-73,04
271,483	0,68
271,698	17,07
271,914	43,69
272,13	-15,7
272,346	-52,56
272,562	55,98
272,777	74,41
272,993	2,73
273,209	23,21
273,425	82,6
273,64	-60,76
273,856	10,92
274,072	10,92
274,287	-30,04
274,503	35,5
274,719	84,65
274,934	10,92
275,15	-52,56
275,366	53,93
275,581	-71
275,797	29,35
276,012	60,07
276,228	-17,75
276,444	86,7
276,659	137,9
276,875	-32,08
277,09	2,73
277,306	-40,28
277,521	6,83
277,737	12,97
277,952	15,02
278,168	68,27
278,383	-17,75
278,599	80,55
278,814	96,94
279,03	109,23
279,245	27,31
279,461	17,07
279,676	111,27
279,892	-89,43
280,107	-23,89
280,322	-27,99
280,538	146,09
280,753	35,5
280,969	17,07
281,184	4,78
281,399	125,61
281,615	66,22
281,83	-5,46
282,045	-58,71
282,26	-48,47
282,476	27,31
282,691	64,17
282,906	70,31
283,122	84,65
283,337	-17,75
283,552	51,88
283,767	-13,65
283,983	62,12
284,198	51,88
284,413	94,89
284,628	-32,08
284,843	-19,8
285,058	141,99
285,274	-30,04
285,489	0,68
285,704	53,93
285,919	-15,7
286,134	23,21
286,349	84,65
286,564	15,02
286,779	117,42
286,995	29,35
287,21	-34,13
287,425	86,7
287,64	-83,28
287,855	-5,46
288,07	-66,9
288,285	76,46
288,5	96,94
288,715	-15,7
288,93	55,98
289,145	15,02
289,36	150,18
289,575	33,45
289,79	168,62
290,004	2,73
290,219	111,27
290,434	-30,04
290,649	-46,42
290,864	-62,8
291,079	15,02
291,294	23,21
291,509	82,6
291,724	66,22
291,938	4,78
292,153	55,98
292,368	17,07
292,583	27,31
292,798	6,83
293,012	72,36
293,227	33,45
293,442	2,73
293,657	58,03
293,871	109,23
294,086	35,5
294,301	176,81
294,516	123,56
294,73	88,75
294,945	25,26
295,16	6,83
295,374	43,69
295,589	92,84
295,804	-34,13
296,018	29,35
296,233	133,8
296,447	60,07
296,662	39,59
296,877	35,5
297,091	39,59
297,306	-5,46
297,52	10,92
297,735	51,88
297,949	27,31
298,164	0,68
298,378	76,46
298,593	64,17
298,807	55,98
299,022	60,07
299,236	146,09
299,451	-46,42
299,665	49,83
299,88	47,79
300,094	47,79
300,309	-5,46
300,523	-42,32
300,737	-7,51
300,952	6,83
301,166	-17,75
301,381	-21,84
301,595	-9,56
301,809	68,27
302,024	17,07
302,238	-46,42
302,452	82,6
302,667	-15,7
302,881	168,62
303,095	47,79
303,309	35,5
303,524	-48,47
303,738	62,12
303,952	25,26
304,166	35,5
304,381	-71
304,595	72,36
304,809	-9,56
305,023	72,36
305,237	6,83
305,452	-1,37
305,666	156,33
305,88	109,23
306,094	98,99
306,308	51,88
306,522	31,4
306,736	68,27
306,95	113,32
307,164	-9,56
307,379	66,22
307,593	158,38
307,807	219,82
308,021	131,75
308,235	41,64
308,449	-89,43
308,663	33,45
308,877	189,1
309,091	117,42
309,305	88,75
309,519	-40,28
309,733	115,37
309,947	-13,65
310,161	76,46
310,374	105,13
310,588	82,6
310,802	-38,23
311,016	82,6
311,23	27,31
311,444	-36,18
311,658	35,5
311,872	150,18
312,085	92,84
312,299	72,36
312,513	154,28
312,727	17,07
312,941	80,55
313,154	17,07
313,368	53,93
313,582	17,07
313,796	64,17
314,009	39,59
314,223	96,94
314,437	43,69
314,651	64,17
314,864	55,98
315,078	27,31
315,292	-93,52
315,505	43,69
315,719	41,64
315,933	109,23
316,146	-36,18
316,36	8,87
316,573	70,31
316,787	88,75
317,001	137,9
317,214	35,5
317,428	31,4
317,641	-13,65
317,855	-5,46
318,068	15,02
318,282	31,4
318,495	203,43
318,709	86,7
318,922	-7,51
319,136	150,18
319,349	88,75
319,563	60,07
319,776	41,64
319,99	-32,08
320,203	66,22
320,417	109,23
320,63	101,03
320,843	144,04
321,057	-9,56
321,27	-32,08
321,483	-32,08
321,697	23,21
321,91	39,59
322,124	101,03
322,337	49,83
322,55	31,4
322,763	43,69
322,977	115,37
323,19	-19,8
323,403	0,68
323,617	72,36
323,83	127,66
324,043	-1,37
324,256	72,36
324,469	-89,43
324,683	115,37
324,896	-13,65
325,109	68,27
325,322	6,83
325,535	80,55
325,748	49,83
325,962	10,92
326,175	72,36
326,388	25,26
326,601	101,03
326,814	23,21
327,027	49,83
327,24	90,79
327,453	-15,7
327,666	152,23
327,879	123,56
328,092	51,88
328,305	92,84
328,518	2,73
328,731	8,87
328,944	105,13
329,157	96,94
329,37	-3,41
329,583	213,67
329,796	98,99
330,009	-30,04
330,222	109,23
330,435	90,79
330,648	41,64
330,861	39,59
331,073	23,21
331,286	25,26
331,499	62,12
331,712	19,11
331,925	51,88
332,138	-19,8
332,35	141,99
332,563	86,7
332,776	121,51
332,989	-19,8
333,202	23,21
333,414	-9,56
333,627	-11,61
333,84	98,99
334,053	115,37
334,265	41,64
334,478	-3,41
334,691	49,83
334,903	51,88
335,116	2,73
335,329	33,45
335,541	51,88
335,754	82,6
335,966	66,22
336,179	58,03
336,392	31,4
336,604	43,69
336,817	96,94
337,029	41,64
337,242	125,61
337,454	109,23
337,667	62,12
337,88	86,7
338,092	17,07
338,305	74,41
338,517	43,69
338,729	150,18
338,942	166,57
339,154	17,07
339,367	2,73
339,579	98,99
339,792	12,97
340,004	156,33
340,217	60,07
340,429	66,22
340,641	41,64
340,854	-66,9
341,066	70,31
341,278	137,9
341,491	123,56
341,703	96,94
341,915	2,73
342,128	154,28
342,34	15,02
342,552	-52,56
342,764	98,99
342,977	64,17
343,189	47,79
343,401	43,69
343,613	2,73
343,826	47,79
344,038	8,87
344,25	15,02
344,462	-7,51
344,674	60,07
344,886	12,97
345,099	133,8
345,311	72,36
345,523	19,11
345,735	-107,86
345,947	80,55
346,159	0,68
346,371	35,5
346,583	-46,42
346,795	219,82
347,007	6,83
347,219	49,83
347,431	58,03
347,643	131,75
347,855	19,11
348,067	162,47
348,279	10,92
348,491	80,55
348,703	72,36
348,915	0,68
349,127	19,11
349,339	105,13
349,551	19,11
349,763	88,75
349,975	109,23
350,187	19,11
350,399	125,61
350,61	60,07
350,822	-46,42
351,034	117,42
351,246	39,59
351,458	35,5
351,669	43,69
351,881	154,28
352,093	205,48
352,305	68,27
352,517	74,41
352,728	107,18
352,94	74,41
353,152	68,27
353,363	0,68
353,575	154,28
353,787	164,52
353,999	131,75
354,21	201,38
354,422	17,07
354,633	19,11
354,845	74,41
355,057	31,4
355,268	88,75
355,48	60,07
355,692	6,83
355,903	0,68
356,115	6,83
356,326	27,31
356,538	96,94
356,749	105,13
356,961	135,85
357,172	76,46
357,384	45,74
357,595	191,14
357,807	4,78
358,018	-7,51
358,23	6,83
358,441	256,68
358,653	64,17
358,864	-5,46
359,075	49,83
359,287	66,22
359,498	135,85
359,709	92,84
359,921	33,45
360,132	139,94
360,344	41,64
360,555	-1,37
360,766	68,27
360,977	103,08
361,189	115,37
361,4	86,7
361,611	166,57
361,823	150,18
362,034	70,31
362,245	141,99
362,456	76,46
362,667	135,85
362,879	41,64
363,09	101,03
363,301	68,27
363,512	109,23
363,723	43,69
363,935	19,11
364,146	127,66
364,357	33,45
364,568	45,74
364,779	23,21
364,99	213,67
365,201	62,12
365,412	166,57
365,623	-1,37
365,834	88,75
366,045	90,79
366,256	117,42
366,467	125,61
366,678	74,41
366,889	158,38
367,1	131,75
367,311	96,94
367,522	66,22
367,733	80,55
367,944	82,6
368,155	141,99
368,366	176,81
368,577	187,05
368,788	174,76
368,999	55,98
369,209	21,16
369,42	185
369,631	172,71
369,842	162,47
370,053	109,23
370,264	92,84
370,474	31,4
370,685	146,09
370,896	68,27
371,107	182,95
371,317	111,27
371,528	66,22
371,739	191,14
371,95	62,12
372,16	133,8
372,371	96,94
372,582	111,27
372,792	129,7
373,003	49,83
373,214	178,86
373,424	141,99
373,635	72,36
373,846	187,05
374,056	66,22
374,267	47,79
374,477	139,94
374,688	37,55
374,898	131,75
375,109	51,88
375,319	35,5
375,53	98,99
375,74	125,61
375,951	-5,46
376,161	164,52
376,372	162,47
376,582	94,89
376,793	66,22
377,003	43,69
377,214	105,13
377,424	109,23
377,635	141,99
377,845	51,88
378,055	180,9
378,266	72,36
378,476	43,69
378,686	125,61
378,897	113,32
379,107	125,61
379,317	160,42
379,528	58,03
379,738	84,65
379,948	66,22
380,158	133,8
380,369	176,81
380,579	47,79
380,789	150,18
380,999	180,9
381,21	139,94
381,42	262,82
381,63	123,56
381,84	47,79
382,05	141,99
382,261	174,76
382,471	129,7
382,681	62,12
382,891	279,21
383,101	187,05
383,311	64,17
383,521	39,59
383,731	166,57
383,941	197,29
384,151	144,04
384,361	131,75
384,571	189,1
384,781	66,22
384,991	215,72
385,201	240,3
385,411	148,14
385,621	113,32
385,831	123,56
386,041	182,95
386,251	115,37
386,461	236,2
386,671	170,66
386,881	78,51
387,091	109,23
387,301	180,9
387,511	139,94
387,72	154,28
387,93	137,9
388,14	27,31
388,35	119,46
388,56	185
388,769	174,76
388,979	131,75
389,189	115,37
389,399	154,28
389,609	180,9
389,818	187,05
390,028	174,76
390,238	158,38
390,447	53,93
390,657	101,03
390,867	76,46
391,076	-5,46
391,286	115,37
391,496	49,83
391,705	139,94
391,915	113,32
392,125	150,18
392,334	41,64
392,544	199,34
392,753	121,51
392,963	98,99
393,172	117,42
393,382	17,07
393,591	258,73
393,801	121,51
394,01	146,09
394,22	90,79
394,429	96,94
394,639	84,65
394,848	148,14
395,058	98,99
395,267	137,9
395,477	156,33
395,686	98,99
395,895	232,1
396,105	254,63
396,314	111,27
396,524	133,8
396,733	131,75
396,942	279,21
397,152	176,81
397,361	232,1
397,57	164,52
397,78	139,94
397,989	223,91
398,198	281,25
398,407	37,55
398,617	117,42
398,826	107,18
399,035	131,75
399,244	182,95
399,453	109,23
399,663	139,94
399,872	49,83
400,081	62,12
400,29	199,34
400,499	115,37
400,708	164,52
400,917	86,7
401,127	27,31
401,336	51,88
401,545	154,28
401,754	213,67
401,963	164,52
402,172	58,03
402,381	78,51
402,59	139,94
402,799	164,52
403,008	119,46
403,217	139,94
403,426	51,88
403,635	68,27
403,844	148,14
404,053	115,37
404,262	39,59
404,471	139,94
404,68	170,66
404,888	107,18
405,097	135,85
405,306	125,61
405,515	180,9
405,724	21,16
405,933	141,99
406,142	72,36
406,35	193,19
406,559	78,51
406,768	139,94
406,977	205,48
407,185	109,23
407,394	213,67
407,603	6,83
407,812	232,1
408,02	170,66
408,229	88,75
408,438	182,95
408,646	60,07
408,855	230,06
409,064	252,58
409,272	150,18
409,481	199,34
409,69	250,53
409,898	158,38
410,107	295,59
410,315	275,11
410,524	225,96
410,733	279,21
410,941	221,86
411,15	215,72
411,358	240,3
411,567	264,87
411,775	172,71
411,984	174,76
412,192	55,98
412,401	68,27
412,609	152,23
412,818	185
413,026	201,38
413,234	117,42
413,443	33,45
413,651	43,69
413,86	111,27
414,068	213,67
414,276	264,87
414,485	131,75
414,693	191,14
414,901	146,09
415,11	70,31
415,318	82,6
415,526	197,29
415,734	152,23
415,943	51,88
416,151	127,66
416,359	33,45
416,567	191,14
416,776	133,8
416,984	230,06
417,192	230,06
417,4	76,46
417,608	74,41
417,817	-11,61
418,025	199,34
418,233	232,1
418,441	-7,51
418,649	82,6
418,857	125,61
419,065	187,05
419,273	88,75
419,481	119,46
419,689	152,23
419,897	111,27
420,105	76,46
420,313	137,9
420,521	203,43
420,729	72,36
420,937	-21,84
421,145	84,65
421,353	125,61
421,561	133,8
421,769	156,33
421,977	60,07
422,185	162,47
422,393	41,64
422,601	164,52
422,809	121,51
423,017	66,22
423,224	86,7
423,432	129,7
423,64	74,41
423,848	152,23
424,056	43,69
424,263	146,09
424,471	146,09
424,679	148,14
424,887	-46,42
425,094	66,22
425,302	101,03
425,51	90,79
425,718	211,62
425,925	33,45
426,133	39,59
426,341	205,48
426,548	113,32
426,756	0,68
426,964	37,55
427,171	84,65
427,379	121,51
427,586	86,7
427,794	78,51
428,001	156,33
428,209	92,84
428,417	135,85
428,624	148,14
428,832	92,84
429,039	158,38
429,247	98,99
429,454	107,18
429,662	191,14
429,869	133,8
430,076	137,9
430,284	82,6
430,491	162,47
430,699	105,13
430,906	207,53
431,114	98,99
431,321	101,03
431,528	146,09
431,736	111,27
431,943	164,52
432,15	141,99
432,358	271,01
432,565	305,83
432,772	187,05
432,979	449,19
433,187	369,32
433,394	633,5
433,601	680,61
433,808	750,24
434,016	780,96
434,223	879,26
434,43	764,58
434,637	705,18
434,844	707,23
435,052	578,21
435,259	475,81
435,466	475,81
435,673	287,4
435,88	330,41
436,087	250,53
436,294	217,77
436,501	205,48
436,708	90,79
436,915	98,99
437,122	234,15
437,329	66,22
437,537	107,18
437,743	117,42
437,95	209,58
438,157	156,33
438,364	55,98
438,571	131,75
438,778	115,37
438,985	84,65
439,192	115,37
439,399	109,23
439,606	156,33
439,813	150,18
440,02	113,32
440,227	197,29
440,433	51,88
440,64	68,27
440,847	19,11
441,054	172,71
441,261	262,82
441,467	68,27
441,674	107,18
441,881	139,94
442,088	68,27
442,294	174,76
442,501	170,66
442,708	182,95
442,914	94,89
443,121	105,13
443,328	101,03
443,534	55,98
443,741	133,8
443,948	0,68
444,154	90,79
444,361	240,3
444,568	152,23
444,774	144,04
444,981	70,31
445,187	174,76
445,394	78,51
445,6	27,31
445,807	121,51
446,013	88,75
446,22	12,97
446,426	41,64
446,633	68,27
446,839	178,86
447,046	39,59
447,252	139,94
447,459	107,18
447,665	109,23
447,871	88,75
448,078	150,18
448,284	162,47
448,491	211,62
448,697	113,32
448,903	125,61
449,11	170,66
449,316	23,21
449,522	158,38
449,728	127,66
449,935	76,46
450,141	88,75
450,347	166,57
450,553	111,27
450,76	60,07
450,966	109,23
451,172	170,66
451,378	80,55
451,584	80,55
451,791	144,04
451,997	125,61
452,203	64,17
452,409	109,23
452,615	193,19
452,821	74,41
453,027	31,4
453,233	170,66
453,44	66,22
453,646	150,18
453,852	123,56
454,058	43,69
454,264	137,9
454,47	133,8
454,676	113,32
454,882	131,75
455,088	86,7
455,294	53,93
455,5	150,18
455,705	150,18
455,911	115,37
456,117	74,41
456,323	109,23
456,529	176,81
456,735	96,94
456,941	121,51
457,147	150,18
457,352	127,66
457,558	109,23
457,764	162,47
457,97	43,69
458,176	19,11
458,381	45,74
458,587	301,73
458,793	154,28
458,999	29,35
459,204	76,46
459,41	115,37
459,616	98,99
459,821	105,13
460,027	-3,41
460,233	101,03
460,438	150,18
460,644	68,27
460,85	96,94
461,055	84,65
461,261	174,76
461,466	60,07
461,672	168,62
461,878	154,28
462,083	158,38
462,289	53,93
462,494	103,08
462,7	127,66
462,905	101,03
463,111	166,57
463,316	195,24
463,522	168,62
463,727	94,89
463,932	158,38
464,138	144,04
464,343	131,75
464,549	213,67
464,754	101,03
464,959	156,33
465,165	8,87
465,37	164,52
465,575	82,6
465,781	41,64
465,986	150,18
466,191	55,98
466,397	115,37
466,602	121,51
466,807	131,75
467,012	90,79
467,218	187,05
467,423	90,79
467,628	92,84
467,833	53,93
468,038	180,9
468,244	133,8
468,449	43,69
468,654	119,46
468,859	80,55
469,064	166,57
469,269	72,36
469,474	107,18
469,679	211,62
469,885	111,27
470,09	66,22
470,295	154,28
470,5	55,98
470,705	187,05
470,91	86,7
471,115	248,49
471,32	125,61
471,525	238,25
471,73	262,82
471,935	74,41
472,139	131,75
472,344	84,65
472,549	109,23
472,754	207,53
472,959	166,57
473,164	164,52
473,369	174,76
473,574	144,04
473,778	68,27
473,983	154,28
474,188	98,99
474,393	68,27
474,598	66,22
474,802	164,52
475,007	88,75
475,212	219,82
475,417	109,23
475,621	195,24
475,826	29,35
476,031	123,56
476,235	117,42
476,44	64,17
476,645	201,38
476,849	101,03
477,054	41,64
477,259	62,12
477,463	230,06
477,668	289,45
477,872	189,1
478,077	41,64
478,282	33,45
478,486	174,76
478,691	72,36
478,895	109,23
479,1	213,67
479,304	201,38
479,509	146,09
479,713	264,87
479,918	191,14
480,122	78,51
480,326	166,57
480,531	27,31
480,735	185
480,94	88,75
481,144	117,42
481,348	156,33
481,553	207,53
481,757	82,6
481,961	129,7
482,166	187,05
482,37	146,09
482,574	139,94
482,778	72,36
482,983	150,18
483,187	182,95
483,391	182,95
483,595	182,95
483,8	299,69
484,004	436,9
484,208	885,41
484,412	1223,32
484,616	1772,18
484,821	2507,4
485,025	3474,04
485,229	4663,91
485,433	5565,01
485,637	6896,19
485,841	8038,96
486,045	8923,68
486,249	9312,8
486,453	9116,19
486,657	8428,07
486,861	7748,15
487,065	6584,9
487,269	5536,34
487,473	4393,58
487,677	3680,88
487,881	3072,64
488,085	2359,94
488,289	1862,29
488,493	1395,35
488,697	1211,03
488,901	723,62
489,105	494,24
489,309	311,97
489,512	373,41
489,716	174,76
489,92	174,76
490,124	168,62
490,328	219,82
490,531	150,18
490,735	225,96
490,939	72,36
491,143	162,47
491,346	125,61
491,55	248,49
491,754	162,47
491,958	141,99
492,161	133,8
492,365	219,82
492,569	17,07
492,772	279,21
492,976	266,92
493,18	172,71
493,383	148,14
493,587	182,95
493,79	266,92
493,994	148,14
494,197	141,99
494,401	150,18
494,605	146,09
494,808	133,8
495,012	144,04
495,215	189,1
495,419	273,06
495,622	107,18
495,825	58,03
496,029	129,7
496,232	168,62
496,436	191,14
496,639	187,05
496,843	182,95
497,046	121,51
497,249	148,14
497,453	39,59
497,656	43,69
497,859	141,99
498,063	228,01
498,266	107,18
498,469	66,22
498,673	146,09
498,876	90,79
499,079	17,07
499,282	68,27
499,485	240,3
499,689	166,57
499,892	174,76
500,095	19,11
500,298	64,17
500,501	80,55
500,705	101,03
500,908	150,18
501,111	115,37
501,314	219,82
501,517	162,47
501,72	94,89
501,923	101,03
502,126	74,41
502,329	228,01
502,532	135,85
502,735	201,38
502,938	211,62
503,141	164,52
503,344	35,5
503,547	131,75
503,75	53,93
503,953	19,11
504,156	172,71
504,359	107,18
504,562	51,88
504,765	23,21
504,968	146,09
505,17	41,64
505,373	117,42
505,576	133,8
505,779	4,78
505,982	39,59
506,185	146,09
506,387	60,07
506,59	113,32
506,793	129,7
506,996	98,99
507,198	127,66
507,401	221,86
507,604	209,58
507,807	129,7
508,009	121,51
508,212	164,52
508,415	111,27
508,617	27,31
508,82	125,61
509,022	62,12
509,225	107,18
509,428	137,9
509,63	113,32
509,833	121,51
510,035	197,29
510,238	174,76
510,44	43,69
510,643	178,86
510,845	195,24
511,048	131,75
511,25	84,65
511,453	72,36
511,655	105,13
511,858	252,58
512,06	199,34
512,262	98,99
512,465	70,31
512,667	84,65
512,87	-40,28
513,072	154,28
513,274	180,9
513,477	12,97
513,679	64,17
513,881	72,36
514,084	41,64
514,286	156,33
514,488	123,56
514,69	49,83
514,893	66,22
515,095	64,17
515,297	45,74
515,499	98,99
515,701	15,02
515,904	131,75
516,106	191,14
516,308	141,99
516,51	17,07
516,712	82,6
516,914	115,37
517,116	8,87
517,318	105,13
517,52	115,37
517,722	125,61
517,925	94,89
518,127	141,99
518,329	182,95
518,531	12,97
518,733	78,51
518,935	47,79
519,136	47,79
519,338	92,84
519,54	64,17
519,742	76,46
519,944	219,82
520,146	90,79
520,348	88,75
520,55	125,61
520,752	-5,46
520,954	78,51
521,155	137,9
521,357	53,93
521,559	178,86
521,761	207,53
521,963	68,27
522,164	101,03
522,366	187,05
522,568	162,47
522,77	129,7
522,971	141,99
523,173	92,84
523,375	109,23
523,576	76,46
523,778	84,65
523,98	92,84
524,181	137,9
524,383	113,32
524,584	60,07
524,786	96,94
524,988	-23,89
525,189	51,88
525,391	156,33
525,592	25,26
525,794	37,55
525,995	84,65
526,197	135,85
526,398	242,34
526,6	174,76
526,801	187,05
527,003	27,31
527,204	105,13
527,406	41,64
527,607	90,79
527,808	60,07
528,01	64,17
528,211	117,42
528,412	27,31
528,614	107,18
528,815	111,27
529,016	172,71
529,218	92,84
529,419	88,75
529,62	-11,61
529,822	162,47
530,023	103,08
530,224	92,84
530,425	158,38
530,626	78,51
530,828	72,36
531,029	-25,94
531,23	180,9
531,431	49,83
531,632	246,44
531,833	-25,94
532,035	125,61
532,236	47,79
532,437	146,09
532,638	86,7
532,839	-52,56
533,04	148,14
533,241	207,53
533,442	162,47
533,643	92,84
533,844	74,41
534,045	55,98
534,246	-9,56
534,447	10,92
534,648	103,08
534,849	164,52
535,05	123,56
535,251	15,02
535,451	82,6
535,652	31,4
535,853	35,5
536,054	166,57
536,255	105,13
536,456	94,89
536,657	84,65
536,857	80,55
537,058	158,38
537,259	109,23
537,46	43,69
537,66	41,64
537,861	72,36
538,062	103,08
538,263	-25,94
538,463	123,56
538,664	105,13
538,865	47,79
539,065	101,03
539,266	146,09
539,466	43,69
539,667	121,51
539,868	115,37
540,068	166,57
540,269	248,49
540,469	55,98
540,67	174,76
540,87	117,42
541,071	82,6
541,271	76,46
541,472	195,24
541,672	162,47
541,873	51,88
542,073	117,42
542,274	201,38
542,474	88,75
542,675	174,76
542,875	76,46
543,075	21,16
543,276	94,89
543,476	88,75
543,676	123,56
543,877	25,26
544,077	76,46
544,277	146,09
544,478	-11,61
544,678	78,51
544,878	60,07
545,078	74,41
545,279	55,98
545,479	51,88
545,679	66,22
545,879	98,99
546,079	62,12
546,28	-27,99
546,48	144,04
546,68	105,13
546,88	64,17
547,08	84,65
547,28	203,43
547,48	21,16
547,68	37,55
547,88	98,99
548,081	113,32
548,281	-58,71
548,481	45,74
548,681	80,55
548,881	10,92
549,081	17,07
549,28	101,03
549,48	17,07
549,68	111,27
549,88	29,35
550,08	10,92
550,28	-15,7
550,48	137,9
550,68	31,4
550,88	35,5
551,08	6,83
551,279	47,79
551,479	17,07
551,679	144,04
551,879	8,87
552,079	125,61
552,278	119,46
552,478	262,82
552,678	15,02
552,878	98,99
553,077	47,79
553,277	33,45
553,477	60,07
553,676	164,52
553,876	53,93
554,076	55,98
554,275	109,23
554,475	-1,37
554,674	129,7
554,874	123,56
555,074	31,4
555,273	84,65
555,473	109,23
555,672	47,79
555,872	27,31
556,071	127,66
556,271	135,85
556,47	68,27
556,67	76,46
556,869	64,17
557,068	41,64
557,268	2,73
557,467	107,18
557,667	156,33
557,866	76,46
558,065	76,46
558,265	141,99
558,464	-7,51
558,663	121,51
558,863	78,51
559,062	43,69
559,261	-5,46
559,461	105,13
559,66	-42,32
559,859	-3,41
560,058	60,07
560,258	-32,08
560,457	127,66
560,656	209,58
560,855	23,21
561,054	60,07
561,253	31,4
561,453	-7,51
561,652	80,55
561,851	156,33
562,05	-7,51
562,249	-1,37
562,448	150,18
562,647	-27,99
562,846	53,93
563,045	170,66
563,244	109,23
563,443	96,94
563,642	39,59
563,841	53,93
564,04	60,07
564,239	70,31
564,438	84,65
564,637	2,73
564,836	84,65
565,035	150,18
565,234	23,21
565,432	74,41
565,631	121,51
565,83	84,65
566,029	123,56
566,228	125,61
566,427	141,99
566,625	19,11
566,824	182,95
567,023	84,65
567,222	148,14
567,42	82,6
567,619	137,9
567,818	125,61
568,016	277,16
568,215	137,9
568,414	195,24
568,612	90,79
568,811	133,8
569,01	174,76
569,208	111,27
569,407	185
569,605	187,05
569,804	158,38
570,002	154,28
570,201	146,09
570,4	219,82
570,598	232,1
570,797	178,86
570,995	72,36
571,193	121,51
571,392	176,81
571,59	72,36
571,789	197,29
571,987	234,15
572,186	215,72
572,384	109,23
572,582	133,8
572,781	211,62
572,979	101,03
573,177	217,77
573,376	228,01
573,574	252,58
573,772	117,42
573,971	170,66
574,169	62,12
574,367	117,42
574,565	137,9
574,763	158,38
574,962	219,82
575,16	139,94
575,358	205,48
575,556	232,1
575,754	211,62
575,952	213,67
576,151	236,2
576,349	207,53
576,547	139,94
576,745	195,24
576,943	211,62
577,141	207,53
577,339	168,62
577,537	213,67
577,735	191,14
577,933	244,39
578,131	133,8
578,329	199,34
578,527	219,82
578,725	305,83
578,923	133,8
579,121	268,97
579,319	160,42
579,516	236,2
579,714	387,75
579,912	271,01
580,11	180,9
580,308	248,49
580,506	334,5
580,704	256,68
580,901	219,82
581,099	402,08
581,297	352,93
581,495	418,47
581,692	330,41
581,89	547,49
582,088	330,41
582,285	389,8
582,483	275,11
582,681	273,06
582,878	297,64
583,076	324,26
583,274	346,79
583,471	299,69
583,669	156,33
583,866	223,91
584,064	293,54
584,262	232,1
584,459	258,73
584,657	193,19
584,854	389,8
585,052	182,95
585,249	219,82
585,447	201,38
585,644	150,18
585,841	256,68
586,039	150,18
586,236	230,06
586,434	174,76
586,631	139,94
586,828	176,81
587,026	223,91
587,223	125,61
587,42	180,9
587,618	215,72
587,815	279,21
588,012	225,96
588,21	180,9
588,407	279,21
588,604	338,6
588,801	221,86
588,999	256,68
589,196	273,06
589,393	182,95
589,59	178,86
589,787	199,34
589,984	240,3
590,182	115,37
590,379	117,42
590,576	176,81
590,773	152,23
590,97	148,14
591,167	211,62
591,364	197,29
591,561	154,28
591,758	268,97
591,955	268,97
592,152	195,24
592,349	217,77
592,546	275,11
592,743	139,94
592,94	244,39
593,137	209,58
593,334	367,27
593,531	277,16
593,727	287,4
593,924	305,83
594,121	273,06
594,318	240,3
594,515	236,2
594,712	318,12
594,908	205,48
595,105	76,46
595,302	281,25
595,499	338,6
595,696	244,39
595,892	189,1
596,089	240,3
596,286	176,81
596,482	264,87
596,679	197,29
596,876	207,53
597,072	309,93
597,269	252,58
597,466	303,78
597,662	207,53
597,859	172,71
598,055	246,44
598,252	213,67
598,448	305,83
598,645	311,97
598,841	230,06
599,038	281,25
599,234	268,97
599,431	246,44
599,627	189,1
599,824	195,24
600,02	141,99
600,217	98,99
600,413	172,71
600,609	213,67
600,806	389,8
601,002	215,72
601,198	64,17
601,395	252,58
601,591	127,66
601,787	252,58
601,984	322,21
602,18	232,1
602,376	334,5
602,572	314,02
602,769	352,93
602,965	264,87
603,161	332,45
603,357	314,02
603,553	400,04
603,75	209,58
603,946	287,4
604,142	174,76
604,338	348,84
604,534	213,67
604,73	185
604,926	141,99
605,122	244,39
605,318	178,86
605,514	260,77
605,71	105,13
605,906	232,1
606,102	125,61
606,298	248,49
606,494	234,15
606,69	281,25
606,886	160,42
607,082	156,33
607,278	193,19
607,474	187,05
607,67	185
607,866	174,76
608,062	305,83
608,257	250,53
608,453	162,47
608,649	213,67
608,845	185
609,041	193,19
609,236	244,39
609,432	205,48
609,628	228,01
609,824	170,66
610,019	125,61
610,215	39,59
610,411	164,52
610,606	201,38
610,802	51,88
610,998	148,14
611,193	137,9
611,389	113,32
611,584	205,48
611,78	76,46
611,976	115,37
612,171	348,84
612,367	141,99
612,562	170,66
612,758	219,82
612,953	150,18
613,149	170,66
613,344	254,63
613,539	156,33
613,735	195,24
613,93	82,6
614,126	125,61
614,321	170,66
614,517	322,21
614,712	131,75
614,907	170,66
615,103	141,99
615,298	105,13
615,493	39,59
615,688	94,89
615,884	141,99
616,079	141,99
616,274	92,84
616,47	84,65
616,665	27,31
616,86	113,32
617,055	88,75
617,25	78,51
617,445	129,7
617,641	107,18
617,836	148,14
618,031	31,4
618,226	94,89
618,421	101,03
618,616	107,18
618,811	115,37
619,006	15,02
619,201	248,49
619,396	178,86
619,591	19,11
619,786	166,57
619,981	178,86
620,176	144,04
620,371	51,88
620,566	92,84
620,761	178,86
620,956	94,89
621,151	101,03
621,346	111,27
621,541	101,03
621,735	109,23
621,93	141,99
622,125	109,23
622,32	19,11
622,515	96,94
622,709	141,99
622,904	207,53
623,099	148,14
623,294	215,72
623,488	133,8
623,683	137,9
623,878	178,86
624,072	201,38
624,267	131,75
624,462	101,03
624,656	35,5
624,851	123,56
625,046	150,18
625,24	94,89
625,435	68,27
625,629	84,65
625,824	195,24
626,018	84,65
626,213	88,75
626,407	94,89
626,602	123,56
626,796	158,38
626,991	150,18
627,185	98,99
627,38	80,55
627,574	96,94
627,768	137,9
627,963	27,31
628,157	64,17
628,352	76,46
628,546	98,99
628,74	166,57
628,935	101,03
629,129	80,55
629,323	141,99
629,517	0,68
629,712	33,45
629,906	55,98
630,1	185
630,294	148,14
630,489	98,99
630,683	35,5
630,877	111,27
631,071	121,51
631,265	43,69
631,459	115,37
631,653	74,41
631,848	129,7
632,042	154,28
632,236	72,36
632,43	191,14
632,624	141,99
632,818	90,79
633,012	137,9
633,206	189,1
633,4	107,18
633,594	135,85
633,788	92,84
633,982	160,42
634,176	248,49
634,369	96,94
634,563	90,79
634,757	101,03
634,951	96,94
635,145	144,04
635,339	25,26
635,533	107,18
635,726	199,34
635,92	92,84
636,114	55,98
636,308	19,11
636,501	86,7
636,695	148,14
636,889	60,07
637,083	88,75
637,276	98,99
637,47	35,5
637,664	101,03
637,857	60,07
638,051	55,98
638,244	131,75
638,438	45,74
638,632	195,24
638,825	-17,75
639,019	223,91
639,212	43,69
639,406	123,56
639,599	80,55
639,793	23,21
639,986	117,42
640,18	174,76
640,373	-5,46
640,567	172,71
640,76	-5,46
640,954	72,36
641,147	53,93
641,34	19,11
641,534	35,5
641,727	160,42
641,92	74,41
642,114	90,79
642,307	90,79
642,5	107,18
642,694	72,36
642,887	76,46
643,08	160,42
643,273	115,37
643,467	0,68
643,66	101,03
643,853	90,79
644,046	62,12
644,239	101,03
644,432	55,98
644,626	49,83
644,819	105,13
645,012	23,21
645,205	189,1
645,398	156,33
645,591	80,55
645,784	-13,65
645,977	72,36
646,17	37,55
646,363	-13,65
646,556	43,69
646,749	-50,52
646,942	58,03
647,135	223,91
647,328	0,68
647,521	84,65
647,714	84,65
647,907	139,94
648,099	84,65
648,292	105,13
648,485	86,7
648,678	92,84
648,871	60,07
649,064	74,41
649,256	74,41
649,449	35,5
649,642	-13,65
649,835	27,31
650,027	105,13
650,22	137,9
650,413	72,36
650,605	90,79
650,798	72,36
650,991	96,94
651,183	105,13
651,376	74,41
651,568	125,61
651,761	98,99
651,954	152,23
652,146	209,58
652,339	295,59
652,531	273,06
652,724	141,99
652,916	174,76
653,109	27,31
653,301	178,86
653,494	193,19
653,686	166,57
653,879	240,3
654,071	264,87
654,263	271,01
654,456	268,97
654,648	848,54
654,84	2550,4
655,033	6439,5
655,225	13146,59
655,417	22106,46
655,61	32274,62
655,802	41617,46
655,994	50323,37
656,186	57749,31
656,379	61026,06
656,571	60249,88
656,763	57913,14
656,955	54808,42
657,148	51265,44
657,34	47744,98
657,532	42694,69
657,724	38484,06
657,916	34150,56
658,108	29102,32
658,3	24678,71
658,492	20523,38
658,684	16697,77
658,876	13654,49
659,068	11528,7
659,26	9177,63
659,452	7225,92
659,644	5323,35
659,836	3838,58
660,028	2718,34
660,22	1856,14
660,412	1432,21
660,604	1002,14
660,796	740
660,988	664,22
661,18	514,72
661,372	422,56
661,563	416,42
661,755	299,69
661,947	170,66
662,139	244,39
662,331	273,06
662,522	236,2
662,714	154,28
662,906	133,8
663,097	232,1
663,289	170,66
663,481	35,5
663,673	105,13
663,864	164,52
664,056	215,72
664,247	68,27
664,439	211,62
664,631	172,71
664,822	187,05
665,014	123,56
665,205	33,45
665,397	78,51
665,588	125,61
665,78	39,59
665,971	176,81
666,163	2,73
666,354	152,23
666,546	19,11
666,737	90,79
666,929	121,51
667,12	-62,8
667,311	55,98
667,503	43,69
667,694	139,94
667,885	68,27
668,077	92,84
668,268	-9,56
668,459	135,85
668,651	133,8
668,842	117,42
669,033	-9,56
669,224	-34,13
669,416	234,15
669,607	31,4
669,798	39,59
669,989	178,86
670,18	55,98
670,371	60,07
670,563	2,73
670,754	191,14
670,945	64,17
671,136	66,22
671,327	-7,51
671,518	187,05
671,709	195,24
671,9	129,7
672,091	178,86
672,282	10,92
672,473	72,36
672,664	-7,51
672,855	58,03
673,046	107,18
673,237	121,51
673,428	49,83
673,619	-9,56
673,809	55,98
674	123,56
674,191	8,87
674,382	19,11
674,573	-17,75
674,764	41,64
674,954	107,18
675,145	21,16
675,336	47,79
675,527	70,31
675,717	8,87
675,908	60,07
676,099	-38,23
676,289	19,11
676,48	64,17
676,671	29,35
676,861	35,5
677,052	90,79
677,243	27,31
677,433	-3,41
677,624	62,12
677,814	109,23
678,005	27,31
678,195	88,75
678,386	25,26
678,576	-19,8
678,767	-32,08
678,957	43,69
679,148	92,84
679,338	141,99
679,529	84,65
679,719	31,4
679,909	53,93
680,1	49,83
680,29	84,65
680,481	-30,04
680,671	35,5
680,861	139,94
681,052	29,35
681,242	-17,75
681,432	29,35
681,622	41,64
681,813	-38,23
682,003	25,26
682,193	-30,04
682,383	72,36
682,573	-34,13
682,764	-58,71
682,954	55,98
683,144	37,55
683,334	27,31
683,524	-15,7
683,714	53,93
683,904	33,45
684,094	35,5
684,284	-38,23
684,474	62,12
684,664	80,55
684,854	45,74
685,044	49,83
685,234	123,56
685,424	17,07
685,614	-68,95
685,804	172,71
685,994	96,94
686,184	-5,46
686,374	33,45
686,564	43,69
686,753	41,64
686,943	-56,66
687,133	4,78
687,323	17,07
687,513	109,23
687,702	4,78
687,892	-3,41
688,082	107,18
688,272	76,46
688,461	58,03
688,651	125,61
688,841	80,55
689,03	6,83
689,22	-30,04
689,41	150,18
689,599	55,98
689,789	17,07
689,979	101,03
690,168	6,83
690,358	105,13
690,547	78,51
690,737	78,51
690,926	62,12
691,116	82,6
691,305	35,5
691,495	49,83
691,684	-62,8
691,874	-46,42
692,063	10,92
692,252	107,18
692,442	180,9
692,631	4,78
692,82	49,83
693,01	-30,04
693,199	0,68
693,388	53,93
693,578	33,45
693,767	141,99
693,956	39,59
694,146	-7,51
694,335	76,46
694,524	-34,13
694,713	76,46
694,902	-15,7
695,092	31,4
695,281	58,03
695,47	4,78
695,659	15,02
695,848	4,78
696,037	-46,42
696,226	125,61
696,415	17,07
696,604	117,42
696,793	41,64
696,982	43,69
697,171	119,46
697,36	-27,99
697,549	45,74
697,738	-52,56
697,927	2,73
698,116	-19,8
698,305	137,9
698,494	33,45
698,683	45,74
698,872	109,23
699,061	80,55
699,25	43,69
699,438	10,92
699,627	21,16
699,816	115,37
700,005	-32,08
700,193	21,16
700,382	96,94
700,571	45,74
700,76	43,69
700,948	68,27
701,137	101,03
701,326	121,51
701,514	109,23
701,703	78,51
701,892	33,45
702,08	139,94
702,269	58,03
702,457	-75,09
702,646	-46,42
702,834	39,59
703,023	53,93
703,212	90,79
703,4	-3,41
703,589	6,83
703,777	-36,18
703,965	107,18
704,154	43,69
704,342	-25,94
704,531	25,26
704,719	78,51
704,907	117,42
705,096	-73,04
705,284	23,21
705,472	109,23
705,661	88,75
705,849	62,12
706,037	82,6
706,226	80,55
706,414	74,41
706,602	-34,13
706,79	146,09
706,979	-13,65
707,167	78,51
707,355	-46,42
707,543	27,31
707,731	113,32
707,919	62,12
708,107	19,11
708,296	2,73
708,484	-3,41
708,672	66,22
708,86	27,31
709,048	2,73
709,236	-25,94
709,424	68,27
709,612	43,69
709,8	-34,13
709,988	33,45
710,176	172,71
710,364	146,09
710,551	49,83
710,739	53,93
710,927	45,74
711,115	-15,7
711,303	101,03
711,491	127,66
711,679	31,4
711,866	96,94
712,054	-52,56
712,242	-50,52
712,43	137,9
712,617	-71
712,805	113,32
712,993	-30,04
713,181	8,87
713,368	-5,46
713,556	58,03
713,744	4,78
713,931	164,52
714,119	45,74
714,306	-81,24
714,494	47,79
714,682	-21,84
714,869	2,73
715,057	29,35
715,244	-50,52
715,432	8,87
715,619	-40,28
715,807	-13,65
715,994	-40,28
716,182	19,11
716,369	109,23
716,556	60,07
716,744	2,73
716,931	-52,56
717,119	62,12
717,306	25,26
717,493	27,31
717,681	39,59
717,868	-11,61
718,055	47,79
718,242	8,87
718,43	19,11
718,617	84,65
718,804	-36,18
718,991	68,27
719,179	64,17
719,366	43,69
719,553	8,87
719,74	49,83
719,927	17,07
720,114	-1,37
720,301	-15,7
720,488	-85,33
720,676	10,92
720,863	111,27
721,05	215,72
721,237	41,64
721,424	72,36
721,611	-9,56
721,798	-58,71
721,985	-71
722,172	2,73
722,358	27,31
722,545	47,79
722,732	74,41
722,919	154,28
723,106	101,03
723,293	133,8
723,48	-25,94
723,667	-91,48
723,853	55,98
724,04	31,4
724,227	68,27
724,414	-23,89
724,6	64,17
724,787	158,38
724,974	111,27
725,161	-11,61
725,347	-5,46
725,534	60,07
725,72	139,94
725,907	68,27
726,094	60,07
726,28	49,83
726,467	74,41
726,653	-68,95
726,84	107,18
727,027	156,33
727,213	-13,65
727,4	113,32
727,586	70,31
727,773	109,23
727,959	-40,28
728,145	17,07
728,332	43,69
728,518	-89,43
728,705	49,83
728,891	21,16
729,077	55,98
729,264	-46,42
729,45	47,79
729,636	66,22
729,823	-9,56
730,009	19,11
730,195	78,51
730,382	80,55
730,568	2,73
730,754	29,35
730,94	-5,46
731,126	2,73
731,313	82,6
731,499	8,87
731,685	64,17
731,871	88,75
732,057	47,79
732,243	129,7
732,429	82,6
732,615	92,84
732,801	49,83
732,987	-17,75
733,173	-30,04
733,359	-25,94
733,545	70,31
733,731	-23,89
733,917	141,99
734,103	72,36
734,289	-5,46
734,475	-79,19
734,661	148,14
734,847	98,99
735,033	35,5
735,219	60,07
735,404	6,83
735,59	21,16
735,776	19,11
735,962	39,59
736,148	49,83
736,333	150,18
736,519	58,03
736,705	60,07
736,89	62,12
737,076	19,11
737,262	58,03
737,447	76,46
737,633	-30,04
737,819	133,8
738,004	35,5
738,19	15,02
738,375	62,12
738,561	88,75
738,747	35,5
738,932	-7,51
739,118	162,47
739,303	64,17
739,489	103,08
739,674	41,64
739,859	6,83
740,045	76,46
740,23	15,02
740,416	-46,42
740,601	-3,41
740,786	-13,65
740,972	41,64
741,157	-21,84
741,342	64,17
741,528	-56,66
741,713	98,99
741,898	-5,46
742,084	39,59
742,269	15,02
742,454	33,45
742,639	76,46
742,824	41,64
743,01	107,18
743,195	141,99
743,38	-38,23
743,565	-68,95
743,75	68,27
743,935	55,98
744,12	88,75
744,305	6,83
744,49	74,41
744,675	21,16
744,86	33,45
745,045	64,17
745,23	68,27
745,415	82,6
745,6	150,18
745,785	19,11
745,97	23,21
746,155	105,13
746,34	127,66
746,525	39,59
746,71	43,69
746,895	-9,56
747,079	-54,61
747,264	43,69
747,449	96,94
747,634	105,13
747,819	150,18
748,003	58,03
748,188	-9,56
748,373	10,92
748,557	62,12
748,742	-5,46
748,927	55,98
749,111	15,02
749,296	55,98
749,481	88,75
749,665	74,41
749,85	-25,94
750,034	86,7
750,219	90,79
750,404	-21,84
750,588	2,73
750,773	-7,51
750,957	70,31
751,141	-3,41
751,326	135,85
751,51	-54,61
751,695	8,87
751,879	-42,32
752,064	205,48
752,248	60,07
752,432	133,8
752,617	133,8
752,801	121,51
752,985	55,98
753,17	84,65
753,354	84,65
753,538	25,26
753,722	-5,46
753,907	-9,56
754,091	-42,32
754,275	68,27
754,459	84,65
754,643	-5,46
754,828	70,31
755,012	74,41
755,196	-13,65
755,38	51,88
755,564	-25,94
755,748	19,11
755,932	105,13
756,116	41,64
756,3	60,07
756,484	41,64
756,668	86,7
756,852	-75,09
757,036	19,11
757,22	76,46
757,404	6,83
757,588	15,02
757,772	45,74
757,956	23,21
758,14	160,42
758,323	43,69
758,507	53,93
758,691	-21,84
758,875	39,59
759,059	96,94
759,242	-46,42
759,426	76,46
759,61	74,41
759,794	-56,66
759,977	94,89
760,161	266,92
760,345	23,21
760,528	49,83
760,712	64,17
760,895	39,59
761,079	58,03
761,263	37,55
761,446	21,16
761,63	51,88
761,813	117,42
761,997	-81,24
762,18	103,08
762,364	80,55
762,547	-89,43
762,731	-68,95
762,914	12,97
763,098	35,5
763,281	-54,61
763,464	-1,37
763,648	51,88
763,831	-68,95
764,015	0,68
764,198	88,75
764,381	10,92
764,564	10,92
764,748	10,92
764,931	39,59
765,114	-5,46
765,297	55,98
765,481	-46,42
765,664	15,02
765,847	15,02
766,03	39,59
766,213	-9,56
766,397	19,11
766,58	19,11
766,763	51,88
766,946	-46,42
767,129	19,11
767,312	-7,51
767,495	17,07
767,678	72,36
767,861	12,97
768,044	10,92
768,227	51,88
768,41	33,45
768,593	37,55
768,776	51,88
768,959	55,98
769,142	78,51
769,324	0,68
769,507	23,21
769,69	-25,94
769,873	-17,75
770,056	109,23
770,239	27,31
770,421	131,75
770,604	84,65
770,787	23,21
770,97	60,07
771,152	-23,89
771,335	64,17
771,518	-66,9
771,7	98,99
771,883	129,7
772,066	29,35
772,248	35,5
772,431	4,78
772,613	-25,94
772,796	27,31
772,978	113,32
773,161	129,7
773,343	-1,37
773,526	-79,19
773,708	-46,42
773,891	-83,28
774,073	25,26
774,256	-128,34
774,438	125,61
774,621	-23,89
774,803	72,36
774,985	35,5
775,168	43,69
775,35	35,5
775,532	51,88
775,715	-62,8
775,897	10,92
776,079	84,65
776,261	33,45
776,444	2,73
776,626	146,09
776,808	58,03
776,99	45,74
777,173	119,46
777,355	170,66
777,537	144,04
777,719	76,46
777,901	55,98
778,083	141,99
778,265	62,12
778,447	182,95
778,629	107,18
778,811	86,7
778,993	51,88
779,175	105,13
779,357	92,84
779,539	43,69
779,721	62,12
779,903	72,36
780,085	-3,41
780,267	-17,75
780,449	23,21
780,631	80,55
780,812	111,27
780,994	111,27
781,176	-9,56
781,358	35,5
781,54	-7,51
781,721	35,5
781,903	49,83
782,085	-38,23
782,267	72,36
782,448	0,68
782,63	12,97
782,812	19,11
782,993	80,55
783,175	68,27
783,357	25,26
783,538	51,88
783,72	-66,9
783,901	2,73
784,083	-19,8
784,264	35,5
784,446	-105,81
784,627	-97,62
784,809	78,51
784,99	2,73
785,172	76,46
785,353	25,26
785,535	51,88
785,716	-38,23
785,897	-21,84
786,079	35,5
786,26	88,75
786,441	10,92
786,623	-107,86
786,804	-15,7
786,985	60,07
787,167	15,02
787,348	6,83
787,529	-38,23
787,71	146,09
787,891	33,45
788,073	15,02
788,254	-1,37
788,435	139,94
788,616	2,73
788,797	4,78
788,978	-5,46
789,159	31,4
789,34	17,07
789,522	19,11
789,703	31,4
789,884	43,69
790,065	10,92
790,246	139,94
790,427	-32,08
790,607	148,14
790,788	103,08
790,969	-32,08
791,15	58,03
791,331	-11,61
791,512	-36,18
791,693	-66,9
791,874	10,92
792,054	139,94
792,235	156,33
792,416	-38,23
792,597	-64,85
792,778	41,64
792,958	8,87
793,139	10,92
793,32	2,73
793,5	-62,8
793,681	150,18
793,862	55,98
794,042	-5,46
794,223	-27,99
794,404	37,55
794,584	17,07
794,765	39,59
794,945	-42,32
795,126	39,59
795,306	37,55
795,487	51,88
795,667	6,83
795,848	58,03
796,028	8,87
796,209	68,27
796,389	72,36
796,57	25,26
796,75	-91,48
796,93	60,07
797,111	-62,8
797,291	-87,38
797,471	84,65
797,652	31,4
797,832	-13,65
798,012	55,98
798,192	-23,89
798,373	-134,48
798,553	60,07
798,733	6,83
798,913	-9,56
799,093	0,68
799,274	25,26
799,454	129,7
799,634	21,16
799,814	84,65
799,994	12,97
800,174	55,98
800,354	17,07
800,534	-95,57
800,714	33,45
800,894	-36,18
801,074	-56,66
801,254	33,45
801,434	82,6
801,614	-66,9
801,794	-79,19
801,974	1415,83
802,154	-13,65
802,334	62,12
802,514	-23,89
802,693	2,73
802,873	-40,28
803,053	10,92
803,233	15,02
803,413	55,98
803,592	25,26
803,772	41,64
803,952	-40,28
804,131	-36,18
804,311	-19,8
804,491	141,99
804,67	10,92
804,85	21,16
805,03	82,6
805,209	25,26
805,389	-48,47
805,568	101,03
805,748	33,45
805,928	-5,46
806,107	49,83
806,287	23,21
806,466	76,46
806,646	-73,04
806,825	17,07
807,004	-15,7
807,184	-9,56
807,363	33,45
807,543	-36,18
807,722	-7,51
807,901	33,45
808,081	31,4
808,26	-95,57
808,439	-32,08
808,619	-34,13
808,798	-48,47
808,977	94,89
809,156	51,88
809,336	-7,51
809,515	51,88
809,694	-75,09
809,873	-54,61
810,052	35,5
810,231	41,64
810,411	103,08
810,59	123,56
810,769	-32,08
810,948	19,11
811,127	-62,8
811,306	10,92
811,485	21,16
811,664	84,65
811,843	41,64
812,022	55,98
812,201	-89,43
812,38	2,73
812,559	21,16
812,737	47,79
812,916	39,59
813,095	-25,94
813,274	-19,8
813,453	35,5
813,632	0,68
813,811	84,65
813,989	-91,48
814,168	33,45
814,347	6,83
814,526	-15,7
814,704	49,83
814,883	101,03
815,062	-126,29
815,24	41,64
815,419	-23,89
815,598	6,83
815,776	-1,37
815,955	-19,8
816,133	-103,76
816,312	27,31
816,49	27,31
816,669	2,73
816,847	98,99
817,026	60,07
817,204	-1,37
817,383	62,12
817,561	-23,89
817,74	15,02
817,918	-17,75
818,097	8,87
818,275	-91,48
818,453	-44,37
818,632	8,87
818,81	41,64
818,988	15,02
819,167	-46,42
819,345	-11,61
819,523	-17,75
819,701	-7,51
819,879	55,98
820,058	23,21
820,236	19,11
820,414	-38,23
820,592	39,59
820,77	8,87
820,948	-87,38
821,127	-62,8
821,305	2,73
821,483	-54,61
821,661	92,84
821,839	10,92
822,017	-27,99
822,195	-111,96
822,373	55,98
822,551	15,02
822,729	117,42
822,907	-25,94
823,085	31,4
823,262	43,69
823,44	-73,04
823,618	-32,08
823,796	-40,28
823,974	2,73
824,152	-34,13
824,329	-15,7
824,507	2,73
824,685	109,23
824,863	55,98
825,04	45,74
825,218	27,31
825,396	-44,37
825,574	55,98
825,751	35,5
825,929	47,79
826,107	-21,84
826,284	35,5
826,462	37,55
826,639	-46,42
826,817	-54,61
826,994	58,03
827,172	-13,65
827,349	137,9
827,527	25,26
827,704	51,88
827,882	60,07
828,059	-7,51
828,237	-11,61
828,414	78,51
828,591	-103,76
828,769	-13,65
828,946	-68,95
829,124	70,31
829,301	41,64
829,478	12,97
829,655	70,31
829,833	10,92
830,01	-122,2
830,187	-99,67
830,364	41,64
830,542	2,73
830,719	92,84
830,896	109,23
831,073	33,45
831,25	35,5
831,427	17,07
831,604	103,08
831,782	-79,19
831,959	62,12
832,136	-46,42
832,313	86,7
832,49	-81,24
832,667	68,27
832,844	41,64
833,021	49,83
833,198	49,83
833,374	27,31
833,551	2,73
833,728	-21,84
833,905	43,69
834,082	-83,28
834,259	4,78
834,436	146,09
834,612	19,11
834,789	27,31
834,966	-1,37
835,143	101,03
835,319	-11,61
835,496	43,69
835,673	58,03
835,85	-3,41
836,026	-17,75
836,203	92,84
836,38	-11,61
836,556	-32,08
836,733	19,11
836,909	84,65
837,086	-42,32
837,262	-40,28
837,439	6,83
837,616	-5,46
837,792	-25,94
837,968	53,93
838,145	-68,95
838,321	-42,32
838,498	76,46
838,674	64,17
838,851	-64,85
839,027	-7,51
839,203	-11,61
839,38	43,69
839,556	-95,57
839,732	215,72
839,909	19,11
840,085	27,31
840,261	-36,18
840,437	-44,37
840,614	-25,94
840,79	-23,89
840,966	51,88
841,142	-36,18
841,318	39,59
841,494	43,69
841,671	109,23
841,847	-46,42
842,023	-75,09
842,199	-30,04
842,375	88,75
842,551	-103,76
842,727	-60,76
842,903	180,9
843,079	-42,32
843,255	33,45
843,431	25,26
843,607	103,08
843,783	-132,44
843,959	74,41
844,134	-9,56
844,31	203,43
844,486	53,93
844,662	74,41
844,838	101,03
845,013	80,55
845,189	51,88
845,365	43,69
845,541	51,88
845,716	66,22
845,892	103,08
846,068	37,55
846,244	-34,13
846,419	35,5
846,595	-95,57
846,77	-40,28
846,946	21,16
847,122	70,31
847,297	-5,46
847,473	21,16
847,648	-87,38
847,824	41,64
847,999	-83,28
848,175	19,11
848,35	27,31
848,526	84,65
848,701	-3,41
848,876	70,31
849,052	-1,37
849,227	39,59
849,403	-34,13
849,578	-27,99
849,753	43,69
849,929	72,36
850,104	-21,84
850,279	-38,23
850,454	-62,8
850,63	10,92
850,805	123,56
850,98	-23,89
851,155	17,07
851,33	-9,56
851,505	-71
851,681	94,89
851,856	-13,65
852,031	80,55
852,206	-7,51
852,381	2,73
852,556	-54,61
852,731	-15,7
852,906	96,94
853,081	10,92
853,256	137,9
853,431	2,73
853,606	-32,08
853,781	-58,71
853,956	-101,72
854,131	-1,37
854,305	-32,08
854,48	21,16
854,655	-25,94
854,83	-46,42
855,005	39,59
855,18	19,11
855,354	-79,19
855,529	2,73
855,704	-73,04
855,879	-30,04
856,053	6,83
856,228	-19,8
856,403	-32,08
856,577	-13,65
856,752	-152,91
856,926	-13,65
857,101	23,21
857,276	-120,15
857,45	-34,13
857,625	60,07
857,799	21,16
857,974	-19,8
858,148	-83,28
858,323	98,99
858,497	-44,37
858,672	-42,32
858,846	-30,04
859,02	51,88
859,195	-25,94
859,369	-1,37
859,543	2,73
859,718	0,68
859,892	-21,84
860,066	31,4
860,241	41,64
860,415	-62,8
860,589	-38,23
860,763	-46,42
860,938	-48,47
861,112	49,83
861,286	-25,94
861,46	2,73
861,634	49,83
861,808	60,07
861,982	-68,95
862,157	-120,15
862,331	51,88
862,505	-46,42
862,679	23,21
862,853	-32,08
863,027	-66,9
863,201	185
863,375	-21,84
863,549	19,11
863,722	35,5
863,896	121,51
864,07	-58,71
864,244	2,73
864,418	0,68
864,592	-17,75
864,766	10,92
864,939	0,68
865,113	-25,94
865,287	109,23
865,461	-42,32
865,634	-3,41
865,808	60,07
865,982	-89,43
866,156	-54,61
866,329	15,02
866,503	-13,65
866,676	15,02
866,85	-23,89
867,024	-32,08
867,197	33,45
867,371	62,12
867,544	-34,13
867,718	-42,32
867,891	6,83
868,065	-60,76
868,238	-13,65
868,412	33,45
868,585	19,11
868,759	-97,62
868,932	-25,94
869,105	-54,61
869,279	17,07
869,452	-32,08
869,625	37,55
869,799	-15,7
869,972	-118,1
870,145	-3,41
870,319	68,27
870,492	-30,04
870,665	66,22
870,838	0,68
871,011	-62,8
871,185	-42,32
871,358	-9,56
871,531	76,46
871,704	49,83
871,877	-17,75
872,05	-3,41
872,223	-87,38
872,396	98,99
872,569	-52,56
872,742	-60,76
872,915	-21,84
873,088	-32,08
873,261	-50,52
873,434	25,26
873,607	45,74
873,78	64,17
873,953	-58,71
874,126	74,41
874,299	10,92
874,471	-87,38
874,644	-54,61
874,817	23,21
874,99	139,94
875,163	15,02
875,335	15,02
875,508	4,78
875,681	60,07
875,853	-73,04
876,026	27,31
876,199	39,59
876,371	41,64
876,544	-17,75
876,717	12,97
876,889	-7,51
877,062	74,41
877,234	-1,37
877,407	-7,51
877,579	-89,43
877,752	-27,99
877,924	-11,61
878,097	37,55
878,269	43,69
878,442	72,36
878,614	0,68
878,786	55,98
878,959	60,07
879,131	41,64
879,303	-114
879,476	43,69
879,648	109,23
879,82	41,64
879,993	-13,65
880,165	-103,76
880,337	-36,18
880,509	-3,41
880,681	-54,61
880,854	-97,62
881,026	25,26
881,198	119,46
881,37	-32,08
881,542	-17,75
881,714	-42,32
881,886	21,16
882,058	47,79
882,23	-13,65
882,402	-42,32
882,574	-1,37
882,746	23,21
882,918	51,88
883,09	119,46
883,262	-5,46
883,434	-7,51
883,606	-32,08
883,778	60,07
883,95	96,94
884,122	21,16
884,293	-21,84
884,465	-25,94
884,637	92,84
884,809	-75,09
884,98	19,11
885,152	43,69
885,324	88,75
885,496	-34,13
885,667	21,16
885,839	-50,52
886,011	33,45
886,182	-5,46
886,354	74,41
886,525	2,73
886,697	31,4
886,869	-32,08
887,04	-73,04
887,212	105,13
887,383	60,07
887,555	31,4
887,726	-40,28
887,897	15,02
888,069	-5,46
888,24	78,51
888,412	60,07
888,583	51,88
888,754	-73,04
888,926	-64,85
889,097	-3,41
889,268	-38,23
889,44	-56,66
889,611	33,45
889,782	-54,61
889,953	2,73
890,125	49,83
890,296	-44,37
890,467	-11,61
890,638	-46,42
890,809	-32,08
890,98	-27,99
891,151	0,68
891,323	115,37
891,494	6,83
891,665	29,35
891,836	-7,51
892,007	-15,7
892,178	-21,84
892,349	-48,47
892,52	-46,42
892,691	-13,65
892,862	-5,46
893,032	-95,57
893,203	-75,09
893,374	-1,37
893,545	146,09
893,716	-25,94
893,887	64,17
894,057	43,69
894,228	-21,84
894,399	-21,84
894,57	41,64
894,74	-13,65
894,911	25,26
895,082	25,26
895,253	-25,94
895,423	-75,09
895,594	2,73
895,764	27,31
895,935	-46,42
896,106	41,64
896,276	-62,8
896,447	55,98
896,617	-32,08
896,788	-38,23
896,958	-9,56
897,129	-17,75
897,299	-13,65
897,47	94,89
897,64	74,41
897,81	25,26
897,981	47,79
898,151	-42,32
898,322	-15,7
898,492	0,68
898,662	-87,38
898,832	-11,61
899,003	31,4
899,173	49,83
899,343	-83,28
899,513	-25,94
