Data from hydrogene_USB4F104151__4__09-04-09-838.txt Node

Date: Wed Apr 15 09:04:09 EDT 2026
User: LaboPhy
Spectrometer: USB4F10415
Trigger mode: 4
Integration Time (sec): 1,000000E-1
Scans to average: 1
Electric dark correction enabled: true
Nonlinearity correction enabled: false
Boxcar width: 0
XAxis mode: Wavelengths
Number of Pixels in Spectrum: 3648
>>>>>Begin Spectral Data<<<<<
178,204	-307,54
178,424	-307,54
178,644	-307,54
178,864	-362,83
179,084	-346,45
179,304	-22,87
179,524	-51,54
179,744	42,67
179,964	77,48
180,184	-26,96
180,404	143,02
180,624	-43,35
180,844	-24,92
181,064	-47,44
181,283	30,38
181,503	-108,88
181,723	32,43
181,943	-104,79
182,163	95,91
182,383	-100,69
182,602	106,15
182,822	140,97
183,042	26,28
183,262	-29,01
183,482	13,99
183,701	67,24
183,921	-20,82
184,141	13,99
184,361	77,48
184,58	-2,39
184,8	-10,58
185,02	-20,82
185,239	71,34
185,459	69,29
185,679	59,05
185,898	-31,06
186,118	30,38
186,338	-43,35
186,557	38,57
186,777	-20,82
186,997	-4,44
187,216	-0,34
187,436	128,68
187,655	34,47
187,875	77,48
188,095	28,33
188,314	134,82
188,534	118,44
188,753	18,09
188,973	143,02
189,192	143,02
189,412	40,62
189,631	-59,73
189,851	79,53
190,07	222,89
190,29	-84,31
190,509	-22,87
190,729	9,9
190,948	114,34
191,168	233,13
191,387	63,15
191,607	42,67
191,826	50,86
192,045	79,53
192,265	-63,83
192,484	61,1
192,704	52,91
192,923	-55,64
193,142	128,68
193,362	44,71
193,581	132,78
193,8	50,86
194,02	54,95
194,239	16,04
194,458	-43,35
194,678	-59,73
194,897	-18,77
195,116	32,43
195,335	18,09
195,555	54,95
195,774	-39,25
195,993	28,33
196,212	32,43
196,432	-22,87
196,651	34,47
196,87	30,38
197,089	138,92
197,308	52,91
197,528	38,57
197,747	-86,36
197,966	-2,39
198,185	122,54
198,404	-18,77
198,623	75,43
198,842	147,11
199,062	81,58
199,281	91,82
199,5	13,99
199,719	73,39
199,938	87,72
200,157	63,15
200,376	50,86
200,595	65,19
200,814	24,23
201,033	-26,96
201,252	91,82
201,471	77,48
201,69	87,72
201,909	1,71
202,128	77,48
202,347	-22,87
202,566	26,28
202,785	-49,49
203,004	-47,44
203,223	143,02
203,442	-10,58
203,661	-61,78
203,879	-10,58
204,098	46,76
204,317	67,24
204,536	91,82
204,755	44,71
204,974	132,78
205,193	-35,16
205,411	108,2
205,63	112,3
205,849	102,06
206,068	-31,06
206,287	-35,16
206,505	136,87
206,724	20,14
206,943	-12,63
207,162	24,23
207,381	128,68
207,599	11,95
207,818	124,58
208,037	-18,77
208,255	13,99
208,474	42,67
208,693	83,63
208,911	-33,11
209,13	20,14
209,349	93,87
209,567	83,63
209,786	48,81
210,005	151,21
210,223	1,71
210,442	-137,56
210,661	13,99
210,879	-41,3
211,098	102,06
211,316	-26,96
211,535	75,43
211,753	30,38
211,972	-26,96
212,191	16,04
212,409	-10,58
212,628	95,91
212,846	-2,39
213,065	5,8
213,283	54,95
213,502	-14,68
213,72	5,8
213,938	28,33
214,157	46,76
214,375	28,33
214,594	-14,68
214,812	95,91
215,031	-8,53
215,249	32,43
215,467	13,99
215,686	52,91
215,904	81,58
216,122	50,86
216,341	120,49
216,559	46,76
216,778	120,49
216,996	79,53
217,214	42,67
217,432	-20,82
217,651	-65,88
217,869	5,8
218,087	42,67
218,306	-127,32
218,524	9,9
218,742	18,09
218,96	89,77
219,179	-20,82
219,397	9,9
219,615	183,98
219,833	5,8
220,051	-43,35
220,27	112,3
220,488	30,38
220,706	-2,39
220,924	-4,44
221,142	-45,4
221,36	91,82
221,578	38,57
221,796	1,71
222,015	-55,64
222,233	24,23
222,451	120,49
222,669	-45,4
222,887	73,39
223,105	18,09
223,323	13,99
223,541	-2,39
223,759	26,28
223,977	-61,78
224,195	120,49
224,413	54,95
224,631	57
224,849	46,76
225,067	112,3
225,285	-86,36
225,503	46,76
225,721	-18,77
225,939	11,95
226,157	-6,49
226,375	163,5
226,592	28,33
226,81	42,67
227,028	38,57
227,246	44,71
227,464	22,19
227,682	57
227,9	63,15
228,117	42,67
228,335	-6,49
228,553	-18,77
228,771	13,99
228,989	32,43
229,206	59,05
229,424	-2,39
229,642	-67,92
229,86	-37,2
230,077	79,53
230,295	1,71
230,513	57
230,731	44,71
230,948	124,58
231,166	173,74
231,384	11,95
231,601	-31,06
231,819	177,83
232,037	-96,6
232,254	42,67
232,472	48,81
232,689	-26,96
232,907	54,95
233,125	9,9
233,342	24,23
233,56	-18,77
233,777	-45,4
233,995	38,57
234,213	87,72
234,43	65,19
234,648	-0,34
234,865	-45,4
235,083	124,58
235,3	61,1
235,518	48,81
235,735	75,43
235,953	20,14
236,17	54,95
236,388	-31,06
236,605	-22,87
236,822	42,67
237,04	54,95
237,257	38,57
237,475	-4,44
237,692	24,23
237,909	59,05
238,127	-41,3
238,344	46,76
238,562	-10,58
238,779	-18,77
238,996	-26,96
239,214	-26,96
239,431	26,28
239,648	-39,25
239,865	-20,82
240,083	87,72
240,3	3,75
240,517	-53,59
240,735	54,95
240,952	77,48
241,169	52,91
241,386	116,39
241,603	-10,58
241,821	-84,31
242,038	36,52
242,255	38,57
242,472	-98,64
242,689	57
242,907	87,72
243,124	-51,54
243,341	-31,06
243,558	18,09
243,775	-76,12
243,992	-61,78
244,209	-18,77
244,426	126,63
244,643	77,48
244,86	9,9
245,078	54,95
245,295	3,75
245,512	22,19
245,729	59,05
245,946	63,15
246,163	126,63
246,38	-29,01
246,597	26,28
246,814	-20,82
247,031	-41,3
247,248	-43,35
247,464	52,91
247,681	91,82
247,898	42,67
248,115	75,43
248,332	-2,39
248,549	52,91
248,766	128,68
248,983	34,47
249,2	-63,83
249,417	77,48
249,633	-4,44
249,85	48,81
250,067	-18,77
250,284	-20,82
250,501	93,87
250,717	20,14
250,934	-59,73
251,151	-26,96
251,368	22,19
251,585	-41,3
251,801	122,54
252,018	-82,26
252,235	48,81
252,451	-57,68
252,668	-51,54
252,885	155,3
253,102	100,01
253,318	20,14
253,535	-18,77
253,752	-12,63
253,968	40,62
254,185	-78,16
254,401	-12,63
254,618	48,81
254,835	7,85
255,051	102,06
255,268	100,01
255,484	-26,96
255,701	106,15
255,917	93,87
256,134	-29,01
256,351	-59,73
256,567	71,34
256,784	20,14
257	-35,16
257,217	95,91
257,433	44,71
257,65	-61,78
257,866	54,95
258,082	24,23
258,299	-31,06
258,515	30,38
258,732	-35,16
258,948	-33,11
259,165	46,76
259,381	-29,01
259,597	50,86
259,814	16,04
260,03	-18,77
260,246	-69,97
260,463	126,63
260,679	108,2
260,895	22,19
261,112	16,04
261,328	34,47
261,544	3,75
261,761	124,58
261,977	-67,92
262,193	-43,35
262,409	5,8
262,626	34,47
262,842	18,09
263,058	-2,39
263,274	69,29
263,49	-14,68
263,707	151,21
263,923	34,47
264,139	-31,06
264,355	16,04
264,571	87,72
264,787	5,8
265,004	26,28
265,22	7,85
265,436	11,95
265,652	-4,44
265,868	16,04
266,084	-35,16
266,3	44,71
266,516	28,33
266,732	52,91
266,948	-20,82
267,164	5,8
267,38	28,33
267,596	32,43
267,812	46,76
268,028	24,23
268,244	-45,4
268,46	44,71
268,676	-8,53
268,892	44,71
269,108	5,8
269,324	-14,68
269,54	-10,58
269,756	67,24
269,972	-69,97
270,188	16,04
270,403	5,8
270,619	34,47
270,835	79,53
271,051	87,72
271,267	-2,39
271,483	-33,11
271,698	63,15
271,914	20,14
272,13	54,95
272,346	-22,87
272,562	30,38
272,777	20,14
272,993	-61,78
273,209	-16,73
273,425	5,8
273,64	-22,87
273,856	42,67
274,072	-96,6
274,287	-10,58
274,503	87,72
274,719	-16,73
274,934	5,8
275,15	-158,03
275,366	-35,16
275,581	-76,12
275,797	13,99
276,012	52,91
276,228	44,71
276,444	75,43
276,659	50,86
276,875	-6,49
277,09	79,53
277,306	26,28
277,521	57
277,737	-2,39
277,952	95,91
278,168	79,53
278,383	5,8
278,599	18,09
278,814	26,28
279,03	48,81
279,245	120,49
279,461	26,28
279,676	-10,58
279,892	-53,59
280,107	-162,13
280,322	5,8
280,538	34,47
280,753	-59,73
280,969	1,71
281,184	-6,49
281,399	128,68
281,615	-6,49
281,83	34,47
282,045	-74,07
282,26	54,95
282,476	-35,16
282,691	30,38
282,906	57
283,122	128,68
283,337	-6,49
283,552	67,24
283,767	38,57
283,983	5,8
284,198	-6,49
284,413	20,14
284,628	-10,58
284,843	-18,77
285,058	22,19
285,274	11,95
285,489	-24,92
285,704	79,53
285,919	-24,92
286,134	40,62
286,349	71,34
286,564	-20,82
286,779	87,72
286,995	-33,11
287,21	-76,12
287,425	9,9
287,64	13,99
287,855	57
288,07	-53,59
288,285	112,3
288,5	22,19
288,715	89,77
288,93	-4,44
289,145	-2,39
289,36	-6,49
289,575	11,95
289,79	85,67
290,004	34,47
290,219	52,91
290,434	5,8
290,649	16,04
290,864	7,85
291,079	-22,87
291,294	91,82
291,509	24,23
291,724	-31,06
291,938	52,91
292,153	28,33
292,368	40,62
292,583	61,1
292,798	100,01
293,012	13,99
293,227	38,57
293,442	28,33
293,657	124,58
293,871	44,71
294,086	18,09
294,301	120,49
294,516	161,45
294,73	59,05
294,945	-117,08
295,16	44,71
295,374	71,34
295,589	5,8
295,804	-49,49
296,018	65,19
296,233	100,01
296,447	-12,63
296,662	-39,25
296,877	-2,39
297,091	30,38
297,306	28,33
297,52	-6,49
297,735	-22,87
297,949	38,57
298,164	44,71
298,378	50,86
298,593	42,67
298,807	7,85
299,022	-29,01
299,236	79,53
299,451	-8,53
299,665	-78,16
299,88	-16,73
300,094	20,14
300,309	-33,11
300,523	42,67
300,737	28,33
300,952	81,58
301,166	-33,11
301,381	-24,92
301,595	-112,98
301,809	26,28
302,024	-2,39
302,238	-33,11
302,452	71,34
302,667	54,95
302,881	108,2
303,095	48,81
303,309	-8,53
303,524	34,47
303,738	-20,82
303,952	9,9
304,166	46,76
304,381	-61,78
304,595	59,05
304,809	-12,63
305,023	-63,83
305,237	34,47
305,452	-37,2
305,666	46,76
305,88	22,19
306,094	87,72
306,308	54,95
306,522	50,86
306,736	30,38
306,95	54,95
307,164	95,91
307,379	44,71
307,593	128,68
307,807	134,82
308,021	48,81
308,235	102,06
308,449	-76,12
308,663	36,52
308,877	124,58
309,091	3,75
309,305	65,19
309,519	-35,16
309,733	85,67
309,947	-10,58
310,161	116,39
310,374	59,05
310,588	100,01
310,802	-59,73
311,016	-20,82
311,23	85,67
311,444	-2,39
311,658	1,71
311,872	128,68
312,085	36,52
312,299	93,87
312,513	48,81
312,727	93,87
312,941	-43,35
313,154	79,53
313,368	5,8
313,582	65,19
313,796	79,53
314,009	-72,02
314,223	194,22
314,437	16,04
314,651	108,2
314,864	5,8
315,078	-61,78
315,292	-6,49
315,505	-0,34
315,719	34,47
315,933	100,01
316,146	-10,58
316,36	-82,26
316,573	65,19
316,787	42,67
317,001	24,23
317,214	-67,92
317,428	18,09
317,641	11,95
317,855	38,57
318,068	-26,96
318,282	26,28
318,495	130,73
318,709	11,95
318,922	11,95
319,136	120,49
319,349	50,86
319,563	-45,4
319,776	3,75
319,99	-78,16
320,203	22,19
320,417	22,19
320,63	124,58
320,843	159,4
321,057	67,24
321,27	32,43
321,483	42,67
321,697	161,45
321,91	95,91
322,124	120,49
322,337	22,19
322,55	-6,49
322,763	-43,35
322,977	-26,96
323,19	-35,16
323,403	3,75
323,617	57
323,83	67,24
324,043	-65,88
324,256	-26,96
324,469	-29,01
324,683	87,72
324,896	-0,34
325,109	-0,34
325,322	13,99
325,535	157,35
325,748	91,82
325,962	-78,16
326,175	-12,63
326,388	120,49
326,601	24,23
326,814	-45,4
327,027	-35,16
327,24	-6,49
327,453	-133,46
327,666	63,15
327,879	112,3
328,092	20,14
328,305	5,8
328,518	36,52
328,731	-51,54
328,944	61,1
329,157	100,01
329,37	34,47
329,583	145,06
329,796	75,43
330,009	-35,16
330,222	26,28
330,435	75,43
330,648	71,34
330,861	-47,44
331,073	7,85
331,286	65,19
331,499	32,43
331,712	36,52
331,925	-22,87
332,138	50,86
332,35	118,44
332,563	46,76
332,776	71,34
332,989	36,52
333,202	20,14
333,414	9,9
333,627	22,19
333,84	28,33
334,053	69,29
334,265	7,85
334,478	-12,63
334,691	-39,25
334,903	13,99
335,116	77,48
335,329	69,29
335,541	87,72
335,754	118,44
335,966	13,99
336,179	26,28
336,392	16,04
336,604	-12,63
336,817	147,11
337,029	26,28
337,242	77,48
337,454	155,3
337,667	63,15
337,88	95,91
338,092	87,72
338,305	112,3
338,517	28,33
338,729	93,87
338,942	126,63
339,154	24,23
339,367	-20,82
339,579	149,16
339,792	-45,4
340,004	118,44
340,217	77,48
340,429	89,77
340,641	-4,44
340,854	-43,35
341,066	32,43
341,278	9,9
341,491	157,35
341,703	42,67
341,915	22,19
342,128	87,72
342,34	71,34
342,552	18,09
342,764	46,76
342,977	34,47
343,189	46,76
343,401	26,28
343,613	-35,16
343,826	9,9
344,038	24,23
344,25	34,47
344,462	13,99
344,674	30,38
344,886	46,76
345,099	18,09
345,311	48,81
345,523	16,04
345,735	-80,21
345,947	-2,39
346,159	7,85
346,371	59,05
346,583	16,04
346,795	124,58
347,007	54,95
347,219	20,14
347,431	46,76
347,643	128,68
347,855	-59,73
348,067	173,74
348,279	-59,73
348,491	32,43
348,703	91,82
348,915	42,67
349,127	1,71
349,339	20,14
349,551	38,57
349,763	83,63
349,975	71,34
350,187	110,25
350,399	63,15
350,61	75,43
350,822	16,04
351,034	24,23
351,246	48,81
351,458	71,34
351,669	59,05
351,881	140,97
352,093	104,11
352,305	128,68
352,517	112,3
352,728	85,67
352,94	87,72
353,152	83,63
353,363	28,33
353,575	124,58
353,787	136,87
353,999	128,68
354,21	104,11
354,422	-41,3
354,633	1,71
354,845	22,19
355,057	54,95
355,268	97,96
355,48	171,69
355,692	-78,16
355,903	34,47
356,115	-29,01
356,326	-10,58
356,538	108,2
356,749	138,92
356,961	85,67
357,172	5,8
357,384	34,47
357,595	140,97
357,807	5,8
358,018	18,09
358,23	59,05
358,441	186,02
358,653	79,53
358,864	13,99
359,075	36,52
359,287	30,38
359,498	100,01
359,709	67,24
359,921	36,52
360,132	85,67
360,344	79,53
360,555	3,75
360,766	59,05
360,977	26,28
361,189	165,54
361,4	28,33
361,611	130,73
361,823	124,58
362,034	73,39
362,245	30,38
362,456	32,43
362,667	93,87
362,879	-37,2
363,09	63,15
363,301	93,87
363,512	22,19
363,723	44,71
363,935	-63,83
364,146	157,35
364,357	102,06
364,568	95,91
364,779	-43,35
364,99	130,73
365,201	9,9
365,412	124,58
365,623	3,75
365,834	54,95
366,045	91,82
366,256	147,11
366,467	85,67
366,678	85,67
366,889	79,53
367,1	85,67
367,311	126,63
367,522	-8,53
367,733	79,53
367,944	126,63
368,155	104,11
368,366	104,11
368,577	120,49
368,788	89,77
368,999	20,14
369,209	100,01
369,42	288,42
369,631	190,12
369,842	138,92
370,053	48,81
370,264	83,63
370,474	77,48
370,685	110,25
370,896	145,06
371,107	63,15
371,317	75,43
371,528	69,29
371,739	200,36
371,95	190,12
372,16	126,63
372,371	38,57
372,582	110,25
372,792	136,87
373,003	145,06
373,214	22,19
373,424	138,92
373,635	11,95
373,846	220,84
374,056	93,87
374,267	93,87
374,477	153,26
374,688	110,25
374,898	75,43
375,109	36,52
375,319	118,44
375,53	145,06
375,74	112,3
375,951	71,34
376,161	143,02
376,372	204,46
376,582	38,57
376,793	116,39
377,003	126,63
377,214	54,95
377,424	204,46
377,635	120,49
377,845	42,67
378,055	118,44
378,266	87,72
378,476	114,34
378,686	112,3
378,897	34,47
379,107	110,25
379,317	153,26
379,528	46,76
379,738	159,4
379,948	128,68
380,158	214,7
380,369	87,72
380,579	81,58
380,789	77,48
380,999	126,63
381,21	192,17
381,42	167,59
381,63	85,67
381,84	198,31
382,05	75,43
382,261	165,54
382,471	151,21
382,681	128,68
382,891	169,64
383,101	165,54
383,311	16,04
383,521	116,39
383,731	75,43
383,941	136,87
384,151	167,59
384,361	112,3
384,571	175,78
384,781	120,49
384,991	210,6
385,201	272,04
385,411	159,4
385,621	87,72
385,831	93,87
386,041	136,87
386,251	206,5
386,461	200,36
386,671	102,06
386,881	128,68
387,091	165,54
387,301	116,39
387,511	145,06
387,72	171,69
387,93	143,02
388,14	85,67
388,35	145,06
388,56	204,46
388,769	124,58
388,979	85,67
389,189	116,39
389,399	116,39
389,609	198,31
389,818	267,94
390,028	65,19
390,238	83,63
390,447	38,57
390,657	169,64
390,867	161,45
391,076	30,38
391,286	159,4
391,496	42,67
391,705	50,86
391,915	159,4
392,125	192,17
392,334	52,91
392,544	143,02
392,753	120,49
392,963	71,34
393,172	71,34
393,382	110,25
393,591	192,17
393,801	52,91
394,01	226,98
394,22	159,4
394,429	46,76
394,639	143,02
394,848	128,68
395,058	161,45
395,267	85,67
395,477	243,37
395,686	183,98
395,895	169,64
396,105	310,95
396,314	169,64
396,524	106,15
396,733	202,41
396,942	298,66
397,152	175,78
397,361	190,12
397,57	140,97
397,78	210,6
397,989	161,45
398,198	243,37
398,407	95,91
398,617	67,24
398,826	93,87
399,035	50,86
399,244	165,54
399,453	77,48
399,663	132,78
399,872	157,35
400,081	1,71
400,29	169,64
400,499	116,39
400,708	192,17
400,917	83,63
401,127	89,77
401,336	46,76
401,545	212,65
401,754	147,11
401,963	153,26
402,172	108,2
402,381	11,95
402,59	83,63
402,799	183,98
403,008	108,2
403,217	112,3
403,426	87,72
403,635	85,67
403,844	59,05
404,053	143,02
404,262	102,06
404,471	292,52
404,68	48,81
404,888	36,52
405,097	116,39
405,306	87,72
405,515	118,44
405,724	124,58
405,933	190,12
406,142	128,68
406,35	181,93
406,559	79,53
406,768	140,97
406,977	224,94
407,185	145,06
407,394	112,3
407,603	42,67
407,812	118,44
408,02	224,94
408,229	59,05
408,438	167,59
408,646	136,87
408,855	52,91
409,064	179,88
409,272	206,5
409,481	196,26
409,69	200,36
409,898	118,44
410,107	282,28
410,315	315,05
410,524	181,93
410,733	239,27
410,941	175,78
411,15	210,6
411,358	226,98
411,567	229,03
411,775	112,3
411,984	95,91
412,192	145,06
412,401	63,15
412,609	153,26
412,818	167,59
413,026	91,82
413,234	124,58
413,443	89,77
413,651	143,02
413,86	32,43
414,068	173,74
414,276	186,02
414,485	91,82
414,693	143,02
414,901	143,02
415,11	89,77
415,318	57
415,526	143,02
415,734	126,63
415,943	126,63
416,151	192,17
416,359	71,34
416,567	77,48
416,776	198,31
416,984	145,06
417,192	235,18
417,4	69,29
417,608	9,9
417,817	110,25
418,025	165,54
418,233	204,46
418,441	-29,01
418,649	44,71
418,857	118,44
419,065	143,02
419,273	128,68
419,481	97,96
419,689	159,4
419,897	63,15
420,105	-2,39
420,313	112,3
420,521	169,64
420,729	132,78
420,937	28,33
421,145	42,67
421,353	151,21
421,561	161,45
421,769	104,11
421,977	-6,49
422,185	87,72
422,393	42,67
422,601	91,82
422,809	102,06
423,017	126,63
423,224	128,68
423,432	134,82
423,64	83,63
423,848	147,11
424,056	11,95
424,263	155,3
424,471	54,95
424,679	208,55
424,887	-8,53
425,094	130,73
425,302	136,87
425,51	85,67
425,718	79,53
425,925	63,15
426,133	-33,11
426,341	210,6
426,548	52,91
426,756	59,05
426,964	69,29
427,171	38,57
427,379	63,15
427,586	79,53
427,794	128,68
428,001	173,74
428,209	34,47
428,417	149,16
428,624	3,75
428,832	104,11
429,039	71,34
429,247	11,95
429,454	93,87
429,662	177,83
429,869	42,67
430,076	130,73
430,284	136,87
430,491	118,44
430,699	118,44
430,906	100,01
431,114	40,62
431,321	102,06
431,528	79,53
431,736	95,91
431,943	130,73
432,15	214,7
432,358	276,13
432,565	370,34
432,772	153,26
432,979	466,6
433,187	507,55
433,394	652,96
433,601	591,52
433,808	718,5
434,016	726,69
434,223	804,51
434,43	759,46
434,637	669,34
434,844	702,11
435,052	677,54
435,259	435,88
435,466	308,9
435,673	306,85
435,88	267,94
436,087	212,65
436,294	214,7
436,501	79,53
436,708	106,15
436,915	112,3
437,122	130,73
437,329	157,35
437,537	44,71
437,743	126,63
437,95	157,35
438,157	67,24
438,364	30,38
438,571	-2,39
438,778	143,02
438,985	153,26
439,192	108,2
439,399	63,15
439,606	79,53
439,813	118,44
440,02	249,51
440,227	194,22
440,433	143,02
440,64	118,44
440,847	116,39
441,054	108,2
441,261	169,64
441,467	124,58
441,674	48,81
441,881	183,98
442,088	93,87
442,294	106,15
442,501	153,26
442,708	155,3
442,914	97,96
443,121	91,82
443,328	110,25
443,534	169,64
443,741	46,76
443,948	26,28
444,154	106,15
444,361	214,7
444,568	104,11
444,774	87,72
444,981	38,57
445,187	272,04
445,394	46,76
445,6	112,3
445,807	95,91
446,013	89,77
446,22	50,86
446,426	140,97
446,633	145,06
446,839	222,89
447,046	30,38
447,252	177,83
447,459	75,43
447,665	38,57
447,871	173,74
448,078	112,3
448,284	77,48
448,491	222,89
448,697	183,98
448,903	181,93
449,11	44,71
449,316	73,39
449,522	108,2
449,728	100,01
449,935	173,74
450,141	63,15
450,347	134,82
450,553	116,39
450,76	26,28
450,966	102,06
451,172	63,15
451,378	48,81
451,584	69,29
451,791	167,59
451,997	128,68
452,203	149,16
452,409	11,95
452,615	186,02
452,821	67,24
453,027	-55,64
453,233	261,8
453,44	61,1
453,646	57
453,852	149,16
454,058	1,71
454,264	16,04
454,47	226,98
454,676	36,52
454,882	124,58
455,088	116,39
455,294	85,67
455,5	54,95
455,705	136,87
455,911	112,3
456,117	26,28
456,323	145,06
456,529	50,86
456,735	100,01
456,941	136,87
457,147	145,06
457,352	102,06
457,558	85,67
457,764	165,54
457,97	87,72
458,176	155,3
458,381	128,68
458,587	159,4
458,793	73,39
458,999	28,33
459,204	20,14
459,41	30,38
459,616	124,58
459,821	95,91
460,027	-10,58
460,233	126,63
460,438	153,26
460,644	177,83
460,85	63,15
461,055	198,31
461,261	147,11
461,466	52,91
461,672	77,48
461,878	63,15
462,083	161,45
462,289	-31,06
462,494	118,44
462,7	138,92
462,905	136,87
463,111	69,29
463,316	196,26
463,522	183,98
463,727	140,97
463,932	50,86
464,138	71,34
464,343	143,02
464,549	206,5
464,754	167,59
464,959	161,45
465,165	114,34
465,37	136,87
465,575	63,15
465,781	145,06
465,986	69,29
466,191	126,63
466,397	120,49
466,602	153,26
466,807	104,11
467,012	147,11
467,218	100,01
467,423	52,91
467,628	67,24
467,833	13,99
468,038	163,5
468,244	71,34
468,449	34,47
468,654	116,39
468,859	65,19
469,064	61,1
469,269	102,06
469,474	128,68
469,679	186,02
469,885	140,97
470,09	50,86
470,295	100,01
470,5	71,34
470,705	161,45
470,91	36,52
471,115	222,89
471,32	54,95
471,525	175,78
471,73	290,47
471,935	108,2
472,139	73,39
472,344	73,39
472,549	38,57
472,754	112,3
472,959	134,82
473,164	128,68
473,369	114,34
473,574	194,22
473,778	83,63
473,983	38,57
474,188	75,43
474,393	-18,77
474,598	87,72
474,802	73,39
475,007	13,99
475,212	157,35
475,417	67,24
475,621	204,46
475,826	42,67
476,031	40,62
476,235	54,95
476,44	134,82
476,645	138,92
476,849	128,68
477,054	-2,39
477,259	118,44
477,463	167,59
477,668	310,95
477,872	175,78
478,077	161,45
478,282	48,81
478,486	226,98
478,691	42,67
478,895	89,77
479,1	190,12
479,304	138,92
479,509	104,11
479,713	218,79
479,918	183,98
480,122	61,1
480,326	118,44
480,531	100,01
480,735	179,88
480,94	116,39
481,144	169,64
481,348	140,97
481,553	231,08
481,757	30,38
481,961	194,22
482,166	87,72
482,37	104,11
482,574	97,96
482,778	-18,77
482,983	110,25
483,187	79,53
483,391	177,83
483,595	200,36
483,8	276,13
484,004	525,99
484,208	806,56
484,412	1259,16
484,616	1857,17
484,821	2498,18
485,025	3491,45
485,229	4664,93
485,433	5946,96
485,637	7063,1
485,841	8201,77
486,045	9225,76
486,249	9643,54
486,453	9188,89
486,657	8838,69
486,861	7974,45
487,065	6682,18
487,269	5879,38
487,473	4550,25
487,677	3741,3
487,881	3155,58
488,085	2401,93
488,289	1973,9
488,493	1369,75
488,697	1189,53
488,901	806,56
489,105	558,75
489,309	372,39
489,512	333,48
489,716	220,84
489,92	126,63
490,124	171,69
490,328	233,13
490,531	179,88
490,735	206,5
490,939	36,52
491,143	138,92
491,346	177,83
491,55	153,26
491,754	175,78
491,958	194,22
492,161	177,83
492,365	110,25
492,569	175,78
492,772	200,36
492,976	202,41
493,18	130,73
493,383	177,83
493,587	206,5
493,79	165,54
493,994	181,93
494,197	124,58
494,401	190,12
494,605	59,05
494,808	145,06
495,012	91,82
495,215	153,26
495,419	226,98
495,622	57
495,825	30,38
496,029	186,02
496,232	138,92
496,436	114,34
496,639	206,5
496,843	91,82
497,046	69,29
497,249	118,44
497,453	186,02
497,656	34,47
497,859	147,11
498,063	194,22
498,266	112,3
498,469	40,62
498,673	28,33
498,876	63,15
499,079	46,76
499,282	83,63
499,485	286,37
499,689	93,87
499,892	253,61
500,095	85,67
500,298	167,59
500,501	57
500,705	95,91
500,908	48,81
501,111	175,78
501,314	181,93
501,517	161,45
501,72	116,39
501,923	192,17
502,126	106,15
502,329	126,63
502,532	143,02
502,735	118,44
502,938	149,16
503,141	85,67
503,344	48,81
503,547	198,31
503,75	79,53
503,953	-53,59
504,156	128,68
504,359	52,91
504,562	77,48
504,765	77,48
504,968	177,83
505,17	136,87
505,373	83,63
505,576	114,34
505,779	52,91
505,982	71,34
506,185	85,67
506,387	128,68
506,59	194,22
506,793	106,15
506,996	183,98
507,198	110,25
507,401	87,72
507,604	192,17
507,807	91,82
508,009	157,35
508,212	149,16
508,415	91,82
508,617	87,72
508,82	71,34
509,022	126,63
509,225	118,44
509,428	34,47
509,63	165,54
509,833	71,34
510,035	214,7
510,238	124,58
510,44	13,99
510,643	181,93
510,845	181,93
511,048	140,97
511,25	126,63
511,453	95,91
511,655	81,58
511,858	75,43
512,06	159,4
512,262	36,52
512,465	116,39
512,667	126,63
512,87	13,99
513,072	169,64
513,274	147,11
513,477	79,53
513,679	24,23
513,881	100,01
514,084	24,23
514,286	132,78
514,488	124,58
514,69	54,95
514,893	44,71
515,095	83,63
515,297	61,1
515,499	147,11
515,701	118,44
515,904	136,87
516,106	276,13
516,308	108,2
516,51	112,3
516,712	214,7
516,914	87,72
517,116	42,67
517,318	63,15
517,52	151,21
517,722	112,3
517,925	1,71
518,127	44,71
518,329	161,45
518,531	22,19
518,733	61,1
518,935	34,47
519,136	104,11
519,338	104,11
519,54	52,91
519,742	71,34
519,944	149,16
520,146	116,39
520,348	145,06
520,55	118,44
520,752	67,24
520,954	-43,35
521,155	124,58
521,357	22,19
521,559	136,87
521,761	194,22
521,963	128,68
522,164	69,29
522,366	136,87
522,568	79,53
522,77	145,06
522,971	102,06
523,173	153,26
523,375	167,59
523,576	44,71
523,778	18,09
523,98	186,02
524,181	177,83
524,383	159,4
524,584	163,5
524,786	122,54
524,988	30,38
525,189	110,25
525,391	112,3
525,592	46,76
525,794	11,95
525,995	81,58
526,197	52,91
526,398	226,98
526,6	93,87
526,801	97,96
527,003	3,75
527,204	118,44
527,406	186,02
527,607	38,57
527,808	36,52
528,01	71,34
528,211	173,74
528,412	34,47
528,614	167,59
528,815	190,12
529,016	81,58
529,218	65,19
529,419	186,02
529,62	-47,44
529,822	169,64
530,023	161,45
530,224	87,72
530,425	175,78
530,626	-10,58
530,828	-10,58
531,029	38,57
531,23	112,3
531,431	95,91
531,632	138,92
531,833	44,71
532,035	52,91
532,236	-6,49
532,437	112,3
532,638	9,9
532,839	46,76
533,04	114,34
533,241	145,06
533,442	138,92
533,643	65,19
533,844	13,99
534,045	63,15
534,246	120,49
534,447	81,58
534,648	57
534,849	110,25
535,05	59,05
535,251	26,28
535,451	97,96
535,652	110,25
535,853	63,15
536,054	128,68
536,255	71,34
536,456	95,91
536,657	48,81
536,857	85,67
537,058	134,82
537,259	30,38
537,46	73,39
537,66	-12,63
537,861	95,91
538,062	128,68
538,263	-22,87
538,463	81,58
538,664	71,34
538,865	63,15
539,065	100,01
539,266	151,21
539,466	102,06
539,667	102,06
539,868	42,67
540,068	108,2
540,269	134,82
540,469	71,34
540,67	247,46
540,87	136,87
541,071	5,8
541,271	112,3
541,472	130,73
541,672	136,87
541,873	118,44
542,073	-18,77
542,274	165,54
542,474	134,82
542,675	153,26
542,875	79,53
543,075	-2,39
543,276	7,85
543,476	116,39
543,676	91,82
543,877	11,95
544,077	73,39
544,277	161,45
544,478	83,63
544,678	73,39
544,878	69,29
545,078	52,91
545,279	34,47
545,479	77,48
545,679	69,29
545,879	120,49
546,079	126,63
546,28	-26,96
546,48	59,05
546,68	210,6
546,88	122,54
547,08	-35,16
547,28	61,1
547,48	30,38
547,68	108,2
547,88	87,72
548,081	122,54
548,281	-26,96
548,481	71,34
548,681	-20,82
548,881	95,91
549,081	130,73
549,28	128,68
549,48	11,95
549,68	87,72
549,88	61,1
550,08	63,15
550,28	-35,16
550,48	229,03
550,68	59,05
550,88	30,38
551,08	28,33
551,279	50,86
551,479	-12,63
551,679	104,11
551,879	38,57
552,079	112,3
552,278	59,05
552,478	155,3
552,678	93,87
552,878	67,24
553,077	102,06
553,277	134,82
553,477	-14,68
553,676	130,73
553,876	1,71
554,076	87,72
554,275	118,44
554,475	97,96
554,674	110,25
554,874	79,53
555,074	-29,01
555,273	61,1
555,473	26,28
555,672	34,47
555,872	63,15
556,071	59,05
556,271	124,58
556,47	54,95
556,67	22,19
556,869	175,78
557,068	83,63
557,268	40,62
557,467	79,53
557,667	145,06
557,866	5,8
558,065	42,67
558,265	16,04
558,464	24,23
558,663	106,15
558,863	9,9
559,062	30,38
559,261	48,81
559,461	128,68
559,66	118,44
559,859	-14,68
560,058	-8,53
560,258	26,28
560,457	97,96
560,656	143,02
560,855	-80,21
561,054	130,73
561,253	104,11
561,453	104,11
561,652	20,14
561,851	169,64
562,05	71,34
562,249	-47,44
562,448	124,58
562,647	-37,2
562,846	-33,11
563,045	112,3
563,244	157,35
563,443	118,44
563,642	52,91
563,841	75,43
564,04	52,91
564,239	89,77
564,438	50,86
564,637	-20,82
564,836	42,67
565,035	30,38
565,234	34,47
565,432	71,34
565,631	126,63
565,83	30,38
566,029	93,87
566,228	67,24
566,427	175,78
566,625	-69,97
566,824	157,35
567,023	36,52
567,222	130,73
567,42	112,3
567,619	134,82
567,818	52,91
568,016	210,6
568,215	136,87
568,414	245,41
568,612	149,16
568,811	132,78
569,01	100,01
569,208	91,82
569,407	136,87
569,605	171,69
569,804	128,68
570,002	112,3
570,201	118,44
570,4	263,85
570,598	165,54
570,797	161,45
570,995	13,99
571,193	138,92
571,392	190,12
571,59	100,01
571,789	204,46
571,987	222,89
572,186	226,98
572,384	149,16
572,582	165,54
572,781	208,55
572,979	89,77
573,177	134,82
573,376	155,3
573,574	218,79
573,772	63,15
573,971	126,63
574,169	120,49
574,367	186,02
574,565	32,43
574,763	132,78
574,962	190,12
575,16	173,74
575,358	194,22
575,556	177,83
575,754	169,64
575,952	165,54
576,151	198,31
576,349	261,8
576,547	95,91
576,745	226,98
576,943	175,78
577,141	173,74
577,339	93,87
577,537	204,46
577,735	288,42
577,933	226,98
578,131	157,35
578,329	313
578,527	208,55
578,725	267,94
578,923	157,35
579,121	214,7
579,319	136,87
579,516	237,22
579,714	362,15
579,912	239,27
580,11	171,69
580,308	290,47
580,506	276,13
580,704	145,06
580,901	226,98
581,099	399,01
581,297	392,87
581,495	341,67
581,692	333,48
581,89	446,12
582,088	364,2
582,285	302,76
582,483	331,43
582,681	323,24
582,878	251,56
583,076	360,1
583,274	259,75
583,471	390,82
583,669	245,41
583,866	222,89
584,064	186,02
584,262	145,06
584,459	169,64
584,657	218,79
584,854	241,32
585,052	292,52
585,249	177,83
585,447	194,22
585,644	104,11
585,841	155,3
586,039	222,89
586,236	282,28
586,434	165,54
586,631	181,93
586,828	157,35
587,026	181,93
587,223	104,11
587,42	143,02
587,618	267,94
587,815	218,79
588,012	198,31
588,21	169,64
588,407	257,7
588,604	319,14
588,801	226,98
588,999	235,18
589,196	243,37
589,393	210,6
589,59	216,74
589,787	216,74
589,984	159,4
590,182	229,03
590,379	102,06
590,576	183,98
590,773	159,4
590,97	143,02
591,167	204,46
591,364	194,22
591,561	124,58
591,758	284,33
591,955	212,65
592,152	218,79
592,349	134,82
592,546	140,97
592,743	206,5
592,94	216,74
593,137	282,28
593,334	362,15
593,531	302,76
593,727	294,57
593,924	233,13
594,121	210,6
594,318	194,22
594,515	380,58
594,712	269,99
594,908	374,44
595,105	161,45
595,302	241,32
595,499	222,89
595,696	362,15
595,892	153,26
596,089	235,18
596,286	116,39
596,482	216,74
596,679	261,8
596,876	132,78
597,072	329,38
597,269	267,94
597,466	229,03
597,662	110,25
597,859	169,64
598,055	218,79
598,252	167,59
598,448	292,52
598,645	292,52
598,841	235,18
599,038	304,81
599,234	282,28
599,431	194,22
599,627	181,93
599,824	128,68
600,02	132,78
600,217	87,72
600,413	183,98
600,609	161,45
600,806	321,19
601,002	157,35
601,198	128,68
601,395	194,22
601,591	145,06
601,787	231,08
601,984	296,61
602,18	243,37
602,376	220,84
602,572	378,53
602,769	366,25
602,965	304,81
603,161	317,09
603,357	306,85
603,553	351,91
603,75	202,41
603,946	161,45
604,142	259,75
604,338	321,19
604,534	120,49
604,73	190,12
604,926	102,06
605,122	233,13
605,318	126,63
605,514	226,98
605,71	140,97
605,906	206,5
606,102	226,98
606,298	243,37
606,494	272,04
606,69	267,94
606,886	247,46
607,082	212,65
607,278	183,98
607,474	194,22
607,67	179,88
607,866	120,49
608,062	214,7
608,257	237,22
608,453	79,53
608,649	186,02
608,845	167,59
609,041	161,45
609,236	220,84
609,432	292,52
609,628	272,04
609,824	173,74
610,019	118,44
610,215	186,02
610,411	128,68
610,606	233,13
610,802	54,95
610,998	112,3
611,193	161,45
611,389	71,34
611,584	247,46
611,78	157,35
611,976	194,22
612,171	235,18
612,367	190,12
612,562	206,5
612,758	231,08
612,953	61,1
613,149	161,45
613,344	118,44
613,539	145,06
613,735	181,93
613,93	183,98
614,126	157,35
614,321	220,84
614,517	261,8
614,712	222,89
614,907	140,97
615,103	118,44
615,298	226,98
615,493	79,53
615,688	89,77
615,884	128,68
616,079	73,39
616,274	149,16
616,47	61,1
616,665	50,86
616,86	112,3
617,055	91,82
617,25	108,2
617,445	173,74
617,641	93,87
617,836	79,53
618,031	24,23
618,226	159,4
618,421	132,78
618,616	97,96
618,811	116,39
619,006	71,34
619,201	143,02
619,396	112,3
619,591	104,11
619,786	222,89
619,981	206,5
620,176	128,68
620,371	26,28
620,566	75,43
620,761	97,96
620,956	63,15
621,151	128,68
621,346	140,97
621,541	24,23
621,735	214,7
621,93	186,02
622,125	95,91
622,32	81,58
622,515	22,19
622,709	196,26
622,904	159,4
623,099	116,39
623,294	179,88
623,488	110,25
623,683	112,3
623,878	112,3
624,072	165,54
624,267	83,63
624,462	126,63
624,656	59,05
624,851	110,25
625,046	67,24
625,24	52,91
625,435	42,67
625,629	38,57
625,824	169,64
626,018	97,96
626,213	136,87
626,407	-18,77
626,602	63,15
626,796	116,39
626,991	112,3
627,185	22,19
627,38	128,68
627,574	202,41
627,768	106,15
627,963	59,05
628,157	108,2
628,352	91,82
628,546	22,19
628,74	102,06
628,935	54,95
629,129	128,68
629,323	145,06
629,517	-43,35
629,712	65,19
629,906	79,53
630,1	124,58
630,294	171,69
630,489	167,59
630,683	128,68
630,877	46,76
631,071	110,25
631,265	67,24
631,459	63,15
631,653	67,24
631,848	118,44
632,042	132,78
632,236	63,15
632,43	122,54
632,624	122,54
632,818	169,64
633,012	222,89
633,206	206,5
633,4	79,53
633,594	89,77
633,788	126,63
633,982	175,78
634,176	192,17
634,369	104,11
634,563	44,71
634,757	5,8
634,951	63,15
635,145	128,68
635,339	104,11
635,533	118,44
635,726	147,11
635,92	40,62
636,114	48,81
636,308	30,38
636,501	46,76
636,695	169,64
636,889	-43,35
637,083	97,96
637,276	9,9
637,47	20,14
637,664	24,23
637,857	50,86
638,051	36,52
638,244	163,5
638,438	13,99
638,632	259,75
638,825	-53,59
639,019	165,54
639,212	59,05
639,406	143,02
639,599	24,23
639,793	54,95
639,986	140,97
640,18	157,35
640,373	87,72
640,567	97,96
640,76	50,86
640,954	116,39
641,147	89,77
641,34	79,53
641,534	102,06
641,727	157,35
641,92	210,6
642,114	104,11
642,307	26,28
642,5	126,63
642,694	9,9
642,887	104,11
643,08	136,87
643,273	122,54
643,467	71,34
643,66	71,34
643,853	-12,63
644,046	112,3
644,239	52,91
644,432	-14,68
644,626	-18,77
644,819	106,15
645,012	77,48
645,205	52,91
645,398	104,11
645,591	61,1
645,784	11,95
645,977	38,57
646,17	52,91
646,363	93,87
646,556	38,57
646,749	-10,58
646,942	143,02
647,135	153,26
647,328	71,34
647,521	34,47
647,714	69,29
647,907	118,44
648,099	52,91
648,292	151,21
648,485	67,24
648,678	3,75
648,871	54,95
649,064	97,96
649,256	-47,44
649,449	46,76
649,642	24,23
649,835	-10,58
650,027	81,58
650,22	179,88
650,413	85,67
650,605	122,54
650,798	71,34
650,991	52,91
651,183	93,87
651,376	186,02
651,568	179,88
651,761	122,54
651,954	169,64
652,146	231,08
652,339	253,61
652,531	222,89
652,724	140,97
652,916	118,44
653,109	42,67
653,301	229,03
653,494	179,88
653,686	143,02
653,879	243,37
654,071	231,08
654,263	243,37
654,456	243,37
654,648	798,37
654,84	2551,43
655,033	6506,06
655,225	13485,53
655,417	22750,54
655,61	33338,54
655,802	42808,35
655,994	51559,32
656,186	59050,79
656,379	62259,96
656,571	61451,01
656,763	58811,18
656,955	56236,88
657,148	52489,1
657,34	48755,65
657,532	43480,08
657,724	39523,41
657,916	34714,78
658,108	30067,94
658,3	24864,05
658,492	20995,43
658,684	17012,14
658,876	14212,56
659,068	11740,66
659,26	9469,47
659,452	7276,09
659,644	5351
659,836	3927,66
660,028	2561,67
660,22	1867,41
660,412	1347,22
660,604	921,24
660,796	663,2
660,988	597,67
661,18	513,7
661,372	485,03
661,563	306,85
661,755	310,95
661,947	104,11
662,139	196,26
662,331	204,46
662,522	190,12
662,714	151,21
662,906	159,4
663,097	145,06
663,289	93,87
663,481	-10,58
663,673	192,17
663,864	130,73
664,056	134,82
664,247	61,1
664,439	87,72
664,631	112,3
664,822	188,07
665,014	134,82
665,205	44,71
665,397	46,76
665,588	63,15
665,78	22,19
665,971	175,78
666,163	75,43
666,354	67,24
666,546	-45,4
666,737	73,39
666,929	-2,39
667,12	52,91
667,311	91,82
667,503	20,14
667,694	177,83
667,885	69,29
668,077	106,15
668,268	-20,82
668,459	3,75
668,651	69,29
668,842	93,87
669,033	77,48
669,224	18,09
669,416	183,98
669,607	110,25
669,798	1,71
669,989	147,11
670,18	11,95
670,371	77,48
670,563	28,33
670,754	190,12
670,945	73,39
671,136	79,53
671,327	34,47
671,518	145,06
671,709	140,97
671,9	63,15
672,091	126,63
672,282	104,11
672,473	26,28
672,664	-67,92
672,855	32,43
673,046	26,28
673,237	79,53
673,428	79,53
673,619	120,49
673,809	36,52
674	114,34
674,191	104,11
674,382	77,48
674,573	-57,68
674,764	52,91
674,954	13,99
675,145	5,8
675,336	54,95
675,527	7,85
675,717	-24,92
675,908	46,76
676,099	3,75
676,289	-2,39
676,48	20,14
676,671	18,09
676,861	-96,6
677,052	36,52
677,243	-41,3
677,433	-65,88
677,624	110,25
677,814	30,38
678,005	1,71
678,195	104,11
678,386	-47,44
678,576	112,3
678,767	-90,45
678,957	79,53
679,148	42,67
679,338	71,34
679,529	30,38
679,719	16,04
679,909	13,99
680,1	69,29
680,29	30,38
680,481	-2,39
680,671	112,3
680,861	11,95
681,052	-12,63
681,242	-29,01
681,432	20,14
681,622	77,48
681,813	-63,83
682,003	-26,96
682,193	-76,12
682,383	38,57
682,573	38,57
682,764	-4,44
682,954	44,71
683,144	116,39
683,334	-20,82
683,524	26,28
683,714	46,76
683,904	-6,49
684,094	16,04
684,284	-10,58
684,474	118,44
684,664	79,53
684,854	-18,77
685,044	61,1
685,234	3,75
685,424	-18,77
685,614	-20,82
685,804	159,4
685,994	32,43
686,184	-67,92
686,374	34,47
686,564	48,81
686,753	-2,39
686,943	-96,6
687,133	26,28
687,323	-57,68
687,513	5,8
687,702	-39,25
687,892	-84,31
688,082	13,99
688,272	-14,68
688,461	-2,39
688,651	87,72
688,841	1,71
689,03	79,53
689,22	5,8
689,41	87,72
689,599	100,01
689,789	-31,06
689,979	130,73
690,168	7,85
690,358	85,67
690,547	54,95
690,737	5,8
690,926	-12,63
691,116	38,57
691,305	42,67
691,495	5,8
691,684	3,75
691,874	-39,25
692,063	52,91
692,252	126,63
692,442	34,47
692,631	1,71
692,82	-10,58
693,01	93,87
693,199	-37,2
693,388	67,24
693,578	30,38
693,767	34,47
693,956	67,24
694,146	-0,34
694,335	30,38
694,524	42,67
694,713	85,67
694,902	30,38
695,092	-51,54
695,281	28,33
695,47	59,05
695,659	36,52
695,848	104,11
696,037	-26,96
696,226	-6,49
696,415	20,14
696,604	116,39
696,793	34,47
696,982	30,38
697,171	104,11
697,36	38,57
697,549	44,71
697,738	-45,4
697,927	-18,77
698,116	-47,44
698,305	48,81
698,494	46,76
698,683	-53,59
698,872	95,91
699,061	-18,77
699,25	9,9
699,438	1,71
699,627	-14,68
699,816	114,34
700,005	-110,93
700,193	-29,01
700,382	85,67
700,571	24,23
700,76	-18,77
700,948	-2,39
701,137	28,33
701,326	97,96
701,514	-53,59
701,703	13,99
701,892	-26,96
702,08	120,49
702,269	-26,96
702,457	-22,87
702,646	38,57
702,834	-12,63
703,023	5,8
703,212	50,86
703,4	-55,64
703,589	3,75
703,777	13,99
703,965	-26,96
704,154	-47,44
704,342	-14,68
704,531	9,9
704,719	-24,92
704,907	71,34
705,096	-10,58
705,284	3,75
705,472	-6,49
705,661	46,76
705,849	59,05
706,037	136,87
706,226	63,15
706,414	95,91
706,602	42,67
706,79	61,1
706,979	7,85
707,167	-31,06
707,355	-61,78
707,543	18,09
707,731	102,06
707,919	-2,39
708,107	63,15
708,296	36,52
708,484	13,99
708,672	44,71
708,86	-59,73
709,048	9,9
709,236	-29,01
709,424	61,1
709,612	52,91
709,8	-45,4
709,988	-6,49
710,176	124,58
710,364	91,82
710,551	-84,31
710,739	-14,68
710,927	-10,58
711,115	-2,39
711,303	20,14
711,491	30,38
711,679	3,75
711,866	18,09
712,054	-14,68
712,242	61,1
712,43	13,99
712,617	3,75
712,805	63,15
712,993	3,75
713,181	13,99
713,368	97,96
713,556	20,14
713,744	59,05
713,931	136,87
714,119	40,62
714,306	-10,58
714,494	52,91
714,682	-31,06
714,869	-39,25
715,057	-67,92
715,244	-108,88
715,432	73,39
715,619	-43,35
715,807	-12,63
715,994	-26,96
716,182	71,34
716,369	46,76
716,556	54,95
716,744	-41,3
716,931	-22,87
717,119	28,33
717,306	-35,16
717,493	26,28
717,681	-37,2
717,868	-35,16
718,055	42,67
718,242	-12,63
718,43	9,9
718,617	112,3
718,804	-67,92
718,991	24,23
719,179	38,57
719,366	95,91
719,553	28,33
719,74	-10,58
719,927	-31,06
720,114	57
720,301	-53,59
720,488	-20,82
720,676	-49,49
720,863	104,11
721,05	91,82
721,237	57
721,424	44,71
721,611	11,95
721,798	-100,69
721,985	-82,26
722,172	26,28
722,358	1,71
722,545	104,11
722,732	34,47
722,919	69,29
723,106	95,91
723,293	57
723,48	91,82
723,667	-65,88
723,853	132,78
724,04	50,86
724,227	54,95
724,414	-6,49
724,6	38,57
724,787	186,02
724,974	200,36
725,161	46,76
725,347	5,8
725,534	93,87
725,72	91,82
725,907	132,78
726,094	46,76
726,28	93,87
726,467	30,38
726,653	-31,06
726,84	112,3
727,027	130,73
727,213	73,39
727,4	116,39
727,586	71,34
727,773	-2,39
727,959	46,76
728,145	100,01
728,332	-18,77
728,518	-31,06
728,705	32,43
728,891	54,95
729,077	65,19
729,264	-12,63
729,45	-0,34
729,636	-6,49
729,823	-53,59
730,009	40,62
730,195	-63,83
730,382	50,86
730,568	-92,5
730,754	26,28
730,94	42,67
731,126	-22,87
731,313	69,29
731,499	52,91
731,685	13,99
731,871	59,05
732,057	34,47
732,243	57
732,429	65,19
732,615	130,73
732,801	1,71
732,987	20,14
733,173	112,3
733,359	24,23
733,545	13,99
733,731	36,52
733,917	128,68
734,103	-37,2
734,289	-2,39
734,475	-39,25
734,661	102,06
734,847	120,49
735,033	-8,53
735,219	57
735,404	-0,34
735,59	28,33
735,776	3,75
735,962	36,52
736,148	20,14
736,333	69,29
736,519	59,05
736,705	-10,58
736,89	-22,87
737,076	30,38
737,262	-20,82
737,447	-47,44
737,633	-16,73
737,819	20,14
738,004	46,76
738,19	22,19
738,375	18,09
738,561	67,24
738,747	93,87
738,932	-45,4
739,118	116,39
739,303	18,09
739,489	26,28
739,674	79,53
739,859	-51,54
740,045	85,67
740,23	34,47
740,416	-67,92
740,601	-10,58
740,786	-2,39
740,972	36,52
741,157	-20,82
741,342	-10,58
741,528	-35,16
741,713	46,76
741,898	28,33
742,084	5,8
742,269	-31,06
742,454	44,71
742,639	13,99
742,824	20,14
743,01	120,49
743,195	167,59
743,38	13,99
743,565	-2,39
743,75	-43,35
743,935	44,71
744,12	128,68
744,305	30,38
744,49	54,95
744,675	-12,63
744,86	-51,54
745,045	26,28
745,23	85,67
745,415	54,95
745,6	102,06
745,785	9,9
745,97	95,91
746,155	54,95
746,34	16,04
746,525	100,01
746,71	106,15
746,895	-0,34
747,079	-51,54
747,264	-35,16
747,449	120,49
747,634	140,97
747,819	67,24
748,003	16,04
748,188	-2,39
748,373	97,96
748,557	71,34
748,742	9,9
748,927	-2,39
749,111	-2,39
749,296	-18,77
749,481	104,11
749,665	-2,39
749,85	38,57
750,034	59,05
750,219	34,47
750,404	-14,68
750,588	20,14
750,773	1,71
750,957	65,19
751,141	50,86
751,326	110,25
751,51	-29,01
751,695	48,81
751,879	61,1
752,064	36,52
752,248	57
752,432	157,35
752,617	63,15
752,801	97,96
752,985	-26,96
753,17	179,88
753,354	91,82
753,538	13,99
753,722	-51,54
753,907	1,71
754,091	-106,84
754,275	57
754,459	-43,35
754,643	26,28
754,828	3,75
755,012	22,19
755,196	7,85
755,38	-22,87
755,564	5,8
755,748	-24,92
755,932	42,67
756,116	89,77
756,3	54,95
756,484	-12,63
756,668	106,15
756,852	-115,03
757,036	-55,64
757,22	52,91
757,404	24,23
757,588	-45,4
757,772	50,86
757,956	-45,4
758,14	50,86
758,323	-45,4
758,507	126,63
758,691	9,9
758,875	118,44
759,059	120,49
759,242	13,99
759,426	63,15
759,61	22,19
759,794	-43,35
759,977	9,9
760,161	290,47
760,345	126,63
760,528	85,67
760,712	13,99
760,895	26,28
761,079	-29,01
761,263	-74,07
761,446	-2,39
761,63	42,67
761,813	81,58
761,997	-33,11
762,18	-29,01
762,364	79,53
762,547	-129,36
762,731	18,09
762,914	-29,01
763,098	-20,82
763,281	40,62
763,464	16,04
763,648	-20,82
763,831	5,8
764,015	-76,12
764,198	52,91
764,381	9,9
764,564	3,75
764,748	40,62
764,931	83,63
765,114	-14,68
765,297	114,34
765,481	5,8
765,664	28,33
765,847	-18,77
766,03	112,3
766,213	54,95
766,397	67,24
766,58	-37,2
766,763	95,91
766,946	18,09
767,129	57
767,312	-78,16
767,495	16,04
767,678	5,8
767,861	-86,36
768,044	16,04
768,227	-0,34
768,41	9,9
768,593	75,43
768,776	-57,68
768,959	67,24
769,142	38,57
769,324	24,23
769,507	67,24
769,69	-100,69
769,873	-26,96
770,056	134,82
770,239	79,53
770,421	-8,53
770,604	61,1
770,787	30,38
770,97	79,53
771,152	-26,96
771,335	30,38
771,518	-18,77
771,7	100,01
771,883	128,68
772,066	-35,16
772,248	11,95
772,431	93,87
772,613	11,95
772,796	7,85
772,978	3,75
773,161	134,82
773,343	-22,87
773,526	-43,35
773,708	-51,54
773,891	-51,54
774,073	57
774,256	22,19
774,438	59,05
774,621	13,99
774,803	54,95
774,985	13,99
775,168	38,57
775,35	13,99
775,532	54,95
775,715	-43,35
775,897	9,9
776,079	28,33
776,261	20,14
776,444	93,87
776,626	54,95
776,808	59,05
776,99	26,28
777,173	118,44
777,355	87,72
777,537	202,41
777,719	69,29
777,901	44,71
778,083	134,82
778,265	-22,87
778,447	102,06
778,629	140,97
778,811	42,67
778,993	143,02
779,175	136,87
779,357	95,91
779,539	-43,35
779,721	71,34
779,903	171,69
780,085	1,71
780,267	-2,39
780,449	16,04
780,631	67,24
780,812	36,52
780,994	-18,77
781,176	30,38
781,358	5,8
781,54	-88,4
781,721	65,19
781,903	65,19
782,085	3,75
782,267	50,86
782,448	-141,65
782,63	24,23
782,812	-24,92
782,993	69,29
783,175	67,24
783,357	-10,58
783,538	3,75
783,72	-6,49
783,901	-14,68
784,083	85,67
784,264	-51,54
784,446	-104,79
784,627	-61,78
784,809	36,52
784,99	-24,92
785,172	52,91
785,353	1,71
785,535	-63,83
785,716	-37,2
785,897	-92,5
786,079	22,19
786,26	-0,34
786,441	50,86
786,623	-61,78
786,804	-31,06
786,985	-47,44
787,167	44,71
787,348	-31,06
787,529	32,43
787,71	91,82
787,891	-39,25
788,073	-45,4
788,254	-102,74
788,435	50,86
788,616	34,47
788,797	-2,39
788,978	1,71
789,159	5,8
789,34	-41,3
789,522	-53,59
789,703	-84,31
789,884	52,91
790,065	16,04
790,246	102,06
790,427	-16,73
790,607	5,8
790,788	50,86
790,969	-76,12
791,15	79,53
791,331	-29,01
791,512	-20,82
791,693	-6,49
791,874	-55,64
792,054	151,21
792,235	95,91
792,416	-61,78
792,597	-14,68
792,778	20,14
792,958	-12,63
793,139	-49,49
793,32	-10,58
793,5	-153,94
793,681	40,62
793,862	-18,77
794,042	-2,39
794,223	-74,07
794,404	-51,54
794,584	-55,64
794,765	-2,39
794,945	18,09
795,126	95,91
795,306	59,05
795,487	-35,16
795,667	-18,77
795,848	-24,92
796,028	-82,26
796,209	5,8
796,389	24,23
796,57	-31,06
796,75	-69,97
796,93	-4,44
797,111	-59,73
797,291	-6,49
797,471	67,24
797,652	-4,44
797,832	-0,34
798,012	-22,87
798,192	5,8
798,373	-86,36
798,553	13,99
798,733	18,09
798,913	-47,44
799,093	-31,06
799,274	-47,44
799,454	16,04
799,634	59,05
799,814	69,29
799,994	-14,68
800,174	-2,39
800,354	-14,68
800,534	-69,97
800,714	-24,92
800,894	-51,54
801,074	-31,06
801,254	-26,96
801,434	36,52
801,614	30,38
801,794	-26,96
801,974	1332,89
802,154	-35,16
802,334	65,19
802,514	-55,64
802,693	46,76
802,873	-33,11
803,053	7,85
803,233	16,04
803,413	-39,25
803,592	-92,5
803,772	3,75
803,952	36,52
804,131	-53,59
804,311	97,96
804,491	75,43
804,67	-69,97
804,85	-76,12
805,03	-35,16
805,209	134,82
805,389	16,04
805,568	-65,88
805,748	-76,12
805,928	13,99
806,107	26,28
806,287	-0,34
806,466	-22,87
806,646	-53,59
806,825	3,75
807,004	11,95
807,184	46,76
807,363	54,95
807,543	-49,49
807,722	-76,12
807,901	20,14
808,081	26,28
808,26	-72,02
808,439	9,9
808,619	-10,58
808,798	-43,35
808,977	38,57
809,156	120,49
809,336	69,29
809,515	13,99
809,694	-127,32
809,873	-4,44
810,052	63,15
810,231	34,47
810,411	34,47
810,59	42,67
810,769	-10,58
810,948	120,49
811,127	-100,69
811,306	-39,25
811,485	-88,4
811,664	145,06
811,843	-22,87
812,022	5,8
812,201	-51,54
812,38	-31,06
812,559	-37,2
812,737	-41,3
812,916	-78,16
813,095	-67,92
813,274	3,75
813,453	-6,49
813,632	30,38
813,811	-22,87
813,989	-78,16
814,168	-35,16
814,347	-78,16
814,526	-4,44
814,704	63,15
814,883	143,02
815,062	18,09
815,24	42,67
815,419	-39,25
815,598	-35,16
815,776	-98,64
815,955	-31,06
816,133	-59,73
816,312	71,34
816,49	5,8
816,669	1,71
816,847	-29,01
817,026	54,95
817,204	-20,82
817,383	-0,34
817,561	-35,16
817,74	30,38
817,918	-12,63
818,097	-33,11
818,275	-115,03
818,453	5,8
818,632	5,8
818,81	-24,92
818,988	-43,35
819,167	9,9
819,345	-12,63
819,523	-55,64
819,701	40,62
819,879	-43,35
820,058	-51,54
820,236	69,29
820,414	26,28
820,592	-117,08
820,77	-33,11
820,948	-76,12
821,127	16,04
821,305	34,47
821,483	-82,26
821,661	59,05
821,839	-26,96
822,017	26,28
822,195	-92,5
822,373	-2,39
822,551	-0,34
822,729	22,19
822,907	-22,87
823,085	-39,25
823,262	22,19
823,44	-61,78
823,618	-12,63
823,796	20,14
823,974	-53,59
824,152	-39,25
824,329	11,95
824,507	69,29
824,685	16,04
824,863	-53,59
825,04	-51,54
825,218	-4,44
825,396	-29,01
825,574	11,95
825,751	-45,4
825,929	71,34
826,107	-127,32
826,284	30,38
826,462	50,86
826,639	-108,88
826,817	-69,97
826,994	13,99
827,172	-96,6
827,349	73,39
827,527	-26,96
827,704	-49,49
827,882	-12,63
828,059	-35,16
828,237	-59,73
828,414	13,99
828,591	-106,84
828,769	-43,35
828,946	-76,12
829,124	63,15
829,301	71,34
829,478	28,33
829,655	-12,63
829,833	-53,59
830,01	-141,65
830,187	24,23
830,364	22,19
830,542	-18,77
830,719	83,63
830,896	26,28
831,073	-67,92
831,25	63,15
831,427	-20,82
831,604	79,53
831,782	-100,69
831,959	52,91
832,136	-18,77
832,313	-35,16
832,49	-31,06
832,667	3,75
832,844	-110,93
833,021	77,48
833,198	5,8
833,374	16,04
833,551	-63,83
833,728	-2,39
833,905	57
834,082	-100,69
834,259	-39,25
834,436	42,67
834,612	-153,94
834,789	61,1
834,966	34,47
835,143	40,62
835,319	-84,31
835,496	126,63
835,673	-6,49
835,85	-18,77
836,026	13,99
836,203	97,96
836,38	-35,16
836,556	-57,68
836,733	-82,26
836,909	28,33
837,086	-35,16
837,262	-24,92
837,439	-18,77
837,616	18,09
837,792	-35,16
837,968	5,8
838,145	-67,92
838,321	-2,39
838,498	-4,44
838,674	-20,82
838,851	18,09
839,027	9,9
839,203	-0,34
839,38	22,19
839,556	-22,87
839,732	71,34
839,909	-43,35
840,085	54,95
840,261	24,23
840,437	-2,39
840,614	-92,5
840,79	-4,44
840,966	-18,77
841,142	18,09
841,318	16,04
841,494	30,38
841,671	52,91
841,847	3,75
842,023	-82,26
842,199	61,1
842,375	87,72
842,551	-82,26
842,727	-53,59
842,903	54,95
843,079	-12,63
843,255	112,3
843,431	-6,49
843,607	32,43
843,783	-160,08
843,959	5,8
844,134	-16,73
844,31	143,02
844,486	-55,64
844,662	24,23
844,838	100,01
845,013	38,57
845,189	124,58
845,365	69,29
845,541	61,1
845,716	46,76
845,892	83,63
846,068	-4,44
846,244	16,04
846,419	46,76
846,595	-139,6
846,77	-18,77
846,946	59,05
847,122	-10,58
847,297	-20,82
847,473	112,3
847,648	-26,96
847,824	42,67
847,999	-133,46
848,175	16,04
848,35	-35,16
848,526	75,43
848,701	38,57
848,876	67,24
849,052	44,71
849,227	-35,16
849,403	32,43
849,578	-37,2
849,753	40,62
849,929	75,43
850,104	-121,17
850,279	5,8
850,454	34,47
850,63	5,8
850,805	-35,16
850,98	20,14
851,155	-12,63
851,33	-18,77
851,505	-45,4
851,681	91,82
851,856	-6,49
852,031	69,29
852,206	36,52
852,381	-84,31
852,556	-31,06
852,731	38,57
852,906	9,9
853,081	-14,68
853,256	52,91
853,431	28,33
853,606	-0,34
853,781	-22,87
853,956	-94,55
854,131	-31,06
854,305	-39,25
854,48	-2,39
854,655	-16,73
854,83	-4,44
855,005	7,85
855,18	59,05
855,354	-117,08
855,529	11,95
855,704	-72,02
855,879	28,33
856,053	-72,02
856,228	83,63
856,403	3,75
856,577	3,75
856,752	-57,68
856,926	-39,25
857,101	-31,06
857,276	-119,12
857,45	-26,96
857,625	63,15
857,799	22,19
857,974	26,28
858,148	-125,27
858,323	59,05
858,497	-26,96
858,672	-4,44
858,846	-8,53
859,02	9,9
859,195	-51,54
859,369	11,95
859,543	-10,58
859,718	-20,82
859,892	-35,16
860,066	-8,53
860,241	-35,16
860,415	-69,97
860,589	9,9
860,763	-65,88
860,938	-8,53
861,112	26,28
861,286	-8,53
861,46	44,71
861,634	-45,4
861,808	50,86
861,982	-76,12
862,157	-39,25
862,331	-59,73
862,505	-12,63
862,679	-149,84
862,853	-76,12
863,027	-6,49
863,201	114,34
863,375	-39,25
863,549	67,24
863,722	20,14
863,896	83,63
864,07	-14,68
864,244	-2,39
864,418	-49,49
864,592	28,33
864,766	-31,06
864,939	-29,01
865,113	-78,16
865,287	124,58
865,461	-119,12
865,634	-31,06
865,808	-45,4
865,982	-6,49
866,156	-80,21
866,329	-92,5
866,503	95,91
866,676	59,05
866,85	18,09
867,024	-31,06
867,197	-16,73
867,371	57
867,544	-18,77
867,718	9,9
867,891	120,49
868,065	-104,79
868,238	-4,44
868,412	67,24
868,585	22,19
868,759	-67,92
868,932	-26,96
869,105	-76,12
869,279	3,75
869,452	-104,79
869,625	30,38
869,799	38,57
869,972	-100,69
870,145	-35,16
870,319	11,95
870,492	-43,35
870,665	-6,49
870,838	-35,16
871,011	-80,21
871,185	-43,35
871,358	-55,64
871,531	71,34
871,704	34,47
871,877	-63,83
872,05	26,28
872,223	-112,98
872,396	22,19
872,569	59,05
872,742	-92,5
872,915	9,9
873,088	-51,54
873,261	-20,82
873,434	38,57
873,607	-69,97
873,78	71,34
873,953	-49,49
874,126	-12,63
874,299	18,09
874,471	-86,36
874,644	48,81
874,817	3,75
874,99	112,3
875,163	-35,16
875,335	42,67
875,508	-8,53
875,681	59,05
875,853	-57,68
876,026	-26,96
876,199	18,09
876,371	46,76
876,544	7,85
876,717	32,43
876,889	-2,39
877,062	13,99
877,234	-80,21
877,407	-43,35
877,579	5,8
877,752	9,9
877,924	38,57
878,097	-51,54
878,269	59,05
878,442	-14,68
878,614	61,1
878,786	-20,82
878,959	-29,01
879,131	-35,16
879,303	-94,55
879,476	-22,87
879,648	52,91
879,82	-31,06
879,993	-26,96
880,165	42,67
880,337	-78,16
880,509	-37,2
880,681	-121,17
880,854	3,75
881,026	89,77
881,198	214,7
881,37	-14,68
881,542	1,71
881,714	-41,3
881,886	-51,54
882,058	-45,4
882,23	26,28
882,402	-24,92
882,574	1,71
882,746	38,57
882,918	69,29
883,09	-16,73
883,262	24,23
883,434	-84,31
883,606	-82,26
883,778	-35,16
883,95	1,71
884,122	-35,16
884,293	-4,44
884,465	44,71
884,637	-51,54
884,809	-57,68
884,98	-31,06
885,152	46,76
885,324	32,43
885,496	-39,25
885,667	-12,63
885,839	-63,83
886,011	48,81
886,182	42,67
886,354	83,63
886,525	-20,82
886,697	3,75
886,869	-102,74
887,04	-12,63
887,212	89,77
887,383	102,06
887,555	-67,92
887,726	-33,11
887,897	11,95
888,069	-4,44
888,24	61,1
888,412	-26,96
888,583	-22,87
888,754	-22,87
888,926	-53,59
889,097	7,85
889,268	-110,93
889,44	-2,39
889,611	-84,31
889,782	-55,64
889,953	-117,08
890,125	161,45
890,296	-102,74
890,467	-53,59
890,638	3,75
890,809	-2,39
890,98	11,95
891,151	-2,39
891,323	-18,77
891,494	-6,49
891,665	1,71
891,836	-76,12
892,007	36,52
892,178	30,38
892,349	-31,06
892,52	-16,73
892,691	46,76
892,862	-20,82
893,032	-63,83
893,203	-88,4
893,374	-26,96
893,545	79,53
893,716	-24,92
893,887	20,14
894,057	30,38
894,228	77,48
894,399	-67,92
894,57	95,91
894,74	-43,35
894,911	26,28
895,082	-35,16
895,253	7,85
895,423	-78,16
895,594	5,8
895,764	5,8
895,935	-94,55
896,106	1,71
896,276	-84,31
896,447	-18,77
896,617	-4,44
896,788	-84,31
896,958	-26,96
897,129	-12,63
897,299	-141,65
897,47	-24,92
897,64	-39,25
897,81	-29,01
897,981	-41,3
898,151	-43,35
898,322	-10,58
898,492	22,19
898,662	-102,74
898,832	5,8
899,003	36,52
899,173	30,38
899,343	-47,44
899,513	-92,5
