Data from hydrogene_USB4F104151__0__09-04-09-433.txt Node

Date: Wed Apr 15 09:04:09 EDT 2026
User: LaboPhy
Spectrometer: USB4F10415
Trigger mode: 4
Integration Time (sec): 1,000000E-1
Scans to average: 1
Electric dark correction enabled: true
Nonlinearity correction enabled: false
Boxcar width: 0
XAxis mode: Wavelengths
Number of Pixels in Spectrum: 3648
>>>>>Begin Spectral Data<<<<<
178,204	-274,26
178,424	-274,26
178,644	-274,26
178,864	-350,03
179,084	-286,54
179,304	22,7
179,524	16,55
179,744	32,94
179,964	0,17
180,184	-51,03
180,404	51,37
180,624	-24,4
180,844	77,99
181,064	-135
181,283	43,18
181,503	-38,74
181,723	4,27
181,943	-3,93
182,163	157,86
182,383	47,27
182,602	34,99
182,822	51,37
183,042	24,75
183,262	22,7
183,482	39,08
183,701	53,42
183,921	55,47
184,141	63,66
184,361	108,71
184,58	24,75
184,8	57,51
185,02	-83,8
185,239	88,23
185,459	139,43
185,679	139,43
185,898	-38,74
186,118	14,51
186,338	67,75
186,557	63,66
186,777	8,36
186,997	32,94
187,216	24,75
187,436	194,73
187,655	100,52
187,875	86,19
188,095	-8,02
188,314	129,19
188,534	125,1
188,753	2,22
188,973	110,76
189,192	153,77
189,412	-26,45
189,631	-46,93
189,851	71,85
190,07	147,62
190,29	0,17
190,509	-28,5
190,729	-46,93
190,948	34,99
191,168	260,26
191,387	12,46
191,607	22,7
191,826	43,18
192,045	2,22
192,265	14,51
192,484	39,08
192,704	90,28
192,923	-79,7
193,142	209,06
193,362	22,7
193,581	147,62
193,8	55,47
194,02	133,29
194,239	18,6
194,458	45,23
194,678	-8,02
194,897	-34,64
195,116	53,42
195,335	123,05
195,555	80,04
195,774	10,41
195,993	149,67
196,212	49,32
196,432	2,22
196,651	-75,6
196,87	32,94
197,089	164,01
197,308	100,52
197,528	108,71
197,747	-18,26
197,966	106,67
198,185	151,72
198,404	-32,6
198,623	55,47
198,842	108,71
199,062	153,77
199,281	164,01
199,5	67,75
199,719	45,23
199,938	112,81
200,157	161,96
200,376	53,42
200,595	151,72
200,814	53,42
201,033	-5,97
201,252	176,3
201,471	32,94
201,69	102,57
201,909	34,99
202,128	92,33
202,347	37,03
202,566	39,08
202,785	-75,6
203,004	-91,99
203,223	268,45
203,442	26,79
203,661	47,27
203,879	92,33
204,098	98,47
204,317	24,75
204,536	90,28
204,755	37,03
204,974	118,95
205,193	49,32
205,411	69,8
205,63	51,37
205,849	98,47
206,068	88,23
206,287	10,41
206,505	133,29
206,724	41,13
206,943	-67,41
207,162	-18,26
207,381	108,71
207,599	14,51
207,818	43,18
208,037	-22,36
208,255	24,75
208,474	75,95
208,693	59,56
208,911	4,27
209,13	88,23
209,349	112,81
209,567	135,34
209,786	82,09
210,005	96,43
210,223	49,32
210,442	-65,36
210,661	26,79
210,879	28,84
211,098	18,6
211,316	-16,21
211,535	75,95
211,753	59,56
211,972	96,43
212,191	34,99
212,409	80,04
212,628	90,28
212,846	-14,17
213,065	104,62
213,283	100,52
213,502	96,43
213,72	75,95
213,938	-8,02
214,157	57,51
214,375	51,37
214,594	75,95
214,812	71,85
215,031	39,08
215,249	26,79
215,467	10,41
215,686	41,13
215,904	73,9
216,122	45,23
216,341	129,19
216,559	41,13
216,778	157,86
216,996	73,9
217,214	96,43
217,432	-67,41
217,651	-20,31
217,869	34,99
218,087	73,9
218,306	-22,36
218,524	108,71
218,742	18,6
218,96	90,28
219,179	63,66
219,397	-14,17
219,615	184,49
219,833	80,04
220,051	-24,4
220,27	69,8
220,488	90,28
220,706	32,94
220,924	-42,84
221,142	26,79
221,36	61,61
221,578	26,79
221,796	51,37
222,015	14,51
222,233	49,32
222,451	80,04
222,669	-65,36
222,887	104,62
223,105	-10,07
223,323	-20,31
223,541	0,17
223,759	123,05
223,977	2,22
224,195	77,99
224,413	121
224,631	14,51
224,849	57,51
225,067	108,71
225,285	6,31
225,503	67,75
225,721	-87,89
225,939	45,23
226,157	32,94
226,375	164,01
226,592	16,55
226,81	41,13
227,028	143,53
227,246	75,95
227,464	10,41
227,682	14,51
227,9	-16,21
228,117	86,19
228,335	30,89
228,553	-61,27
228,771	-1,88
228,989	-51,03
229,206	43,18
229,424	-24,4
229,642	-48,98
229,86	0,17
230,077	77,99
230,295	-1,88
230,513	75,95
230,731	65,71
230,948	127,14
231,166	88,23
231,384	47,27
231,601	18,6
231,819	174,25
232,037	-26,45
232,254	-18,26
232,472	69,8
232,689	-3,93
232,907	47,27
233,125	-1,88
233,342	-53,08
233,56	49,32
233,777	34,99
233,995	22,7
234,213	59,56
234,43	37,03
234,648	18,6
234,865	-18,26
235,083	98,47
235,3	47,27
235,518	41,13
235,735	116,9
235,953	143,53
236,17	43,18
236,388	14,51
236,605	125,1
236,822	16,55
237,04	67,75
237,257	41,13
237,475	41,13
237,692	69,8
237,909	90,28
238,127	14,51
238,344	98,47
238,562	90,28
238,779	-10,07
238,996	47,27
239,214	84,14
239,431	26,79
239,648	10,41
239,865	98,47
240,083	41,13
240,3	-38,74
240,517	-38,74
240,735	-5,97
240,952	116,9
241,169	65,71
241,386	57,51
241,603	55,47
241,821	-26,45
242,038	118,95
242,255	75,95
242,472	2,22
242,689	71,85
242,907	67,75
243,124	86,19
243,341	59,56
243,558	-30,55
243,775	-67,41
243,992	-18,26
244,209	41,13
244,426	100,52
244,643	53,42
244,86	26,79
245,078	90,28
245,295	-18,26
245,512	16,55
245,729	-40,79
245,946	63,66
246,163	94,38
246,38	18,6
246,597	-16,21
246,814	65,71
247,031	-8,02
247,248	53,42
247,464	123,05
247,681	-38,74
247,898	75,95
248,115	59,56
248,332	-71,51
248,549	18,6
248,766	137,38
248,983	-18,26
249,2	65,71
249,417	47,27
249,633	20,65
249,85	16,55
250,067	63,66
250,284	34,99
250,501	4,27
250,717	129,19
250,934	-44,88
251,151	49,32
251,368	49,32
251,585	71,85
251,801	0,17
252,018	-34,64
252,235	71,85
252,451	-28,5
252,668	8,36
252,885	108,71
253,102	71,85
253,318	-14,17
253,535	-38,74
253,752	-18,26
253,968	2,22
254,185	-51,03
254,401	49,32
254,618	61,61
254,835	-22,36
255,051	84,14
255,268	57,51
255,484	30,89
255,701	-67,41
255,917	100,52
256,134	20,65
256,351	-3,93
256,567	-1,88
256,784	49,32
257	-71,51
257,217	147,62
257,433	145,58
257,65	0,17
257,866	157,86
258,082	-38,74
258,299	49,32
258,515	51,37
258,732	77,99
258,948	-12,12
259,165	18,6
259,381	-32,6
259,597	34,99
259,814	2,22
260,03	65,71
260,246	37,03
260,463	84,14
260,679	149,67
260,895	41,13
261,112	84,14
261,328	24,75
261,544	-87,89
261,761	131,24
261,977	-36,69
262,193	-16,21
262,409	139,43
262,626	108,71
262,842	28,84
263,058	65,71
263,274	118,95
263,49	51,37
263,707	110,76
263,923	-38,74
264,139	-73,56
264,355	84,14
264,571	84,14
264,787	57,51
265,004	98,47
265,22	-20,31
265,436	-44,88
265,652	61,61
265,868	-32,6
266,084	-20,31
266,3	94,38
266,516	-1,88
266,732	-53,08
266,948	51,37
267,164	39,08
267,38	180,39
267,596	88,23
267,812	155,82
268,028	8,36
268,244	6,31
268,46	39,08
268,676	30,89
268,892	63,66
269,108	-32,6
269,324	-28,5
269,54	-38,74
269,756	-3,93
269,972	10,41
270,188	49,32
270,403	43,18
270,619	6,31
270,835	39,08
271,051	69,8
271,267	-16,21
271,483	100,52
271,698	63,66
271,914	-5,97
272,13	37,03
272,346	10,41
272,562	10,41
272,777	67,75
272,993	14,51
273,209	14,51
273,425	94,38
273,64	-57,17
273,856	34,99
274,072	43,18
274,287	-38,74
274,503	-16,21
274,719	65,71
274,934	39,08
275,15	-145,24
275,366	-32,6
275,581	8,36
275,797	20,65
276,012	34,99
276,228	0,17
276,444	34,99
276,659	110,76
276,875	-12,12
277,09	2,22
277,306	-51,03
277,521	14,51
277,737	24,75
277,952	168,1
278,168	73,9
278,383	-61,27
278,599	57,51
278,814	137,38
279,03	49,32
279,245	161,96
279,461	-18,26
279,676	88,23
279,892	-63,32
280,107	-71,51
280,322	-71,51
280,538	45,23
280,753	4,27
280,969	49,32
281,184	47,27
281,399	51,37
281,615	61,61
281,83	63,66
282,045	-79,7
282,26	-44,88
282,476	6,31
282,691	57,51
282,906	57,51
283,122	43,18
283,337	73,9
283,552	86,19
283,767	-18,26
283,983	77,99
284,198	10,41
284,413	-12,12
284,628	-20,31
284,843	-20,31
285,058	80,04
285,274	32,94
285,489	6,31
285,704	92,33
285,919	-26,45
286,134	43,18
286,349	67,75
286,564	22,7
286,779	77,99
286,995	-46,93
287,21	-75,6
287,425	100,52
287,64	71,85
287,855	43,18
288,07	14,51
288,285	2,22
288,5	108,71
288,715	49,32
288,93	4,27
289,145	-26,45
289,36	22,7
289,575	-28,5
289,79	143,53
290,004	24,75
290,219	22,7
290,434	-24,4
290,649	-55,12
290,864	0,17
291,079	28,84
291,294	67,75
291,509	65,71
291,724	114,86
291,938	30,89
292,153	34,99
292,368	18,6
292,583	34,99
292,798	45,23
293,012	22,7
293,227	26,79
293,442	28,84
293,657	32,94
293,871	30,89
294,086	10,41
294,301	139,43
294,516	96,43
294,73	43,18
294,945	-110,42
295,16	18,6
295,374	121
295,589	125,1
295,804	16,55
296,018	39,08
296,233	75,95
296,447	73,9
296,662	-69,46
296,877	43,18
297,091	67,75
297,306	45,23
297,52	14,51
297,735	82,09
297,949	37,03
298,164	49,32
298,378	24,75
298,593	8,36
298,807	-57,17
299,022	155,82
299,236	143,53
299,451	39,08
299,665	-30,55
299,88	12,46
300,094	24,75
300,309	0,17
300,523	32,94
300,737	-38,74
300,952	-24,4
301,166	102,57
301,381	-55,12
301,595	30,89
301,809	30,89
302,024	-14,17
302,238	30,89
302,452	164,01
302,667	16,55
302,881	96,43
303,095	71,85
303,309	-14,17
303,524	-38,74
303,738	-10,07
303,952	32,94
304,166	14,51
304,381	-48,98
304,595	137,38
304,809	-30,55
305,023	26,79
305,237	-36,69
305,452	-59,22
305,666	10,41
305,88	43,18
306,094	71,85
306,308	37,03
306,522	100,52
306,736	49,32
306,95	59,56
307,164	-53,08
307,379	0,17
307,593	24,75
307,807	98,47
308,021	34,99
308,235	92,33
308,449	-34,64
308,663	73,9
308,877	202,92
309,091	73,9
309,305	84,14
309,519	-51,03
309,733	207,02
309,947	-26,45
310,161	65,71
310,374	49,32
310,588	94,38
310,802	-16,21
311,016	4,27
311,23	-28,5
311,444	18,6
311,658	0,17
311,872	43,18
312,085	75,95
312,299	30,89
312,513	86,19
312,727	133,29
312,941	39,08
313,154	43,18
313,368	67,75
313,582	6,31
313,796	-22,36
314,009	-36,69
314,223	116,9
314,437	-22,36
314,651	98,47
314,864	0,17
315,078	41,13
315,292	18,6
315,505	32,94
315,719	55,47
315,933	100,52
316,146	65,71
316,36	-26,45
316,573	96,43
316,787	121
317,001	47,27
317,214	-81,75
317,428	57,51
317,641	-8,02
317,855	6,31
318,068	84,14
318,282	96,43
318,495	161,96
318,709	67,75
318,922	41,13
319,136	96,43
319,349	26,79
319,563	8,36
319,776	90,28
319,99	-75,6
320,203	30,89
320,417	20,65
320,63	164,01
320,843	106,67
321,057	-12,12
321,27	47,27
321,483	45,23
321,697	114,86
321,91	51,37
322,124	34,99
322,337	77,99
322,55	-3,93
322,763	10,41
322,977	57,51
323,19	51,37
323,403	-3,93
323,617	47,27
323,83	141,48
324,043	18,6
324,256	45,23
324,469	-10,07
324,683	45,23
324,896	61,61
325,109	-34,64
325,322	-63,32
325,535	55,47
325,748	102,57
325,962	2,22
326,175	-20,31
326,388	121
326,601	129,19
326,814	47,27
327,027	8,36
327,24	186,54
327,453	12,46
327,666	57,51
327,879	102,57
328,092	34,99
328,305	98,47
328,518	26,79
328,731	-57,17
328,944	0,17
329,157	73,9
329,37	18,6
329,583	166,06
329,796	88,23
330,009	-30,55
330,222	127,14
330,435	92,33
330,648	55,47
330,861	63,66
331,073	84,14
331,286	133,29
331,499	67,75
331,712	30,89
331,925	65,71
332,138	43,18
332,35	55,47
332,563	-22,36
332,776	213,16
332,989	-16,21
333,202	94,38
333,414	-36,69
333,627	63,66
333,84	63,66
334,053	18,6
334,265	34,99
334,478	-30,55
334,691	-1,88
334,903	26,79
335,116	-55,12
335,329	49,32
335,541	49,32
335,754	164,01
335,966	-24,4
336,179	47,27
336,392	34,99
336,604	6,31
336,817	116,9
337,029	125,1
337,242	71,85
337,454	96,43
337,667	59,56
337,88	75,95
338,092	57,51
338,305	80,04
338,517	77,99
338,729	133,29
338,942	164,01
339,154	-30,55
339,367	30,89
339,579	51,37
339,792	18,6
340,004	24,75
340,217	65,71
340,429	86,19
340,641	8,36
340,854	69,8
341,066	-3,93
341,278	121
341,491	174,25
341,703	28,84
341,915	10,41
342,128	67,75
342,34	166,06
342,552	47,27
342,764	41,13
342,977	8,36
343,189	96,43
343,401	100,52
343,613	-40,79
343,826	49,32
344,038	28,84
344,25	80,04
344,462	67,75
344,674	34,99
344,886	96,43
345,099	106,67
345,311	96,43
345,523	84,14
345,735	39,08
345,947	59,56
346,159	84,14
346,371	116,9
346,583	41,13
346,795	161,96
347,007	0,17
347,219	114,86
347,431	-5,97
347,643	129,19
347,855	39,08
348,067	149,67
348,279	-26,45
348,491	22,7
348,703	100,52
348,915	10,41
349,127	-42,84
349,339	67,75
349,551	8,36
349,763	98,47
349,975	10,41
350,187	57,51
350,399	141,48
350,61	67,75
350,822	49,32
351,034	43,18
351,246	16,55
351,458	88,23
351,669	49,32
351,881	104,62
352,093	129,19
352,305	116,9
352,517	61,61
352,728	176,3
352,94	116,9
353,152	135,34
353,363	90,28
353,575	108,71
353,787	174,25
353,999	41,13
354,21	159,91
354,422	57,51
354,633	108,71
354,845	71,85
355,057	137,38
355,268	102,57
355,48	114,86
355,692	45,23
355,903	71,85
356,115	-1,88
356,326	55,47
356,538	145,58
356,749	82,09
356,961	231,59
357,172	-85,84
357,384	80,04
357,595	231,59
357,807	-10,07
358,018	39,08
358,23	110,76
358,441	198,82
358,653	88,23
358,864	82,09
359,075	106,67
359,287	139,43
359,498	180,39
359,709	106,67
359,921	77,99
360,132	82,09
360,344	18,6
360,555	63,66
360,766	100,52
360,977	43,18
361,189	75,95
361,4	57,51
361,611	178,34
361,823	155,82
362,034	106,67
362,245	-55,12
362,456	-14,17
362,667	84,14
362,879	88,23
363,09	108,71
363,301	106,67
363,512	127,14
363,723	47,27
363,935	39,08
364,146	118,95
364,357	24,75
364,568	84,14
364,779	43,18
364,99	135,34
365,201	8,36
365,412	223,4
365,623	6,31
365,834	90,28
366,045	71,85
366,256	114,86
366,467	190,63
366,678	57,51
366,889	114,86
367,1	71,85
367,311	71,85
367,522	53,42
367,733	102,57
367,944	133,29
368,155	106,67
368,366	73,9
368,577	153,77
368,788	170,15
368,999	18,6
369,209	51,37
369,42	204,97
369,631	196,78
369,842	219,3
370,053	82,09
370,264	190,63
370,474	73,9
370,685	114,86
370,896	69,8
371,107	223,4
371,317	186,54
371,528	112,81
371,739	125,1
371,95	88,23
372,16	168,1
372,371	6,31
372,582	94,38
372,792	94,38
373,003	94,38
373,214	73,9
373,424	114,86
373,635	116,9
373,846	207,02
374,056	180,39
374,267	104,62
374,477	112,81
374,688	30,89
374,898	41,13
375,109	75,95
375,319	155,82
375,53	157,86
375,74	153,77
375,951	75,95
376,161	71,85
376,372	114,86
376,582	6,31
376,793	112,81
377,003	65,71
377,214	55,47
377,424	110,76
377,635	75,95
377,845	106,67
378,055	194,73
378,266	2,22
378,476	34,99
378,686	153,77
378,897	133,29
379,107	108,71
379,317	75,95
379,528	65,71
379,738	141,48
379,948	-46,93
380,158	182,44
380,369	123,05
380,579	133,29
380,789	125,1
380,999	137,38
381,21	77,99
381,42	159,91
381,63	114,86
381,84	102,57
382,05	133,29
382,261	198,82
382,471	168,1
382,681	71,85
382,891	125,1
383,101	164,01
383,311	65,71
383,521	41,13
383,731	202,92
383,941	178,34
384,151	41,13
384,361	139,43
384,571	157,86
384,781	139,43
384,991	213,16
385,201	194,73
385,411	184,49
385,621	202,92
385,831	139,43
386,041	106,67
386,251	77,99
386,461	198,82
386,671	43,18
386,881	75,95
387,091	143,53
387,301	280,74
387,511	92,33
387,72	84,14
387,93	127,14
388,14	-14,17
388,35	106,67
388,56	166,06
388,769	155,82
388,979	96,43
389,189	92,33
389,399	141,48
389,609	198,82
389,818	157,86
390,028	110,76
390,238	204,97
390,447	63,66
390,657	198,82
390,867	100,52
391,076	39,08
391,286	135,34
391,496	151,72
391,705	73,9
391,915	200,87
392,125	190,63
392,334	125,1
392,544	190,63
392,753	100,52
392,963	145,58
393,172	100,52
393,382	166,06
393,591	196,78
393,801	14,51
394,01	166,06
394,22	139,43
394,429	18,6
394,639	108,71
394,848	272,55
395,058	133,29
395,267	90,28
395,477	84,14
395,686	227,5
395,895	270,5
396,105	307,37
396,314	159,91
396,524	143,53
396,733	106,67
396,942	229,54
397,152	145,58
397,361	272,55
397,57	149,67
397,78	127,14
397,989	182,44
398,198	305,32
398,407	161,96
398,617	127,14
398,826	125,1
399,035	26,79
399,244	184,49
399,453	155,82
399,663	82,09
399,872	233,64
400,081	94,38
400,29	155,82
400,499	112,81
400,708	180,39
400,917	100,52
401,127	133,29
401,336	157,86
401,545	288,93
401,754	166,06
401,963	125,1
402,172	41,13
402,381	-30,55
402,59	82,09
402,799	121
403,008	155,82
403,217	71,85
403,426	39,08
403,635	28,84
403,844	86,19
404,053	164,01
404,262	26,79
404,471	260,26
404,68	100,52
404,888	153,77
405,097	137,38
405,306	233,64
405,515	196,78
405,724	121
405,933	207,02
406,142	106,67
406,35	125,1
406,559	112,81
406,768	98,47
406,977	196,78
407,185	141,48
407,394	98,47
407,603	32,94
407,812	176,3
408,02	198,82
408,229	237,74
408,438	166,06
408,646	24,75
408,855	96,43
409,064	207,02
409,272	186,54
409,481	247,97
409,69	211,11
409,898	145,58
410,107	268,45
410,315	305,32
410,524	155,82
410,733	245,93
410,941	190,63
411,15	288,93
411,358	247,97
411,567	231,59
411,775	172,2
411,984	184,49
412,192	202,92
412,401	118,95
412,609	207,02
412,818	188,58
413,026	164,01
413,234	71,85
413,443	84,14
413,651	129,19
413,86	92,33
414,068	114,86
414,276	164,01
414,485	59,56
414,693	198,82
414,901	178,34
415,11	100,52
415,318	34,99
415,526	112,81
415,734	137,38
415,943	123,05
416,151	231,59
416,359	139,43
416,567	65,71
416,776	194,73
416,984	131,24
417,192	178,34
417,4	100,52
417,608	53,42
417,817	153,77
418,025	166,06
418,233	121
418,441	65,71
418,649	34,99
418,857	94,38
419,065	182,44
419,273	143,53
419,481	65,71
419,689	131,24
419,897	37,03
420,105	49,32
420,313	153,77
420,521	211,11
420,729	116,9
420,937	82,09
421,145	22,7
421,353	155,82
421,561	266,41
421,769	131,24
421,977	106,67
422,185	147,62
422,393	49,32
422,601	104,62
422,809	67,75
423,017	106,67
423,224	121
423,432	184,49
423,64	82,09
423,848	88,23
424,056	65,71
424,263	129,19
424,471	47,27
424,679	137,38
424,887	69,8
425,094	108,71
425,302	125,1
425,51	157,86
425,718	114,86
425,925	121
426,133	-3,93
426,341	231,59
426,548	39,08
426,756	100,52
426,964	127,14
427,171	43,18
427,379	75,95
427,586	75,95
427,794	123,05
428,001	131,24
428,209	73,9
428,417	164,01
428,624	63,66
428,832	61,61
429,039	151,72
429,247	174,25
429,454	108,71
429,662	147,62
429,869	133,29
430,076	92,33
430,284	67,75
430,491	137,38
430,699	133,29
430,906	194,73
431,114	127,14
431,321	127,14
431,528	104,62
431,736	24,75
431,943	127,14
432,15	239,78
432,358	168,1
432,565	305,32
432,772	270,5
432,979	481,44
433,187	467,11
433,394	688,29
433,601	557,22
433,808	768,16
434,016	809,12
434,223	688,29
434,43	780,45
434,637	837,79
434,844	698,53
435,052	573,6
435,259	452,77
435,466	395,43
435,673	307,37
435,88	245,93
436,087	223,4
436,294	225,45
436,501	143,53
436,708	30,89
436,915	157,86
437,122	108,71
437,329	22,7
437,537	172,2
437,743	108,71
437,95	235,69
438,157	92,33
438,364	86,19
438,571	88,23
438,778	71,85
438,985	118,95
439,192	231,59
439,399	151,72
439,606	196,78
439,813	137,38
440,02	149,67
440,227	198,82
440,433	116,9
440,64	145,58
440,847	61,61
441,054	159,91
441,261	153,77
441,467	121
441,674	104,62
441,881	125,1
442,088	41,13
442,294	121
442,501	209,06
442,708	166,06
442,914	73,9
443,121	151,72
443,328	149,67
443,534	149,67
443,741	86,19
443,948	-40,79
444,154	114,86
444,361	217,26
444,568	153,77
444,774	184,49
444,981	6,31
445,187	174,25
445,394	139,43
445,6	57,51
445,807	149,67
446,013	34,99
446,22	59,56
446,426	39,08
446,633	86,19
446,839	204,97
447,046	43,18
447,252	153,77
447,459	55,47
447,665	22,7
447,871	198,82
448,078	88,23
448,284	174,25
448,491	207,02
448,697	180,39
448,903	155,82
449,11	161,96
449,316	49,32
449,522	114,86
449,728	159,91
449,935	80,04
450,141	127,14
450,347	82,09
450,553	100,52
450,76	137,38
450,966	155,82
451,172	57,51
451,378	47,27
451,584	135,34
451,791	164,01
451,997	133,29
452,203	59,56
452,409	194,73
452,615	125,1
452,821	125,1
453,027	6,31
453,233	190,63
453,44	47,27
453,646	63,66
453,852	116,9
454,058	80,04
454,264	77,99
454,47	137,38
454,676	41,13
454,882	86,19
455,088	149,67
455,294	98,47
455,5	123,05
455,705	106,67
455,911	88,23
456,117	65,71
456,323	67,75
456,529	118,95
456,735	92,33
456,941	161,96
457,147	164,01
457,352	106,67
457,558	133,29
457,764	178,34
457,97	116,9
458,176	202,92
458,381	84,14
458,587	209,06
458,793	131,24
458,999	6,31
459,204	32,94
459,41	-26,45
459,616	104,62
459,821	131,24
460,027	51,37
460,233	84,14
460,438	164,01
460,644	100,52
460,85	170,15
461,055	112,81
461,261	184,49
461,466	108,71
461,672	51,37
461,878	30,89
462,083	209,06
462,289	-16,21
462,494	98,47
462,7	166,06
462,905	116,9
463,111	149,67
463,316	198,82
463,522	145,58
463,727	45,23
463,932	145,58
464,138	114,86
464,343	137,38
464,549	77,99
464,754	198,82
464,959	223,4
465,165	82,09
465,37	164,01
465,575	133,29
465,781	114,86
465,986	153,77
466,191	184,49
466,397	110,76
466,602	239,78
466,807	82,09
467,012	82,09
467,218	149,67
467,423	149,67
467,628	137,38
467,833	22,7
468,038	157,86
468,244	63,66
468,449	-40,79
468,654	133,29
468,859	118,95
469,064	73,9
469,269	59,56
469,474	157,86
469,679	174,25
469,885	129,19
470,09	86,19
470,295	131,24
470,5	112,81
470,705	104,62
470,91	90,28
471,115	92,33
471,32	104,62
471,525	231,59
471,73	211,11
471,935	86,19
472,139	12,46
472,344	39,08
472,549	145,58
472,754	100,52
472,959	192,68
473,164	186,54
473,369	139,43
473,574	137,38
473,778	127,14
473,983	116,9
474,188	139,43
474,393	116,9
474,598	143,53
474,802	41,13
475,007	84,14
475,212	207,02
475,417	51,37
475,621	174,25
475,826	80,04
476,031	106,67
476,235	114,86
476,44	149,67
476,645	135,34
476,849	80,04
477,054	59,56
477,259	18,6
477,463	209,06
477,668	338,09
477,872	223,4
478,077	123,05
478,282	114,86
478,486	204,97
478,691	133,29
478,895	121
479,1	213,16
479,304	198,82
479,509	108,71
479,713	157,86
479,918	172,2
480,122	118,95
480,326	170,15
480,531	190,63
480,735	172,2
480,94	141,48
481,144	196,78
481,348	149,67
481,553	180,39
481,757	125,1
481,961	84,14
482,166	164,01
482,37	135,34
482,574	204,97
482,778	100,52
482,983	198,82
483,187	143,53
483,391	102,57
483,595	207,02
483,8	274,6
484,004	485,54
484,208	682,14
484,412	1343,64
484,616	1786
484,821	2580,61
485,025	3463,29
485,229	4823,14
485,433	5752,91
485,637	7166,01
485,841	8339,5
486,045	9007,14
486,249	9474,07
486,453	9076,77
486,657	8845,35
486,861	7800,88
487,065	6551,62
487,269	5660,76
487,473	4454,5
487,677	3776,63
487,881	3088,51
488,085	2408,58
488,289	1941,65
488,493	1452,18
488,697	1204,38
488,901	821,41
489,105	489,64
489,309	377
489,512	360,61
489,716	256,17
489,92	141,48
490,124	202,92
490,328	252,07
490,531	174,25
490,735	211,11
490,939	73,9
491,143	147,62
491,346	198,82
491,55	100,52
491,754	98,47
491,958	135,34
492,161	182,44
492,365	174,25
492,569	180,39
492,772	202,92
492,976	284,84
493,18	170,15
493,383	166,06
493,587	82,09
493,79	200,87
493,994	55,47
494,197	155,82
494,401	227,5
494,605	221,35
494,808	182,44
495,012	131,24
495,215	239,78
495,419	180,39
495,622	92,33
495,825	71,85
496,029	112,81
496,232	92,33
496,436	98,47
496,639	161,96
496,843	77,99
497,046	104,62
497,249	243,88
497,453	102,57
497,656	100,52
497,859	166,06
498,063	227,5
498,266	231,59
498,469	28,84
498,673	104,62
498,876	151,72
499,079	75,95
499,282	57,51
499,485	303,27
499,689	145,58
499,892	172,2
500,095	100,52
500,298	137,38
500,501	51,37
500,705	116,9
500,908	127,14
501,111	116,9
501,314	213,16
501,517	215,21
501,72	67,75
501,923	157,86
502,126	170,15
502,329	225,45
502,532	129,19
502,735	127,14
502,938	157,86
503,141	102,57
503,344	-10,07
503,547	262,31
503,75	147,62
503,953	71,85
504,156	147,62
504,359	121
504,562	131,24
504,765	92,33
504,968	88,23
505,17	96,43
505,373	131,24
505,576	182,44
505,779	80,04
505,982	90,28
506,185	129,19
506,387	59,56
506,59	90,28
506,793	133,29
506,996	121
507,198	155,82
507,401	166,06
507,604	149,67
507,807	127,14
508,009	161,96
508,212	112,81
508,415	63,66
508,617	-14,17
508,82	125,1
509,022	125,1
509,225	166,06
509,428	71,85
509,63	125,1
509,833	125,1
510,035	305,32
510,238	114,86
510,44	12,46
510,643	157,86
510,845	207,02
511,048	204,97
511,25	63,66
511,453	168,1
511,655	104,62
511,858	264,36
512,06	182,44
512,262	-18,26
512,465	114,86
512,667	121
512,87	18,6
513,072	159,91
513,274	164,01
513,477	32,94
513,679	166,06
513,881	108,71
514,084	30,89
514,286	172,2
514,488	98,47
514,69	75,95
514,893	47,27
515,095	80,04
515,297	73,9
515,499	106,67
515,701	59,56
515,904	133,29
516,106	198,82
516,308	75,95
516,51	106,67
516,712	176,3
516,914	125,1
517,116	88,23
517,318	116,9
517,52	112,81
517,722	82,09
517,925	14,51
518,127	108,71
518,329	204,97
518,531	90,28
518,733	194,73
518,935	12,46
519,136	90,28
519,338	100,52
519,54	30,89
519,742	100,52
519,944	239,78
520,146	100,52
520,348	73,9
520,55	139,43
520,752	41,13
520,954	39,08
521,155	67,75
521,357	96,43
521,559	133,29
521,761	112,81
521,963	118,95
522,164	127,14
522,366	77,99
522,568	104,62
522,77	151,72
522,971	180,39
523,173	75,95
523,375	170,15
523,576	57,51
523,778	4,27
523,98	116,9
524,181	157,86
524,383	166,06
524,584	100,52
524,786	114,86
524,988	65,71
525,189	143,53
525,391	153,77
525,592	20,65
525,794	51,37
525,995	80,04
526,197	125,1
526,398	254,12
526,6	116,9
526,801	133,29
527,003	-44,88
527,204	75,95
527,406	159,91
527,607	129,19
527,808	49,32
528,01	94,38
528,211	100,52
528,412	39,08
528,614	174,25
528,815	198,82
529,016	114,86
529,218	51,37
529,419	80,04
529,62	80,04
529,822	164,01
530,023	90,28
530,224	71,85
530,425	110,76
530,626	92,33
530,828	110,76
531,029	88,23
531,23	192,68
531,431	16,55
531,632	135,34
531,833	41,13
532,035	67,75
532,236	-69,46
532,437	188,58
532,638	16,55
532,839	92,33
533,04	174,25
533,241	137,38
533,442	96,43
533,643	86,19
533,844	20,65
534,045	8,36
534,246	75,95
534,447	41,13
534,648	55,47
534,849	204,97
535,05	84,14
535,251	24,75
535,451	114,86
535,652	65,71
535,853	34,99
536,054	34,99
536,255	118,95
536,456	26,79
536,657	80,04
536,857	65,71
537,058	153,77
537,259	77,99
537,46	84,14
537,66	20,65
537,861	131,24
538,062	100,52
538,263	-38,74
538,463	67,75
538,664	106,67
538,865	34,99
539,065	116,9
539,266	88,23
539,466	39,08
539,667	161,96
539,868	123,05
540,068	114,86
540,269	153,77
540,469	151,72
540,67	141,48
540,87	221,35
541,071	14,51
541,271	77,99
541,472	114,86
541,672	123,05
541,873	82,09
542,073	155,82
542,274	100,52
542,474	127,14
542,675	121
542,875	96,43
543,075	26,79
543,276	92,33
543,476	133,29
543,676	104,62
543,877	34,99
544,077	129,19
544,277	166,06
544,478	53,42
544,678	112,81
544,878	106,67
545,078	118,95
545,279	14,51
545,479	88,23
545,679	100,52
545,879	32,94
546,079	121
546,28	32,94
546,48	-1,88
546,68	129,19
546,88	67,75
547,08	100,52
547,28	178,34
547,48	-22,36
547,68	161,96
547,88	166,06
548,081	131,24
548,281	-14,17
548,481	-14,17
548,681	34,99
548,881	121
549,081	86,19
549,28	116,9
549,48	94,38
549,68	39,08
549,88	137,38
550,08	-30,55
550,28	28,84
550,48	121
550,68	98,47
550,88	59,56
551,08	-12,12
551,279	186,54
551,479	-24,4
551,679	71,85
551,879	30,89
552,079	47,27
552,278	96,43
552,478	268,45
552,678	6,31
552,878	155,82
553,077	65,71
553,277	-12,12
553,477	116,9
553,676	172,2
553,876	135,34
554,076	77,99
554,275	121
554,475	14,51
554,674	157,86
554,874	157,86
555,074	90,28
555,273	57,51
555,473	51,37
555,672	63,66
555,872	106,67
556,071	88,23
556,271	121
556,47	47,27
556,67	65,71
556,869	121
557,068	-16,21
557,268	16,55
557,467	10,41
557,667	127,14
557,866	18,6
558,065	82,09
558,265	18,6
558,464	8,36
558,663	92,33
558,863	102,57
559,062	51,37
559,261	-48,98
559,461	147,62
559,66	2,22
559,859	-1,88
560,058	108,71
560,258	-71,51
560,457	80,04
560,656	186,54
560,855	14,51
561,054	69,8
561,253	100,52
561,453	108,71
561,652	121
561,851	143,53
562,05	22,7
562,249	-22,36
562,448	98,47
562,647	8,36
562,846	106,67
563,045	88,23
563,244	96,43
563,443	84,14
563,642	30,89
563,841	-1,88
564,04	67,75
564,239	-22,36
564,438	67,75
564,637	65,71
564,836	131,24
565,035	51,37
565,234	98,47
565,432	80,04
565,631	67,75
565,83	131,24
566,029	90,28
566,228	32,94
566,427	188,58
566,625	-12,12
566,824	194,73
567,023	43,18
567,222	98,47
567,42	73,9
567,619	141,48
567,818	104,62
568,016	247,97
568,215	139,43
568,414	170,15
568,612	112,81
568,811	207,02
569,01	176,3
569,208	213,16
569,407	137,38
569,605	278,69
569,804	202,92
570,002	239,78
570,201	196,78
570,4	223,4
570,598	131,24
570,797	151,72
570,995	77,99
571,193	184,49
571,392	106,67
571,59	53,42
571,789	77,99
571,987	172,2
572,186	184,49
572,384	118,95
572,582	170,15
572,781	245,93
572,979	96,43
573,177	161,96
573,376	202,92
573,574	280,74
573,772	92,33
573,971	106,67
574,169	63,66
574,367	223,4
574,565	161,96
574,763	47,27
574,962	161,96
575,16	133,29
575,358	55,47
575,556	272,55
575,754	137,38
575,952	196,78
576,151	321,7
576,349	317,61
576,547	127,14
576,745	270,5
576,943	239,78
577,141	170,15
577,339	92,33
577,537	219,3
577,735	262,31
577,933	268,45
578,131	209,06
578,329	239,78
578,527	155,82
578,725	252,07
578,923	147,62
579,121	301,22
579,319	125,1
579,516	161,96
579,714	385,19
579,912	254,12
580,11	125,1
580,308	288,93
580,506	288,93
580,704	254,12
580,901	272,55
581,099	415,91
581,297	344,23
581,495	354,47
581,692	325,8
581,89	497,83
582,088	356,52
582,285	399,52
582,483	307,37
582,681	297,13
582,878	237,74
583,076	288,93
583,274	207,02
583,471	323,75
583,669	272,55
583,866	254,12
584,064	188,58
584,262	147,62
584,459	237,74
584,657	272,55
584,854	305,32
585,052	194,73
585,249	303,27
585,447	161,96
585,644	63,66
585,841	213,16
586,039	192,68
586,236	295,08
586,434	190,63
586,631	182,44
586,828	102,57
587,026	131,24
587,223	133,29
587,42	168,1
587,618	233,64
587,815	315,56
588,012	268,45
588,21	297,13
588,407	303,27
588,604	260,26
588,801	243,88
588,999	280,74
589,196	327,85
589,393	223,4
589,59	295,08
589,787	276,65
589,984	280,74
590,182	215,21
590,379	149,67
590,576	215,21
590,773	178,34
590,97	166,06
591,167	161,96
591,364	198,82
591,561	174,25
591,758	307,37
591,955	229,54
592,152	170,15
592,349	133,29
592,546	149,67
592,743	174,25
592,94	260,26
593,137	223,4
593,334	338,09
593,531	297,13
593,727	338,09
593,924	340,13
594,121	258,21
594,318	252,07
594,515	290,98
594,712	325,8
594,908	313,51
595,105	170,15
595,302	231,59
595,499	176,3
595,696	338,09
595,892	182,44
596,089	250,02
596,286	194,73
596,482	270,5
596,679	338,09
596,876	125,1
597,072	352,42
597,269	157,86
597,466	256,17
597,662	243,88
597,859	149,67
598,055	207,02
598,252	211,11
598,448	278,69
598,645	256,17
598,841	166,06
599,038	358,57
599,234	250,02
599,431	174,25
599,627	198,82
599,824	151,72
600,02	176,3
600,217	67,75
600,413	125,1
600,609	170,15
600,806	413,86
601,002	229,54
601,198	192,68
601,395	190,63
601,591	202,92
601,787	247,97
601,984	311,46
602,18	329,89
602,376	309,41
602,572	395,43
602,769	284,84
602,965	268,45
603,161	266,41
603,357	252,07
603,553	293,03
603,75	264,36
603,946	245,93
604,142	215,21
604,338	297,13
604,534	153,77
604,73	225,45
604,926	182,44
605,122	276,65
605,318	161,96
605,514	227,5
605,71	172,2
605,906	217,26
606,102	215,21
606,298	213,16
606,494	227,5
606,69	313,51
606,886	202,92
607,082	241,83
607,278	77,99
607,474	268,45
607,67	239,78
607,866	55,47
608,062	239,78
608,257	327,85
608,453	137,38
608,649	231,59
608,845	157,86
609,041	100,52
609,236	235,69
609,432	237,74
609,628	161,96
609,824	284,84
610,019	116,9
610,215	145,58
610,411	190,63
610,606	264,36
610,802	137,38
610,998	104,62
611,193	174,25
611,389	61,61
611,584	141,48
611,78	141,48
611,976	114,86
612,171	280,74
612,367	207,02
612,562	233,64
612,758	178,34
612,953	174,25
613,149	98,47
613,344	231,59
613,539	186,54
613,735	272,55
613,93	217,26
614,126	147,62
614,321	247,97
614,517	194,73
614,712	243,88
614,907	243,88
615,103	147,62
615,298	139,43
615,493	34,99
615,688	137,38
615,884	209,06
616,079	190,63
616,274	243,88
616,47	96,43
616,665	45,23
616,86	63,66
617,055	110,76
617,25	108,71
617,445	164,01
617,641	61,61
617,836	67,75
618,031	178,34
618,226	108,71
618,421	114,86
618,616	51,37
618,811	159,91
619,006	-8,02
619,201	147,62
619,396	157,86
619,591	143,53
619,786	147,62
619,981	235,69
620,176	104,62
620,371	47,27
620,566	149,67
620,761	188,58
620,956	59,56
621,151	55,47
621,346	182,44
621,541	98,47
621,735	131,24
621,93	161,96
622,125	100,52
622,32	67,75
622,515	63,66
622,709	180,39
622,904	161,96
623,099	161,96
623,294	104,62
623,488	141,48
623,683	198,82
623,878	151,72
624,072	207,02
624,267	-40,79
624,462	110,76
624,656	26,79
624,851	174,25
625,046	86,19
625,24	94,38
625,435	96,43
625,629	96,43
625,824	180,39
626,018	133,29
626,213	90,28
626,407	-1,88
626,602	157,86
626,796	63,66
626,991	121
627,185	39,08
627,38	10,41
627,574	196,78
627,768	174,25
627,963	133,29
628,157	92,33
628,352	51,37
628,546	-65,36
628,74	69,8
628,935	-22,36
629,129	82,09
629,323	41,13
629,517	-59,22
629,712	86,19
629,906	176,3
630,1	166,06
630,294	100,52
630,489	110,76
630,683	39,08
630,877	94,38
631,071	225,45
631,265	43,18
631,459	108,71
631,653	63,66
631,848	133,29
632,042	82,09
632,236	77,99
632,43	133,29
632,624	37,03
632,818	198,82
633,012	178,34
633,206	77,99
633,4	80,04
633,594	153,77
633,788	151,72
633,982	127,14
634,176	190,63
634,369	55,47
634,563	116,9
634,757	0,17
634,951	55,47
635,145	172,2
635,339	32,94
635,533	186,54
635,726	84,14
635,92	92,33
636,114	118,95
636,308	110,76
636,501	51,37
636,695	18,6
636,889	-26,45
637,083	157,86
637,276	98,47
637,47	47,27
637,664	86,19
637,857	32,94
638,051	24,75
638,244	92,33
638,438	53,42
638,632	207,02
638,825	30,89
639,019	135,34
639,212	8,36
639,406	123,05
639,599	63,66
639,793	80,04
639,986	110,76
640,18	75,95
640,373	147,62
640,567	106,67
640,76	82,09
640,954	166,06
641,147	94,38
641,34	2,22
641,534	106,67
641,727	112,81
641,92	55,47
642,114	112,81
642,307	65,71
642,5	96,43
642,694	67,75
642,887	123,05
643,08	170,15
643,273	139,43
643,467	39,08
643,66	82,09
643,853	22,7
644,046	80,04
644,239	133,29
644,432	20,65
644,626	51,37
644,819	116,9
645,012	12,46
645,205	118,95
645,398	155,82
645,591	51,37
645,784	-28,5
645,977	41,13
646,17	121
646,363	121
646,556	49,32
646,749	47,27
646,942	43,18
647,135	145,58
647,328	67,75
647,521	102,57
647,714	43,18
647,907	141,48
648,099	39,08
648,292	174,25
648,485	82,09
648,678	84,14
648,871	123,05
649,064	104,62
649,256	-10,07
649,449	34,99
649,642	30,89
649,835	100,52
650,027	39,08
650,22	155,82
650,413	82,09
650,605	82,09
650,798	82,09
650,991	43,18
651,183	106,67
651,376	178,34
651,568	211,11
651,761	88,23
651,954	215,21
652,146	118,95
652,339	166,06
652,531	231,59
652,724	157,86
652,916	118,95
653,109	32,94
653,301	141,48
653,494	297,13
653,686	141,48
653,879	245,93
654,071	288,93
654,263	252,07
654,456	379,04
654,648	876,7
654,84	2654,34
655,033	6602,82
655,225	13172,71
655,417	22736,72
655,61	32925,36
655,802	42468,9
655,994	51398,04
656,186	58821,93
656,379	61517,06
656,571	60734,73
656,763	58035,51
656,955	55450,97
657,148	51842,45
657,34	47947,22
657,532	42839,58
657,724	38887
657,916	34129,57
658,108	29611,75
658,3	24502,07
658,492	20457,33
658,684	16498,61
658,876	14063,57
659,068	11884,53
659,26	9269,28
659,452	7180,35
659,644	5267,55
659,836	3881,07
660,028	2631,81
660,22	1874,06
660,412	1353,88
660,604	1040,54
660,796	639,14
660,988	673,95
661,18	485,54
661,372	395,43
661,563	362,66
661,755	352,42
661,947	53,42
662,139	133,29
662,331	207,02
662,522	182,44
662,714	106,67
662,906	114,86
663,097	127,14
663,289	55,47
663,481	-5,97
663,673	182,44
663,864	108,71
664,056	209,06
664,247	108,71
664,439	207,02
664,631	102,57
664,822	221,35
665,014	200,87
665,205	63,66
665,397	80,04
665,588	67,75
665,78	59,56
665,971	211,11
666,163	104,62
666,354	137,38
666,546	18,6
666,737	24,75
666,929	-8,02
667,12	69,8
667,311	67,75
667,503	67,75
667,694	55,47
667,885	155,82
668,077	209,06
668,268	-30,55
668,459	172,2
668,651	80,04
668,842	39,08
669,033	24,75
669,224	-5,97
669,416	252,07
669,607	55,47
669,798	30,89
669,989	104,62
670,18	30,89
670,371	84,14
670,563	-57,17
670,754	127,14
670,945	112,81
671,136	112,81
671,327	18,6
671,518	174,25
671,709	172,2
671,9	106,67
672,091	170,15
672,282	73,9
672,473	-5,97
672,664	-16,21
672,855	88,23
673,046	116,9
673,237	186,54
673,428	98,47
673,619	157,86
673,809	77,99
674	106,67
674,191	178,34
674,382	57,51
674,573	-14,17
674,764	59,56
674,954	110,76
675,145	-5,97
675,336	41,13
675,527	61,61
675,717	18,6
675,908	92,33
676,099	-36,69
676,289	-5,97
676,48	-30,55
676,671	73,9
676,861	28,84
677,052	34,99
677,243	100,52
677,433	-5,97
677,624	67,75
677,814	51,37
678,005	8,36
678,195	194,73
678,386	-30,55
678,576	-10,07
678,767	-26,45
678,957	30,89
679,148	104,62
679,338	168,1
679,529	102,57
679,719	-36,69
679,909	65,71
680,1	125,1
680,29	75,95
680,481	-59,22
680,671	92,33
680,861	24,75
681,052	65,71
681,242	37,03
681,432	84,14
681,622	84,14
681,813	22,7
682,003	59,56
682,193	-18,26
682,383	69,8
682,573	-16,21
682,764	6,31
682,954	57,51
683,144	123,05
683,334	-3,93
683,524	49,32
683,714	32,94
683,904	108,71
684,094	43,18
684,284	43,18
684,474	86,19
684,664	49,32
684,854	-3,93
685,044	39,08
685,234	32,94
685,424	80,04
685,614	-36,69
685,804	92,33
685,994	63,66
686,184	96,43
686,374	-22,36
686,564	84,14
686,753	39,08
686,943	0,17
687,133	34,99
687,323	0,17
687,513	49,32
687,702	43,18
687,892	28,84
688,082	55,47
688,272	57,51
688,461	57,51
688,651	161,96
688,841	73,9
689,03	32,94
689,22	-5,97
689,41	147,62
689,599	77,99
689,789	-10,07
689,979	129,19
690,168	18,6
690,358	90,28
690,547	30,89
690,737	10,41
690,926	43,18
691,116	41,13
691,305	147,62
691,495	22,7
691,684	-46,93
691,874	-1,88
692,063	-16,21
692,252	77,99
692,442	129,19
692,631	43,18
692,82	61,61
693,01	18,6
693,199	51,37
693,388	100,52
693,578	10,41
693,767	145,58
693,956	139,43
694,146	-5,97
694,335	37,03
694,524	59,56
694,713	6,31
694,902	-10,07
695,092	-55,12
695,281	45,23
695,47	-28,5
695,659	18,6
695,848	45,23
696,037	-8,02
696,226	59,56
696,415	43,18
696,604	67,75
696,793	63,66
696,982	24,75
697,171	125,1
697,36	-22,36
697,549	22,7
697,738	-91,99
697,927	8,36
698,116	-12,12
698,305	49,32
698,494	-8,02
698,683	-1,88
698,872	114,86
699,061	73,9
699,25	47,27
699,438	-14,17
699,627	-67,41
699,816	141,48
700,005	-87,89
700,193	-8,02
700,382	67,75
700,571	98,47
700,76	26,79
700,948	55,47
701,137	73,9
701,326	26,79
701,514	41,13
701,703	34,99
701,892	28,84
702,08	215,21
702,269	67,75
702,457	-16,21
702,646	-38,74
702,834	73,9
703,023	96,43
703,212	94,38
703,4	-46,93
703,589	43,18
703,777	114,86
703,965	16,55
704,154	6,31
704,342	-48,98
704,531	10,41
704,719	39,08
704,907	67,75
705,096	0,17
705,284	-44,88
705,472	-53,08
705,661	139,43
705,849	43,18
706,037	80,04
706,226	45,23
706,414	65,71
706,602	0,17
706,79	139,43
706,979	-26,45
707,167	43,18
707,355	-51,03
707,543	43,18
707,731	69,8
707,919	2,22
708,107	2,22
708,296	-55,12
708,484	-57,17
708,672	98,47
708,86	28,84
709,048	-36,69
709,236	-65,36
709,424	147,62
709,612	100,52
709,8	-28,5
709,988	-63,32
710,176	98,47
710,364	84,14
710,551	-18,26
710,739	69,8
710,927	-10,07
711,115	22,7
711,303	30,89
711,491	51,37
711,679	22,7
711,866	125,1
712,054	2,22
712,242	41,13
712,43	100,52
712,617	-10,07
712,805	43,18
712,993	-5,97
713,181	-30,55
713,368	94,38
713,556	131,24
713,744	-18,26
713,931	116,9
714,119	71,85
714,306	-42,84
714,494	-36,69
714,682	14,51
714,869	-14,17
715,057	-61,27
715,244	-96,08
715,432	26,79
715,619	59,56
715,807	-30,55
715,994	-26,45
716,182	-12,12
716,369	92,33
716,556	65,71
716,744	-55,12
716,931	-40,79
717,119	123,05
717,306	-14,17
717,493	47,27
717,681	-22,36
717,868	96,43
718,055	24,75
718,242	18,6
718,43	57,51
718,617	49,32
718,804	30,89
718,991	88,23
719,179	112,81
719,366	2,22
719,553	82,09
719,74	53,42
719,927	73,9
720,114	28,84
720,301	-77,65
720,488	10,41
720,676	-22,36
720,863	45,23
721,05	139,43
721,237	71,85
721,424	92,33
721,611	82,09
721,798	-5,97
721,985	-20,31
722,172	26,79
722,358	63,66
722,545	49,32
722,732	34,99
722,919	118,95
723,106	26,79
723,293	-18,26
723,48	100,52
723,667	-79,7
723,853	34,99
724,04	112,81
724,227	114,86
724,414	-16,21
724,6	100,52
724,787	178,34
724,974	194,73
725,161	18,6
725,347	18,6
725,534	59,56
725,72	82,09
725,907	141,48
726,094	90,28
726,28	32,94
726,467	94,38
726,653	-38,74
726,84	125,1
727,027	141,48
727,213	32,94
727,4	71,85
727,586	24,75
727,773	55,47
727,959	2,22
728,145	82,09
728,332	84,14
728,518	-1,88
728,705	86,19
728,891	61,61
729,077	16,55
729,264	-65,36
729,45	47,27
729,636	77,99
729,823	16,55
730,009	129,19
730,195	118,95
730,382	73,9
730,568	-26,45
730,754	39,08
730,94	2,22
731,126	26,79
731,313	67,75
731,499	-32,6
731,685	92,33
731,871	112,81
732,057	102,57
732,243	16,55
732,429	8,36
732,615	127,14
732,801	47,27
732,987	10,41
733,173	88,23
733,359	-36,69
733,545	49,32
733,731	30,89
733,917	80,04
734,103	67,75
734,289	-1,88
734,475	-81,75
734,661	137,38
734,847	-26,45
735,033	47,27
735,219	125,1
735,404	47,27
735,59	47,27
735,776	61,61
735,962	-8,02
736,148	10,41
736,333	102,57
736,519	34,99
736,705	0,17
736,89	116,9
737,076	-3,93
737,262	-12,12
737,447	-36,69
737,633	16,55
737,819	92,33
738,004	41,13
738,19	53,42
738,375	73,9
738,561	65,71
738,747	30,89
738,932	-51,03
739,118	112,81
739,303	104,62
739,489	57,51
739,674	-63,32
739,859	20,65
740,045	67,75
740,23	88,23
740,416	-96,08
740,601	34,99
740,786	84,14
740,972	2,22
741,157	-81,75
741,342	16,55
741,528	-24,4
741,713	65,71
741,898	71,85
742,084	14,51
742,269	49,32
742,454	26,79
742,639	-32,6
742,824	26,79
743,01	121
743,195	114,86
743,38	14,51
743,565	-14,17
743,75	-26,45
743,935	71,85
744,12	43,18
744,305	-42,84
744,49	-46,93
744,675	32,94
744,86	43,18
745,045	125,1
745,23	125,1
745,415	-20,31
745,6	75,95
745,785	-24,4
745,97	118,95
746,155	90,28
746,34	75,95
746,525	24,75
746,71	86,19
746,895	-30,55
747,079	4,27
747,264	16,55
747,449	108,71
747,634	94,38
747,819	118,95
748,003	43,18
748,188	14,51
748,373	98,47
748,557	-1,88
748,742	14,51
748,927	75,95
749,111	6,31
749,296	0,17
749,481	30,89
749,665	39,08
749,85	20,65
750,034	34,99
750,219	-14,17
750,404	-48,98
750,588	30,89
750,773	-10,07
750,957	59,56
751,141	84,14
751,326	123,05
751,51	-14,17
751,695	34,99
751,879	45,23
752,064	182,44
752,248	28,84
752,432	133,29
752,617	67,75
752,801	92,33
752,985	-14,17
753,17	139,43
753,354	43,18
753,538	-24,4
753,722	-3,93
753,907	63,66
754,091	-26,45
754,275	59,56
754,459	10,41
754,643	-96,08
754,828	12,46
755,012	90,28
755,196	-42,84
755,38	55,47
755,564	-63,32
755,748	47,27
755,932	51,37
756,116	26,79
756,3	26,79
756,484	-20,31
756,668	82,09
756,852	-44,88
757,036	18,6
757,22	2,22
757,404	41,13
757,588	-22,36
757,772	55,47
757,956	37,03
758,14	153,77
758,323	49,32
758,507	71,85
758,691	30,89
758,875	102,57
759,059	96,43
759,242	41,13
759,426	20,65
759,61	-10,07
759,794	22,7
759,977	100,52
760,161	243,88
760,345	147,62
760,528	90,28
760,712	121
760,895	43,18
761,079	-5,97
761,263	34,99
761,446	-22,36
761,63	-42,84
761,813	73,9
761,997	-42,84
762,18	30,89
762,364	151,72
762,547	-91,99
762,731	-28,5
762,914	59,56
763,098	26,79
763,281	-57,17
763,464	-26,45
763,648	41,13
763,831	18,6
764,015	-65,36
764,198	69,8
764,381	-3,93
764,564	80,04
764,748	67,75
764,931	-40,79
765,114	26,79
765,297	55,47
765,481	-79,7
765,664	-3,93
765,847	14,51
766,03	88,23
766,213	18,6
766,397	0,17
766,58	-40,79
766,763	123,05
766,946	22,7
767,129	-14,17
767,312	-3,93
767,495	24,75
767,678	-38,74
767,861	22,7
768,044	-10,07
768,227	59,56
768,41	59,56
768,593	63,66
768,776	-14,17
768,959	-14,17
769,142	57,51
769,324	16,55
769,507	-63,32
769,69	-32,6
769,873	30,89
770,056	178,34
770,239	2,22
770,421	102,57
770,604	90,28
770,787	47,27
770,97	20,65
771,152	-73,56
771,335	20,65
771,518	-30,55
771,7	26,79
771,883	131,24
772,066	-8,02
772,248	10,41
772,431	84,14
772,613	20,65
772,796	6,31
772,978	26,79
773,161	51,37
773,343	-5,97
773,526	-14,17
773,708	-46,93
773,891	-132,95
774,073	26,79
774,256	8,36
774,438	133,29
774,621	-16,21
774,803	98,47
774,985	24,75
775,168	10,41
775,35	-20,31
775,532	84,14
775,715	-34,64
775,897	32,94
776,079	-55,12
776,261	22,7
776,444	43,18
776,626	39,08
776,808	67,75
776,99	18,6
777,173	204,97
777,355	174,25
777,537	252,07
777,719	182,44
777,901	118,95
778,083	39,08
778,265	75,95
778,447	213,16
778,629	63,66
778,811	143,53
778,993	84,14
779,175	168,1
779,357	123,05
779,539	-28,5
779,721	59,56
779,903	153,77
780,085	43,18
780,267	49,32
780,449	49,32
780,631	55,47
780,812	53,42
780,994	32,94
781,176	32,94
781,358	24,75
781,54	-38,74
781,721	-5,97
781,903	63,66
782,085	22,7
782,267	161,96
782,448	-67,41
782,63	-89,94
782,812	65,71
782,993	2,22
783,175	47,27
783,357	-10,07
783,538	53,42
783,72	0,17
783,901	41,13
784,083	98,47
784,264	-22,36
784,446	-110,42
784,627	-51,03
784,809	71,85
784,99	-26,45
785,172	86,19
785,353	-8,02
785,535	32,94
785,716	18,6
785,897	-65,36
786,079	43,18
786,26	2,22
786,441	-34,64
786,623	-5,97
786,804	-124,76
786,985	63,66
787,167	53,42
787,348	-1,88
787,529	-20,31
787,71	118,95
787,891	47,27
788,073	-32,6
788,254	-87,89
788,435	135,34
788,616	39,08
788,797	-73,56
788,978	-3,93
789,159	-16,21
789,34	-12,12
789,522	22,7
789,703	-69,46
789,884	26,79
790,065	90,28
790,246	149,67
790,427	82,09
790,607	67,75
790,788	26,79
790,969	-34,64
791,15	18,6
791,331	-1,88
791,512	18,6
791,693	-24,4
791,874	6,31
792,054	137,38
792,235	-12,12
792,416	8,36
792,597	-32,6
792,778	73,9
792,958	73,9
793,139	6,31
793,32	0,17
793,5	-1,88
793,681	-32,6
793,862	28,84
794,042	16,55
794,223	0,17
794,404	-5,97
794,584	-87,89
794,765	-10,07
794,945	43,18
795,126	59,56
795,306	121
795,487	2,22
795,667	34,99
795,848	82,09
796,028	43,18
796,209	-1,88
796,389	18,6
796,57	30,89
796,75	-24,4
796,93	43,18
797,111	-38,74
797,291	-59,22
797,471	92,33
797,652	-69,46
797,832	-10,07
798,012	10,41
798,192	26,79
798,373	-53,08
798,553	-20,31
798,733	71,85
798,913	-55,12
799,093	-65,36
799,274	41,13
799,454	86,19
799,634	59,56
799,814	22,7
799,994	-36,69
800,174	84,14
800,354	-8,02
800,534	-108,37
800,714	32,94
800,894	24,75
801,074	-63,32
801,254	106,67
801,434	67,75
801,614	0,17
801,794	-59,22
801,974	1478,8
802,154	-26,45
802,334	71,85
802,514	-98,13
802,693	-42,84
802,873	-38,74
803,053	22,7
803,233	16,55
803,413	37,03
803,592	-22,36
803,772	-51,03
803,952	39,08
804,131	-46,93
804,311	84,14
804,491	51,37
804,67	-104,28
804,85	-112,47
805,03	137,38
805,209	61,61
805,389	-24,4
805,568	-32,6
805,748	61,61
805,928	8,36
806,107	39,08
806,287	6,31
806,466	92,33
806,646	-79,7
806,825	39,08
807,004	16,55
807,184	0,17
807,363	147,62
807,543	2,22
807,722	-18,26
807,901	-22,36
808,081	106,67
808,26	-169,81
808,439	-14,17
808,619	-5,97
808,798	-1,88
808,977	73,9
809,156	57,51
809,336	57,51
809,515	34,99
809,694	-91,99
809,873	-40,79
810,052	53,42
810,231	75,95
810,411	-26,45
810,59	0,17
810,769	2,22
810,948	51,37
811,127	-104,28
811,306	14,51
811,485	-24,4
811,664	77,99
811,843	-18,26
812,022	77,99
812,201	-26,45
812,38	-24,4
812,559	2,22
812,737	-14,17
812,916	51,37
813,095	-5,97
813,274	63,66
813,453	-14,17
813,632	-14,17
813,811	59,56
813,989	-91,99
814,168	37,03
814,347	-67,41
814,526	4,27
814,704	57,51
814,883	157,86
815,062	-48,98
815,24	57,51
815,419	-79,7
815,598	43,18
815,776	-83,8
815,955	49,32
816,133	-120,66
816,312	-10,07
816,49	14,51
816,669	32,94
816,847	-63,32
817,026	-8,02
817,204	28,84
817,383	-18,26
817,561	-75,6
817,74	82,09
817,918	24,75
818,097	-5,97
818,275	-87,89
818,453	-10,07
818,632	-30,55
818,81	30,89
818,988	-12,12
819,167	-8,02
819,345	67,75
819,523	-46,93
819,701	34,99
819,879	-14,17
820,058	-8,02
820,236	37,03
820,414	14,51
820,592	-18,26
820,77	8,36
820,948	-16,21
821,127	8,36
821,305	32,94
821,483	-1,88
821,661	57,51
821,839	39,08
822,017	-51,03
822,195	-36,69
822,373	69,8
822,551	-5,97
822,729	32,94
822,907	28,84
823,085	14,51
823,262	30,89
823,44	-61,27
823,618	-26,45
823,796	-42,84
823,974	18,6
824,152	-53,08
824,329	-79,7
824,507	-10,07
824,685	65,71
824,863	-30,55
825,04	2,22
825,218	26,79
825,396	-14,17
825,574	43,18
825,751	61,61
825,929	88,23
826,107	-120,66
826,284	-8,02
826,462	67,75
826,639	14,51
826,817	34,99
826,994	6,31
827,172	-75,6
827,349	108,71
827,527	39,08
827,704	67,75
827,882	18,6
828,059	-30,55
828,237	18,6
828,414	10,41
828,591	-51,03
828,769	32,94
828,946	-63,32
829,124	24,75
829,301	39,08
829,478	18,6
829,655	14,51
829,833	43,18
830,01	-124,76
830,187	73,9
830,364	-34,64
830,542	4,27
830,719	100,52
830,896	-3,93
831,073	-14,17
831,25	18,6
831,427	63,66
831,604	22,7
831,782	39,08
831,959	6,31
832,136	16,55
832,313	-1,88
832,49	6,31
832,667	0,17
832,844	-69,46
833,021	69,8
833,198	32,94
833,374	24,75
833,551	6,31
833,728	24,75
833,905	41,13
834,082	-63,32
834,259	-16,21
834,436	67,75
834,612	-34,64
834,789	45,23
834,966	-42,84
835,143	-18,26
835,319	-18,26
835,496	16,55
835,673	67,75
835,85	41,13
836,026	-5,97
836,203	16,55
836,38	-32,6
836,556	-48,98
836,733	-32,6
836,909	176,3
837,086	24,75
837,262	-44,88
837,439	-75,6
837,616	-89,94
837,792	-18,26
837,968	2,22
838,145	-55,12
838,321	63,66
838,498	26,79
838,674	24,75
838,851	49,32
839,027	63,66
839,203	34,99
839,38	116,9
839,556	-40,79
839,732	100,52
839,909	-51,03
840,085	-5,97
840,261	-40,79
840,437	30,89
840,614	18,6
840,79	65,71
840,966	-8,02
841,142	2,22
841,318	32,94
841,494	-16,21
841,671	82,09
841,847	-24,4
842,023	-77,65
842,199	26,79
842,375	37,03
842,551	-30,55
842,727	-12,12
842,903	98,47
843,079	28,84
843,255	129,19
843,431	-24,4
843,607	8,36
843,783	-73,56
843,959	92,33
844,134	67,75
844,31	166,06
844,486	37,03
844,662	-14,17
844,838	141,48
845,013	123,05
845,189	133,29
845,365	61,61
845,541	43,18
845,716	34,99
845,892	147,62
846,068	-100,18
846,244	0,17
846,419	57,51
846,595	-32,6
846,77	-42,84
846,946	129,19
847,122	59,56
847,297	18,6
847,473	75,95
847,648	-46,93
847,824	94,38
847,999	-36,69
848,175	14,51
848,35	73,9
848,526	123,05
848,701	26,79
848,876	55,47
849,052	51,37
849,227	-18,26
849,403	-26,45
849,578	-75,6
849,753	6,31
849,929	59,56
850,104	-14,17
850,279	-30,55
850,454	26,79
850,63	51,37
850,805	45,23
850,98	-91,99
851,155	-38,74
851,33	51,37
851,505	-79,7
851,681	133,29
851,856	-3,93
852,031	45,23
852,206	28,84
852,381	-63,32
852,556	18,6
852,731	6,31
852,906	39,08
853,081	96,43
853,256	123,05
853,431	-22,36
853,606	-55,12
853,781	30,89
853,956	-98,13
854,131	14,51
854,305	-16,21
854,48	-83,8
854,655	-55,12
854,83	-26,45
855,005	-38,74
855,18	92,33
855,354	-32,6
855,529	104,62
855,704	-5,97
855,879	41,13
856,053	-24,4
856,228	-3,93
856,403	-114,52
856,577	53,42
856,752	-161,62
856,926	4,27
857,101	39,08
857,276	-81,75
857,45	4,27
857,625	59,56
857,799	-24,4
857,974	69,8
858,148	-22,36
858,323	65,71
858,497	-139,09
858,672	-48,98
858,846	-63,32
859,02	116,9
859,195	-57,17
859,369	-51,03
859,543	77,99
859,718	24,75
859,892	24,75
860,066	30,89
860,241	-89,94
860,415	-81,75
860,589	-8,02
860,763	-83,8
860,938	-42,84
861,112	59,56
861,286	-18,26
861,46	8,36
861,634	24,75
861,808	20,65
861,982	-65,36
862,157	34,99
862,331	-18,26
862,505	-89,94
862,679	-8,02
862,853	2,22
863,027	-24,4
863,201	137,38
863,375	-22,36
863,549	63,66
863,722	8,36
863,896	22,7
864,07	-14,17
864,244	-10,07
864,418	112,81
864,592	-10,07
864,766	-3,93
864,939	41,13
865,113	-14,17
865,287	116,9
865,461	-65,36
865,634	-1,88
865,808	-61,27
865,982	-51,03
866,156	-118,61
866,329	-63,32
866,503	82,09
866,676	8,36
866,85	34,99
867,024	-22,36
867,197	59,56
867,371	-28,5
867,544	-18,26
867,718	-85,84
867,891	8,36
868,065	-53,08
868,238	-18,26
868,412	75,95
868,585	-55,12
868,759	61,61
868,932	18,6
869,105	-124,76
869,279	-5,97
869,452	2,22
869,625	49,32
869,799	-18,26
869,972	-100,18
870,145	-1,88
870,319	73,9
870,492	-38,74
870,665	-73,56
870,838	-61,27
871,011	-91,99
871,185	59,56
871,358	16,55
871,531	6,31
871,704	-42,84
871,877	49,32
872,05	4,27
872,223	-28,5
872,396	41,13
872,569	14,51
872,742	-53,08
872,915	43,18
873,088	-38,74
873,261	-48,98
873,434	16,55
873,607	-36,69
873,78	86,19
873,953	-112,47
874,126	6,31
874,299	51,37
874,471	-87,89
874,644	6,31
874,817	-55,12
874,99	172,2
875,163	-67,41
875,335	57,51
875,508	84,14
875,681	63,66
875,853	-65,36
876,026	12,46
876,199	4,27
876,371	30,89
876,544	30,89
876,717	-22,36
876,889	-36,69
877,062	102,57
877,234	-3,93
877,407	-79,7
877,579	-38,74
877,752	30,89
877,924	80,04
878,097	10,41
878,269	53,42
878,442	-16,21
878,614	32,94
878,786	47,27
878,959	51,37
879,131	39,08
879,303	-69,46
879,476	-42,84
879,648	18,6
879,82	49,32
879,993	-79,7
880,165	-14,17
880,337	-100,18
880,509	20,65
880,681	-104,28
880,854	-53,08
881,026	-10,07
881,198	112,81
881,37	-46,93
881,542	-16,21
881,714	8,36
881,886	24,75
882,058	32,94
882,23	-1,88
882,402	-87,89
882,574	26,79
882,746	43,18
882,918	43,18
883,09	121
883,262	41,13
883,434	6,31
883,606	-42,84
883,778	20,65
883,95	112,81
884,122	-38,74
884,293	80,04
884,465	-38,74
884,637	75,95
884,809	-59,22
884,98	-20,31
885,152	49,32
885,324	-22,36
885,496	-40,79
885,667	28,84
885,839	18,6
886,011	92,33
886,182	-55,12
886,354	59,56
886,525	22,7
886,697	32,94
886,869	-59,22
887,04	-51,03
887,212	80,04
887,383	164,01
887,555	28,84
887,726	20,65
887,897	-38,74
888,069	-10,07
888,24	26,79
888,412	-20,31
888,583	-69,46
888,754	20,65
888,926	-59,22
889,097	4,27
889,268	-65,36
889,44	55,47
889,611	-83,8
889,782	-98,13
889,953	-81,75
890,125	96,43
890,296	-53,08
890,467	0,17
890,638	-36,69
890,809	-38,74
890,98	-79,7
891,151	28,84
891,323	143,53
891,494	-34,64
891,665	-38,74
891,836	14,51
892,007	34,99
892,178	41,13
892,349	53,42
892,52	-34,64
892,691	26,79
892,862	-51,03
893,032	-124,76
893,203	-10,07
893,374	-5,97
893,545	104,62
893,716	-22,36
893,887	45,23
894,057	-18,26
894,228	16,55
894,399	-18,26
894,57	151,72
894,74	-5,97
894,911	-1,88
895,082	-3,93
895,253	0,17
895,423	16,55
895,594	18,6
895,764	67,75
895,935	-34,64
896,106	-28,5
896,276	-106,32
896,447	18,6
896,617	-42,84
896,788	-63,32
896,958	-30,55
897,129	-1,88
897,299	47,27
897,47	57,51
897,64	30,89
897,81	-3,93
897,981	2,22
898,151	-61,27
898,322	96,43
898,492	12,46
898,662	-44,88
898,832	26,79
899,003	-104,28
899,173	51,37
899,343	-53,08
899,513	-100,18
