Data from hydrogene_USB4F104151__3__09-04-09-829.txt Node

Date: Wed Apr 15 09:04:09 EDT 2026
User: LaboPhy
Spectrometer: USB4F10415
Trigger mode: 4
Integration Time (sec): 1,000000E-1
Scans to average: 1
Electric dark correction enabled: true
Nonlinearity correction enabled: false
Boxcar width: 0
XAxis mode: Wavelengths
Number of Pixels in Spectrum: 3648
>>>>>Begin Spectral Data<<<<<
178,204	-304,12
178,424	-304,12
178,644	-304,12
178,864	-302,08
179,084	-381,95
179,304	-23,55
179,524	-46,08
179,744	3,07
179,964	132,09
180,184	91,13
180,404	17,41
180,624	-52,22
180,844	17,41
181,064	-93,18
181,283	15,36
181,503	-62,46
181,723	1,02
181,943	-37,89
182,163	97,28
182,383	21,5
182,602	130,05
182,822	130,05
183,042	64,51
183,262	-74,75
183,482	-29,7
183,701	-7,17
183,921	138,24
184,141	-119,81
184,361	52,22
184,58	13,31
184,8	41,98
185,02	62,46
185,239	99,33
185,459	41,98
185,679	50,18
185,898	-58,37
186,118	50,18
186,338	5,12
186,557	76,8
186,777	-35,84
186,997	-19,46
187,216	-1,02
187,436	158,72
187,655	78,85
187,875	117,76
188,095	-1,02
188,314	50,18
188,534	101,37
188,753	-23,55
188,973	82,94
189,192	121,85
189,412	48,13
189,631	23,55
189,851	9,22
190,07	132,09
190,29	-64,51
190,509	76,8
190,729	-3,07
190,948	119,81
191,168	254,97
191,387	76,8
191,607	1,02
191,826	46,08
192,045	13,31
192,265	-66,56
192,484	62,46
192,704	52,22
192,923	-29,7
193,142	150,53
193,362	74,75
193,581	99,33
193,8	15,36
194,02	62,46
194,239	33,79
194,458	80,89
194,678	21,5
194,897	-17,41
195,116	62,46
195,335	-11,26
195,555	23,55
195,774	23,55
195,993	134,14
196,212	-37,89
196,432	33,79
196,651	33,79
196,87	11,26
197,089	205,82
197,308	125,95
197,528	33,79
197,747	-37,89
197,966	-11,26
198,185	179,2
198,404	-21,5
198,623	84,99
198,842	41,98
199,062	50,18
199,281	103,42
199,5	-9,22
199,719	-9,22
199,938	46,08
200,157	54,27
200,376	113,66
200,595	56,32
200,814	33,79
201,033	-39,94
201,252	80,89
201,471	21,5
201,69	99,33
201,909	27,65
202,128	41,98
202,347	78,85
202,566	9,22
202,785	9,22
203,004	-9,22
203,223	164,86
203,442	52,22
203,661	-31,74
203,879	29,7
204,098	21,5
204,317	15,36
204,536	66,56
204,755	74,75
204,974	87,04
205,193	-29,7
205,411	158,72
205,63	84,99
205,849	11,26
206,068	33,79
206,287	-56,32
206,505	39,94
206,724	17,41
206,943	9,22
207,162	33,79
207,381	62,46
207,599	25,6
207,818	41,98
208,037	7,17
208,255	-19,46
208,474	39,94
208,693	144,38
208,911	-23,55
209,13	89,09
209,349	54,27
209,567	58,37
209,786	68,61
210,005	37,89
210,223	-29,7
210,442	-107,52
210,661	-41,98
210,879	23,55
211,098	-27,65
211,316	41,98
211,535	130,05
211,753	60,42
211,972	39,94
212,191	33,79
212,409	-9,22
212,628	50,18
212,846	-31,74
213,065	60,42
213,283	84,99
213,502	-3,07
213,72	5,12
213,938	21,5
214,157	-1,02
214,375	101,37
214,594	11,26
214,812	119,81
215,031	5,12
215,249	33,79
215,467	60,42
215,686	113,66
215,904	13,31
216,122	33,79
216,341	146,43
216,559	-5,12
216,778	64,51
216,996	66,56
217,214	-15,36
217,432	-52,22
217,651	3,07
217,869	70,65
218,087	-11,26
218,306	9,22
218,524	74,75
218,742	15,36
218,96	84,99
219,179	1,02
219,397	21,5
219,615	148,48
219,833	134,14
220,051	-27,65
220,27	62,46
220,488	70,65
220,706	66,56
220,924	-3,07
221,142	-13,31
221,36	33,79
221,578	41,98
221,796	-13,31
222,015	-11,26
222,233	29,7
222,451	107,52
222,669	-25,6
222,887	15,36
223,105	-9,22
223,323	-3,07
223,541	13,31
223,759	-1,02
223,977	1,02
224,195	80,89
224,413	41,98
224,631	-1,02
224,849	1,02
225,067	242,68
225,285	-80,89
225,503	-93,18
225,721	-103,42
225,939	58,37
226,157	37,89
226,375	150,53
226,592	60,42
226,81	29,7
227,028	76,8
227,246	115,71
227,464	37,89
227,682	84,99
227,9	5,12
228,117	56,32
228,335	76,8
228,553	13,31
228,771	58,37
228,989	-5,12
229,206	62,46
229,424	-31,74
229,642	-7,17
229,86	-17,41
230,077	78,85
230,295	17,41
230,513	-5,12
230,731	39,94
230,948	181,25
231,166	177,15
231,384	5,12
231,601	-64,51
231,819	132,09
232,037	9,22
232,254	-82,94
232,472	25,6
232,689	-15,36
232,907	62,46
233,125	37,89
233,342	31,74
233,56	-50,18
233,777	-48,13
233,995	-21,5
234,213	82,94
234,43	15,36
234,648	-58,37
234,865	74,75
235,083	-56,32
235,3	-21,5
235,518	46,08
235,735	62,46
235,953	-19,46
236,17	72,7
236,388	-56,32
236,605	95,23
236,822	-11,26
237,04	195,58
237,257	46,08
237,475	-72,7
237,692	-1,02
237,909	21,5
238,127	-15,36
238,344	76,8
238,562	68,61
238,779	1,02
238,996	-19,46
239,214	-56,32
239,431	48,13
239,648	-66,56
239,865	25,6
240,083	134,14
240,3	-101,37
240,517	-37,89
240,735	48,13
240,952	130,05
241,169	76,8
241,386	58,37
241,603	3,07
241,821	-46,08
242,038	54,27
242,255	70,65
242,472	-37,89
242,689	25,6
242,907	58,37
243,124	82,94
243,341	41,98
243,558	-48,13
243,775	13,31
243,992	-66,56
244,209	101,37
244,426	41,98
244,643	74,75
244,86	-48,13
245,078	158,72
245,295	23,55
245,512	33,79
245,729	-17,41
245,946	56,32
246,163	-23,55
246,38	-11,26
246,597	50,18
246,814	29,7
247,031	74,75
247,248	-25,6
247,464	95,23
247,681	37,89
247,898	-9,22
248,115	82,94
248,332	5,12
248,549	76,8
248,766	164,86
248,983	115,71
249,2	62,46
249,417	95,23
249,633	15,36
249,85	41,98
250,067	5,12
250,284	68,61
250,501	41,98
250,717	48,13
250,934	-7,17
251,151	41,98
251,368	50,18
251,585	111,61
251,801	21,5
252,018	-91,13
252,235	58,37
252,451	-56,32
252,668	7,17
252,885	103,42
253,102	21,5
253,318	19,46
253,535	-29,7
253,752	-11,26
253,968	-25,6
254,185	-39,94
254,401	93,18
254,618	113,66
254,835	35,84
255,051	123,9
255,268	48,13
255,484	41,98
255,701	-31,74
255,917	52,22
256,134	-31,74
256,351	46,08
256,567	-72,7
256,784	-7,17
257	-56,32
257,217	-35,84
257,433	21,5
257,65	78,85
257,866	128
258,082	-66,56
258,299	9,22
258,515	107,52
258,732	11,26
258,948	-7,17
259,165	50,18
259,381	-27,65
259,597	72,7
259,814	31,74
260,03	5,12
260,246	78,85
260,463	87,04
260,679	121,85
260,895	130,05
261,112	103,42
261,328	-1,02
261,544	-23,55
261,761	140,29
261,977	23,55
262,193	-93,18
262,409	101,37
262,626	54,27
262,842	82,94
263,058	31,74
263,274	74,75
263,49	19,46
263,707	25,6
263,923	82,94
264,139	33,79
264,355	48,13
264,571	29,7
264,787	41,98
265,004	82,94
265,22	1,02
265,436	15,36
265,652	15,36
265,868	39,94
266,084	-19,46
266,3	50,18
266,516	11,26
266,732	66,56
266,948	15,36
267,164	13,31
267,38	37,89
267,596	-3,07
267,812	144,38
268,028	-9,22
268,244	-25,6
268,46	11,26
268,676	25,6
268,892	74,75
269,108	-52,22
269,324	-23,55
269,54	-56,32
269,756	97,28
269,972	-52,22
270,188	7,17
270,403	-56,32
270,619	25,6
270,835	52,22
271,051	41,98
271,267	-27,65
271,483	-15,36
271,698	54,27
271,914	52,22
272,13	1,02
272,346	44,03
272,562	50,18
272,777	56,32
272,993	-31,74
273,209	-9,22
273,425	66,56
273,64	-41,98
273,856	-15,36
274,072	5,12
274,287	-99,33
274,503	89,09
274,719	25,6
274,934	7,17
275,15	-19,46
275,366	62,46
275,581	-23,55
275,797	56,32
276,012	17,41
276,228	-23,55
276,444	99,33
276,659	82,94
276,875	-23,55
277,09	23,55
277,306	17,41
277,521	-27,65
277,737	80,89
277,952	70,65
278,168	25,6
278,383	44,03
278,599	58,37
278,814	74,75
279,03	25,6
279,245	109,57
279,461	-31,74
279,676	50,18
279,892	-66,56
280,107	-68,61
280,322	23,55
280,538	74,75
280,753	3,07
280,969	-17,41
281,184	23,55
281,399	54,27
281,615	1,02
281,83	21,5
282,045	-66,56
282,26	-58,37
282,476	7,17
282,691	-11,26
282,906	33,79
283,122	46,08
283,337	-31,74
283,552	93,18
283,767	87,04
283,983	50,18
284,198	-11,26
284,413	41,98
284,628	-56,32
284,843	3,07
285,058	87,04
285,274	25,6
285,489	-39,94
285,704	-15,36
285,919	-15,36
286,134	29,7
286,349	50,18
286,564	-50,18
286,779	121,85
286,995	-35,84
287,21	-50,18
287,425	74,75
287,64	13,31
287,855	-25,6
288,07	-35,84
288,285	78,85
288,5	74,75
288,715	160,77
288,93	39,94
289,145	-31,74
289,36	123,9
289,575	5,12
289,79	23,55
290,004	-39,94
290,219	154,62
290,434	-105,47
290,649	-23,55
290,864	33,79
291,079	29,7
291,294	-23,55
291,509	11,26
291,724	19,46
291,938	-25,6
292,153	123,9
292,368	5,12
292,583	128
292,798	54,27
293,012	44,03
293,227	66,56
293,442	29,7
293,657	111,61
293,871	72,7
294,086	39,94
294,301	166,91
294,516	97,28
294,73	-1,02
294,945	11,26
295,16	29,7
295,374	68,61
295,589	99,33
295,804	-101,37
296,018	3,07
296,233	132,09
296,447	-15,36
296,662	-60,42
296,877	123,9
297,091	54,27
297,306	29,7
297,52	9,22
297,735	80,89
297,949	27,65
298,164	87,04
298,378	23,55
298,593	-17,41
298,807	9,22
299,022	23,55
299,236	138,24
299,451	-15,36
299,665	-52,22
299,88	39,94
300,094	41,98
300,309	74,75
300,523	39,94
300,737	3,07
300,952	58,37
301,166	17,41
301,381	-46,08
301,595	46,08
301,809	66,56
302,024	-33,79
302,238	-66,56
302,452	125,95
302,667	7,17
302,881	70,65
303,095	-23,55
303,309	25,6
303,524	-17,41
303,738	-29,7
303,952	-48,13
304,166	62,46
304,381	-117,76
304,595	115,71
304,809	25,6
305,023	-15,36
305,237	23,55
305,452	35,84
305,666	113,66
305,88	33,79
306,094	66,56
306,308	31,74
306,522	7,17
306,736	80,89
306,95	95,23
307,164	-15,36
307,379	1,02
307,593	82,94
307,807	115,71
308,021	21,5
308,235	82,94
308,449	-103,42
308,663	35,84
308,877	242,68
309,091	89,09
309,305	82,94
309,519	-60,42
309,733	146,43
309,947	-50,18
310,161	29,7
310,374	84,99
310,588	74,75
310,802	-84,99
311,016	-5,12
311,23	80,89
311,444	-60,42
311,658	31,74
311,872	74,75
312,085	72,7
312,299	84,99
312,513	99,33
312,727	91,13
312,941	-37,89
313,154	66,56
313,368	-27,65
313,582	41,98
313,796	54,27
314,009	23,55
314,223	113,66
314,437	17,41
314,651	13,31
314,864	5,12
315,078	60,42
315,292	-70,65
315,505	-41,98
315,719	1,02
315,933	1,02
316,146	29,7
316,36	15,36
316,573	91,13
316,787	91,13
317,001	41,98
317,214	-1,02
317,428	-15,36
317,641	-15,36
317,855	-5,12
318,068	25,6
318,282	15,36
318,495	64,51
318,709	76,8
318,922	72,7
319,136	128
319,349	105,47
319,563	74,75
319,776	41,98
319,99	-23,55
320,203	91,13
320,417	-3,07
320,63	27,65
320,843	115,71
321,057	29,7
321,27	-3,07
321,483	107,52
321,697	103,42
321,91	17,41
322,124	25,6
322,337	-33,79
322,55	-39,94
322,763	39,94
322,977	1,02
323,19	-1,02
323,403	99,33
323,617	58,37
323,83	160,77
324,043	17,41
324,256	25,6
324,469	-15,36
324,683	-1,02
324,896	41,98
325,109	17,41
325,322	-58,37
325,535	140,29
325,748	119,81
325,962	39,94
326,175	130,05
326,388	-9,22
326,601	76,8
326,814	1,02
327,027	74,75
327,24	89,09
327,453	-39,94
327,666	97,28
327,879	99,33
328,092	46,08
328,305	95,23
328,518	64,51
328,731	-52,22
328,944	37,89
329,157	50,18
329,37	3,07
329,583	136,19
329,796	99,33
330,009	27,65
330,222	111,61
330,435	140,29
330,648	41,98
330,861	37,89
331,073	56,32
331,286	15,36
331,499	25,6
331,712	23,55
331,925	54,27
332,138	-56,32
332,35	166,91
332,563	33,79
332,776	101,37
332,989	-23,55
333,202	-15,36
333,414	78,85
333,627	21,5
333,84	-50,18
334,053	97,28
334,265	9,22
334,478	-11,26
334,691	58,37
334,903	39,94
335,116	-39,94
335,329	39,94
335,541	64,51
335,754	222,2
335,966	50,18
336,179	89,09
336,392	44,03
336,604	-39,94
336,817	62,46
337,029	-11,26
337,242	-5,12
337,454	93,18
337,667	33,79
337,88	146,43
338,092	68,61
338,305	48,13
338,517	19,46
338,729	138,24
338,942	91,13
339,154	31,74
339,367	23,55
339,579	97,28
339,792	-7,17
340,004	107,52
340,217	9,22
340,429	78,85
340,641	-31,74
340,854	1,02
341,066	46,08
341,278	91,13
341,491	144,38
341,703	41,98
341,915	-17,41
342,128	134,14
342,34	72,7
342,552	-11,26
342,764	93,18
342,977	50,18
343,189	70,65
343,401	91,13
343,613	-17,41
343,826	105,47
344,038	33,79
344,25	136,19
344,462	-15,36
344,674	121,85
344,886	9,22
345,099	78,85
345,311	50,18
345,523	-7,17
345,735	-89,09
345,947	-23,55
346,159	-5,12
346,371	91,13
346,583	-11,26
346,795	242,68
347,007	64,51
347,219	113,66
347,431	25,6
347,643	158,72
347,855	37,89
348,067	140,29
348,279	-23,55
348,491	48,13
348,703	152,57
348,915	19,46
349,127	-7,17
349,339	-31,74
349,551	64,51
349,763	56,32
349,975	58,37
350,187	80,89
350,399	117,76
350,61	117,76
350,822	11,26
351,034	39,94
351,246	66,56
351,458	46,08
351,669	82,94
351,881	95,23
352,093	187,39
352,305	119,81
352,517	68,61
352,728	191,49
352,94	-9,22
353,152	132,09
353,363	-7,17
353,575	48,13
353,787	125,95
353,999	33,79
354,21	140,29
354,422	-50,18
354,633	-1,02
354,845	109,57
355,057	89,09
355,268	60,42
355,48	171,01
355,692	-17,41
355,903	113,66
356,115	9,22
356,326	-29,7
356,538	87,04
356,749	60,42
356,961	144,38
357,172	66,56
357,384	93,18
357,595	193,53
357,807	-76,8
358,018	56,32
358,23	87,04
358,441	246,78
358,653	136,19
358,864	50,18
359,075	-74,75
359,287	84,99
359,498	154,62
359,709	87,04
359,921	66,56
360,132	101,37
360,344	23,55
360,555	31,74
360,766	111,61
360,977	99,33
361,189	101,37
361,4	54,27
361,611	185,34
361,823	39,94
362,034	78,85
362,245	-23,55
362,456	128
362,667	41,98
362,879	-35,84
363,09	80,89
363,301	70,65
363,512	140,29
363,723	41,98
363,935	-46,08
364,146	173,05
364,357	37,89
364,568	87,04
364,779	39,94
364,99	136,19
365,201	48,13
365,412	115,71
365,623	35,84
365,834	91,13
366,045	56,32
366,256	119,81
366,467	109,57
366,678	54,27
366,889	41,98
367,1	27,65
367,311	156,67
367,522	64,51
367,733	46,08
367,944	203,77
368,155	76,8
368,366	158,72
368,577	187,39
368,788	164,86
368,999	44,03
369,209	97,28
369,42	189,44
369,631	236,54
369,842	107,52
370,053	21,5
370,264	107,52
370,474	54,27
370,685	84,99
370,896	140,29
371,107	132,09
371,317	123,9
371,528	33,79
371,739	130,05
371,95	119,81
372,16	115,71
372,371	7,17
372,582	58,37
372,792	107,52
373,003	128
373,214	97,28
373,424	140,29
373,635	9,22
373,846	179,2
374,056	103,42
374,267	132,09
374,477	84,99
374,688	58,37
374,898	207,87
375,109	140,29
375,319	156,67
375,53	109,57
375,74	95,23
375,951	115,71
376,161	160,77
376,372	132,09
376,582	89,09
376,793	171,01
377,003	7,17
377,214	-27,65
377,424	177,15
377,635	123,9
377,845	44,03
378,055	187,39
378,266	41,98
378,476	37,89
378,686	56,32
378,897	87,04
379,107	91,13
379,317	201,72
379,528	58,37
379,738	154,62
379,948	-31,74
380,158	89,09
380,369	164,86
380,579	164,86
380,789	105,47
380,999	144,38
381,21	197,63
381,42	254,97
381,63	113,66
381,84	173,05
382,05	144,38
382,261	123,9
382,471	109,57
382,681	-5,12
382,891	132,09
383,101	115,71
383,311	-1,02
383,521	78,85
383,731	152,57
383,941	171,01
384,151	82,94
384,361	160,77
384,571	160,77
384,781	164,86
384,991	214,01
385,201	246,78
385,411	154,62
385,621	76,8
385,831	132,09
386,041	166,91
386,251	74,75
386,461	154,62
386,671	35,84
386,881	164,86
387,091	113,66
387,301	140,29
387,511	187,39
387,72	115,71
387,93	175,1
388,14	164,86
388,35	148,48
388,56	162,81
388,769	160,77
388,979	164,86
389,189	46,08
389,399	119,81
389,609	142,33
389,818	138,24
390,028	111,61
390,238	97,28
390,447	58,37
390,657	164,86
390,867	130,05
391,076	56,32
391,286	128
391,496	105,47
391,705	87,04
391,915	154,62
392,125	224,25
392,334	54,27
392,544	193,53
392,753	37,89
392,963	103,42
393,172	115,71
393,382	33,79
393,591	250,88
393,801	109,57
394,01	214,01
394,22	226,3
394,429	97,28
394,639	173,05
394,848	91,13
395,058	123,9
395,267	115,71
395,477	183,29
395,686	132,09
395,895	312,32
396,105	246,78
396,314	214,01
396,524	103,42
396,733	97,28
396,942	232,44
397,152	115,71
397,361	257,02
397,57	191,49
397,78	123,9
397,989	156,67
398,198	254,97
398,407	117,76
398,617	76,8
398,826	74,75
399,035	66,56
399,244	197,63
399,453	173,05
399,663	103,42
399,872	72,7
400,081	37,89
400,29	179,2
400,499	5,12
400,708	148,48
400,917	123,9
401,127	9,22
401,336	58,37
401,545	297,98
401,754	68,61
401,963	158,72
402,172	171,01
402,381	19,46
402,59	44,03
402,799	111,61
403,008	171,01
403,217	117,76
403,426	148,48
403,635	60,42
403,844	140,29
404,053	109,57
404,262	19,46
404,471	242,68
404,68	130,05
404,888	58,37
405,097	76,8
405,306	121,85
405,515	152,57
405,724	123,9
405,933	168,96
406,142	123,9
406,35	173,05
406,559	130,05
406,768	64,51
406,977	205,82
407,185	121,85
407,394	121,85
407,603	95,23
407,812	39,94
408,02	156,67
408,229	91,13
408,438	175,1
408,646	130,05
408,855	150,53
409,064	123,9
409,272	160,77
409,481	242,68
409,69	214,01
409,898	156,67
410,107	226,3
410,315	240,64
410,524	132,09
410,733	277,5
410,941	185,34
411,15	242,68
411,358	189,44
411,567	234,49
411,775	132,09
411,984	105,47
412,192	160,77
412,401	60,42
412,609	160,77
412,818	107,52
413,026	128
413,234	115,71
413,443	91,13
413,651	66,56
413,86	78,85
414,068	230,4
414,276	146,43
414,485	-1,02
414,693	156,67
414,901	252,92
415,11	138,24
415,318	54,27
415,526	140,29
415,734	162,81
415,943	48,13
416,151	128
416,359	60,42
416,567	152,57
416,776	123,9
416,984	181,25
417,192	144,38
417,4	152,57
417,608	58,37
417,817	68,61
418,025	150,53
418,233	201,72
418,441	-1,02
418,649	109,57
418,857	99,33
419,065	111,61
419,273	3,07
419,481	162,81
419,689	95,23
419,897	56,32
420,105	25,6
420,313	156,67
420,521	193,53
420,729	197,63
420,937	78,85
421,145	-13,31
421,353	183,29
421,561	136,19
421,769	66,56
421,977	111,61
422,185	132,09
422,393	123,9
422,601	72,7
422,809	97,28
423,017	66,56
423,224	97,28
423,432	66,56
423,64	37,89
423,848	115,71
424,056	66,56
424,263	113,66
424,471	64,51
424,679	132,09
424,887	48,13
425,094	144,38
425,302	11,26
425,51	27,65
425,718	111,61
425,925	74,75
426,133	25,6
426,341	232,44
426,548	35,84
426,756	41,98
426,964	130,05
427,171	1,02
427,379	209,92
427,586	33,79
427,794	91,13
428,001	181,25
428,209	64,51
428,417	105,47
428,624	72,7
428,832	168,96
429,039	56,32
429,247	80,89
429,454	121,85
429,662	130,05
429,869	62,46
430,076	50,18
430,284	54,27
430,491	171,01
430,699	87,04
430,906	179,2
431,114	123,9
431,321	113,66
431,528	70,65
431,736	142,33
431,943	166,91
432,15	220,16
432,358	246,78
432,565	418,81
432,772	246,78
432,979	461,82
433,187	500,73
433,394	584,7
433,601	709,62
433,808	789,49
434,016	863,22
434,223	820,21
434,43	791,54
434,637	637,94
434,844	750,58
435,052	605,17
435,259	455,67
435,466	420,86
435,673	334,84
435,88	316,41
436,087	254,97
436,294	222,2
436,501	228,35
436,708	68,61
436,915	99,33
437,122	128
437,329	25,6
437,537	95,23
437,743	123,9
437,95	164,86
438,157	13,31
438,364	33,79
438,571	130,05
438,778	107,52
438,985	72,7
439,192	89,09
439,399	76,8
439,606	13,31
439,813	183,29
440,02	193,53
440,227	320,51
440,433	107,52
440,64	132,09
440,847	17,41
441,054	128
441,261	222,2
441,467	162,81
441,674	48,13
441,881	218,11
442,088	166,91
442,294	154,62
442,501	111,61
442,708	121,85
442,914	70,65
443,121	80,89
443,328	82,94
443,534	171,01
443,741	132,09
443,948	-9,22
444,154	107,52
444,361	240,64
444,568	125,95
444,774	56,32
444,981	-3,07
445,187	164,86
445,394	35,84
445,6	111,61
445,807	95,23
446,013	76,8
446,22	-64,51
446,426	134,14
446,633	82,94
446,839	277,5
447,046	54,27
447,252	134,14
447,459	58,37
447,665	46,08
447,871	117,76
448,078	156,67
448,284	128
448,491	168,96
448,697	148,48
448,903	82,94
449,11	93,18
449,316	99,33
449,522	205,82
449,728	187,39
449,935	93,18
450,141	82,94
450,347	197,63
450,553	179,2
450,76	64,51
450,966	68,61
451,172	64,51
451,378	103,42
451,584	66,56
451,791	105,47
451,997	136,19
452,203	-11,26
452,409	130,05
452,615	107,52
452,821	82,94
453,027	-48,13
453,233	166,91
453,44	82,94
453,646	91,13
453,852	160,77
454,058	37,89
454,264	105,47
454,47	158,72
454,676	72,7
454,882	222,2
455,088	113,66
455,294	70,65
455,5	148,48
455,705	109,57
455,911	58,37
456,117	66,56
456,323	80,89
456,529	146,43
456,735	171,01
456,941	136,19
457,147	123,9
457,352	64,51
457,558	99,33
457,764	164,86
457,97	128
458,176	97,28
458,381	107,52
458,587	183,29
458,793	148,48
458,999	-56,32
459,204	107,52
459,41	17,41
459,616	95,23
459,821	72,7
460,027	25,6
460,233	66,56
460,438	93,18
460,644	58,37
460,85	105,47
461,055	140,29
461,261	121,85
461,466	27,65
461,672	74,75
461,878	113,66
462,083	205,82
462,289	-15,36
462,494	150,53
462,7	171,01
462,905	173,05
463,111	175,1
463,316	152,57
463,522	156,67
463,727	103,42
463,932	166,91
464,138	91,13
464,343	117,76
464,549	230,4
464,754	128
464,959	107,52
465,165	97,28
465,37	93,18
465,575	25,6
465,781	13,31
465,986	5,12
466,191	119,81
466,397	58,37
466,602	105,47
466,807	7,17
467,012	146,43
467,218	87,04
467,423	125,95
467,628	125,95
467,833	-3,07
468,038	52,22
468,244	84,99
468,449	25,6
468,654	189,44
468,859	93,18
469,064	95,23
469,269	107,52
469,474	105,47
469,679	171,01
469,885	46,08
470,09	82,94
470,295	64,51
470,5	93,18
470,705	201,72
470,91	64,51
471,115	132,09
471,32	117,76
471,525	164,86
471,73	216,06
471,935	130,05
472,139	80,89
472,344	70,65
472,549	185,34
472,754	146,43
472,959	138,24
473,164	121,85
473,369	128
473,574	175,1
473,778	60,42
473,983	99,33
474,188	74,75
474,393	97,28
474,598	62,46
474,802	13,31
475,007	56,32
475,212	254,97
475,417	105,47
475,621	214,01
475,826	78,85
476,031	93,18
476,235	25,6
476,44	128
476,645	164,86
476,849	31,74
477,054	121,85
477,259	35,84
477,463	140,29
477,668	304,12
477,872	140,29
478,077	160,77
478,282	56,32
478,486	148,48
478,691	95,23
478,895	152,57
479,1	132,09
479,304	236,54
479,509	72,7
479,713	160,77
479,918	193,53
480,122	111,61
480,326	58,37
480,531	123,9
480,735	150,53
480,94	80,89
481,144	138,24
481,348	173,05
481,553	132,09
481,757	111,61
481,961	123,9
482,166	181,25
482,37	46,08
482,574	113,66
482,778	25,6
482,983	238,59
483,187	74,75
483,391	68,61
483,595	134,14
483,8	263,16
484,004	500,73
484,208	746,48
484,412	1233,9
484,616	1909,73
484,821	2495,45
485,025	3640,26
485,229	4807,61
485,433	5919,65
485,637	7175,06
485,841	8258,43
486,045	8803,19
486,249	9642,86
486,453	9458,54
486,657	8717,18
486,861	7830,41
487,065	6718,36
487,269	5921,7
487,473	4430,78
487,677	3740,61
487,881	3064,79
488,085	2434,01
488,289	1860,58
488,493	1295,34
488,697	1172,46
488,901	861,17
489,105	470,01
489,309	357,37
489,512	324,6
489,716	246,78
489,92	252,92
490,124	138,24
490,328	277,5
490,531	230,4
490,735	211,96
490,939	95,23
491,143	152,57
491,346	203,77
491,55	222,2
491,754	138,24
491,958	150,53
492,161	152,57
492,365	195,58
492,569	156,67
492,772	189,44
492,976	295,93
493,18	160,77
493,383	185,34
493,587	248,83
493,79	218,11
493,994	134,14
494,197	117,76
494,401	150,53
494,605	156,67
494,808	150,53
495,012	46,08
495,215	185,34
495,419	134,14
495,622	175,1
495,825	95,23
496,029	89,09
496,232	175,1
496,436	89,09
496,639	187,39
496,843	158,72
497,046	113,66
497,249	246,78
497,453	156,67
497,656	56,32
497,859	146,43
498,063	101,37
498,266	70,65
498,469	-17,41
498,673	144,38
498,876	107,52
499,079	-7,17
499,282	17,41
499,485	297,98
499,689	111,61
499,892	191,49
500,095	9,22
500,298	123,9
500,501	89,09
500,705	179,2
500,908	130,05
501,111	72,7
501,314	140,29
501,517	191,49
501,72	125,95
501,923	74,75
502,126	58,37
502,329	148,48
502,532	150,53
502,735	156,67
502,938	173,05
503,141	187,39
503,344	80,89
503,547	240,64
503,75	33,79
503,953	54,27
504,156	123,9
504,359	7,17
504,562	50,18
504,765	130,05
504,968	134,14
505,17	97,28
505,373	97,28
505,576	91,13
505,779	84,99
505,982	13,31
506,185	64,51
506,387	66,56
506,59	136,19
506,793	82,94
506,996	74,75
507,198	107,52
507,401	144,38
507,604	203,77
507,807	111,61
508,009	132,09
508,212	128
508,415	41,98
508,617	97,28
508,82	50,18
509,022	56,32
509,225	138,24
509,428	146,43
509,63	132,09
509,833	7,17
510,035	246,78
510,238	111,61
510,44	115,71
510,643	187,39
510,845	154,62
511,048	199,68
511,25	95,23
511,453	101,37
511,655	148,48
511,858	181,25
512,06	177,15
512,262	56,32
512,465	154,62
512,667	99,33
512,87	41,98
513,072	209,92
513,274	89,09
513,477	91,13
513,679	41,98
513,881	105,47
514,084	27,65
514,286	166,91
514,488	144,38
514,69	48,13
514,893	39,94
515,095	91,13
515,297	97,28
515,499	105,47
515,701	11,26
515,904	87,04
516,106	181,25
516,308	95,23
516,51	78,85
516,712	44,03
516,914	50,18
517,116	21,5
517,318	58,37
517,52	72,7
517,722	91,13
517,925	-27,65
518,127	144,38
518,329	140,29
518,531	82,94
518,733	119,81
518,935	189,44
519,136	130,05
519,338	-15,36
519,54	136,19
519,742	150,53
519,944	224,25
520,146	103,42
520,348	56,32
520,55	91,13
520,752	138,24
520,954	123,9
521,155	89,09
521,357	72,7
521,559	128
521,761	173,05
521,963	25,6
522,164	191,49
522,366	107,52
522,568	87,04
522,77	97,28
522,971	52,22
523,173	89,09
523,375	103,42
523,576	-5,12
523,778	58,37
523,98	80,89
524,181	175,1
524,383	87,04
524,584	134,14
524,786	136,19
524,988	-19,46
525,189	52,22
525,391	214,01
525,592	-3,07
525,794	46,08
525,995	121,85
526,197	156,67
526,398	205,82
526,6	103,42
526,801	128
527,003	7,17
527,204	89,09
527,406	7,17
527,607	64,51
527,808	78,85
528,01	64,51
528,211	117,76
528,412	11,26
528,614	115,71
528,815	146,43
529,016	99,33
529,218	146,43
529,419	107,52
529,62	160,77
529,822	158,72
530,023	80,89
530,224	115,71
530,425	156,67
530,626	80,89
530,828	72,7
531,029	64,51
531,23	107,52
531,431	91,13
531,632	128
531,833	56,32
532,035	121,85
532,236	15,36
532,437	66,56
532,638	56,32
532,839	54,27
533,04	140,29
533,241	160,77
533,442	99,33
533,643	62,46
533,844	27,65
534,045	23,55
534,246	62,46
534,447	41,98
534,648	-1,02
534,849	48,13
535,05	15,36
535,251	17,41
535,451	91,13
535,652	25,6
535,853	60,42
536,054	140,29
536,255	82,94
536,456	84,99
536,657	52,22
536,857	74,75
537,058	111,61
537,259	27,65
537,46	58,37
537,66	101,37
537,861	-7,17
538,062	132,09
538,263	-62,46
538,463	136,19
538,664	37,89
538,865	-25,6
539,065	97,28
539,266	205,82
539,466	25,6
539,667	111,61
539,868	105,47
540,068	54,27
540,269	158,72
540,469	74,75
540,67	205,82
540,87	238,59
541,071	66,56
541,271	152,57
541,472	146,43
541,672	134,14
541,873	109,57
542,073	21,5
542,274	-9,22
542,474	168,96
542,675	107,52
542,875	84,99
543,075	48,13
543,276	64,51
543,476	33,79
543,676	82,94
543,877	50,18
544,077	66,56
544,277	173,05
544,478	111,61
544,678	99,33
544,878	50,18
545,078	109,57
545,279	105,47
545,479	21,5
545,679	27,65
545,879	-33,79
546,079	50,18
546,28	23,55
546,48	97,28
546,68	148,48
546,88	72,7
547,08	41,98
547,28	138,24
547,48	58,37
547,68	78,85
547,88	41,98
548,081	103,42
548,281	-37,89
548,481	29,7
548,681	154,62
548,881	80,89
549,081	123,9
549,28	105,47
549,48	11,26
549,68	74,75
549,88	33,79
550,08	29,7
550,28	25,6
550,48	195,58
550,68	9,22
550,88	68,61
551,08	31,74
551,279	175,1
551,479	-7,17
551,679	107,52
551,879	72,7
552,079	103,42
552,278	84,99
552,478	160,77
552,678	125,95
552,878	119,81
553,077	82,94
553,277	7,17
553,477	54,27
553,676	87,04
553,876	117,76
554,076	31,74
554,275	113,66
554,475	48,13
554,674	111,61
554,874	35,84
555,074	46,08
555,273	89,09
555,473	21,5
555,672	13,31
555,872	101,37
556,071	62,46
556,271	162,81
556,47	80,89
556,67	107,52
556,869	132,09
557,068	54,27
557,268	87,04
557,467	9,22
557,667	62,46
557,866	58,37
558,065	70,65
558,265	101,37
558,464	89,09
558,663	111,61
558,863	123,9
559,062	121,85
559,261	58,37
559,461	82,94
559,66	82,94
559,859	54,27
560,058	33,79
560,258	41,98
560,457	68,61
560,656	152,57
560,855	17,41
561,054	156,67
561,253	31,74
561,453	66,56
561,652	52,22
561,851	74,75
562,05	-7,17
562,249	7,17
562,448	111,61
562,647	15,36
562,846	39,94
563,045	119,81
563,244	187,39
563,443	64,51
563,642	70,65
563,841	138,24
564,04	91,13
564,239	64,51
564,438	62,46
564,637	-23,55
564,836	48,13
565,035	107,52
565,234	31,74
565,432	70,65
565,631	70,65
565,83	99,33
566,029	62,46
566,228	87,04
566,427	142,33
566,625	-9,22
566,824	179,2
567,023	152,57
567,222	97,28
567,42	74,75
567,619	99,33
567,818	136,19
568,016	214,01
568,215	66,56
568,414	156,67
568,612	158,72
568,811	140,29
569,01	144,38
569,208	181,25
569,407	226,3
569,605	154,62
569,804	91,13
570,002	113,66
570,201	107,52
570,4	181,25
570,598	107,52
570,797	173,05
570,995	7,17
571,193	154,62
571,392	121,85
571,59	99,33
571,789	181,25
571,987	144,38
572,186	179,2
572,384	140,29
572,582	191,49
572,781	236,54
572,979	179,2
573,177	95,23
573,376	197,63
573,574	189,44
573,772	164,86
573,971	58,37
574,169	91,13
574,367	136,19
574,565	128
574,763	136,19
574,962	164,86
575,16	97,28
575,358	58,37
575,556	125,95
575,754	156,67
575,952	168,96
576,151	185,34
576,349	271,36
576,547	66,56
576,745	144,38
576,943	220,16
577,141	113,66
577,339	123,9
577,537	236,54
577,735	285,69
577,933	228,35
578,131	91,13
578,329	363,51
578,527	173,05
578,725	238,59
578,923	168,96
579,121	275,45
579,319	132,09
579,516	306,17
579,714	461,82
579,912	177,15
580,11	187,39
580,308	238,59
580,506	287,74
580,704	289,79
580,901	236,54
581,099	371,71
581,297	394,23
581,495	340,99
581,692	340,99
581,89	445,43
582,088	379,9
582,285	349,18
582,483	324,6
582,681	332,79
582,878	318,46
583,076	369,66
583,274	222,2
583,471	345,08
583,669	271,36
583,866	238,59
584,064	164,86
584,262	99,33
584,459	144,38
584,657	197,63
584,854	250,88
585,052	207,87
585,249	336,89
585,447	160,77
585,644	105,47
585,841	201,72
586,039	175,1
586,236	257,02
586,434	197,63
586,631	111,61
586,828	193,53
587,026	259,07
587,223	128
587,42	179,2
587,618	226,3
587,815	287,74
588,012	171,01
588,21	250,88
588,407	279,55
588,604	371,71
588,801	187,39
588,999	322,56
589,196	291,84
589,393	185,34
589,59	257,02
589,787	197,63
589,984	185,34
590,182	226,3
590,379	181,25
590,576	173,05
590,773	136,19
590,97	128
591,167	142,33
591,364	177,15
591,561	156,67
591,758	205,82
591,955	242,68
592,152	156,67
592,349	72,7
592,546	132,09
592,743	160,77
592,94	226,3
593,137	232,44
593,334	254,97
593,531	328,7
593,727	230,4
593,924	224,25
594,121	205,82
594,318	205,82
594,515	275,45
594,712	371,71
594,908	324,6
595,105	113,66
595,302	259,07
595,499	148,48
595,696	279,55
595,892	197,63
596,089	277,5
596,286	162,81
596,482	308,22
596,679	136,19
596,876	224,25
597,072	240,64
597,269	177,15
597,466	302,08
597,662	248,83
597,859	148,48
598,055	271,36
598,252	244,73
598,448	300,03
598,645	267,26
598,841	175,1
599,038	316,41
599,234	226,3
599,431	314,36
599,627	209,92
599,824	187,39
600,02	140,29
600,217	74,75
600,413	138,24
600,609	171,01
600,806	402,43
601,002	121,85
601,198	74,75
601,395	205,82
601,591	236,54
601,787	220,16
601,984	238,59
602,18	230,4
602,376	271,36
602,572	287,74
602,769	242,68
602,965	302,08
603,161	367,61
603,357	279,55
603,553	330,75
603,75	226,3
603,946	240,64
604,142	187,39
604,338	300,03
604,534	164,86
604,73	242,68
604,926	189,44
605,122	179,2
605,318	173,05
605,514	316,41
605,71	173,05
605,906	173,05
606,102	150,53
606,298	328,7
606,494	295,93
606,69	267,26
606,886	228,35
607,082	168,96
607,278	148,48
607,474	220,16
607,67	156,67
607,866	25,6
608,062	238,59
608,257	291,84
608,453	138,24
608,649	226,3
608,845	181,25
609,041	148,48
609,236	211,96
609,432	214,01
609,628	195,58
609,824	201,72
610,019	136,19
610,215	160,77
610,411	209,92
610,606	279,55
610,802	62,46
610,998	111,61
611,193	183,29
611,389	82,94
611,584	148,48
611,78	11,26
611,976	111,61
612,171	289,79
612,367	222,2
612,562	107,52
612,758	211,96
612,953	82,94
613,149	156,67
613,344	197,63
613,539	177,15
613,735	181,25
613,93	171,01
614,126	179,2
614,321	220,16
614,517	222,2
614,712	214,01
614,907	267,26
615,103	154,62
615,298	111,61
615,493	33,79
615,688	74,75
615,884	224,25
616,079	80,89
616,274	119,81
616,47	44,03
616,665	80,89
616,86	132,09
617,055	111,61
617,25	74,75
617,445	101,37
617,641	117,76
617,836	91,13
618,031	19,46
618,226	146,43
618,421	123,9
618,616	140,29
618,811	82,94
619,006	64,51
619,201	214,01
619,396	158,72
619,591	19,46
619,786	70,65
619,981	238,59
620,176	111,61
620,371	125,95
620,566	54,27
620,761	230,4
620,956	146,43
621,151	31,74
621,346	99,33
621,541	44,03
621,735	132,09
621,93	183,29
622,125	105,47
622,32	95,23
622,515	31,74
622,709	168,96
622,904	144,38
623,099	136,19
623,294	203,77
623,488	105,47
623,683	121,85
623,878	181,25
624,072	211,96
624,267	33,79
624,462	33,79
624,656	58,37
624,851	156,67
625,046	84,99
625,24	68,61
625,435	29,7
625,629	132,09
625,824	257,02
626,018	132,09
626,213	33,79
626,407	130,05
626,602	113,66
626,796	111,61
626,991	160,77
627,185	66,56
627,38	109,57
627,574	197,63
627,768	138,24
627,963	87,04
628,157	132,09
628,352	158,72
628,546	74,75
628,74	64,51
628,935	148,48
629,129	130,05
629,323	101,37
629,517	-17,41
629,712	62,46
629,906	89,09
630,1	189,44
630,294	119,81
630,489	101,37
630,683	66,56
630,877	37,89
631,071	162,81
631,265	54,27
631,459	41,98
631,653	164,86
631,848	168,96
632,042	44,03
632,236	37,89
632,43	177,15
632,624	132,09
632,818	68,61
633,012	148,48
633,206	82,94
633,4	113,66
633,594	136,19
633,788	224,25
633,982	228,35
634,176	240,64
634,369	132,09
634,563	119,81
634,757	50,18
634,951	91,13
635,145	177,15
635,339	82,94
635,533	158,72
635,726	87,04
635,92	105,47
636,114	33,79
636,308	23,55
636,501	144,38
636,695	101,37
636,889	54,27
637,083	144,38
637,276	48,13
637,47	25,6
637,664	23,55
637,857	130,05
638,051	107,52
638,244	119,81
638,438	39,94
638,632	173,05
638,825	23,55
639,019	130,05
639,212	21,5
639,406	146,43
639,599	50,18
639,793	60,42
639,986	50,18
640,18	142,33
640,373	138,24
640,567	48,13
640,76	103,42
640,954	74,75
641,147	5,12
641,34	84,99
641,534	58,37
641,727	148,48
641,92	101,37
642,114	134,14
642,307	48,13
642,5	107,52
642,694	58,37
642,887	41,98
643,08	201,72
643,273	121,85
643,467	52,22
643,66	13,31
643,853	107,52
644,046	128
644,239	84,99
644,432	29,7
644,626	25,6
644,819	84,99
645,012	15,36
645,205	121,85
645,398	115,71
645,591	11,26
645,784	9,22
645,977	15,36
646,17	19,46
646,363	128
646,556	3,07
646,749	105,47
646,942	-25,6
647,135	138,24
647,328	105,47
647,521	41,98
647,714	148,48
647,907	164,86
648,099	33,79
648,292	105,47
648,485	97,28
648,678	66,56
648,871	-29,7
649,064	82,94
649,256	13,31
649,449	111,61
649,642	23,55
649,835	-27,65
650,027	68,61
650,22	205,82
650,413	66,56
650,605	140,29
650,798	99,33
650,991	66,56
651,183	78,85
651,376	111,61
651,568	175,1
651,761	76,8
651,954	107,52
652,146	78,85
652,339	162,81
652,531	164,86
652,724	44,03
652,916	144,38
653,109	54,27
653,301	150,53
653,494	232,44
653,686	234,49
653,879	304,12
654,071	250,88
654,263	199,68
654,456	279,55
654,648	812,02
654,84	2546,65
655,033	6603,68
655,225	13427,51
655,417	23122,59
655,61	33401,35
655,802	43002,22
655,994	52168,93
656,186	59291,77
656,379	61898,83
656,571	61470,81
656,763	59256,95
656,955	56174,76
657,148	52832,47
657,34	48822,55
657,532	43772,26
657,724	39569,83
657,916	34677,23
658,108	30028,34
658,3	24996,48
658,492	20822,72
658,684	17224,44
658,876	14043,95
659,068	12006,22
659,26	9476,98
659,452	7271,31
659,644	5288,88
659,836	3855,3
660,028	2819,03
660,22	1985,51
660,412	1352,68
660,604	934,9
660,796	785,4
660,988	693,24
661,18	461,82
661,372	414,71
661,563	271,36
661,755	334,84
661,947	171,01
662,139	189,44
662,331	197,63
662,522	228,35
662,714	179,2
662,906	60,42
663,097	119,81
663,289	50,18
663,481	50,18
663,673	144,38
663,864	76,8
664,056	74,75
664,247	17,41
664,439	142,33
664,631	80,89
664,822	148,48
665,014	107,52
665,205	50,18
665,397	107,52
665,588	66,56
665,78	58,37
665,971	173,05
666,163	107,52
666,354	50,18
666,546	119,81
666,737	89,09
666,929	39,94
667,12	3,07
667,311	64,51
667,503	109,57
667,694	72,7
667,885	115,71
668,077	105,47
668,268	-25,6
668,459	64,51
668,651	115,71
668,842	37,89
669,033	-39,94
669,224	50,18
669,416	154,62
669,607	58,37
669,798	1,02
669,989	164,86
670,18	115,71
670,371	97,28
670,563	13,31
670,754	142,33
670,945	156,67
671,136	41,98
671,327	107,52
671,518	99,33
671,709	144,38
671,9	105,47
672,091	113,66
672,282	84,99
672,473	97,28
672,664	-5,12
672,855	29,7
673,046	25,6
673,237	99,33
673,428	50,18
673,619	95,23
673,809	50,18
674	203,77
674,191	136,19
674,382	-33,79
674,573	1,02
674,764	21,5
674,954	97,28
675,145	31,74
675,336	25,6
675,527	-1,02
675,717	-17,41
675,908	58,37
676,099	-27,65
676,289	62,46
676,48	-99,33
676,671	41,98
676,861	13,31
677,052	23,55
677,243	64,51
677,433	-52,22
677,624	60,42
677,814	5,12
678,005	-17,41
678,195	107,52
678,386	58,37
678,576	9,22
678,767	-39,94
678,957	-105,47
679,148	21,5
679,338	115,71
679,529	41,98
679,719	58,37
679,909	74,75
680,1	58,37
680,29	15,36
680,481	-33,79
680,671	72,7
680,861	72,7
681,052	5,12
681,242	-31,74
681,432	52,22
681,622	29,7
681,813	-33,79
682,003	17,41
682,193	-25,6
682,383	3,07
682,573	9,22
682,764	54,27
682,954	33,79
683,144	113,66
683,334	1,02
683,524	13,31
683,714	33,79
683,904	60,42
684,094	-48,13
684,284	52,22
684,474	107,52
684,664	27,65
684,854	13,31
685,044	-23,55
685,234	-19,46
685,424	-3,07
685,614	-1,02
685,804	62,46
685,994	-7,17
686,184	60,42
686,374	17,41
686,564	89,09
686,753	-7,17
686,943	-39,94
687,133	-15,36
687,323	21,5
687,513	82,94
687,702	-33,79
687,892	-41,98
688,082	121,85
688,272	5,12
688,461	-15,36
688,651	150,53
688,841	29,7
689,03	25,6
689,22	50,18
689,41	78,85
689,599	64,51
689,789	9,22
689,979	130,05
690,168	-50,18
690,358	-11,26
690,547	9,22
690,737	-9,22
690,926	48,13
691,116	50,18
691,305	50,18
691,495	62,46
691,684	-72,7
691,874	-17,41
692,063	-7,17
692,252	93,18
692,442	31,74
692,631	-58,37
692,82	-15,36
693,01	17,41
693,199	-48,13
693,388	109,57
693,578	23,55
693,767	21,5
693,956	21,5
694,146	27,65
694,335	76,8
694,524	-41,98
694,713	74,75
694,902	-37,89
695,092	-46,08
695,281	66,56
695,47	76,8
695,659	-39,94
695,848	-1,02
696,037	68,61
696,226	33,79
696,415	-9,22
696,604	101,37
696,793	41,98
696,982	33,79
697,171	52,22
697,36	-3,07
697,549	-48,13
697,738	-97,28
697,927	33,79
698,116	-23,55
698,305	41,98
698,494	72,7
698,683	-66,56
698,872	130,05
699,061	56,32
699,25	-9,22
699,438	11,26
699,627	1,02
699,816	154,62
700,005	-107,52
700,193	-50,18
700,382	58,37
700,571	52,22
700,76	-1,02
700,948	25,6
701,137	23,55
701,326	113,66
701,514	-9,22
701,703	56,32
701,892	46,08
702,08	187,39
702,269	-17,41
702,457	31,74
702,646	123,9
702,834	37,89
703,023	64,51
703,212	82,94
703,4	52,22
703,589	-31,74
703,777	39,94
703,965	-7,17
704,154	39,94
704,342	-41,98
704,531	66,56
704,719	15,36
704,907	48,13
705,096	80,89
705,284	-74,75
705,472	1,02
705,661	35,84
705,849	17,41
706,037	68,61
706,226	48,13
706,414	-19,46
706,602	-68,61
706,79	72,7
706,979	-48,13
707,167	56,32
707,355	-76,8
707,543	48,13
707,731	93,18
707,919	37,89
708,107	-19,46
708,296	-29,7
708,484	-33,79
708,672	74,75
708,86	62,46
709,048	33,79
709,236	-70,65
709,424	62,46
709,612	48,13
709,8	21,5
709,988	1,02
710,176	107,52
710,364	76,8
710,551	-29,7
710,739	-31,74
710,927	-33,79
711,115	70,65
711,303	50,18
711,491	121,85
711,679	-56,32
711,866	66,56
712,054	-3,07
712,242	17,41
712,43	89,09
712,617	-3,07
712,805	58,37
712,993	31,74
713,181	-25,6
713,368	50,18
713,556	-56,32
713,744	13,31
713,931	164,86
714,119	41,98
714,306	-29,7
714,494	-62,46
714,682	-31,74
714,869	-52,22
715,057	-7,17
715,244	-21,5
715,432	56,32
715,619	-68,61
715,807	-44,03
715,994	-21,5
716,182	-31,74
716,369	25,6
716,556	60,42
716,744	-17,41
716,931	-37,89
717,119	78,85
717,306	72,7
717,493	15,36
717,681	13,31
717,868	-64,51
718,055	1,02
718,242	13,31
718,43	54,27
718,617	89,09
718,804	-52,22
718,991	62,46
719,179	-1,02
719,366	17,41
719,553	1,02
719,74	-33,79
719,927	46,08
720,114	23,55
720,301	17,41
720,488	-23,55
720,676	23,55
720,863	105,47
721,05	82,94
721,237	56,32
721,424	9,22
721,611	23,55
721,798	-89,09
721,985	19,46
722,172	3,07
722,358	29,7
722,545	56,32
722,732	29,7
722,919	80,89
723,106	-41,98
723,293	-7,17
723,48	31,74
723,667	-15,36
723,853	107,52
724,04	58,37
724,227	109,57
724,414	17,41
724,6	60,42
724,787	121,85
724,974	171,01
725,161	58,37
725,347	37,89
725,534	82,94
725,72	113,66
725,907	146,43
726,094	78,85
726,28	52,22
726,467	11,26
726,653	39,94
726,84	136,19
727,027	111,61
727,213	54,27
727,4	132,09
727,586	56,32
727,773	70,65
727,959	89,09
728,145	29,7
728,332	91,13
728,518	13,31
728,705	15,36
728,891	25,6
729,077	62,46
729,264	-44,03
729,45	-39,94
729,636	113,66
729,823	50,18
730,009	80,89
730,195	48,13
730,382	107,52
730,568	11,26
730,754	25,6
730,94	29,7
731,126	46,08
731,313	25,6
731,499	-5,12
731,685	76,8
731,871	-39,94
732,057	82,94
732,243	80,89
732,429	-3,07
732,615	130,05
732,801	89,09
732,987	-17,41
733,173	48,13
733,359	23,55
733,545	68,61
733,731	9,22
733,917	125,95
734,103	50,18
734,289	-17,41
734,475	-7,17
734,661	87,04
734,847	37,89
735,033	5,12
735,219	156,67
735,404	48,13
735,59	-37,89
735,776	41,98
735,962	7,17
736,148	46,08
736,333	50,18
736,519	33,79
736,705	46,08
736,89	58,37
737,076	21,5
737,262	-82,94
737,447	9,22
737,633	1,02
737,819	74,75
738,004	27,65
738,19	48,13
738,375	52,22
738,561	-15,36
738,747	-19,46
738,932	-66,56
739,118	72,7
739,303	19,46
739,489	25,6
739,674	1,02
739,859	-52,22
740,045	121,85
740,23	17,41
740,416	-128
740,601	41,98
740,786	-23,55
740,972	9,22
741,157	-35,84
741,342	-89,09
741,528	-39,94
741,713	64,51
741,898	-48,13
742,084	60,42
742,269	-7,17
742,454	-11,26
742,639	58,37
742,824	-7,17
743,01	107,52
743,195	68,61
743,38	-23,55
743,565	-31,74
743,75	-15,36
743,935	33,79
744,12	56,32
744,305	-33,79
744,49	44,03
744,675	-39,94
744,86	13,31
745,045	101,37
745,23	50,18
745,415	60,42
745,6	72,7
745,785	13,31
745,97	115,71
746,155	54,27
746,34	89,09
746,525	84,99
746,71	138,24
746,895	-39,94
747,079	-87,04
747,264	1,02
747,449	-1,02
747,634	56,32
747,819	93,18
748,003	128
748,188	-7,17
748,373	39,94
748,557	74,75
748,742	5,12
748,927	23,55
749,111	-15,36
749,296	-7,17
749,481	103,42
749,665	101,37
749,85	9,22
750,034	39,94
750,219	-29,7
750,404	1,02
750,588	41,98
750,773	-15,36
750,957	-11,26
751,141	-64,51
751,326	31,74
751,51	-31,74
751,695	17,41
751,879	25,6
752,064	158,72
752,248	5,12
752,432	109,57
752,617	56,32
752,801	105,47
752,985	-70,65
753,17	121,85
753,354	50,18
753,538	58,37
753,722	21,5
753,907	44,03
754,091	23,55
754,275	111,61
754,459	-23,55
754,643	-23,55
754,828	64,51
755,012	109,57
755,196	-3,07
755,38	105,47
755,564	-46,08
755,748	-37,89
755,932	56,32
756,116	-3,07
756,3	37,89
756,484	-39,94
756,668	89,09
756,852	-134,14
757,036	-7,17
757,22	84,99
757,404	37,89
757,588	37,89
757,772	121,85
757,956	-33,79
758,14	128
758,323	-27,65
758,507	39,94
758,691	60,42
758,875	15,36
759,059	158,72
759,242	-13,31
759,426	35,84
759,61	50,18
759,794	-82,94
759,977	111,61
760,161	222,2
760,345	156,67
760,528	168,96
760,712	54,27
760,895	41,98
761,079	56,32
761,263	-39,94
761,446	89,09
761,63	33,79
761,813	82,94
761,997	-97,28
762,18	64,51
762,364	37,89
762,547	-56,32
762,731	78,85
762,914	3,07
763,098	84,99
763,281	-15,36
763,464	50,18
763,648	132,09
763,831	-7,17
764,015	-64,51
764,198	82,94
764,381	48,13
764,564	11,26
764,748	-15,36
764,931	17,41
765,114	9,22
765,297	60,42
765,481	-56,32
765,664	17,41
765,847	-19,46
766,03	130,05
766,213	1,02
766,397	17,41
766,58	-50,18
766,763	44,03
766,946	-31,74
767,129	-74,75
767,312	-50,18
767,495	-17,41
767,678	-39,94
767,861	54,27
768,044	52,22
768,227	-52,22
768,41	39,94
768,593	-33,79
768,776	17,41
768,959	31,74
769,142	95,23
769,324	-41,98
769,507	23,55
769,69	-1,02
769,873	13,31
770,056	121,85
770,239	-5,12
770,421	31,74
770,604	64,51
770,787	13,31
770,97	9,22
771,152	-87,04
771,335	44,03
771,518	-68,61
771,7	168,96
771,883	74,75
772,066	-23,55
772,248	25,6
772,431	78,85
772,613	25,6
772,796	37,89
772,978	54,27
773,161	138,24
773,343	-21,5
773,526	70,65
773,708	-125,95
773,891	-21,5
774,073	-15,36
774,256	39,94
774,438	162,81
774,621	-5,12
774,803	66,56
774,985	82,94
775,168	23,55
775,35	-31,74
775,532	17,41
775,715	7,17
775,897	54,27
776,079	-7,17
776,261	78,85
776,444	33,79
776,626	1,02
776,808	78,85
776,99	-5,12
777,173	33,79
777,355	125,95
777,537	185,34
777,719	148,48
777,901	136,19
778,083	179,2
778,265	115,71
778,447	74,75
778,629	15,36
778,811	130,05
778,993	62,46
779,175	101,37
779,357	52,22
779,539	66,56
779,721	123,9
779,903	146,43
780,085	-3,07
780,267	111,61
780,449	-5,12
780,631	-1,02
780,812	132,09
780,994	74,75
781,176	-29,7
781,358	27,65
781,54	-50,18
781,721	5,12
781,903	117,76
782,085	13,31
782,267	50,18
782,448	19,46
782,63	-9,22
782,812	17,41
782,993	41,98
783,175	-9,22
783,357	-17,41
783,538	21,5
783,72	-23,55
783,901	-31,74
784,083	54,27
784,264	74,75
784,446	-56,32
784,627	-134,14
784,809	7,17
784,99	-41,98
785,172	123,9
785,353	39,94
785,535	-5,12
785,716	9,22
785,897	-41,98
786,079	-1,02
786,26	-58,37
786,441	119,81
786,623	-1,02
786,804	-66,56
786,985	-23,55
787,167	52,22
787,348	15,36
787,529	-23,55
787,71	138,24
787,891	25,6
788,073	-54,27
788,254	-87,04
788,435	117,76
788,616	76,8
788,797	3,07
788,978	-31,74
789,159	-7,17
789,34	44,03
789,522	25,6
789,703	-35,84
789,884	89,09
790,065	27,65
790,246	123,9
790,427	7,17
790,607	105,47
790,788	115,71
790,969	-72,7
791,15	50,18
791,331	-35,84
791,512	48,13
791,693	-25,6
791,874	39,94
792,054	132,09
792,235	115,71
792,416	-99,33
792,597	-109,57
792,778	21,5
792,958	-3,07
793,139	50,18
793,32	7,17
793,5	-25,6
793,681	95,23
793,862	-76,8
794,042	48,13
794,223	-80,89
794,404	-48,13
794,584	-128
794,765	46,08
794,945	-60,42
795,126	130,05
795,306	-7,17
795,487	-19,46
795,667	-13,31
795,848	50,18
796,028	44,03
796,209	27,65
796,389	48,13
796,57	52,22
796,75	5,12
796,93	11,26
797,111	-64,51
797,291	35,84
797,471	64,51
797,652	-21,5
797,832	1,02
798,012	27,65
798,192	-99,33
798,373	-72,7
798,553	33,79
798,733	-58,37
798,913	-41,98
799,093	5,12
799,274	15,36
799,454	39,94
799,634	64,51
799,814	60,42
799,994	-5,12
800,174	37,89
800,354	46,08
800,534	-33,79
800,714	19,46
800,894	-58,37
801,074	-68,61
801,254	-5,12
801,434	64,51
801,614	-48,13
801,794	-115,71
801,974	1530,86
802,154	-64,51
802,334	-23,55
802,514	37,89
802,693	13,31
802,873	-80,89
803,053	82,94
803,233	-19,46
803,413	-11,26
803,592	-33,79
803,772	9,22
803,952	-13,31
804,131	-15,36
804,311	29,7
804,491	72,7
804,67	-33,79
804,85	17,41
805,03	39,94
805,209	103,42
805,389	-1,02
805,568	-25,6
805,748	-58,37
805,928	-9,22
806,107	-17,41
806,287	80,89
806,466	66,56
806,646	-54,27
806,825	-11,26
807,004	17,41
807,184	39,94
807,363	-29,7
807,543	-31,74
807,722	-11,26
807,901	64,51
808,081	-58,37
808,26	-130,05
808,439	111,61
808,619	-103,42
808,798	-13,31
808,977	1,02
809,156	-3,07
809,336	-19,46
809,515	41,98
809,694	-48,13
809,873	-21,5
810,052	-11,26
810,231	33,79
810,411	25,6
810,59	87,04
810,769	-95,23
810,948	70,65
811,127	-117,76
811,306	-48,13
811,485	-74,75
811,664	91,13
811,843	37,89
812,022	27,65
812,201	1,02
812,38	9,22
812,559	-23,55
812,737	107,52
812,916	-97,28
813,095	-66,56
813,274	29,7
813,453	-23,55
813,632	9,22
813,811	25,6
813,989	-89,09
814,168	-13,31
814,347	-23,55
814,526	-82,94
814,704	84,99
814,883	41,98
815,062	-23,55
815,24	-13,31
815,419	-80,89
815,598	-39,94
815,776	-27,65
815,955	9,22
816,133	-121,85
816,312	17,41
816,49	-52,22
816,669	25,6
816,847	-48,13
817,026	5,12
817,204	11,26
817,383	-27,65
817,561	-5,12
817,74	-5,12
817,918	-25,6
818,097	29,7
818,275	-72,7
818,453	64,51
818,632	44,03
818,81	-11,26
818,988	-7,17
819,167	-44,03
819,345	17,41
819,523	-19,46
819,701	19,46
819,879	15,36
820,058	-11,26
820,236	39,94
820,414	-56,32
820,592	-66,56
820,77	-56,32
820,948	-58,37
821,127	11,26
821,305	44,03
821,483	5,12
821,661	62,46
821,839	58,37
822,017	-13,31
822,195	29,7
822,373	72,7
822,551	-39,94
822,729	70,65
822,907	17,41
823,085	-3,07
823,262	33,79
823,44	-78,85
823,618	1,02
823,796	72,7
823,974	-15,36
824,152	-23,55
824,329	13,31
824,507	19,46
824,685	11,26
824,863	29,7
825,04	-1,02
825,218	33,79
825,396	9,22
825,574	84,99
825,751	-87,04
825,929	64,51
826,107	-54,27
826,284	33,79
826,462	9,22
826,639	-31,74
826,817	-91,13
826,994	-37,89
827,172	-93,18
827,349	-9,22
827,527	68,61
827,704	-37,89
827,882	37,89
828,059	-52,22
828,237	-33,79
828,414	87,04
828,591	-183,29
828,769	9,22
828,946	-138,24
829,124	62,46
829,301	50,18
829,478	-9,22
829,655	-9,22
829,833	7,17
830,01	-84,99
830,187	-17,41
830,364	25,6
830,542	48,13
830,719	84,99
830,896	9,22
831,073	-9,22
831,25	25,6
831,427	-39,94
831,604	1,02
831,782	11,26
831,959	-31,74
832,136	-89,09
832,313	5,12
832,49	-64,51
832,667	25,6
832,844	-21,5
833,021	58,37
833,198	31,74
833,374	-7,17
833,551	33,79
833,728	-41,98
833,905	82,94
834,082	-68,61
834,259	21,5
834,436	84,99
834,612	-15,36
834,789	15,36
834,966	-74,75
835,143	-39,94
835,319	-113,66
835,496	48,13
835,673	-1,02
835,85	39,94
836,026	39,94
836,203	72,7
836,38	-91,13
836,556	-52,22
836,733	-23,55
836,909	82,94
837,086	-93,18
837,262	-105,47
837,439	-35,84
837,616	-35,84
837,792	9,22
837,968	-9,22
838,145	-82,94
838,321	-3,07
838,498	-15,36
838,674	44,03
838,851	9,22
839,027	-25,6
839,203	-58,37
839,38	21,5
839,556	-74,75
839,732	97,28
839,909	-9,22
840,085	-19,46
840,261	-39,94
840,437	11,26
840,614	-19,46
840,79	113,66
840,966	48,13
841,142	25,6
841,318	-19,46
841,494	80,89
841,671	23,55
841,847	-41,98
842,023	-91,13
842,199	74,75
842,375	146,43
842,551	-52,22
842,727	-1,02
842,903	117,76
843,079	-84,99
843,255	123,9
843,431	76,8
843,607	-25,6
843,783	-113,66
843,959	66,56
844,134	-19,46
844,31	109,57
844,486	-21,5
844,662	39,94
844,838	17,41
845,013	68,61
845,189	87,04
845,365	-5,12
845,541	52,22
845,716	15,36
845,892	84,99
846,068	21,5
846,244	-9,22
846,419	99,33
846,595	-29,7
846,77	-91,13
846,946	72,7
847,122	3,07
847,297	29,7
847,473	37,89
847,648	-99,33
847,824	91,13
847,999	-54,27
848,175	-17,41
848,35	56,32
848,526	50,18
848,701	68,61
848,876	9,22
849,052	27,65
849,227	19,46
849,403	-3,07
849,578	-48,13
849,753	-27,65
849,929	15,36
850,104	-95,23
850,279	-48,13
850,454	78,85
850,63	-23,55
850,805	74,75
850,98	3,07
851,155	7,17
851,33	-15,36
851,505	-48,13
851,681	142,33
851,856	-7,17
852,031	-17,41
852,206	15,36
852,381	19,46
852,556	48,13
852,731	64,51
852,906	23,55
853,081	72,7
853,256	19,46
853,431	9,22
853,606	-72,7
853,781	-109,57
853,956	-113,66
854,131	-3,07
854,305	-76,8
854,48	-29,7
854,655	-25,6
854,83	33,79
855,005	-84,99
855,18	33,79
855,354	19,46
855,529	9,22
855,704	15,36
855,879	70,65
856,053	-168,96
856,228	5,12
856,403	-99,33
856,577	9,22
856,752	-142,33
856,926	-23,55
857,101	15,36
857,276	-31,74
857,45	52,22
857,625	9,22
857,799	-44,03
857,974	-23,55
858,148	-84,99
858,323	46,08
858,497	-17,41
858,672	-113,66
858,846	1,02
859,02	21,5
859,195	1,02
859,369	29,7
859,543	33,79
859,718	-19,46
859,892	-35,84
860,066	29,7
860,241	-93,18
860,415	-15,36
860,589	58,37
860,763	-19,46
860,938	-58,37
861,112	-39,94
861,286	-123,9
861,46	19,46
861,634	-31,74
861,808	-17,41
861,982	-105,47
862,157	-15,36
862,331	-13,31
862,505	-29,7
862,679	-125,95
862,853	-9,22
863,027	-84,99
863,201	136,19
863,375	-41,98
863,549	7,17
863,722	-27,65
863,896	82,94
864,07	-72,7
864,244	-48,13
864,418	74,75
864,592	-27,65
864,766	-1,02
864,939	1,02
865,113	-15,36
865,287	33,79
865,461	-58,37
865,634	46,08
865,808	-11,26
865,982	-23,55
866,156	-99,33
866,329	-105,47
866,503	-68,61
866,676	41,98
866,85	23,55
867,024	-52,22
867,197	33,79
867,371	39,94
867,544	80,89
867,718	-84,99
867,891	60,42
868,065	-56,32
868,238	66,56
868,412	-21,5
868,585	13,31
868,759	-60,42
868,932	-27,65
869,105	-46,08
869,279	-39,94
869,452	-107,52
869,625	50,18
869,799	-19,46
869,972	-39,94
870,145	-74,75
870,319	91,13
870,492	3,07
870,665	-33,79
870,838	-70,65
871,011	-121,85
871,185	-37,89
871,358	-58,37
871,531	-11,26
871,704	-13,31
871,877	-11,26
872,05	-76,8
872,223	-41,98
872,396	-9,22
872,569	27,65
872,742	-146,43
872,915	25,6
873,088	-7,17
873,261	-56,32
873,434	97,28
873,607	-23,55
873,78	97,28
873,953	-95,23
874,126	37,89
874,299	46,08
874,471	-23,55
874,644	9,22
874,817	-37,89
874,99	177,15
875,163	44,03
875,335	17,41
875,508	-44,03
875,681	136,19
875,853	-3,07
876,026	5,12
876,199	134,14
876,371	-23,55
876,544	-33,79
876,717	58,37
876,889	11,26
877,062	23,55
877,234	-44,03
877,407	-33,79
877,579	-17,41
877,752	-3,07
877,924	95,23
878,097	70,65
878,269	41,98
878,442	-1,02
878,614	-33,79
878,786	-11,26
878,959	21,5
879,131	17,41
879,303	-117,76
879,476	39,94
879,648	-31,74
879,82	-23,55
879,993	-39,94
880,165	-1,02
880,337	-56,32
880,509	13,31
880,681	-76,8
880,854	50,18
881,026	50,18
881,198	91,13
881,37	-9,22
881,542	-39,94
881,714	-95,23
881,886	-19,46
882,058	9,22
882,23	-37,89
882,402	-19,46
882,574	68,61
882,746	-11,26
882,918	132,09
883,09	-7,17
883,262	9,22
883,434	13,31
883,606	-35,84
883,778	-39,94
883,95	52,22
884,122	-17,41
884,293	44,03
884,465	5,12
884,637	29,7
884,809	-91,13
884,98	39,94
885,152	17,41
885,324	46,08
885,496	-56,32
885,667	-82,94
885,839	29,7
886,011	60,42
886,182	13,31
886,354	33,79
886,525	-62,46
886,697	-66,56
886,869	-97,28
887,04	-1,02
887,212	105,47
887,383	156,67
887,555	-11,26
887,726	33,79
887,897	-78,85
888,069	-44,03
888,24	21,5
888,412	23,55
888,583	-48,13
888,754	-84,99
888,926	-136,19
889,097	-64,51
889,268	-27,65
889,44	-1,02
889,611	-54,27
889,782	-52,22
889,953	-56,32
890,125	72,7
890,296	-101,37
890,467	15,36
890,638	-72,7
890,809	7,17
890,98	-123,9
891,151	23,55
891,323	91,13
891,494	-15,36
891,665	-44,03
891,836	-58,37
892,007	11,26
892,178	-39,94
892,349	-29,7
892,52	-82,94
892,691	29,7
892,862	-15,36
893,032	-105,47
893,203	50,18
893,374	54,27
893,545	74,75
893,716	-134,14
893,887	19,46
894,057	-58,37
894,228	39,94
894,399	-27,65
894,57	58,37
894,74	-21,5
894,911	-23,55
895,082	-15,36
895,253	-31,74
895,423	15,36
895,594	103,42
895,764	82,94
895,935	-105,47
896,106	44,03
896,276	-70,65
896,447	41,98
896,617	-84,99
896,788	-48,13
896,958	72,7
897,129	-64,51
897,299	-91,13
897,47	37,89
897,64	33,79
897,81	-27,65
897,981	17,41
898,151	-39,94
898,322	9,22
898,492	-19,46
898,662	17,41
898,832	-31,74
899,003	-11,26
899,173	23,55
899,343	60,42
899,513	-50,18
