Data from hydrogene_USB4F104151__7__09-04-10-111.txt Node

Date: Wed Apr 15 09:04:10 EDT 2026
User: LaboPhy
Spectrometer: USB4F10415
Trigger mode: 4
Integration Time (sec): 1,000000E-1
Scans to average: 1
Electric dark correction enabled: true
Nonlinearity correction enabled: false
Boxcar width: 0
XAxis mode: Wavelengths
Number of Pixels in Spectrum: 3648
>>>>>Begin Spectral Data<<<<<
178,204	-328,19
178,424	-328,19
178,644	-328,19
178,864	-371,19
179,084	-363
179,304	30,21
179,524	-18,94
179,744	-66,05
179,964	24,06
180,184	44,54
180,404	-29,18
180,624	91,65
180,844	-18,94
181,064	-29,18
181,283	-39,42
181,503	-41,47
181,723	52,74
181,943	-53,76
182,163	153,09
182,383	1,54
182,602	71,17
182,822	69,12
183,042	7,68
183,262	-39,42
183,482	69,12
183,701	-0,51
183,921	28,16
184,141	-111,1
184,361	67,07
184,58	28,16
184,8	89,6
185,02	-78,33
185,239	-6,66
185,459	85,5
185,679	67,07
185,898	-76,29
186,118	-20,99
186,338	46,59
186,557	89,6
186,777	-80,38
186,997	-49,66
187,216	60,93
187,436	210,43
187,655	13,82
187,875	65,02
188,095	56,83
188,314	103,93
188,534	130,56
188,753	-27,14
188,973	95,74
189,192	144,89
189,412	52,74
189,631	1,54
189,851	85,5
190,07	99,84
190,29	-29,18
190,509	-35,33
190,729	-39,42
190,948	118,27
191,168	273,92
191,387	75,26
191,607	28,16
191,826	13,82
192,045	-14,85
192,265	-41,47
192,484	11,78
192,704	-12,8
192,923	-74,24
193,142	185,85
193,362	103,93
193,581	91,65
193,8	60,93
194,02	124,41
194,239	-53,76
194,458	89,6
194,678	26,11
194,897	52,74
195,116	11,78
195,335	101,89
195,555	24,06
195,774	19,97
195,993	50,69
196,212	7,68
196,432	-2,56
196,651	-6,66
196,87	9,73
197,089	181,76
197,308	52,74
197,528	30,21
197,747	-43,52
197,966	38,4
198,185	167,42
198,404	-27,14
198,623	97,79
198,842	46,59
199,062	130,56
199,281	116,22
199,5	22,02
199,719	28,16
199,938	95,74
200,157	-2,56
200,376	1,54
200,595	120,32
200,814	15,87
201,033	-80,38
201,252	126,46
201,471	38,4
201,69	103,93
201,909	50,69
202,128	83,45
202,347	22,02
202,566	26,11
202,785	-29,18
203,004	38,4
203,223	189,95
203,442	83,45
203,661	-2,56
203,879	-10,75
204,098	130,56
204,317	-88,57
204,536	42,5
204,755	142,85
204,974	75,26
205,193	28,16
205,411	148,99
205,63	42,5
205,849	13,82
206,068	60,93
206,287	-117,25
206,505	101,89
206,724	17,92
206,943	32,26
207,162	52,74
207,381	-45,57
207,599	-0,51
207,818	-33,28
208,037	-37,38
208,255	28,16
208,474	75,26
208,693	46,59
208,911	38,4
209,13	71,17
209,349	-27,14
209,567	103,93
209,786	62,98
210,005	75,26
210,223	26,11
210,442	-70,14
210,661	-6,66
210,879	28,16
211,098	-59,9
211,316	62,98
211,535	38,4
211,753	44,54
211,972	50,69
212,191	-53,76
212,409	13,82
212,628	56,83
212,846	-12,8
213,065	77,31
213,283	126,46
213,502	-39,42
213,72	13,82
213,938	50,69
214,157	34,3
214,375	91,65
214,594	11,78
214,812	97,79
215,031	56,83
215,249	-82,43
215,467	144,89
215,686	-14,85
215,904	93,69
216,122	11,78
216,341	132,61
216,559	52,74
216,778	122,37
216,996	118,27
217,214	22,02
217,432	40,45
217,651	-25,09
217,869	58,88
218,087	-0,51
218,306	-6,66
218,524	28,16
218,742	26,11
218,96	79,36
219,179	-4,61
219,397	13,82
219,615	173,57
219,833	50,69
220,051	-53,76
220,27	87,55
220,488	42,5
220,706	108,03
220,924	-16,9
221,142	-49,66
221,36	54,78
221,578	34,3
221,796	46,59
222,015	34,3
222,233	118,27
222,451	108,03
222,669	-27,14
222,887	40,45
223,105	-41,47
223,323	13,82
223,541	-14,85
223,759	-27,14
223,977	-25,09
224,195	167,42
224,413	83,45
224,631	62,98
224,849	52,74
225,067	179,71
225,285	-14,85
225,503	-16,9
225,721	-117,25
225,939	30,21
226,157	79,36
226,375	165,37
226,592	-10,75
226,81	30,21
227,028	95,74
227,246	138,75
227,464	34,3
227,682	36,35
227,9	91,65
228,117	83,45
228,335	62,98
228,553	-23,04
228,771	17,92
228,989	-12,8
229,206	42,5
229,424	3,58
229,642	-25,09
229,86	-0,51
230,077	7,68
230,295	-4,61
230,513	89,6
230,731	58,88
230,948	75,26
231,166	38,4
231,384	-47,62
231,601	-18,94
231,819	126,46
232,037	17,92
232,254	-2,56
232,472	22,02
232,689	-45,57
232,907	93,69
233,125	7,68
233,342	-10,75
233,56	-109,05
233,777	19,97
233,995	-14,85
234,213	52,74
234,43	5,63
234,648	42,5
234,865	42,5
235,083	48,64
235,3	85,5
235,518	32,26
235,735	128,51
235,953	58,88
236,17	42,5
236,388	-33,28
236,605	54,78
236,822	161,28
237,04	97,79
237,257	-2,56
237,475	-6,66
237,692	73,21
237,909	-29,18
238,127	32,26
238,344	93,69
238,562	15,87
238,779	-35,33
238,996	5,63
239,214	48,64
239,431	58,88
239,648	-37,38
239,865	95,74
240,083	77,31
240,3	5,63
240,517	-39,42
240,735	-0,51
240,952	114,17
241,169	140,8
241,386	93,69
241,603	83,45
241,821	11,78
242,038	3,58
242,255	122,37
242,472	-86,53
242,689	30,21
242,907	46,59
243,124	22,02
243,341	38,4
243,558	-76,29
243,775	-6,66
243,992	-76,29
244,209	108,03
244,426	151,04
244,643	56,83
244,86	26,11
245,078	26,11
245,295	17,92
245,512	40,45
245,729	-14,85
245,946	67,07
246,163	62,98
246,38	13,82
246,597	50,69
246,814	3,58
247,031	9,73
247,248	-84,48
247,464	-35,33
247,681	13,82
247,898	60,93
248,115	91,65
248,332	-51,71
248,549	95,74
248,766	173,57
248,983	-12,8
249,2	3,58
249,417	128,51
249,633	-10,75
249,85	46,59
250,067	13,82
250,284	38,4
250,501	62,98
250,717	71,17
250,934	-76,29
251,151	42,5
251,368	36,35
251,585	138,75
251,801	5,63
252,018	26,11
252,235	36,35
252,451	-68,09
252,668	7,68
252,885	83,45
253,102	-14,85
253,318	-104,96
253,535	-6,66
253,752	-8,7
253,968	-8,7
254,185	-55,81
254,401	5,63
254,618	85,5
254,835	-57,86
255,051	34,3
255,268	62,98
255,484	-6,66
255,701	-41,47
255,917	38,4
256,134	-16,9
256,351	5,63
256,567	-131,58
256,784	87,55
257	-33,28
257,217	79,36
257,433	46,59
257,65	9,73
257,866	85,5
258,082	-109,05
258,299	22,02
258,515	17,92
258,732	-14,85
258,948	13,82
259,165	101,89
259,381	-66,05
259,597	46,59
259,814	1,54
260,03	22,02
260,246	36,35
260,463	101,89
260,679	161,28
260,895	11,78
261,112	24,06
261,328	34,3
261,544	26,11
261,761	140,8
261,977	-72,19
262,193	-2,56
262,409	-20,99
262,626	79,36
262,842	24,06
263,058	-61,95
263,274	30,21
263,49	-29,18
263,707	9,73
263,923	46,59
264,139	-92,67
264,355	52,74
264,571	108,03
264,787	17,92
265,004	120,32
265,22	-55,81
265,436	-43,52
265,652	-23,04
265,868	79,36
266,084	-109,05
266,3	5,63
266,516	24,06
266,732	-45,57
266,948	3,58
267,164	-6,66
267,38	50,69
267,596	46,59
267,812	189,95
268,028	56,83
268,244	7,68
268,46	71,17
268,676	-16,9
268,892	60,93
269,108	-53,76
269,324	-2,56
269,54	-39,42
269,756	42,5
269,972	-47,62
270,188	-43,52
270,403	-92,67
270,619	17,92
270,835	38,4
271,051	3,58
271,267	34,3
271,483	-2,56
271,698	46,59
271,914	-10,75
272,13	38,4
272,346	85,5
272,562	-31,23
272,777	110,08
272,993	-29,18
273,209	28,16
273,425	108,03
273,64	-78,33
273,856	28,16
274,072	-64
274,287	1,54
274,503	46,59
274,719	13,82
274,934	40,45
275,15	-37,38
275,366	-16,9
275,581	-45,57
275,797	42,5
276,012	-2,56
276,228	-64
276,444	17,92
276,659	155,13
276,875	7,68
277,09	-45,57
277,306	-12,8
277,521	-8,7
277,737	-10,75
277,952	54,78
278,168	28,16
278,383	44,54
278,599	-2,56
278,814	30,21
279,03	54,78
279,245	91,65
279,461	-10,75
279,676	73,21
279,892	-72,19
280,107	-29,18
280,322	40,45
280,538	48,64
280,753	7,68
280,969	101,89
281,184	62,98
281,399	118,27
281,615	22,02
281,83	19,97
282,045	-59,9
282,26	-6,66
282,476	38,4
282,691	65,02
282,906	19,97
283,122	30,21
283,337	11,78
283,552	38,4
283,767	-43,52
283,983	40,45
284,198	71,17
284,413	40,45
284,628	-51,71
284,843	126,46
285,058	28,16
285,274	-27,14
285,489	-59,9
285,704	50,69
285,919	-27,14
286,134	30,21
286,349	28,16
286,564	-18,94
286,779	140,8
286,995	52,74
287,21	-92,67
287,425	65,02
287,64	-8,7
287,855	67,07
288,07	-55,81
288,285	46,59
288,5	71,17
288,715	58,88
288,93	60,93
289,145	-76,29
289,36	54,78
289,575	-8,7
289,79	101,89
290,004	52,74
290,219	108,03
290,434	-18,94
290,649	-43,52
290,864	-27,14
291,079	-27,14
291,294	58,88
291,509	3,58
291,724	-45,57
291,938	-64
292,153	38,4
292,368	7,68
292,583	52,74
292,798	22,02
293,012	40,45
293,227	15,87
293,442	-76,29
293,657	79,36
293,871	124,41
294,086	-2,56
294,301	187,9
294,516	87,55
294,73	30,21
294,945	13,82
295,16	-68,09
295,374	50,69
295,589	22,02
295,804	28,16
296,018	54,78
296,233	62,98
296,447	-35,33
296,662	-27,14
296,877	144,89
297,091	67,07
297,306	30,21
297,52	-10,75
297,735	-18,94
297,949	-23,04
298,164	34,3
298,378	1,54
298,593	-31,23
298,807	-45,57
299,022	26,11
299,236	85,5
299,451	71,17
299,665	-80,38
299,88	-39,42
300,094	22,02
300,309	24,06
300,523	85,5
300,737	38,4
300,952	30,21
301,166	7,68
301,381	-59,9
301,595	-59,9
301,809	46,59
302,024	30,21
302,238	-27,14
302,452	69,12
302,667	58,88
302,881	120,32
303,095	19,97
303,309	65,02
303,524	-35,33
303,738	7,68
303,952	-4,61
304,166	62,98
304,381	-154,11
304,595	85,5
304,809	-35,33
305,023	-33,28
305,237	-0,51
305,452	-8,7
305,666	54,78
305,88	42,5
306,094	120,32
306,308	30,21
306,522	62,98
306,736	69,12
306,95	99,84
307,164	-37,38
307,379	13,82
307,593	103,93
307,807	62,98
308,021	54,78
308,235	5,63
308,449	17,92
308,663	-23,04
308,877	157,18
309,091	110,08
309,305	58,88
309,519	-31,23
309,733	144,89
309,947	-115,2
310,161	101,89
310,374	62,98
310,588	-4,61
310,802	7,68
311,016	38,4
311,23	101,89
311,444	9,73
311,658	-16,9
311,872	116,22
312,085	60,93
312,299	120,32
312,513	120,32
312,727	62,98
312,941	-94,72
313,154	17,92
313,368	120,32
313,582	-31,23
313,796	52,74
314,009	13,82
314,223	192
314,437	26,11
314,651	34,3
314,864	30,21
315,078	-14,85
315,292	5,63
315,505	-84,48
315,719	85,5
315,933	32,26
316,146	-31,23
316,36	-39,42
316,573	177,66
316,787	126,46
317,001	38,4
317,214	-18,94
317,428	42,5
317,641	-18,94
317,855	-27,14
318,068	67,07
318,282	-31,23
318,495	183,81
318,709	30,21
318,922	-33,28
319,136	146,94
319,349	26,11
319,563	-68,09
319,776	22,02
319,99	-96,77
320,203	71,17
320,417	26,11
320,63	69,12
320,843	173,57
321,057	-12,8
321,27	52,74
321,483	56,83
321,697	126,46
321,91	54,78
322,124	81,41
322,337	89,6
322,55	32,26
322,763	-37,38
322,977	-0,51
323,19	17,92
323,403	-14,85
323,617	179,71
323,83	99,84
324,043	30,21
324,256	-35,33
324,469	-2,56
324,683	122,37
324,896	34,3
325,109	-6,66
325,322	-57,86
325,535	108,03
325,748	91,65
325,962	-43,52
326,175	93,69
326,388	157,18
326,601	101,89
326,814	1,54
327,027	32,26
327,24	108,03
327,453	-64
327,666	97,79
327,879	136,7
328,092	148,99
328,305	60,93
328,518	-31,23
328,731	38,4
328,944	-10,75
329,157	108,03
329,37	-55,81
329,583	108,03
329,796	116,22
330,009	-102,91
330,222	54,78
330,435	110,08
330,648	42,5
330,861	42,5
331,073	13,82
331,286	95,74
331,499	67,07
331,712	-0,51
331,925	-39,42
332,138	93,69
332,35	177,66
332,563	1,54
332,776	38,4
332,989	-37,38
333,202	60,93
333,414	9,73
333,627	30,21
333,84	3,58
334,053	32,26
334,265	-8,7
334,478	101,89
334,691	93,69
334,903	11,78
335,116	44,54
335,329	120,32
335,541	77,31
335,754	161,28
335,966	32,26
336,179	26,11
336,392	32,26
336,604	83,45
336,817	95,74
337,029	99,84
337,242	101,89
337,454	30,21
337,667	9,73
337,88	118,27
338,092	142,85
338,305	26,11
338,517	-84,48
338,729	19,97
338,942	157,18
339,154	9,73
339,367	-59,9
339,579	54,78
339,792	-47,62
340,004	48,64
340,217	19,97
340,429	69,12
340,641	19,97
340,854	-6,66
341,066	11,78
341,278	30,21
341,491	161,28
341,703	44,54
341,915	-12,8
342,128	60,93
342,34	69,12
342,552	-47,62
342,764	85,5
342,977	58,88
343,189	67,07
343,401	3,58
343,613	-51,71
343,826	56,83
344,038	87,55
344,25	58,88
344,462	-10,75
344,674	85,5
344,886	28,16
345,099	13,82
345,311	46,59
345,523	44,54
345,735	-35,33
345,947	54,78
346,159	44,54
346,371	22,02
346,583	-31,23
346,795	165,37
347,007	65,02
347,219	30,21
347,431	17,92
347,643	153,09
347,855	-2,56
348,067	185,85
348,279	-31,23
348,491	56,83
348,703	136,7
348,915	-20,99
349,127	17,92
349,339	26,11
349,551	5,63
349,763	50,69
349,975	85,5
350,187	128,51
350,399	155,13
350,61	87,55
350,822	62,98
351,034	91,65
351,246	91,65
351,458	-23,04
351,669	69,12
351,881	32,26
352,093	69,12
352,305	118,27
352,517	91,65
352,728	118,27
352,94	101,89
353,152	128,51
353,363	-4,61
353,575	83,45
353,787	167,42
353,999	11,78
354,21	212,48
354,422	69,12
354,633	32,26
354,845	-6,66
355,057	77,31
355,268	34,3
355,48	118,27
355,692	-12,8
355,903	67,07
356,115	-61,95
356,326	30,21
356,538	95,74
356,749	85,5
356,961	151,04
357,172	132,61
357,384	11,78
357,595	144,89
357,807	52,74
358,018	-51,71
358,23	71,17
358,441	189,95
358,653	110,08
358,864	30,21
359,075	22,02
359,287	93,69
359,498	132,61
359,709	110,08
359,921	58,88
360,132	108,03
360,344	17,92
360,555	44,54
360,766	89,6
360,977	22,02
361,189	93,69
361,4	85,5
361,611	89,6
361,823	62,98
362,034	120,32
362,245	-51,71
362,456	79,36
362,667	177,66
362,879	-31,23
363,09	69,12
363,301	46,59
363,512	58,88
363,723	24,06
363,935	40,45
364,146	153,09
364,357	116,22
364,568	13,82
364,779	-94,72
364,99	126,46
365,201	71,17
365,412	124,41
365,623	9,73
365,834	7,68
366,045	5,63
366,256	87,55
366,467	73,21
366,678	17,92
366,889	56,83
367,1	-0,51
367,311	26,11
367,522	81,41
367,733	81,41
367,944	114,17
368,155	87,55
368,366	134,65
368,577	146,94
368,788	161,28
368,999	-20,99
369,209	85,5
369,42	159,23
369,631	212,48
369,842	87,55
370,053	112,13
370,264	116,22
370,474	-0,51
370,685	46,59
370,896	62,98
371,107	136,7
371,317	153,09
371,528	108,03
371,739	198,14
371,95	62,98
372,16	173,57
372,371	-2,56
372,582	101,89
372,792	153,09
373,003	46,59
373,214	69,12
373,424	124,41
373,635	13,82
373,846	214,52
374,056	71,17
374,267	62,98
374,477	77,31
374,688	-2,56
374,898	108,03
375,109	95,74
375,319	124,41
375,53	171,52
375,74	108,03
375,951	124,41
376,161	62,98
376,372	245,24
376,582	122,37
376,793	208,38
377,003	87,55
377,214	24,06
377,424	157,18
377,635	110,08
377,845	38,4
378,055	226,81
378,266	30,21
378,476	144,89
378,686	165,37
378,897	56,83
379,107	173,57
379,317	175,61
379,528	73,21
379,738	114,17
379,948	116,22
380,158	124,41
380,369	85,5
380,579	161,28
380,789	54,78
380,999	140,8
381,21	48,64
381,42	183,81
381,63	42,5
381,84	153,09
382,05	128,51
382,261	140,8
382,471	177,66
382,681	101,89
382,891	185,85
383,101	157,18
383,311	56,83
383,521	-10,75
383,731	89,6
383,941	83,45
384,151	89,6
384,361	101,89
384,571	173,57
384,781	87,55
384,991	218,62
385,201	288,25
385,411	157,18
385,621	185,85
385,831	108,03
386,041	67,07
386,251	132,61
386,461	142,85
386,671	95,74
386,881	103,93
387,091	30,21
387,301	171,52
387,511	144,89
387,72	112,13
387,93	284,16
388,14	30,21
388,35	95,74
388,56	77,31
388,769	194,05
388,979	134,65
389,189	58,88
389,399	99,84
389,609	194,05
389,818	159,23
390,028	134,65
390,238	187,9
390,447	97,79
390,657	99,84
390,867	30,21
391,076	34,3
391,286	42,5
391,496	75,26
391,705	58,88
391,915	165,37
392,125	85,5
392,334	71,17
392,544	200,19
392,753	120,32
392,963	-14,85
393,172	36,35
393,382	91,65
393,591	173,57
393,801	42,5
394,01	138,75
394,22	159,23
394,429	36,35
394,639	136,7
394,848	136,7
395,058	108,03
395,267	101,89
395,477	148,99
395,686	167,42
395,895	200,19
396,105	265,72
396,314	134,65
396,524	153,09
396,733	142,85
396,942	167,42
397,152	144,89
397,361	224,76
397,57	153,09
397,78	44,54
397,989	69,12
398,198	257,53
398,407	155,13
398,617	153,09
398,826	167,42
399,035	132,61
399,244	142,85
399,453	67,07
399,663	128,51
399,872	116,22
400,081	75,26
400,29	230,91
400,499	105,98
400,708	237,05
400,917	58,88
401,127	9,73
401,336	144,89
401,545	275,96
401,754	189,95
401,963	140,8
402,172	42,5
402,381	13,82
402,59	95,74
402,799	124,41
403,008	183,81
403,217	34,3
403,426	157,18
403,635	-2,56
403,844	89,6
404,053	142,85
404,262	65,02
404,471	218,62
404,68	200,19
404,888	91,65
405,097	75,26
405,306	62,98
405,515	93,69
405,724	34,3
405,933	148,99
406,142	128,51
406,35	243,2
406,559	62,98
406,768	157,18
406,977	120,32
407,185	122,37
407,394	144,89
407,603	85,5
407,812	118,27
408,02	235
408,229	95,74
408,438	140,8
408,646	155,13
408,855	116,22
409,064	181,76
409,272	97,79
409,481	259,58
409,69	153,09
409,898	194,05
410,107	278,01
410,315	312,83
410,524	232,96
410,733	222,72
410,941	204,28
411,15	267,77
411,358	224,76
411,567	222,72
411,775	136,7
411,984	122,37
412,192	194,05
412,401	34,3
412,609	255,48
412,818	114,17
413,026	97,79
413,234	95,74
413,443	128,51
413,651	75,26
413,86	17,92
414,068	232,96
414,276	232,96
414,485	134,65
414,693	179,71
414,901	151,04
415,11	73,21
415,318	30,21
415,526	56,83
415,734	108,03
415,943	89,6
416,151	202,24
416,359	204,28
416,567	93,69
416,776	138,75
416,984	132,61
417,192	185,85
417,4	67,07
417,608	36,35
417,817	65,02
418,025	136,7
418,233	235
418,441	9,73
418,649	38,4
418,857	157,18
419,065	212,48
419,273	101,89
419,481	124,41
419,689	95,74
419,897	44,54
420,105	3,58
420,313	177,66
420,521	210,43
420,729	116,22
420,937	28,16
421,145	1,54
421,353	144,89
421,561	136,7
421,769	120,32
421,977	26,11
422,185	120,32
422,393	122,37
422,601	118,27
422,809	54,78
423,017	62,98
423,224	83,45
423,432	126,46
423,64	112,13
423,848	52,74
424,056	-6,66
424,263	108,03
424,471	108,03
424,679	120,32
424,887	56,83
425,094	118,27
425,302	118,27
425,51	-31,23
425,718	120,32
425,925	87,55
426,133	71,17
426,341	151,04
426,548	124,41
426,756	75,26
426,964	116,22
427,171	40,45
427,379	-4,61
427,586	120,32
427,794	71,17
428,001	71,17
428,209	110,08
428,417	71,17
428,624	118,27
428,832	69,12
429,039	36,35
429,247	46,59
429,454	108,03
429,662	167,42
429,869	69,12
430,076	62,98
430,284	-23,04
430,491	144,89
430,699	108,03
430,906	163,33
431,114	161,28
431,321	62,98
431,528	46,59
431,736	79,36
431,943	153,09
432,15	185,85
432,358	269,82
432,565	300,54
432,772	124,41
432,979	509,43
433,187	488,95
433,394	613,88
433,601	583,16
433,808	767,48
434,016	894,45
434,223	830,96
434,43	796,15
434,637	681,46
434,844	615,93
435,052	562,68
435,259	380,41
435,466	349,69
435,673	333,31
435,88	214,52
436,087	230,91
436,294	204,28
436,501	173,57
436,708	91,65
436,915	122,37
437,122	87,55
437,329	38,4
437,537	89,6
437,743	122,37
437,95	95,74
438,157	22,02
438,364	67,07
438,571	9,73
438,778	48,64
438,985	79,36
439,192	163,33
439,399	95,74
439,606	101,89
439,813	118,27
440,02	103,93
440,227	232,96
440,433	132,61
440,64	128,51
440,847	62,98
441,054	118,27
441,261	239,1
441,467	75,26
441,674	62,98
441,881	153,09
442,088	22,02
442,294	128,51
442,501	140,8
442,708	146,94
442,914	44,54
443,121	192
443,328	142,85
443,534	26,11
443,741	159,23
443,948	36,35
444,154	192
444,361	210,43
444,568	99,84
444,774	67,07
444,981	54,78
445,187	206,33
445,394	148,99
445,6	19,97
445,807	79,36
446,013	38,4
446,22	-37,38
446,426	58,88
446,633	108,03
446,839	237,05
447,046	9,73
447,252	165,37
447,459	34,3
447,665	52,74
447,871	114,17
448,078	183,81
448,284	103,93
448,491	177,66
448,697	128,51
448,903	87,55
449,11	99,84
449,316	87,55
449,522	138,75
449,728	202,24
449,935	198,14
450,141	46,59
450,347	224,76
450,553	110,08
450,76	15,87
450,966	13,82
451,172	165,37
451,378	118,27
451,584	58,88
451,791	202,24
451,997	52,74
452,203	95,74
452,409	79,36
452,615	226,81
452,821	110,08
453,027	79,36
453,233	206,33
453,44	79,36
453,646	7,68
453,852	48,64
454,058	22,02
454,264	126,46
454,47	167,42
454,676	140,8
454,882	62,98
455,088	151,04
455,294	81,41
455,5	112,13
455,705	151,04
455,911	134,65
456,117	22,02
456,323	93,69
456,529	175,61
456,735	103,93
456,941	136,7
457,147	144,89
457,352	167,42
457,558	46,59
457,764	134,65
457,97	52,74
458,176	71,17
458,381	110,08
458,587	214,52
458,793	110,08
458,999	79,36
459,204	114,17
459,41	62,98
459,616	95,74
459,821	75,26
460,027	26,11
460,233	185,85
460,438	177,66
460,644	95,74
460,85	116,22
461,055	36,35
461,261	130,56
461,466	5,63
461,672	75,26
461,878	87,55
462,083	144,89
462,289	-4,61
462,494	69,12
462,7	161,28
462,905	38,4
463,111	173,57
463,316	218,62
463,522	198,14
463,727	79,36
463,932	122,37
464,138	210,43
464,343	142,85
464,549	132,61
464,754	151,04
464,959	140,8
465,165	36,35
465,37	177,66
465,575	218,62
465,781	34,3
465,986	54,78
466,191	91,65
466,397	87,55
466,602	87,55
466,807	69,12
467,012	210,43
467,218	46,59
467,423	71,17
467,628	140,8
467,833	89,6
468,038	126,46
468,244	24,06
468,449	177,66
468,654	73,21
468,859	93,69
469,064	52,74
469,269	194,05
469,474	132,61
469,679	134,65
469,885	58,88
470,09	48,64
470,295	118,27
470,5	99,84
470,705	99,84
470,91	62,98
471,115	130,56
471,32	112,13
471,525	235
471,73	278,01
471,935	148,99
472,139	91,65
472,344	-25,09
472,549	116,22
472,754	159,23
472,959	144,89
473,164	58,88
473,369	130,56
473,574	216,57
473,778	101,89
473,983	112,13
474,188	155,13
474,393	103,93
474,598	99,84
474,802	95,74
475,007	50,69
475,212	230,91
475,417	79,36
475,621	230,91
475,826	17,92
476,031	99,84
476,235	167,42
476,44	69,12
476,645	173,57
476,849	60,93
477,054	103,93
477,259	81,41
477,463	173,57
477,668	247,29
477,872	194,05
478,077	105,98
478,282	36,35
478,486	83,45
478,691	138,75
478,895	114,17
479,1	185,85
479,304	177,66
479,509	179,71
479,713	196,09
479,918	183,81
480,122	83,45
480,326	146,94
480,531	128,51
480,735	79,36
480,94	69,12
481,144	120,32
481,348	151,04
481,553	136,7
481,757	71,17
481,961	112,13
482,166	69,12
482,37	128,51
482,574	144,89
482,778	155,13
482,983	142,85
483,187	93,69
483,391	157,18
483,595	165,37
483,8	206,33
484,004	470,52
484,208	759,28
484,412	1261,04
484,616	1930,72
484,821	2536,92
485,025	3644,87
485,229	4601,27
485,433	6000,04
485,637	7005,59
485,841	8097,16
486,045	9008,5
486,249	9391,47
486,453	9299,31
486,657	8662,4
486,861	7689,61
487,065	6608,28
487,269	5649,83
487,473	4404,67
487,677	3671,5
487,881	3071,44
488,085	2250,21
488,289	1799,65
488,493	1414,63
488,697	1146,35
488,901	867,83
489,105	517,62
489,309	341,5
489,512	300,54
489,716	212,48
489,92	177,66
490,124	134,65
490,328	263,68
490,531	169,47
490,735	243,2
490,939	95,74
491,143	153,09
491,346	181,76
491,55	159,23
491,754	202,24
491,958	194,05
492,161	114,17
492,365	148,99
492,569	134,65
492,772	232,96
492,976	226,81
493,18	103,93
493,383	175,61
493,587	192
493,79	206,33
493,994	151,04
494,197	99,84
494,401	134,65
494,605	77,31
494,808	103,93
495,012	77,31
495,215	185,85
495,419	183,81
495,622	132,61
495,825	71,17
496,029	116,22
496,232	204,28
496,436	110,08
496,639	120,32
496,843	103,93
497,046	50,69
497,249	173,57
497,453	181,76
497,656	22,02
497,859	105,98
498,063	167,42
498,266	116,22
498,469	52,74
498,673	38,4
498,876	151,04
499,079	-8,7
499,282	118,27
499,485	294,4
499,689	75,26
499,892	124,41
500,095	22,02
500,298	120,32
500,501	15,87
500,705	108,03
500,908	134,65
501,111	26,11
501,314	153,09
501,517	189,95
501,72	85,5
501,923	128,51
502,126	173,57
502,329	167,42
502,532	134,65
502,735	128,51
502,938	222,72
503,141	110,08
503,344	-4,61
503,547	214,52
503,75	38,4
503,953	69,12
504,156	138,75
504,359	120,32
504,562	97,79
504,765	67,07
504,968	75,26
505,17	46,59
505,373	101,89
505,576	103,93
505,779	155,13
505,982	69,12
506,185	192
506,387	58,88
506,59	87,55
506,793	40,45
506,996	112,13
507,198	200,19
507,401	210,43
507,604	288,25
507,807	161,28
508,009	38,4
508,212	189,95
508,415	26,11
508,617	153,09
508,82	194,05
509,022	108,03
509,225	95,74
509,428	120,32
509,63	112,13
509,833	85,5
510,035	214,52
510,238	116,22
510,44	-23,04
510,643	101,89
510,845	144,89
511,048	142,85
511,25	71,17
511,453	136,7
511,655	71,17
511,858	165,37
512,06	275,96
512,262	95,74
512,465	77,31
512,667	93,69
512,87	36,35
513,072	144,89
513,274	95,74
513,477	7,68
513,679	30,21
513,881	71,17
514,084	118,27
514,286	103,93
514,488	97,79
514,69	48,64
514,893	77,31
515,095	15,87
515,297	-8,7
515,499	50,69
515,701	77,31
515,904	169,47
516,106	140,8
516,308	101,89
516,51	171,52
516,712	77,31
516,914	58,88
517,116	128,51
517,318	67,07
517,52	46,59
517,722	151,04
517,925	58,88
518,127	112,13
518,329	192
518,531	22,02
518,733	52,74
518,935	108,03
519,136	163,33
519,338	-109,05
519,54	54,78
519,742	71,17
519,944	179,71
520,146	134,65
520,348	99,84
520,55	151,04
520,752	28,16
520,954	99,84
521,155	50,69
521,357	32,26
521,559	132,61
521,761	124,41
521,963	126,46
522,164	128,51
522,366	62,98
522,568	75,26
522,77	153,09
522,971	126,46
523,173	67,07
523,375	34,3
523,576	-43,52
523,778	52,74
523,98	36,35
524,181	144,89
524,383	120,32
524,584	42,5
524,786	108,03
524,988	52,74
525,189	87,55
525,391	161,28
525,592	22,02
525,794	-59,9
525,995	71,17
526,197	85,5
526,398	228,86
526,6	146,94
526,801	153,09
527,003	-20,99
527,204	134,65
527,406	89,6
527,607	71,17
527,808	87,55
528,01	81,41
528,211	259,58
528,412	87,55
528,614	155,13
528,815	75,26
529,016	126,46
529,218	169,47
529,419	142,85
529,62	79,36
529,822	91,65
530,023	85,5
530,224	69,12
530,425	151,04
530,626	77,31
530,828	46,59
531,029	24,06
531,23	140,8
531,431	50,69
531,632	136,7
531,833	101,89
532,035	-4,61
532,236	54,78
532,437	97,79
532,638	62,98
532,839	-2,56
533,04	132,61
533,241	222,72
533,442	22,02
533,643	48,64
533,844	-2,56
534,045	44,54
534,246	54,78
534,447	22,02
534,648	79,36
534,849	159,23
535,05	71,17
535,251	-2,56
535,451	50,69
535,652	11,78
535,853	-4,61
536,054	122,37
536,255	161,28
536,456	60,93
536,657	38,4
536,857	85,5
537,058	163,33
537,259	120,32
537,46	52,74
537,66	58,88
537,861	38,4
538,062	38,4
538,263	50,69
538,463	69,12
538,664	83,45
538,865	1,54
539,065	38,4
539,266	128,51
539,466	93,69
539,667	101,89
539,868	62,98
540,068	60,93
540,269	110,08
540,469	79,36
540,67	144,89
540,87	124,41
541,071	67,07
541,271	81,41
541,472	177,66
541,672	112,13
541,873	36,35
542,073	91,65
542,274	146,94
542,474	146,94
542,675	167,42
542,875	71,17
543,075	11,78
543,276	-4,61
543,476	67,07
543,676	138,75
543,877	32,26
544,077	136,7
544,277	120,32
544,478	120,32
544,678	42,5
544,878	62,98
545,078	40,45
545,279	34,3
545,479	75,26
545,679	40,45
545,879	79,36
546,079	22,02
546,28	-51,71
546,48	38,4
546,68	110,08
546,88	9,73
547,08	11,78
547,28	130,56
547,48	22,02
547,68	54,78
547,88	46,59
548,081	126,46
548,281	-39,42
548,481	17,92
548,681	69,12
548,881	73,21
549,081	77,31
549,28	89,6
549,48	34,3
549,68	17,92
549,88	44,54
550,08	-2,56
550,28	-47,62
550,48	26,11
550,68	13,82
550,88	-45,57
551,08	79,36
551,279	165,37
551,479	50,69
551,679	79,36
551,879	-8,7
552,079	38,4
552,278	105,98
552,478	163,33
552,678	38,4
552,878	52,74
553,077	30,21
553,277	79,36
553,477	75,26
553,676	56,83
553,876	38,4
554,076	36,35
554,275	112,13
554,475	24,06
554,674	128,51
554,874	91,65
555,074	-16,9
555,273	50,69
555,473	28,16
555,672	-4,61
555,872	89,6
556,071	46,59
556,271	101,89
556,47	99,84
556,67	56,83
556,869	132,61
557,068	26,11
557,268	28,16
557,467	65,02
557,667	44,54
557,866	38,4
558,065	-27,14
558,265	108,03
558,464	89,6
558,663	167,42
558,863	146,94
559,062	-23,04
559,261	-2,56
559,461	120,32
559,66	42,5
559,859	62,98
560,058	58,88
560,258	34,3
560,457	67,07
560,656	157,18
560,855	19,97
561,054	116,22
561,253	144,89
561,453	79,36
561,652	-6,66
561,851	71,17
562,05	22,02
562,249	-76,29
562,448	93,69
562,647	-39,42
562,846	-10,75
563,045	114,17
563,244	85,5
563,443	75,26
563,642	7,68
563,841	116,22
564,04	71,17
564,239	26,11
564,438	128,51
564,637	15,87
564,836	105,98
565,035	-49,66
565,234	165,37
565,432	71,17
565,631	103,93
565,83	79,36
566,029	108,03
566,228	79,36
566,427	194,05
566,625	-6,66
566,824	108,03
567,023	54,78
567,222	26,11
567,42	11,78
567,619	108,03
567,818	110,08
568,016	218,62
568,215	116,22
568,414	187,9
568,612	77,31
568,811	81,41
569,01	42,5
569,208	108,03
569,407	138,75
569,605	112,13
569,804	116,22
570,002	167,42
570,201	103,93
570,4	126,46
570,598	185,85
570,797	140,8
570,995	58,88
571,193	189,95
571,392	134,65
571,59	54,78
571,789	155,13
571,987	202,24
572,186	269,82
572,384	91,65
572,582	165,37
572,781	198,14
572,979	163,33
573,177	165,37
573,376	161,28
573,574	282,11
573,772	126,46
573,971	95,74
574,169	108,03
574,367	185,85
574,565	120,32
574,763	155,13
574,962	83,45
575,16	185,85
575,358	151,04
575,556	239,1
575,754	169,47
575,952	175,61
576,151	194,05
576,349	226,81
576,547	120,32
576,745	198,14
576,943	198,14
577,141	130,56
577,339	171,52
577,537	189,95
577,735	196,09
577,933	206,33
578,131	134,65
578,329	251,39
578,527	189,95
578,725	275,96
578,923	118,27
579,121	349,69
579,319	110,08
579,516	175,61
579,714	366,07
579,912	241,15
580,11	165,37
580,308	202,24
580,506	275,96
580,704	175,61
580,901	316,92
581,099	357,88
581,297	329,21
581,495	374,27
581,692	316,92
581,89	488,95
582,088	370,17
582,285	314,88
582,483	359,93
582,681	366,07
582,878	292,35
583,076	341,5
583,274	259,58
583,471	392,7
583,669	251,39
583,866	118,27
584,064	200,19
584,262	134,65
584,459	206,33
584,657	155,13
584,854	222,72
585,052	185,85
585,249	224,76
585,447	165,37
585,644	159,23
585,841	183,81
586,039	222,72
586,236	167,42
586,434	196,09
586,631	177,66
586,828	155,13
587,026	214,52
587,223	198,14
587,42	181,76
587,618	241,15
587,815	300,54
588,012	290,3
588,21	232,96
588,407	237,05
588,604	220,67
588,801	142,85
588,999	202,24
589,196	323,07
589,393	226,81
589,59	298,49
589,787	155,13
589,984	181,76
590,182	228,86
590,379	173,57
590,576	161,28
590,773	187,9
590,97	144,89
591,167	175,61
591,364	208,38
591,561	124,41
591,758	241,15
591,955	200,19
592,152	161,28
592,349	118,27
592,546	157,18
592,743	144,89
592,94	132,61
593,137	228,86
593,334	267,77
593,531	271,87
593,727	380,41
593,924	329,21
594,121	239,1
594,318	200,19
594,515	230,91
594,712	273,92
594,908	267,77
595,105	101,89
595,302	251,39
595,499	216,57
595,696	226,81
595,892	249,34
596,089	228,86
596,286	146,94
596,482	192
596,679	300,54
596,876	112,13
597,072	228,86
597,269	235
597,466	189,95
597,662	200,19
597,859	245,24
598,055	169,47
598,252	192
598,448	327,16
598,645	259,58
598,841	142,85
599,038	300,54
599,234	306,68
599,431	222,72
599,627	144,89
599,824	169,47
600,02	163,33
600,217	128,51
600,413	157,18
600,609	50,69
600,806	390,65
601,002	169,47
601,198	87,55
601,395	222,72
601,591	165,37
601,787	194,05
601,984	333,31
602,18	243,2
602,376	216,57
602,572	300,54
602,769	351,74
602,965	251,39
603,161	325,12
603,357	341,5
603,553	333,31
603,75	206,33
603,946	202,24
604,142	243,2
604,338	421,37
604,534	169,47
604,73	249,34
604,926	181,76
605,122	263,68
605,318	69,12
605,514	321,02
605,71	198,14
605,906	286,2
606,102	169,47
606,298	183,81
606,494	169,47
606,69	271,87
606,886	202,24
607,082	220,67
607,278	161,28
607,474	312,83
607,67	161,28
607,866	79,36
608,062	208,38
608,257	173,57
608,453	157,18
608,649	239,1
608,845	114,17
609,041	177,66
609,236	216,57
609,432	130,56
609,628	124,41
609,824	126,46
610,019	136,7
610,215	214,52
610,411	200,19
610,606	169,47
610,802	99,84
610,998	155,13
611,193	120,32
611,389	44,54
611,584	161,28
611,78	58,88
611,976	116,22
612,171	271,87
612,367	212,48
612,562	161,28
612,758	196,09
612,953	5,63
613,149	120,32
613,344	173,57
613,539	138,75
613,735	194,05
613,93	224,76
614,126	110,08
614,321	214,52
614,517	366,07
614,712	161,28
614,907	230,91
615,103	202,24
615,298	173,57
615,493	79,36
615,688	146,94
615,884	175,61
616,079	105,98
616,274	226,81
616,47	69,12
616,665	75,26
616,86	91,65
617,055	71,17
617,25	60,93
617,445	136,7
617,641	87,55
617,836	60,93
618,031	-0,51
618,226	81,41
618,421	177,66
618,616	108,03
618,811	171,52
619,006	42,5
619,201	165,37
619,396	5,63
619,591	54,78
619,786	144,89
619,981	202,24
620,176	192
620,371	101,89
620,566	114,17
620,761	181,76
620,956	89,6
621,151	79,36
621,346	171,52
621,541	36,35
621,735	175,61
621,93	103,93
622,125	140,8
622,32	103,93
622,515	79,36
622,709	118,27
622,904	128,51
623,099	50,69
623,294	87,55
623,488	97,79
623,683	67,07
623,878	24,06
624,072	128,51
624,267	62,98
624,462	71,17
624,656	58,88
624,851	136,7
625,046	126,46
625,24	132,61
625,435	46,59
625,629	132,61
625,824	140,8
626,018	110,08
626,213	112,13
626,407	81,41
626,602	146,94
626,796	67,07
626,991	171,52
627,185	26,11
627,38	105,98
627,574	142,85
627,768	93,69
627,963	81,41
628,157	77,31
628,352	140,8
628,546	9,73
628,74	128,51
628,935	54,78
629,129	36,35
629,323	85,5
629,517	-68,09
629,712	60,93
629,906	93,69
630,1	159,23
630,294	142,85
630,489	136,7
630,683	38,4
630,877	48,64
631,071	224,76
631,265	28,16
631,459	103,93
631,653	130,56
631,848	87,55
632,042	134,65
632,236	22,02
632,43	175,61
632,624	95,74
632,818	85,5
633,012	116,22
633,206	108,03
633,4	95,74
633,594	175,61
633,788	95,74
633,982	101,89
634,176	224,76
634,369	108,03
634,563	128,51
634,757	-61,95
634,951	95,74
635,145	183,81
635,339	58,88
635,533	177,66
635,726	114,17
635,92	118,27
636,114	103,93
636,308	34,3
636,501	83,45
636,695	167,42
636,889	-27,14
637,083	136,7
637,276	-25,09
637,47	-43,52
637,664	3,58
637,857	128,51
638,051	97,79
638,244	79,36
638,438	103,93
638,632	153,09
638,825	-10,75
639,019	198,14
639,212	34,3
639,406	142,85
639,599	54,78
639,793	36,35
639,986	101,89
640,18	251,39
640,373	38,4
640,567	75,26
640,76	134,65
640,954	58,88
641,147	-0,51
641,34	38,4
641,534	110,08
641,727	108,03
641,92	161,28
642,114	124,41
642,307	91,65
642,5	75,26
642,694	42,5
642,887	52,74
643,08	140,8
643,273	151,04
643,467	-74,24
643,66	58,88
643,853	144,89
644,046	93,69
644,239	120,32
644,432	-14,85
644,626	28,16
644,819	67,07
645,012	38,4
645,205	103,93
645,398	71,17
645,591	99,84
645,784	-35,33
645,977	7,68
646,17	112,13
646,363	-14,85
646,556	71,17
646,749	54,78
646,942	34,3
647,135	148,99
647,328	7,68
647,521	151,04
647,714	-10,75
647,907	118,27
648,099	3,58
648,292	138,75
648,485	54,78
648,678	48,64
648,871	54,78
649,064	118,27
649,256	30,21
649,449	24,06
649,642	3,58
649,835	73,21
650,027	50,69
650,22	136,7
650,413	101,89
650,605	73,21
650,798	56,83
650,991	13,82
651,183	54,78
651,376	75,26
651,568	202,24
651,761	165,37
651,954	210,43
652,146	91,65
652,339	120,32
652,531	232,96
652,724	124,41
652,916	148,99
653,109	30,21
653,301	151,04
653,494	253,44
653,686	173,57
653,879	148,99
654,071	165,37
654,263	192
654,456	333,31
654,648	718,33
654,84	2561,5
655,033	6540,7
655,225	12938,55
655,417	22461,61
655,61	32312,34
655,802	42224,51
655,994	51313,39
656,186	58299,01
656,379	61274,71
656,571	60856,93
656,763	58387,08
656,955	55196,34
657,148	52009,7
657,34	47760,17
657,532	42984,3
657,724	38585,27
657,916	34354,16
658,108	29320,26
658,3	24693,9
658,492	20595,91
658,684	16696,58
658,876	14003,5
659,068	11576,66
659,26	9074,04
659,452	7067,03
659,644	5311,92
659,836	3929,54
660,028	2610,65
660,22	1893,86
660,412	1254,89
660,604	896,5
660,796	751,09
660,988	626,17
661,18	470,52
661,372	407,03
661,563	349,69
661,755	253,44
661,947	116,22
662,139	183,81
662,331	232,96
662,522	194,05
662,714	112,13
662,906	69,12
663,097	161,28
663,289	22,02
663,481	30,21
663,673	112,13
663,864	112,13
664,056	93,69
664,247	93,69
664,439	140,8
664,631	46,59
664,822	161,28
665,014	73,21
665,205	-12,8
665,397	-0,51
665,588	73,21
665,78	128,51
665,971	128,51
666,163	71,17
666,354	128,51
666,546	67,07
666,737	13,82
666,929	30,21
667,12	52,74
667,311	54,78
667,503	38,4
667,694	122,37
667,885	112,13
668,077	103,93
668,268	-45,57
668,459	-35,33
668,651	62,98
668,842	144,89
669,033	48,64
669,224	44,54
669,416	243,2
669,607	91,65
669,798	-57,86
669,989	116,22
670,18	89,6
670,371	118,27
670,563	58,88
670,754	91,65
670,945	22,02
671,136	185,85
671,327	22,02
671,518	218,62
671,709	179,71
671,9	108,03
672,091	163,33
672,282	69,12
672,473	79,36
672,664	36,35
672,855	-51,71
673,046	62,98
673,237	101,89
673,428	95,74
673,619	73,21
673,809	50,69
674	42,5
674,191	79,36
674,382	-4,61
674,573	65,02
674,764	52,74
674,954	95,74
675,145	-31,23
675,336	-6,66
675,527	52,74
675,717	62,98
675,908	9,73
676,099	-23,04
676,289	44,54
676,48	-76,29
676,671	-12,8
676,861	26,11
677,052	17,92
677,243	-37,38
677,433	9,73
677,624	69,12
677,814	75,26
678,005	1,54
678,195	95,74
678,386	15,87
678,576	-8,7
678,767	-74,24
678,957	24,06
679,148	105,98
679,338	36,35
679,529	22,02
679,719	1,54
679,909	136,7
680,1	146,94
680,29	-14,85
680,481	-88,57
680,671	48,64
680,861	62,98
681,052	34,3
681,242	-47,62
681,432	-10,75
681,622	58,88
681,813	19,97
682,003	46,59
682,193	-20,99
682,383	9,73
682,573	-18,94
682,764	-2,56
682,954	44,54
683,144	38,4
683,334	13,82
683,524	3,58
683,714	38,4
683,904	44,54
684,094	-2,56
684,284	19,97
684,474	69,12
684,664	91,65
684,854	34,3
685,044	-51,71
685,234	-31,23
685,424	71,17
685,614	13,82
685,804	79,36
685,994	54,78
686,184	-57,86
686,374	15,87
686,564	17,92
686,753	-31,23
686,943	-59,9
687,133	-4,61
687,323	-43,52
687,513	11,78
687,702	19,97
687,892	38,4
688,082	144,89
688,272	13,82
688,461	-84,48
688,651	134,65
688,841	-12,8
689,03	-4,61
689,22	-33,28
689,41	69,12
689,599	36,35
689,789	-10,75
689,979	130,56
690,168	38,4
690,358	97,79
690,547	17,92
690,737	36,35
690,926	103,93
691,116	15,87
691,305	99,84
691,495	77,31
691,684	-35,33
691,874	44,54
692,063	-35,33
692,252	48,64
692,442	34,3
692,631	-10,75
692,82	56,83
693,01	28,16
693,199	-41,47
693,388	28,16
693,578	-59,9
693,767	15,87
693,956	-6,66
694,146	-12,8
694,335	-6,66
694,524	17,92
694,713	75,26
694,902	13,82
695,092	34,3
695,281	24,06
695,47	28,16
695,659	-39,42
695,848	1,54
696,037	19,97
696,226	91,65
696,415	24,06
696,604	71,17
696,793	194,05
696,982	11,78
697,171	62,98
697,36	-2,56
697,549	-12,8
697,738	-57,86
697,927	38,4
698,116	46,59
698,305	77,31
698,494	3,58
698,683	9,73
698,872	169,47
699,061	-47,62
699,25	3,58
699,438	-27,14
699,627	-37,38
699,816	103,93
700,005	-14,85
700,193	-49,66
700,382	116,22
700,571	85,5
700,76	79,36
700,948	22,02
701,137	120,32
701,326	101,89
701,514	-4,61
701,703	11,78
701,892	34,3
702,08	177,66
702,269	-55,81
702,457	-37,38
702,646	-6,66
702,834	19,97
703,023	67,07
703,212	46,59
703,4	-29,18
703,589	30,21
703,777	-41,47
703,965	-14,85
704,154	-94,72
704,342	-90,62
704,531	38,4
704,719	-4,61
704,907	120,32
705,096	-84,48
705,284	-41,47
705,472	-27,14
705,661	-2,56
705,849	50,69
706,037	87,55
706,226	77,31
706,414	67,07
706,602	-12,8
706,79	75,26
706,979	26,11
707,167	44,54
707,355	13,82
707,543	28,16
707,731	38,4
707,919	-16,9
708,107	34,3
708,296	-2,56
708,484	1,54
708,672	-12,8
708,86	19,97
709,048	73,21
709,236	-35,33
709,424	58,88
709,612	87,55
709,8	-41,47
709,988	19,97
710,176	65,02
710,364	54,78
710,551	-20,99
710,739	-27,14
710,927	-94,72
711,115	34,3
711,303	-2,56
711,491	58,88
711,679	-27,14
711,866	62,98
712,054	-31,23
712,242	69,12
712,43	58,88
712,617	3,58
712,805	60,93
712,993	19,97
713,181	-104,96
713,368	79,36
713,556	-0,51
713,744	-55,81
713,931	58,88
714,119	19,97
714,306	-2,56
714,494	9,73
714,682	-45,57
714,869	-12,8
715,057	17,92
715,244	-84,48
715,432	28,16
715,619	-31,23
715,807	-70,14
715,994	-107,01
716,182	-27,14
716,369	118,27
716,556	54,78
716,744	-18,94
716,931	-135,68
717,119	56,83
717,306	58,88
717,493	79,36
717,681	5,63
717,868	30,21
718,055	116,22
718,242	-68,09
718,43	32,26
718,617	67,07
718,804	-53,76
718,991	44,54
719,179	130,56
719,366	105,98
719,553	38,4
719,74	54,78
719,927	30,21
720,114	46,59
720,301	13,82
720,488	38,4
720,676	-86,53
720,863	85,5
721,05	71,17
721,237	75,26
721,424	134,65
721,611	-66,05
721,798	13,82
721,985	-76,29
722,172	22,02
722,358	-33,28
722,545	-10,75
722,732	-10,75
722,919	71,17
723,106	-20,99
723,293	-43,52
723,48	44,54
723,667	15,87
723,853	110,08
724,04	50,69
724,227	95,74
724,414	-49,66
724,6	28,16
724,787	144,89
724,974	95,74
725,161	60,93
725,347	-94,72
725,534	-39,42
725,72	48,64
725,907	30,21
726,094	73,21
726,28	22,02
726,467	44,54
726,653	-27,14
726,84	69,12
727,027	134,65
727,213	-6,66
727,4	105,98
727,586	58,88
727,773	62,98
727,959	73,21
728,145	22,02
728,332	34,3
728,518	-64
728,705	87,55
728,891	13,82
729,077	56,83
729,264	17,92
729,45	-41,47
729,636	101,89
729,823	-27,14
730,009	110,08
730,195	62,98
730,382	17,92
730,568	-2,56
730,754	54,78
730,94	30,21
731,126	58,88
731,313	24,06
731,499	28,16
731,685	120,32
731,871	65,02
732,057	81,41
732,243	136,7
732,429	17,92
732,615	181,76
732,801	62,98
732,987	-10,75
733,173	-70,14
733,359	-72,19
733,545	-6,66
733,731	-27,14
733,917	71,17
734,103	22,02
734,289	38,4
734,475	-4,61
734,661	79,36
734,847	24,06
735,033	-27,14
735,219	87,55
735,404	7,68
735,59	-51,71
735,776	-74,24
735,962	19,97
736,148	46,59
736,333	75,26
736,519	99,84
736,705	-10,75
736,89	67,07
737,076	62,98
737,262	30,21
737,447	-57,86
737,633	-33,28
737,819	71,17
738,004	-31,23
738,19	17,92
738,375	19,97
738,561	50,69
738,747	30,21
738,932	-18,94
739,118	116,22
739,303	118,27
739,489	7,68
739,674	17,92
739,859	-31,23
740,045	73,21
740,23	19,97
740,416	-84,48
740,601	52,74
740,786	71,17
740,972	-2,56
741,157	-68,09
741,342	-29,18
741,528	-53,76
741,713	46,59
741,898	-2,56
742,084	75,26
742,269	-4,61
742,454	-4,61
742,639	54,78
742,824	-4,61
743,01	-14,85
743,195	69,12
743,38	1,54
743,565	-2,56
743,75	-8,7
743,935	69,12
744,12	75,26
744,305	-29,18
744,49	-18,94
744,675	48,64
744,86	3,58
745,045	62,98
745,23	103,93
745,415	-4,61
745,6	112,13
745,785	46,59
745,97	116,22
746,155	69,12
746,34	42,5
746,525	9,73
746,71	95,74
746,895	-70,14
747,079	-96,77
747,264	34,3
747,449	97,79
747,634	46,59
747,819	85,5
748,003	52,74
748,188	-14,85
748,373	30,21
748,557	50,69
748,742	62,98
748,927	-68,09
749,111	-55,81
749,296	87,55
749,481	46,59
749,665	38,4
749,85	-41,47
750,034	-76,29
750,219	58,88
750,404	-8,7
750,588	93,69
750,773	28,16
750,957	28,16
751,141	13,82
751,326	38,4
751,51	-25,09
751,695	-2,56
751,879	30,21
752,064	161,28
752,248	30,21
752,432	124,41
752,617	120,32
752,801	118,27
752,985	50,69
753,17	103,93
753,354	22,02
753,538	36,35
753,722	-2,56
753,907	26,11
754,091	-68,09
754,275	24,06
754,459	-12,8
754,643	-12,8
754,828	13,82
755,012	71,17
755,196	11,78
755,38	71,17
755,564	5,63
755,748	69,12
755,932	42,5
756,116	38,4
756,3	9,73
756,484	36,35
756,668	34,3
756,852	-76,29
757,036	-51,71
757,22	46,59
757,404	-18,94
757,588	-0,51
757,772	-4,61
757,956	-18,94
758,14	148,99
758,323	-25,09
758,507	46,59
758,691	87,55
758,875	65,02
759,059	95,74
759,242	17,92
759,426	-0,51
759,61	60,93
759,794	22,02
759,977	-2,56
760,161	212,48
760,345	165,37
760,528	120,32
760,712	34,3
760,895	-37,38
761,079	54,78
761,263	-25,09
761,446	-61,95
761,63	13,82
761,813	95,74
761,997	-39,42
762,18	58,88
762,364	62,98
762,547	-100,86
762,731	-4,61
762,914	-94,72
763,098	-72,19
763,281	-27,14
763,464	-14,85
763,648	52,74
763,831	-94,72
764,015	-27,14
764,198	13,82
764,381	-18,94
764,564	34,3
764,748	48,64
764,931	67,07
765,114	1,54
765,297	50,69
765,481	22,02
765,664	-47,62
765,847	50,69
766,03	138,75
766,213	-6,66
766,397	30,21
766,58	-6,66
766,763	58,88
766,946	17,92
767,129	-10,75
767,312	-37,38
767,495	13,82
767,678	-10,75
767,861	-4,61
768,044	5,63
768,227	30,21
768,41	-14,85
768,593	22,02
768,776	-23,04
768,959	-12,8
769,142	108,03
769,324	-43,52
769,507	13,82
769,69	-61,95
769,873	-33,28
770,056	163,33
770,239	-53,76
770,421	42,5
770,604	69,12
770,787	19,97
770,97	56,83
771,152	-29,18
771,335	32,26
771,518	-29,18
771,7	50,69
771,883	103,93
772,066	22,02
772,248	-23,04
772,431	15,87
772,613	67,07
772,796	85,5
772,978	-33,28
773,161	60,93
773,343	-51,71
773,526	19,97
773,708	-43,52
773,891	-96,77
774,073	42,5
774,256	71,17
774,438	87,55
774,621	-10,75
774,803	40,45
774,985	3,58
775,168	69,12
775,35	-31,23
775,532	-6,66
775,715	-6,66
775,897	19,97
776,079	30,21
776,261	32,26
776,444	-8,7
776,626	30,21
776,808	114,17
776,99	42,5
777,173	73,21
777,355	97,79
777,537	124,41
777,719	210,43
777,901	81,41
778,083	58,88
778,265	46,59
778,447	161,28
778,629	54,78
778,811	97,79
778,993	93,69
779,175	116,22
779,357	79,36
779,539	-64
779,721	46,59
779,903	79,36
780,085	-10,75
780,267	62,98
780,449	56,83
780,631	34,3
780,812	3,58
780,994	-2,56
781,176	-53,76
781,358	-78,33
781,54	-4,61
781,721	95,74
781,903	44,54
782,085	-76,29
782,267	62,98
782,448	13,82
782,63	13,82
782,812	-27,14
782,993	48,64
783,175	32,26
783,357	-6,66
783,538	-4,61
783,72	26,11
783,901	-18,94
784,083	15,87
784,264	36,35
784,446	-39,42
784,627	-84,48
784,809	38,4
784,99	-59,9
785,172	-14,85
785,353	28,16
785,535	13,82
785,716	13,82
785,897	26,11
786,079	-23,04
786,26	-0,51
786,441	-23,04
786,623	-64
786,804	-90,62
786,985	19,97
787,167	32,26
787,348	-49,66
787,529	46,59
787,71	87,55
787,891	48,64
788,073	-59,9
788,254	-76,29
788,435	103,93
788,616	1,54
788,797	-94,72
788,978	-43,52
789,159	-49,66
789,34	71,17
789,522	22,02
789,703	-72,19
789,884	54,78
790,065	-92,67
790,246	67,07
790,427	-18,94
790,607	52,74
790,788	46,59
790,969	-0,51
791,15	-10,75
791,331	-57,86
791,512	-4,61
791,693	-57,86
791,874	-86,53
792,054	153,09
792,235	71,17
792,416	-55,81
792,597	-37,38
792,778	-10,75
792,958	32,26
793,139	112,13
793,32	-6,66
793,5	-47,62
793,681	97,79
793,862	58,88
794,042	5,63
794,223	-39,42
794,404	26,11
794,584	-55,81
794,765	46,59
794,945	-14,85
795,126	-41,47
795,306	120,32
795,487	-29,18
795,667	-43,52
795,848	-33,28
796,028	-35,33
796,209	30,21
796,389	56,83
796,57	-45,57
796,75	-170,49
796,93	65,02
797,111	-10,75
797,291	-27,14
797,471	75,26
797,652	-16,9
797,832	30,21
798,012	46,59
798,192	-102,91
798,373	-55,81
798,553	-25,09
798,733	1,54
798,913	-68,09
799,093	-47,62
799,274	22,02
799,454	155,13
799,634	13,82
799,814	-8,7
799,994	-18,94
800,174	77,31
800,354	44,54
800,534	-88,57
800,714	85,5
800,894	-41,47
801,074	-72,19
801,254	-35,33
801,434	124,41
801,614	28,16
801,794	-10,75
801,974	1461,74
802,154	-31,23
802,334	-10,75
802,514	-37,38
802,693	-25,09
802,873	-61,95
803,053	81,41
803,233	-31,23
803,413	9,73
803,592	-88,57
803,772	56,83
803,952	-51,71
804,131	-137,73
804,311	36,35
804,491	71,17
804,67	44,54
804,85	-84,48
805,03	67,07
805,209	32,26
805,389	-41,47
805,568	-35,33
805,748	-2,56
805,928	-68,09
806,107	-43,52
806,287	-23,04
806,466	17,92
806,646	-31,23
806,825	-6,66
807,004	-109,05
807,184	-6,66
807,363	32,26
807,543	-12,8
807,722	-76,29
807,901	44,54
808,081	46,59
808,26	-92,67
808,439	-27,14
808,619	5,63
808,798	-14,85
808,977	67,07
809,156	9,73
809,336	-27,14
809,515	48,64
809,694	-55,81
809,873	-35,33
810,052	-29,18
810,231	65,02
810,411	15,87
810,59	118,27
810,769	-66,05
810,948	-10,75
811,127	-80,38
811,306	-68,09
811,485	42,5
811,664	62,98
811,843	1,54
812,022	9,73
812,201	-121,34
812,38	54,78
812,559	13,82
812,737	26,11
812,916	-109,05
813,095	-6,66
813,274	5,63
813,453	-90,62
813,632	19,97
813,811	11,78
813,989	-68,09
814,168	19,97
814,347	-86,53
814,526	-12,8
814,704	71,17
814,883	87,55
815,062	-125,44
815,24	46,59
815,419	-59,9
815,598	42,5
815,776	-109,05
815,955	11,78
816,133	-53,76
816,312	-18,94
816,49	-18,94
816,669	-59,9
816,847	-47,62
817,026	83,45
817,204	11,78
817,383	-18,94
817,561	-18,94
817,74	67,07
817,918	-20,99
818,097	-53,76
818,275	-49,66
818,453	17,92
818,632	65,02
818,81	24,06
818,988	11,78
819,167	-59,9
819,345	-37,38
819,523	-123,39
819,701	-4,61
819,879	28,16
820,058	-33,28
820,236	-10,75
820,414	22,02
820,592	-35,33
820,77	-27,14
820,948	-59,9
821,127	-92,67
821,305	9,73
821,483	-37,38
821,661	87,55
821,839	-6,66
822,017	-59,9
822,195	-4,61
822,373	40,45
822,551	-6,66
822,729	11,78
822,907	-27,14
823,085	67,07
823,262	-4,61
823,44	-14,85
823,618	-61,95
823,796	-61,95
823,974	-12,8
824,152	-37,38
824,329	5,63
824,507	-53,76
824,685	-2,56
824,863	-59,9
825,04	54,78
825,218	-2,56
825,396	1,54
825,574	-8,7
825,751	30,21
825,929	44,54
826,107	-45,57
826,284	-59,9
826,462	30,21
826,639	-12,8
826,817	-92,67
826,994	3,58
827,172	-68,09
827,349	95,74
827,527	103,93
827,704	5,63
827,882	-18,94
828,059	67,07
828,237	-0,51
828,414	54,78
828,591	-43,52
828,769	13,82
828,946	-53,76
829,124	58,88
829,301	62,98
829,478	-59,9
829,655	71,17
829,833	54,78
830,01	-94,72
830,187	54,78
830,364	-2,56
830,542	-2,56
830,719	40,45
830,896	28,16
831,073	30,21
831,25	-59,9
831,427	34,3
831,604	-0,51
831,782	-43,52
831,959	48,64
832,136	-35,33
832,313	22,02
832,49	1,54
832,667	-18,94
832,844	-51,71
833,021	22,02
833,198	5,63
833,374	40,45
833,551	-31,23
833,728	17,92
833,905	32,26
834,082	-176,64
834,259	-10,75
834,436	77,31
834,612	-39,42
834,789	67,07
834,966	13,82
835,143	99,84
835,319	-35,33
835,496	13,82
835,673	-23,04
835,85	22,02
836,026	46,59
836,203	3,58
836,38	-4,61
836,556	-41,47
836,733	-18,94
836,909	38,4
837,086	-78,33
837,262	-12,8
837,439	-14,85
837,616	-10,75
837,792	24,06
837,968	13,82
838,145	-102,91
838,321	30,21
838,498	-45,57
838,674	60,93
838,851	-0,51
839,027	-2,56
839,203	-23,04
839,38	3,58
839,556	-43,52
839,732	116,22
839,909	17,92
840,085	-57,86
840,261	-59,9
840,437	3,58
840,614	-86,53
840,79	28,16
840,966	26,11
841,142	28,16
841,318	-35,33
841,494	-4,61
841,671	62,98
841,847	-98,81
842,023	-147,97
842,199	93,69
842,375	105,98
842,551	-109,05
842,727	-29,18
842,903	161,28
843,079	-35,33
843,255	95,74
843,431	-55,81
843,607	108,03
843,783	-139,77
843,959	54,78
844,134	-92,67
844,31	93,69
844,486	1,54
844,662	13,82
844,838	42,5
845,013	67,07
845,189	75,26
845,365	60,93
845,541	69,12
845,716	52,74
845,892	46,59
846,068	-18,94
846,244	5,63
846,419	52,74
846,595	-104,96
846,77	-51,71
846,946	101,89
847,122	-12,8
847,297	-39,42
847,473	153,09
847,648	-88,57
847,824	54,78
847,999	-121,34
848,175	-6,66
848,35	-41,47
848,526	38,4
848,701	-2,56
848,876	198,14
849,052	38,4
849,227	-33,28
849,403	-37,38
849,578	-64
849,753	-18,94
849,929	38,4
850,104	44,54
850,279	-33,28
850,454	1,54
850,63	67,07
850,805	65,02
850,98	48,64
851,155	-53,76
851,33	-29,18
851,505	-117,25
851,681	79,36
851,856	-55,81
852,031	52,74
852,206	26,11
852,381	-102,91
852,556	85,5
852,731	-20,99
852,906	9,73
853,081	-49,66
853,256	69,12
853,431	22,02
853,606	-109,05
853,781	-35,33
853,956	-61,95
854,131	1,54
854,305	-12,8
854,48	-45,57
854,655	-18,94
854,83	-78,33
855,005	-49,66
855,18	22,02
855,354	-29,18
855,529	32,26
855,704	-23,04
855,879	-12,8
856,053	-113,15
856,228	13,82
856,403	-150,01
856,577	-57,86
856,752	-119,29
856,926	-8,7
857,101	-29,18
857,276	-8,7
857,45	93,69
857,625	46,59
857,799	36,35
857,974	-25,09
858,148	-59,9
858,323	9,73
858,497	-76,29
858,672	11,78
858,846	-135,68
859,02	26,11
859,195	-43,52
859,369	-61,95
859,543	-76,29
859,718	-2,56
859,892	54,78
860,066	-55,81
860,241	22,02
860,415	28,16
860,589	-6,66
860,763	-18,94
860,938	-70,14
861,112	9,73
861,286	22,02
861,46	9,73
861,634	-23,04
861,808	38,4
861,982	9,73
862,157	9,73
862,331	-20,99
862,505	-64
862,679	22,02
862,853	-8,7
863,027	-51,71
863,201	87,55
863,375	-35,33
863,549	81,41
863,722	-6,66
863,896	75,26
864,07	5,63
864,244	38,4
864,418	5,63
864,592	-109,05
864,766	3,58
864,939	-55,81
865,113	-80,38
865,287	142,85
865,461	-37,38
865,634	-41,47
865,808	40,45
865,982	-45,57
866,156	-88,57
866,329	-143,87
866,503	40,45
866,676	58,88
866,85	-27,14
867,024	-4,61
867,197	46,59
867,371	128,51
867,544	75,26
867,718	-37,38
867,891	38,4
868,065	-47,62
868,238	-64
868,412	52,74
868,585	17,92
868,759	-76,29
868,932	-4,61
869,105	-23,04
869,279	24,06
869,452	-88,57
869,625	42,5
869,799	-33,28
869,972	-70,14
870,145	-84,48
870,319	-8,7
870,492	9,73
870,665	-29,18
870,838	-96,77
871,011	-170,49
871,185	-72,19
871,358	-61,95
871,531	-4,61
871,704	-18,94
871,877	-18,94
872,05	3,58
872,223	-27,14
872,396	-4,61
872,569	17,92
872,742	-61,95
872,915	-94,72
873,088	9,73
873,261	-51,71
873,434	73,21
873,607	26,11
873,78	17,92
873,953	-92,67
874,126	-18,94
874,299	36,35
874,471	-12,8
874,644	-35,33
874,817	3,58
874,99	173,57
875,163	-45,57
875,335	38,4
875,508	58,88
875,681	36,35
875,853	-8,7
876,026	-39,42
876,199	-49,66
876,371	13,82
876,544	3,58
876,717	22,02
876,889	-25,09
877,062	7,68
877,234	-113,15
877,407	-76,29
877,579	-14,85
877,752	-4,61
877,924	44,54
878,097	17,92
878,269	-16,9
878,442	40,45
878,614	13,82
878,786	81,41
878,959	-66,05
879,131	-64
879,303	-111,1
879,476	-55,81
879,648	48,64
879,82	-70,14
879,993	-109,05
880,165	-88,57
880,337	11,78
880,509	-6,66
880,681	-76,29
880,854	-16,9
881,026	-16,9
881,198	95,74
881,37	-2,56
881,542	22,02
881,714	-35,33
881,886	-76,29
882,058	9,73
882,23	-39,42
882,402	-27,14
882,574	54,78
882,746	69,12
882,918	110,08
883,09	56,83
883,262	50,69
883,434	46,59
883,606	-70,14
883,778	93,69
883,95	89,6
884,122	-39,42
884,293	52,74
884,465	-31,23
884,637	101,89
884,809	-43,52
884,98	65,02
885,152	-14,85
885,324	-2,56
885,496	-25,09
885,667	34,3
885,839	-53,76
886,011	-6,66
886,182	-6,66
886,354	-37,38
886,525	19,97
886,697	-4,61
886,869	-20,99
887,04	15,87
887,212	58,88
887,383	128,51
887,555	-4,61
887,726	30,21
887,897	-2,56
888,069	-104,96
888,24	36,35
888,412	-55,81
888,583	-39,42
888,754	-53,76
888,926	-84,48
889,097	-12,8
889,268	-72,19
889,44	-18,94
889,611	-100,86
889,782	-43,52
889,953	-129,53
890,125	71,17
890,296	-29,18
890,467	-31,23
890,638	-133,63
890,809	-35,33
890,98	-61,95
891,151	42,5
891,323	50,69
891,494	-6,66
891,665	-55,81
891,836	-43,52
892,007	-2,56
892,178	60,93
892,349	38,4
892,52	-23,04
892,691	-76,29
892,862	-68,09
893,032	-66,05
893,203	-14,85
893,374	-37,38
893,545	67,07
893,716	-78,33
893,887	11,78
894,057	-31,23
894,228	-27,14
894,399	-23,04
894,57	151,04
894,74	-35,33
894,911	7,68
895,082	-59,9
895,253	-92,67
895,423	22,02
895,594	67,07
895,764	-10,75
895,935	-90,62
896,106	-10,75
896,276	-84,48
896,447	-4,61
896,617	-84,48
896,788	-109,05
896,958	-57,86
897,129	-31,23
897,299	13,82
897,47	38,4
897,64	36,35
897,81	-72,19
897,981	28,16
898,151	-90,62
898,322	60,93
898,492	28,16
898,662	-43,52
898,832	-35,33
899,003	58,88
899,173	28,16
899,343	-74,24
899,513	-47,62
