Data from hydrogene_USB4F104151__5__09-04-09-910.txt Node

Date: Wed Apr 15 09:04:09 EDT 2026
User: LaboPhy
Spectrometer: USB4F10415
Trigger mode: 4
Integration Time (sec): 1,000000E-1
Scans to average: 1
Electric dark correction enabled: true
Nonlinearity correction enabled: false
Boxcar width: 0
XAxis mode: Wavelengths
Number of Pixels in Spectrum: 3648
>>>>>Begin Spectral Data<<<<<
178,204	-275,62
178,424	-275,62
178,644	-275,62
178,864	-335,01
179,084	-341,16
179,304	-3,24
179,524	-36,01
179,744	33,62
179,964	15,19
180,184	68,44
180,404	50
180,624	39,76
180,844	-31,91
181,064	-48,3
181,283	47,96
181,503	-89,26
181,723	-46,25
181,943	-27,82
182,163	140,12
182,383	54,1
182,602	62,29
182,822	78,68
183,042	31,57
183,262	4,95
183,482	54,1
183,701	78,68
183,921	68,44
184,141	-1,19
184,361	62,29
184,58	129,88
184,8	7
185,02	-1,19
185,239	70,48
185,459	45,91
185,679	50
185,898	-38,06
186,118	80,72
186,338	33,62
186,557	80,72
186,777	23,38
186,997	31,57
187,216	23,38
187,436	185,17
187,655	60,24
187,875	105,3
188,095	-50,35
188,314	99,16
188,534	123,73
188,753	39,76
188,973	119,64
189,192	140,12
189,412	9,05
189,631	54,1
189,851	62,29
190,07	97,11
190,29	-19,63
190,509	9,05
190,729	31,57
190,948	179,03
191,168	277,33
191,387	33,62
191,607	21,33
191,826	33,62
192,045	37,72
192,265	58,2
192,484	68,44
192,704	21,33
192,923	0,85
193,142	181,07
193,362	72,53
193,581	107,35
193,8	136,02
194,02	78,68
194,239	45,91
194,458	113,49
194,678	0,85
194,897	31,57
195,116	58,2
195,335	115,54
195,555	148,31
195,774	17,24
195,993	86,87
196,212	19,29
196,432	-60,59
196,651	39,76
196,87	37,72
197,089	172,88
197,308	107,35
197,528	152,4
197,747	64,34
197,966	70,48
198,185	86,87
198,404	-3,24
198,623	82,77
198,842	50
199,062	95,06
199,281	84,82
199,5	29,52
199,719	-7,34
199,938	45,91
200,157	129,88
200,376	138,07
200,595	123,73
200,814	105,3
201,033	9,05
201,252	131,92
201,471	66,39
201,69	103,25
201,909	-54,44
202,128	140,12
202,347	60,24
202,566	-40,11
202,785	-29,87
203,004	-48,3
203,223	142,16
203,442	13,14
203,661	54,1
203,879	70,48
204,098	148,31
204,317	33,62
204,536	115,54
204,755	74,58
204,974	93,01
205,193	27,48
205,411	205,65
205,63	138,07
205,849	95,06
206,068	54,1
206,287	-23,72
206,505	93,01
206,724	78,68
206,943	25,43
207,162	-7,34
207,381	125,78
207,599	50
207,818	25,43
208,037	41,81
208,255	41,81
208,474	123,73
208,693	23,38
208,911	62,29
209,13	58,2
209,349	174,93
209,567	123,73
209,786	131,92
210,005	131,92
210,223	64,34
210,442	-76,97
210,661	13,14
210,879	39,76
211,098	23,38
211,316	70,48
211,535	56,15
211,753	86,87
211,972	97,11
212,191	0,85
212,409	54,1
212,628	138,07
212,846	41,81
213,065	86,87
213,283	115,54
213,502	-5,29
213,72	-1,19
213,938	15,19
214,157	82,77
214,375	109,4
214,594	31,57
214,812	150,36
215,031	103,25
215,249	43,86
215,467	70,48
215,686	23,38
215,904	80,72
216,122	23,38
216,341	187,22
216,559	39,76
216,778	187,22
216,996	174,93
217,214	47,96
217,432	9,05
217,651	31,57
217,869	64,34
218,087	27,48
218,306	23,38
218,524	-1,19
218,742	-40,11
218,96	72,53
219,179	-19,63
219,397	52,05
219,615	148,31
219,833	160,59
220,051	-42,15
220,27	99,16
220,488	64,34
220,706	64,34
220,924	-5,29
221,142	74,58
221,36	41,81
221,578	103,25
221,796	0,85
222,015	86,87
222,233	113,49
222,451	103,25
222,669	-60,59
222,887	74,58
223,105	-19,63
223,323	58,2
223,541	31,57
223,759	90,96
223,977	15,19
224,195	158,55
224,413	103,25
224,631	9,05
224,849	138,07
225,067	224,08
225,285	39,76
225,503	109,4
225,721	-79,02
225,939	58,2
226,157	43,86
226,375	189,27
226,592	58,2
226,81	45,91
227,028	88,92
227,246	123,73
227,464	72,53
227,682	162,64
227,9	76,63
228,117	47,96
228,335	-13,48
228,553	45,91
228,771	9,05
228,989	111,44
229,206	111,44
229,424	74,58
229,642	9,05
229,86	-19,63
230,077	131,92
230,295	70,48
230,513	138,07
230,731	123,73
230,948	119,64
231,166	232,27
231,384	25,43
231,601	-31,91
231,819	211,79
232,037	41,81
232,254	-89,26
232,472	113,49
232,689	0,85
232,907	121,68
233,125	-40,11
233,342	-23,72
233,56	9,05
233,777	-68,78
233,995	-3,24
234,213	72,53
234,43	64,34
234,648	54,1
234,865	39,76
235,083	13,14
235,3	7
235,518	111,44
235,735	111,44
235,953	99,16
236,17	15,19
236,388	-40,11
236,605	109,4
236,822	21,33
237,04	109,4
237,257	107,35
237,475	58,2
237,692	111,44
237,909	39,76
238,127	-1,19
238,344	50
238,562	43,86
238,779	31,57
238,996	-40,11
239,214	74,58
239,431	50
239,648	82,77
239,865	31,57
240,083	107,35
240,3	4,95
240,517	-56,49
240,735	90,96
240,952	113,49
241,169	113,49
241,386	60,24
241,603	4,95
241,821	-72,87
242,038	64,34
242,255	58,2
242,472	-113,83
242,689	0,85
242,907	52,05
243,124	88,92
243,341	2,9
243,558	2,9
243,775	25,43
243,992	-9,39
244,209	119,64
244,426	176,98
244,643	86,87
244,86	33,62
245,078	72,53
245,295	84,82
245,512	9,05
245,729	-81,07
245,946	115,54
246,163	115,54
246,38	70,48
246,597	47,96
246,814	90,96
247,031	54,1
247,248	13,14
247,464	56,15
247,681	113,49
247,898	129,88
248,115	70,48
248,332	-48,3
248,549	129,88
248,766	156,5
248,983	107,35
249,2	-1,19
249,417	47,96
249,633	11,09
249,85	115,54
250,067	64,34
250,284	52,05
250,501	66,39
250,717	144,21
250,934	-15,53
251,151	29,52
251,368	37,72
251,585	117,59
251,801	93,01
252,018	-3,24
252,235	101,2
252,451	-3,24
252,668	41,81
252,885	129,88
253,102	80,72
253,318	97,11
253,535	9,05
253,752	56,15
253,968	-3,24
254,185	2,9
254,401	50
254,618	66,39
254,835	7
255,051	144,21
255,268	78,68
255,484	9,05
255,701	-15,53
255,917	131,92
256,134	-52,39
256,351	23,38
256,567	-19,63
256,784	-27,82
257	-72,87
257,217	56,15
257,433	25,43
257,65	52,05
257,866	156,5
258,082	0,85
258,299	33,62
258,515	52,05
258,732	31,57
258,948	47,96
259,165	27,48
259,381	-52,39
259,597	45,91
259,814	54,1
260,03	62,29
260,246	23,38
260,463	127,83
260,679	111,44
260,895	15,19
261,112	103,25
261,328	50
261,544	-7,34
261,761	222,03
261,977	41,81
262,193	-7,34
262,409	82,77
262,626	113,49
262,842	-5,29
263,058	39,76
263,274	25,43
263,49	54,1
263,707	82,77
263,923	111,44
264,139	-76,97
264,355	41,81
264,571	158,55
264,787	25,43
265,004	111,44
265,22	-1,19
265,436	19,29
265,652	39,76
265,868	82,77
266,084	19,29
266,3	86,87
266,516	-29,87
266,732	25,43
266,948	97,11
267,164	56,15
267,38	62,29
267,596	72,53
267,812	209,75
268,028	21,33
268,244	58,2
268,46	90,96
268,676	45,91
268,892	107,35
269,108	-93,35
269,324	-33,96
269,54	-107,69
269,756	119,64
269,972	-81,07
270,188	15,19
270,403	-23,72
270,619	31,57
270,835	172,88
271,051	7
271,267	33,62
271,483	68,44
271,698	82,77
271,914	54,1
272,13	56,15
272,346	-15,53
272,562	7
272,777	107,35
272,993	-72,87
273,209	76,63
273,425	54,1
273,64	-33,96
273,856	90,96
274,072	74,58
274,287	31,57
274,503	144,21
274,719	84,82
274,934	4,95
275,15	-17,58
275,366	37,72
275,581	2,9
275,797	41,81
276,012	50
276,228	33,62
276,444	13,14
276,659	191,31
276,875	0,85
277,09	41,81
277,306	41,81
277,521	31,57
277,737	37,72
277,952	99,16
278,168	136,02
278,383	111,44
278,599	82,77
278,814	138,07
279,03	-5,29
279,245	154,45
279,461	25,43
279,676	99,16
279,892	56,15
280,107	-17,58
280,322	-60,59
280,538	99,16
280,753	0,85
280,969	66,39
281,184	23,38
281,399	115,54
281,615	-9,39
281,83	179,03
282,045	-31,91
282,26	-23,72
282,476	117,59
282,691	9,05
282,906	29,52
283,122	-15,53
283,337	58,2
283,552	29,52
283,767	62,29
283,983	136,02
284,198	27,48
284,413	62,29
284,628	-36,01
284,843	58,2
285,058	43,86
285,274	-15,53
285,489	56,15
285,704	162,64
285,919	13,14
286,134	7
286,349	58,2
286,564	62,29
286,779	107,35
286,995	-58,54
287,21	-44,2
287,425	41,81
287,64	107,35
287,855	78,68
288,07	58,2
288,285	181,07
288,5	164,69
288,715	146,26
288,93	0,85
289,145	2,9
289,36	111,44
289,575	4,95
289,79	113,49
290,004	-52,39
290,219	136,02
290,434	33,62
290,649	-64,68
290,864	17,24
291,079	-15,53
291,294	31,57
291,509	27,48
291,724	9,05
291,938	68,44
292,153	2,9
292,368	9,05
292,583	43,86
292,798	39,76
293,012	39,76
293,227	56,15
293,442	60,24
293,657	121,68
293,871	105,3
294,086	27,48
294,301	103,25
294,516	88,92
294,73	101,2
294,945	39,76
295,16	41,81
295,374	64,34
295,589	148,31
295,804	-33,96
296,018	-17,58
296,233	123,73
296,447	68,44
296,662	41,81
296,877	150,36
297,091	52,05
297,306	13,14
297,52	4,95
297,735	127,83
297,949	-25,77
298,164	50
298,378	-3,24
298,593	-23,72
298,807	27,48
299,022	101,2
299,236	172,88
299,451	37,72
299,665	99,16
299,88	-15,53
300,094	66,39
300,309	2,9
300,523	88,92
300,737	-9,39
300,952	99,16
301,166	66,39
301,381	23,38
301,595	50
301,809	-19,63
302,024	66,39
302,238	-52,39
302,452	117,59
302,667	58,2
302,881	150,36
303,095	119,64
303,309	-23,72
303,524	-15,53
303,738	39,76
303,952	27,48
304,166	82,77
304,381	60,24
304,595	86,87
304,809	-9,39
305,023	21,33
305,237	-40,11
305,452	17,24
305,666	111,44
305,88	76,63
306,094	17,24
306,308	107,35
306,522	74,58
306,736	95,06
306,95	121,68
307,164	-40,11
307,379	74,58
307,593	86,87
307,807	125,78
308,021	148,31
308,235	72,53
308,449	-25,77
308,663	84,82
308,877	181,07
309,091	131,92
309,305	-27,82
309,519	-11,43
309,733	211,79
309,947	-7,34
310,161	95,06
310,374	88,92
310,588	90,96
310,802	11,09
311,016	64,34
311,23	52,05
311,444	41,81
311,658	60,24
311,872	181,07
312,085	74,58
312,299	119,64
312,513	109,4
312,727	109,4
312,941	-19,63
313,154	31,57
313,368	58,2
313,582	62,29
313,796	64,34
314,009	50
314,223	117,59
314,437	99,16
314,651	82,77
314,864	74,58
315,078	54,1
315,292	-15,53
315,505	4,95
315,719	58,2
315,933	58,2
316,146	11,09
316,36	-54,44
316,573	78,68
316,787	131,92
317,001	113,49
317,214	-48,3
317,428	97,11
317,641	33,62
317,855	11,09
318,068	140,12
318,282	117,59
318,495	123,73
318,709	88,92
318,922	82,77
319,136	138,07
319,349	74,58
319,563	50
319,776	68,44
319,99	9,05
320,203	115,54
320,417	7
320,63	19,29
320,843	146,26
321,057	64,34
321,27	72,53
321,483	64,34
321,697	146,26
321,91	52,05
322,124	60,24
322,337	105,3
322,55	-46,25
322,763	23,38
322,977	4,95
323,19	-3,24
323,403	58,2
323,617	105,3
323,83	113,49
324,043	-7,34
324,256	93,01
324,469	62,29
324,683	144,21
324,896	-40,11
325,109	29,52
325,322	-13,48
325,535	179,03
325,748	66,39
325,962	-60,59
326,175	39,76
326,388	-25,77
326,601	95,06
326,814	7
327,027	47,96
327,24	246,61
327,453	-1,19
327,666	140,12
327,879	133,97
328,092	127,83
328,305	111,44
328,518	-44,2
328,731	4,95
328,944	-44,2
329,157	88,92
329,37	64,34
329,583	189,27
329,796	138,07
330,009	-50,35
330,222	148,31
330,435	101,2
330,648	43,86
330,861	168,79
331,073	50
331,286	70,48
331,499	88,92
331,712	-11,43
331,925	156,5
332,138	115,54
332,35	74,58
332,563	54,1
332,776	64,34
332,989	17,24
333,202	66,39
333,414	33,62
333,627	107,35
333,84	88,92
334,053	47,96
334,265	47,96
334,478	-56,49
334,691	72,53
334,903	43,86
335,116	29,52
335,329	33,62
335,541	140,12
335,754	248,66
335,966	-7,34
336,179	-3,24
336,392	70,48
336,604	72,53
336,817	43,86
337,029	103,25
337,242	39,76
337,454	107,35
337,667	60,24
337,88	232,27
338,092	80,72
338,305	2,9
338,517	0,85
338,729	103,25
338,942	187,22
339,154	39,76
339,367	-23,72
339,579	131,92
339,792	27,48
340,004	86,87
340,217	103,25
340,429	45,91
340,641	47,96
340,854	43,86
341,066	-11,43
341,278	129,88
341,491	166,74
341,703	90,96
341,915	39,76
342,128	172,88
342,34	17,24
342,552	111,44
342,764	52,05
342,977	54,1
343,189	131,92
343,401	82,77
343,613	35,67
343,826	93,01
344,038	-9,39
344,25	45,91
344,462	58,2
344,674	111,44
344,886	103,25
345,099	113,49
345,311	129,88
345,523	74,58
345,735	2,9
345,947	142,16
346,159	70,48
346,371	25,43
346,583	113,49
346,795	250,71
347,007	43,86
347,219	133,97
347,431	156,5
347,643	203,6
347,855	119,64
348,067	99,16
348,279	50
348,491	62,29
348,703	64,34
348,915	25,43
349,127	-3,24
349,339	70,48
349,551	37,72
349,763	146,26
349,975	111,44
350,187	140,12
350,399	127,83
350,61	121,68
350,822	33,62
351,034	64,34
351,246	15,19
351,458	105,3
351,669	174,93
351,881	201,55
352,093	127,83
352,305	119,64
352,517	131,92
352,728	228,18
352,94	103,25
353,152	172,88
353,363	68,44
353,575	86,87
353,787	193,36
353,999	111,44
354,21	174,93
354,422	17,24
354,633	70,48
354,845	84,82
355,057	111,44
355,268	107,35
355,48	162,64
355,692	-23,72
355,903	13,14
356,115	66,39
356,326	41,81
356,538	160,59
356,749	119,64
356,961	123,73
357,172	54,1
357,384	37,72
357,595	267,09
357,807	25,43
358,018	74,58
358,23	64,34
358,441	213,84
358,653	62,29
358,864	19,29
359,075	88,92
359,287	176,98
359,498	105,3
359,709	148,31
359,921	95,06
360,132	113,49
360,344	21,33
360,555	123,73
360,766	74,58
360,977	31,57
361,189	156,5
361,4	66,39
361,611	107,35
361,823	58,2
362,034	123,73
362,245	-11,43
362,456	58,2
362,667	176,98
362,879	99,16
363,09	109,4
363,301	131,92
363,512	172,88
363,723	93,01
363,935	43,86
364,146	189,27
364,357	88,92
364,568	86,87
364,779	21,33
364,99	166,74
365,201	17,24
365,412	125,78
365,623	37,72
365,834	31,57
366,045	99,16
366,256	115,54
366,467	66,39
366,678	60,24
366,889	144,21
367,1	21,33
367,311	185,17
367,522	66,39
367,733	113,49
367,944	86,87
368,155	74,58
368,366	170,83
368,577	129,88
368,788	93,01
368,999	33,62
369,209	131,92
369,42	189,27
369,631	262,99
369,842	136,02
370,053	76,63
370,264	179,03
370,474	56,15
370,685	78,68
370,896	101,2
371,107	189,27
371,317	148,31
371,528	86,87
371,739	127,83
371,95	156,5
372,16	172,88
372,371	78,68
372,582	72,53
372,792	121,68
373,003	129,88
373,214	140,12
373,424	189,27
373,635	41,81
373,846	205,65
374,056	45,91
374,267	64,34
374,477	99,16
374,688	-36,01
374,898	138,07
375,109	105,3
375,319	156,5
375,53	191,31
375,74	113,49
375,951	99,16
376,161	105,3
376,372	224,08
376,582	43,86
376,793	172,88
377,003	58,2
377,214	105,3
377,424	179,03
377,635	181,07
377,845	74,58
378,055	156,5
378,266	107,35
378,476	140,12
378,686	160,59
378,897	193,36
379,107	201,55
379,317	150,36
379,528	95,06
379,738	148,31
379,948	86,87
380,158	168,79
380,369	172,88
380,579	185,17
380,789	211,79
380,999	152,4
381,21	181,07
381,42	267,09
381,63	68,44
381,84	195,41
382,05	131,92
382,261	228,18
382,471	185,17
382,681	121,68
382,891	203,6
383,101	183,12
383,311	0,85
383,521	121,68
383,731	142,16
383,941	176,98
384,151	152,4
384,361	217,94
384,571	168,79
384,781	35,67
384,991	217,94
385,201	236,37
385,411	164,69
385,621	136,02
385,831	168,79
386,041	117,59
386,251	74,58
386,461	222,03
386,671	158,55
386,881	109,4
387,091	80,72
387,301	142,16
387,511	217,94
387,72	148,31
387,93	150,36
388,14	45,91
388,35	101,2
388,56	209,75
388,769	162,64
388,979	181,07
389,189	103,25
389,399	138,07
389,609	164,69
389,818	234,32
390,028	95,06
390,238	146,26
390,447	82,77
390,657	201,55
390,867	33,62
391,076	4,95
391,286	158,55
391,496	58,2
391,705	158,55
391,915	269,14
392,125	105,3
392,334	154,45
392,544	121,68
392,753	123,73
392,963	68,44
393,172	181,07
393,382	162,64
393,591	273,23
393,801	101,2
394,01	232,27
394,22	127,83
394,429	111,44
394,639	50
394,848	179,03
395,058	133,97
395,267	181,07
395,477	172,88
395,686	136,02
395,895	254,8
396,105	291,66
396,314	195,41
396,524	72,53
396,733	107,35
396,942	314,19
397,152	228,18
397,361	199,51
397,57	115,54
397,78	156,5
397,989	207,7
398,198	262,99
398,407	97,11
398,617	146,26
398,826	152,4
399,035	123,73
399,244	213,84
399,453	156,5
399,663	72,53
399,872	131,92
400,081	66,39
400,29	240,47
400,499	113,49
400,708	172,88
400,917	121,68
401,127	158,55
401,336	123,73
401,545	250,71
401,754	154,45
401,963	140,12
402,172	62,29
402,381	54,1
402,59	90,96
402,799	111,44
403,008	123,73
403,217	172,88
403,426	181,07
403,635	56,15
403,844	99,16
404,053	97,11
404,262	148,31
404,471	185,17
404,68	164,69
404,888	99,16
405,097	115,54
405,306	170,83
405,515	254,8
405,724	74,58
405,933	105,3
406,142	199,51
406,35	170,83
406,559	105,3
406,768	205,65
406,977	244,56
407,185	189,27
407,394	215,89
407,603	131,92
407,812	199,51
408,02	222,03
408,229	99,16
408,438	176,98
408,646	66,39
408,855	195,41
409,064	160,59
409,272	234,32
409,481	236,37
409,69	254,8
409,898	222,03
410,107	252,75
410,315	310,1
410,524	203,6
410,733	230,23
410,941	320,34
411,15	238,42
411,358	183,12
411,567	295,76
411,775	222,03
411,984	131,92
412,192	174,93
412,401	99,16
412,609	176,98
412,818	267,09
413,026	213,84
413,234	131,92
413,443	88,92
413,651	84,82
413,86	138,07
414,068	148,31
414,276	258,9
414,485	136,02
414,693	234,32
414,901	230,23
415,11	129,88
415,318	142,16
415,526	90,96
415,734	176,98
415,943	90,96
416,151	242,51
416,359	99,16
416,567	140,12
416,776	74,58
416,984	199,51
417,192	185,17
417,4	101,2
417,608	115,54
417,817	136,02
418,025	205,65
418,233	275,28
418,441	144,21
418,649	56,15
418,857	50
419,065	250,71
419,273	17,24
419,481	119,64
419,689	117,59
419,897	72,53
420,105	99,16
420,313	199,51
420,521	199,51
420,729	226,13
420,937	119,64
421,145	37,72
421,353	183,12
421,561	179,03
421,769	80,72
421,977	103,25
422,185	127,83
422,393	131,92
422,601	154,45
422,809	215,89
423,017	99,16
423,224	154,45
423,432	174,93
423,64	113,49
423,848	160,59
424,056	39,76
424,263	115,54
424,471	115,54
424,679	115,54
424,887	33,62
425,094	166,74
425,302	74,58
425,51	97,11
425,718	170,83
425,925	82,77
426,133	90,96
426,341	197,46
426,548	52,05
426,756	86,87
426,964	56,15
427,171	121,68
427,379	148,31
427,586	82,77
427,794	168,79
428,001	127,83
428,209	146,26
428,417	80,72
428,624	164,69
428,832	97,11
429,039	86,87
429,247	115,54
429,454	140,12
429,662	201,55
429,869	74,58
430,076	103,25
430,284	209,75
430,491	236,37
430,699	146,26
430,906	205,65
431,114	111,44
431,321	162,64
431,528	107,35
431,736	78,68
431,943	195,41
432,15	228,18
432,358	344,91
432,565	336,72
432,772	248,66
432,979	578,38
433,187	480,08
433,394	693,07
433,601	734,03
433,808	813,9
434,016	797,51
434,223	787,27
434,43	779,08
434,637	746,31
434,844	643,92
435,052	545,61
435,259	498,51
435,466	394,06
435,673	377,68
435,88	326,48
436,087	267,09
436,294	226,13
436,501	185,17
436,708	162,64
436,915	138,07
437,122	246,61
437,329	95,06
437,537	88,92
437,743	90,96
437,95	222,03
438,157	101,2
438,364	111,44
438,571	35,67
438,778	148,31
438,985	234,32
439,192	181,07
439,399	62,29
439,606	152,4
439,813	176,98
440,02	170,83
440,227	209,75
440,433	138,07
440,64	172,88
440,847	0,85
441,054	193,36
441,261	293,71
441,467	97,11
441,674	107,35
441,881	176,98
442,088	70,48
442,294	150,36
442,501	115,54
442,708	174,93
442,914	74,58
443,121	136,02
443,328	156,5
443,534	119,64
443,741	105,3
443,948	58,2
444,154	127,83
444,361	189,27
444,568	125,78
444,774	168,79
444,981	62,29
445,187	168,79
445,394	74,58
445,6	19,29
445,807	226,13
446,013	156,5
446,22	-9,39
446,426	119,64
446,633	154,45
446,839	262,99
447,046	17,24
447,252	226,13
447,459	123,73
447,665	15,19
447,871	222,03
448,078	109,4
448,284	133,97
448,491	193,36
448,697	103,25
448,903	115,54
449,11	95,06
449,316	74,58
449,522	105,3
449,728	160,59
449,935	170,83
450,141	156,5
450,347	205,65
450,553	119,64
450,76	66,39
450,966	107,35
451,172	123,73
451,378	17,24
451,584	156,5
451,791	195,41
451,997	140,12
452,203	33,62
452,409	154,45
452,615	181,07
452,821	103,25
453,027	50
453,233	267,09
453,44	189,27
453,646	123,73
453,852	148,31
454,058	23,38
454,264	148,31
454,47	164,69
454,676	105,3
454,882	209,75
455,088	29,52
455,294	43,86
455,5	138,07
455,705	90,96
455,911	82,77
456,117	33,62
456,323	179,03
456,529	131,92
456,735	127,83
456,941	185,17
457,147	154,45
457,352	187,22
457,558	107,35
457,764	238,42
457,97	99,16
458,176	105,3
458,381	97,11
458,587	201,55
458,793	150,36
458,999	54,1
459,204	99,16
459,41	68,44
459,616	121,68
459,821	99,16
460,027	86,87
460,233	99,16
460,438	164,69
460,644	90,96
460,85	158,55
461,055	84,82
461,261	156,5
461,466	95,06
461,672	181,07
461,878	52,05
462,083	195,41
462,289	0,85
462,494	62,29
462,7	123,73
462,905	119,64
463,111	144,21
463,316	217,94
463,522	193,36
463,727	15,19
463,932	119,64
464,138	95,06
464,343	156,5
464,549	219,99
464,754	166,74
464,959	82,77
465,165	170,83
465,37	181,07
465,575	101,2
465,781	103,25
465,986	129,88
466,191	148,31
466,397	58,2
466,602	228,18
466,807	187,22
467,012	219,99
467,218	123,73
467,423	113,49
467,628	88,92
467,833	33,62
468,038	82,77
468,244	95,06
468,449	25,43
468,654	142,16
468,859	52,05
469,064	70,48
469,269	97,11
469,474	166,74
469,679	201,55
469,885	101,2
470,09	148,31
470,295	76,63
470,5	4,95
470,705	170,83
470,91	162,64
471,115	236,37
471,32	154,45
471,525	258,9
471,73	265,04
471,935	99,16
472,139	82,77
472,344	88,92
472,549	131,92
472,754	140,12
472,959	154,45
473,164	150,36
473,369	90,96
473,574	246,61
473,778	74,58
473,983	238,42
474,188	125,78
474,393	66,39
474,598	99,16
474,802	146,26
475,007	21,33
475,212	254,8
475,417	88,92
475,621	174,93
475,826	27,48
476,031	115,54
476,235	74,58
476,44	82,77
476,645	148,31
476,849	70,48
477,054	136,02
477,259	140,12
477,463	219,99
477,668	271,19
477,872	262,99
478,077	201,55
478,282	41,81
478,486	179,03
478,691	195,41
478,895	174,93
479,1	217,94
479,304	209,75
479,509	107,35
479,713	115,54
479,918	189,27
480,122	136,02
480,326	121,68
480,531	164,69
480,735	209,75
480,94	133,97
481,144	293,71
481,348	164,69
481,553	99,16
481,757	95,06
481,961	64,34
482,166	158,55
482,37	60,24
482,574	191,31
482,778	11,09
482,983	113,49
483,187	205,65
483,391	179,03
483,595	179,03
483,8	265,04
484,004	484,17
484,208	797,51
484,412	1299,27
484,616	1874,74
484,821	2550,57
485,025	3558,18
485,229	4844,3
485,433	6132,47
485,637	7291,62
485,841	8370,9
486,045	9118,41
486,249	9806,53
486,453	9519,81
486,657	8858,32
486,861	7897,82
487,065	6662,9
487,269	5976,83
487,473	4518,67
487,677	3781,4
487,881	3054,37
488,085	2349,87
488,289	1876,79
488,493	1442,62
488,697	1217,35
488,901	899,91
489,105	602,96
489,309	385,87
489,512	398,16
489,716	322,38
489,92	164,69
490,124	203,6
490,328	271,19
490,531	164,69
490,735	222,03
490,939	72,53
491,143	267,09
491,346	154,45
491,55	86,87
491,754	187,22
491,958	215,89
492,161	160,59
492,365	219,99
492,569	152,4
492,772	230,23
492,976	230,23
493,18	187,22
493,383	201,55
493,587	164,69
493,79	244,56
493,994	156,5
494,197	176,98
494,401	281,43
494,605	136,02
494,808	238,42
495,012	121,68
495,215	226,13
495,419	250,71
495,622	160,59
495,825	174,93
496,029	185,17
496,232	187,22
496,436	193,36
496,639	148,31
496,843	107,35
497,046	56,15
497,249	242,51
497,453	140,12
497,656	103,25
497,859	76,63
498,063	181,07
498,266	213,84
498,469	95,06
498,673	70,48
498,876	80,72
499,079	17,24
499,282	95,06
499,485	260,95
499,689	176,98
499,892	129,88
500,095	103,25
500,298	107,35
500,501	93,01
500,705	111,44
500,908	138,07
501,111	129,88
501,314	287,57
501,517	203,6
501,72	99,16
501,923	156,5
502,126	127,83
502,329	207,7
502,532	146,26
502,735	125,78
502,938	258,9
503,141	113,49
503,344	31,57
503,547	158,55
503,75	80,72
503,953	70,48
504,156	168,79
504,359	224,08
504,562	107,35
504,765	62,29
504,968	154,45
505,17	142,16
505,373	142,16
505,576	119,64
505,779	115,54
505,982	62,29
506,185	82,77
506,387	168,79
506,59	160,59
506,793	142,16
506,996	127,83
507,198	154,45
507,401	279,38
507,604	213,84
507,807	125,78
508,009	129,88
508,212	179,03
508,415	84,82
508,617	86,87
508,82	72,53
509,022	115,54
509,225	176,98
509,428	117,59
509,63	105,3
509,833	125,78
510,035	308,05
510,238	283,47
510,44	78,68
510,643	146,26
510,845	189,27
511,048	185,17
511,25	86,87
511,453	176,98
511,655	41,81
511,858	230,23
512,06	219,99
512,262	103,25
512,465	168,79
512,667	176,98
512,87	74,58
513,072	176,98
513,274	146,26
513,477	86,87
513,679	131,92
513,881	113,49
514,084	50
514,286	310,1
514,488	154,45
514,69	76,63
514,893	95,06
515,095	66,39
515,297	148,31
515,499	168,79
515,701	90,96
515,904	191,31
516,106	136,02
516,308	193,36
516,51	164,69
516,712	160,59
516,914	183,12
517,116	93,01
517,318	93,01
517,52	164,69
517,722	107,35
517,925	111,44
518,127	115,54
518,329	205,65
518,531	37,72
518,733	97,11
518,935	66,39
519,136	121,68
519,338	90,96
519,54	187,22
519,742	195,41
519,944	279,38
520,146	172,88
520,348	82,77
520,55	129,88
520,752	148,31
520,954	105,3
521,155	54,1
521,357	119,64
521,559	199,51
521,761	162,64
521,963	181,07
522,164	119,64
522,366	203,6
522,568	201,55
522,77	252,75
522,971	90,96
523,173	33,62
523,375	127,83
523,576	123,73
523,778	136,02
523,98	129,88
524,181	156,5
524,383	189,27
524,584	152,4
524,786	109,4
524,988	66,39
525,189	162,64
525,391	82,77
525,592	72,53
525,794	115,54
525,995	168,79
526,197	50
526,398	285,52
526,6	138,07
526,801	148,31
527,003	45,91
527,204	103,25
527,406	156,5
527,607	140,12
527,808	138,07
528,01	162,64
528,211	123,73
528,412	66,39
528,614	154,45
528,815	179,03
529,016	222,03
529,218	154,45
529,419	154,45
529,62	95,06
529,822	142,16
530,023	80,72
530,224	162,64
530,425	162,64
530,626	-58,54
530,828	107,35
531,029	93,01
531,23	232,27
531,431	80,72
531,632	162,64
531,833	80,72
532,035	103,25
532,236	50
532,437	56,15
532,638	103,25
532,839	37,72
533,04	119,64
533,241	181,07
533,442	158,55
533,643	47,96
533,844	-7,34
534,045	64,34
534,246	35,67
534,447	7
534,648	37,72
534,849	164,69
535,05	97,11
535,251	27,48
535,451	62,29
535,652	54,1
535,853	50
536,054	84,82
536,255	123,73
536,456	90,96
536,657	99,16
536,857	217,94
537,058	127,83
537,259	68,44
537,46	-17,58
537,66	88,92
537,861	37,72
538,062	80,72
538,263	-3,24
538,463	193,36
538,664	107,35
538,865	39,76
539,065	158,55
539,266	168,79
539,466	95,06
539,667	142,16
539,868	62,29
540,068	156,5
540,269	115,54
540,469	142,16
540,67	230,23
540,87	168,79
541,071	50
541,271	103,25
541,472	88,92
541,672	265,04
541,873	129,88
542,073	0,85
542,274	131,92
542,474	115,54
542,675	160,59
542,875	115,54
543,075	50
543,276	123,73
543,476	99,16
543,676	154,45
543,877	107,35
544,077	115,54
544,277	119,64
544,478	162,64
544,678	109,4
544,878	201,55
545,078	88,92
545,279	86,87
545,479	29,52
545,679	41,81
545,879	76,63
546,079	127,83
546,28	-7,34
546,48	25,43
546,68	183,12
546,88	111,44
547,08	156,5
547,28	170,83
547,48	23,38
547,68	199,51
547,88	125,78
548,081	109,4
548,281	9,05
548,481	-7,34
548,681	66,39
548,881	41,81
549,081	133,97
549,28	54,1
549,48	66,39
549,68	148,31
549,88	82,77
550,08	31,57
550,28	50
550,48	211,79
550,68	99,16
550,88	58,2
551,08	123,73
551,279	209,75
551,479	144,21
551,679	115,54
551,879	31,57
552,079	187,22
552,278	47,96
552,478	136,02
552,678	131,92
552,878	236,37
553,077	27,48
553,277	-13,48
553,477	56,15
553,676	121,68
553,876	105,3
554,076	127,83
554,275	90,96
554,475	101,2
554,674	115,54
554,874	78,68
555,074	-9,39
555,273	115,54
555,473	70,48
555,672	82,77
555,872	58,2
556,071	160,59
556,271	82,77
556,47	70,48
556,67	138,07
556,869	172,88
557,068	101,2
557,268	97,11
557,467	82,77
557,667	168,79
557,866	58,2
558,065	95,06
558,265	95,06
558,464	109,4
558,663	68,44
558,863	111,44
559,062	125,78
559,261	103,25
559,461	162,64
559,66	62,29
559,859	-17,58
560,058	84,82
560,258	13,14
560,457	76,63
560,656	197,46
560,855	-11,43
561,054	78,68
561,253	95,06
561,453	86,87
561,652	37,72
561,851	136,02
562,05	127,83
562,249	37,72
562,448	138,07
562,647	-9,39
562,846	17,24
563,045	164,69
563,244	97,11
563,443	125,78
563,642	123,73
563,841	62,29
564,04	148,31
564,239	90,96
564,438	29,52
564,637	33,62
564,836	123,73
565,035	64,34
565,234	60,24
565,432	146,26
565,631	121,68
565,83	140,12
566,029	119,64
566,228	133,97
566,427	193,36
566,625	93,01
566,824	142,16
567,023	103,25
567,222	123,73
567,42	103,25
567,619	129,88
567,818	113,49
568,016	205,65
568,215	86,87
568,414	230,23
568,612	162,64
568,811	191,31
569,01	197,46
569,208	47,96
569,407	160,59
569,605	254,8
569,804	160,59
570,002	267,09
570,201	181,07
570,4	277,33
570,598	181,07
570,797	219,99
570,995	160,59
571,193	160,59
571,392	103,25
571,59	47,96
571,789	248,66
571,987	168,79
572,186	176,98
572,384	197,46
572,582	142,16
572,781	287,57
572,979	154,45
573,177	219,99
573,376	205,65
573,574	322,38
573,772	156,5
573,971	205,65
574,169	140,12
574,367	168,79
574,565	166,74
574,763	99,16
574,962	181,07
575,16	152,4
575,358	156,5
575,556	148,31
575,754	140,12
575,952	158,55
576,151	213,84
576,349	295,76
576,547	152,4
576,745	254,8
576,943	160,59
577,141	197,46
577,339	217,94
577,537	211,79
577,735	283,47
577,933	273,23
578,131	156,5
578,329	340,82
578,527	234,32
578,725	303,95
578,923	179,03
579,121	277,33
579,319	136,02
579,516	230,23
579,714	379,73
579,912	271,19
580,11	197,46
580,308	369,49
580,506	275,28
580,704	209,75
580,901	269,14
581,099	430,93
581,297	316,24
581,495	443,21
581,692	375,63
581,89	375,63
582,088	373,58
582,285	373,58
582,483	334,67
582,681	326,48
582,878	303,95
583,076	349,01
583,274	283,47
583,471	328,53
583,669	392,02
583,866	197,46
584,064	314,19
584,262	213,84
584,459	248,66
584,657	217,94
584,854	295,76
585,052	252,75
585,249	215,89
585,447	244,56
585,644	140,12
585,841	238,42
586,039	246,61
586,236	230,23
586,434	179,03
586,631	148,31
586,828	246,61
587,026	228,18
587,223	183,12
587,42	209,75
587,618	219,99
587,815	336,72
588,012	314,19
588,21	164,69
588,407	308,05
588,604	353,1
588,801	267,09
588,999	316,24
589,196	320,34
589,393	234,32
589,59	205,65
589,787	236,37
589,984	242,51
590,182	201,55
590,379	162,64
590,576	154,45
590,773	131,92
590,97	131,92
591,167	174,93
591,364	281,43
591,561	166,74
591,758	291,66
591,955	353,1
592,152	207,7
592,349	185,17
592,546	260,95
592,743	201,55
592,94	230,23
593,137	215,89
593,334	312,14
593,531	322,38
593,727	248,66
593,924	258,9
594,121	267,09
594,318	256,85
594,515	260,95
594,712	283,47
594,908	349,01
595,105	119,64
595,302	228,18
595,499	168,79
595,696	308,05
595,892	115,54
596,089	195,41
596,286	273,23
596,482	334,67
596,679	244,56
596,876	197,46
597,072	236,37
597,269	197,46
597,466	254,8
597,662	222,03
597,859	224,08
598,055	189,27
598,252	254,8
598,448	269,14
598,645	293,71
598,841	283,47
599,038	342,86
599,234	273,23
599,431	236,37
599,627	213,84
599,824	228,18
600,02	156,5
600,217	213,84
600,413	215,89
600,609	152,4
600,806	392,02
601,002	238,42
601,198	127,83
601,395	199,51
601,591	168,79
601,787	283,47
601,984	383,82
602,18	224,08
602,376	224,08
602,572	279,38
602,769	332,62
602,965	342,86
603,161	385,87
603,357	320,34
603,553	301,9
603,75	258,9
603,946	250,71
604,142	267,09
604,338	334,67
604,534	236,37
604,73	277,33
604,926	201,55
605,122	338,77
605,318	162,64
605,514	275,28
605,71	185,17
605,906	238,42
606,102	201,55
606,298	250,71
606,494	246,61
606,69	346,96
606,886	285,52
607,082	215,89
607,278	246,61
607,474	254,8
607,67	238,42
607,866	86,87
608,062	246,61
608,257	213,84
608,453	142,16
608,649	271,19
608,845	185,17
609,041	197,46
609,236	265,04
609,432	222,03
609,628	271,19
609,824	242,51
610,019	172,88
610,215	142,16
610,411	217,94
610,606	213,84
610,802	70,48
610,998	133,97
611,193	78,68
611,389	45,91
611,584	217,94
611,78	74,58
611,976	97,11
612,171	308,05
612,367	228,18
612,562	217,94
612,758	246,61
612,953	160,59
613,149	101,2
613,344	283,47
613,539	107,35
613,735	310,1
613,93	197,46
614,126	185,17
614,321	277,33
614,517	287,57
614,712	230,23
614,907	281,43
615,103	136,02
615,298	103,25
615,493	123,73
615,688	199,51
615,884	176,98
616,079	213,84
616,274	176,98
616,47	82,77
616,665	115,54
616,86	148,31
617,055	115,54
617,25	78,68
617,445	121,68
617,641	170,83
617,836	82,77
618,031	107,35
618,226	121,68
618,421	109,4
618,616	117,59
618,811	127,83
619,006	37,72
619,201	326,48
619,396	103,25
619,591	127,83
619,786	107,35
619,981	152,4
620,176	66,39
620,371	82,77
620,566	138,07
620,761	201,55
620,956	191,31
621,151	115,54
621,346	172,88
621,541	70,48
621,735	189,27
621,93	109,4
622,125	193,36
622,32	84,82
622,515	23,38
622,709	217,94
622,904	197,46
623,099	172,88
623,294	209,75
623,488	152,4
623,683	222,03
623,878	170,83
624,072	217,94
624,267	64,34
624,462	164,69
624,656	99,16
624,851	136,02
625,046	9,05
625,24	107,35
625,435	39,76
625,629	80,72
625,824	224,08
626,018	125,78
626,213	123,73
626,407	131,92
626,602	115,54
626,796	90,96
626,991	170,83
627,185	95,06
627,38	107,35
627,574	138,07
627,768	172,88
627,963	107,35
628,157	127,83
628,352	33,62
628,546	117,59
628,74	138,07
628,935	191,31
629,129	121,68
629,323	279,38
629,517	41,81
629,712	76,63
629,906	113,49
630,1	176,98
630,294	162,64
630,489	129,88
630,683	41,81
630,877	99,16
631,071	146,26
631,265	133,97
631,459	111,44
631,653	160,59
631,848	197,46
632,042	101,2
632,236	68,44
632,43	158,55
632,624	154,45
632,818	156,5
633,012	195,41
633,206	207,7
633,4	129,88
633,594	203,6
633,788	191,31
633,982	111,44
634,176	203,6
634,369	117,59
634,563	97,11
634,757	37,72
634,951	82,77
635,145	160,59
635,339	148,31
635,533	170,83
635,726	107,35
635,92	50
636,114	17,24
636,308	107,35
636,501	13,14
636,695	160,59
636,889	37,72
637,083	119,64
637,276	117,59
637,47	11,09
637,664	43,86
637,857	64,34
638,051	107,35
638,244	127,83
638,438	107,35
638,632	199,51
638,825	21,33
639,019	238,42
639,212	43,86
639,406	179,03
639,599	70,48
639,793	97,11
639,986	164,69
640,18	168,79
640,373	127,83
640,567	66,39
640,76	90,96
640,954	131,92
641,147	23,38
641,34	41,81
641,534	115,54
641,727	183,12
641,92	93,01
642,114	111,44
642,307	127,83
642,5	123,73
642,694	62,29
642,887	72,53
643,08	117,59
643,273	183,12
643,467	129,88
643,66	80,72
643,853	107,35
644,046	109,4
644,239	123,73
644,432	93,01
644,626	54,1
644,819	31,57
645,012	121,68
645,205	162,64
645,398	144,21
645,591	90,96
645,784	9,05
645,977	72,53
646,17	21,33
646,363	127,83
646,556	-1,19
646,749	15,19
646,942	60,24
647,135	197,46
647,328	41,81
647,521	115,54
647,714	62,29
647,907	82,77
648,099	-40,11
648,292	144,21
648,485	103,25
648,678	138,07
648,871	88,92
649,064	97,11
649,256	4,95
649,449	25,43
649,642	127,83
649,835	66,39
650,027	119,64
650,22	170,83
650,413	99,16
650,605	148,31
650,798	-11,43
650,991	88,92
651,183	19,29
651,376	172,88
651,568	189,27
651,761	209,75
651,954	238,42
652,146	170,83
652,339	234,32
652,531	265,04
652,724	123,73
652,916	107,35
653,109	99,16
653,301	273,23
653,494	154,45
653,686	209,75
653,879	238,42
654,071	353,1
654,263	228,18
654,456	328,53
654,648	895,82
654,84	2556,72
655,033	6660,85
655,225	13759,11
655,417	23466,48
655,61	33745,23
655,802	43890,87
655,994	52920,37
656,186	60035,01
656,379	63070,1
656,571	62173,09
656,763	59940,8
656,955	56780,79
657,148	53532,71
657,34	49444,96
657,532	43913,4
657,724	39887,09
657,916	34988,35
658,108	30087,56
658,3	25326,03
658,492	21023,25
658,684	17216,08
658,876	14262,91
659,068	11799,2
659,26	9411,27
659,452	7289,57
659,644	5423,87
659,836	3775,26
660,028	2812,71
660,22	1835,83
660,412	1360,7
660,604	1010,5
660,796	754,51
660,988	699,21
661,18	484,17
661,372	555,85
661,563	330,58
661,755	295,76
661,947	301,9
662,139	152,4
662,331	176,98
662,522	217,94
662,714	156,5
662,906	99,16
663,097	189,27
663,289	133,97
663,481	93,01
663,673	150,36
663,864	172,88
664,056	230,23
664,247	70,48
664,439	203,6
664,631	131,92
664,822	162,64
665,014	129,88
665,205	166,74
665,397	25,43
665,588	129,88
665,78	90,96
665,971	154,45
666,163	54,1
666,354	82,77
666,546	64,34
666,737	50
666,929	37,72
667,12	54,1
667,311	166,74
667,503	45,91
667,694	82,77
667,885	90,96
668,077	158,55
668,268	97,11
668,459	45,91
668,651	129,88
668,842	123,73
669,033	93,01
669,224	88,92
669,416	250,71
669,607	39,76
669,798	107,35
669,989	119,64
670,18	0,85
670,371	31,57
670,563	4,95
670,754	215,89
670,945	119,64
671,136	86,87
671,327	62,29
671,518	123,73
671,709	193,36
671,9	93,01
672,091	185,17
672,282	109,4
672,473	45,91
672,664	39,76
672,855	82,77
673,046	119,64
673,237	144,21
673,428	80,72
673,619	70,48
673,809	-56,49
674	119,64
674,191	50
674,382	41,81
674,573	99,16
674,764	119,64
674,954	158,55
675,145	-21,67
675,336	13,14
675,527	31,57
675,717	47,96
675,908	72,53
676,099	29,52
676,289	74,58
676,48	-40,11
676,671	33,62
676,861	66,39
677,052	58,2
677,243	47,96
677,433	-9,39
677,624	138,07
677,814	152,4
678,005	0,85
678,195	62,29
678,386	62,29
678,576	72,53
678,767	-3,24
678,957	21,33
679,148	41,81
679,338	127,83
679,529	131,92
679,719	82,77
679,909	156,5
680,1	193,36
680,29	70,48
680,481	-48,3
680,671	76,63
680,861	123,73
681,052	47,96
681,242	-52,39
681,432	17,24
681,622	23,38
681,813	-50,35
682,003	60,24
682,193	31,57
682,383	-23,72
682,573	-5,29
682,764	0,85
682,954	74,58
683,144	111,44
683,334	68,44
683,524	37,72
683,714	27,48
683,904	123,73
684,094	54,1
684,284	82,77
684,474	123,73
684,664	129,88
684,854	25,43
685,044	68,44
685,234	-1,19
685,424	33,62
685,614	-9,39
685,804	164,69
685,994	64,34
686,184	60,24
686,374	50
686,564	64,34
686,753	25,43
686,943	21,33
687,133	105,3
687,323	-50,35
687,513	-3,24
687,702	37,72
687,892	-23,72
688,082	140,12
688,272	88,92
688,461	0,85
688,651	72,53
688,841	64,34
689,03	43,86
689,22	-7,34
689,41	88,92
689,599	-27,82
689,789	-81,07
689,979	127,83
690,168	27,48
690,358	187,22
690,547	68,44
690,737	56,15
690,926	142,16
691,116	43,86
691,305	39,76
691,495	95,06
691,684	-33,96
691,874	19,29
692,063	45,91
692,252	121,68
692,442	123,73
692,631	41,81
692,82	-5,29
693,01	54,1
693,199	2,9
693,388	86,87
693,578	160,59
693,767	58,2
693,956	113,49
694,146	105,3
694,335	80,72
694,524	41,81
694,713	150,36
694,902	25,43
695,092	11,09
695,281	107,35
695,47	17,24
695,659	-17,58
695,848	45,91
696,037	0,85
696,226	74,58
696,415	54,1
696,604	113,49
696,793	123,73
696,982	45,91
697,171	45,91
697,36	9,05
697,549	70,48
697,738	-72,87
697,927	7
698,116	-66,73
698,305	56,15
698,494	37,72
698,683	-21,67
698,872	148,31
699,061	-5,29
699,25	2,9
699,438	136,02
699,627	-13,48
699,816	156,5
700,005	-11,43
700,193	107,35
700,382	113,49
700,571	50
700,76	23,38
700,948	88,92
701,137	107,35
701,326	58,2
701,514	-13,48
701,703	80,72
701,892	4,95
702,08	183,12
702,269	31,57
702,457	-38,06
702,646	72,53
702,834	62,29
703,023	70,48
703,212	133,97
703,4	160,59
703,589	97,11
703,777	50
703,965	31,57
704,154	9,05
704,342	29,52
704,531	58,2
704,719	68,44
704,907	121,68
705,096	-40,11
705,284	19,29
705,472	90,96
705,661	82,77
705,849	90,96
706,037	148,31
706,226	117,59
706,414	74,58
706,602	31,57
706,79	209,75
706,979	31,57
707,167	78,68
707,355	-46,25
707,543	86,87
707,731	58,2
707,919	29,52
708,107	105,3
708,296	21,33
708,484	-27,82
708,672	133,97
708,86	29,52
709,048	93,01
709,236	72,53
709,424	66,39
709,612	127,83
709,8	-97,45
709,988	47,96
710,176	117,59
710,364	129,88
710,551	90,96
710,739	-15,53
710,927	23,38
711,115	45,91
711,303	41,81
711,491	156,5
711,679	-19,63
711,866	99,16
712,054	56,15
712,242	179,03
712,43	105,3
712,617	66,39
712,805	82,77
712,993	7
713,181	-7,34
713,368	105,3
713,556	0,85
713,744	82,77
713,931	181,07
714,119	-7,34
714,306	-50,35
714,494	-7,34
714,682	43,86
714,869	-48,3
715,057	0,85
715,244	-5,29
715,432	31,57
715,619	7
715,807	74,58
715,994	-17,58
716,182	11,09
716,369	62,29
716,556	113,49
716,744	-31,91
716,931	-36,01
717,119	50
717,306	35,67
717,493	31,57
717,681	-11,43
717,868	88,92
718,055	119,64
718,242	-3,24
718,43	50
718,617	33,62
718,804	74,58
718,991	66,39
719,179	64,34
719,366	29,52
719,553	-25,77
719,74	54,1
719,927	33,62
720,114	70,48
720,301	-48,3
720,488	0,85
720,676	-27,82
720,863	115,54
721,05	41,81
721,237	27,48
721,424	80,72
721,611	58,2
721,798	-60,59
721,985	-17,58
722,172	-58,54
722,358	-27,82
722,545	64,34
722,732	123,73
722,919	74,58
723,106	72,53
723,293	17,24
723,48	45,91
723,667	-23,72
723,853	99,16
724,04	93,01
724,227	39,76
724,414	4,95
724,6	15,19
724,787	197,46
724,974	203,6
725,161	-72,87
725,347	-89,26
725,534	72,53
725,72	140,12
725,907	123,73
726,094	68,44
726,28	76,63
726,467	58,2
726,653	-7,34
726,84	111,44
727,027	146,26
727,213	72,53
727,4	172,88
727,586	90,96
727,773	60,24
727,959	88,92
728,145	21,33
728,332	50
728,518	-17,58
728,705	58,2
728,891	86,87
729,077	93,01
729,264	-19,63
729,45	33,62
729,636	162,64
729,823	29,52
730,009	74,58
730,195	60,24
730,382	164,69
730,568	-5,29
730,754	62,29
730,94	84,82
731,126	72,53
731,313	7
731,499	60,24
731,685	64,34
731,871	140,12
732,057	47,96
732,243	90,96
732,429	129,88
732,615	125,78
732,801	117,59
732,987	90,96
733,173	25,43
733,359	82,77
733,545	29,52
733,731	33,62
733,917	115,54
734,103	117,59
734,289	74,58
734,475	-7,34
734,661	207,7
734,847	11,09
735,033	58,2
735,219	166,74
735,404	62,29
735,59	70,48
735,776	35,67
735,962	25,43
736,148	113,49
736,333	52,05
736,519	115,54
736,705	33,62
736,89	-7,34
737,076	-3,24
737,262	-31,91
737,447	0,85
737,633	-11,43
737,819	82,77
738,004	-27,82
738,19	17,24
738,375	11,09
738,561	62,29
738,747	72,53
738,932	-31,91
739,118	174,93
739,303	101,2
739,489	74,58
739,674	50
739,859	2,9
740,045	76,63
740,23	4,95
740,416	-146,6
740,601	66,39
740,786	35,67
740,972	0,85
741,157	86,87
741,342	-70,83
741,528	-72,87
741,713	50
741,898	0,85
742,084	25,43
742,269	107,35
742,454	70,48
742,639	58,2
742,824	82,77
743,01	99,16
743,195	152,4
743,38	62,29
743,565	-38,06
743,75	60,24
743,935	90,96
744,12	37,72
744,305	-13,48
744,49	33,62
744,675	-3,24
744,86	74,58
745,045	54,1
745,23	7
745,415	41,81
745,6	213,84
745,785	0,85
745,97	131,92
746,155	86,87
746,34	125,78
746,525	99,16
746,71	119,64
746,895	-27,82
747,079	7
747,264	25,43
747,449	70,48
747,634	113,49
747,819	99,16
748,003	101,2
748,188	52,05
748,373	93,01
748,557	107,35
748,742	72,53
748,927	115,54
749,111	25,43
749,296	29,52
749,481	97,11
749,665	37,72
749,85	121,68
750,034	80,72
750,219	17,24
750,404	0,85
750,588	50
750,773	-3,24
750,957	74,58
751,141	35,67
751,326	66,39
751,51	66,39
751,695	43,86
751,879	56,15
752,064	148,31
752,248	76,63
752,432	123,73
752,617	136,02
752,801	131,92
752,985	33,62
753,17	80,72
753,354	101,2
753,538	31,57
753,722	-48,3
753,907	50
754,091	-11,43
754,275	103,25
754,459	25,43
754,643	-7,34
754,828	78,68
755,012	37,72
755,196	-83,11
755,38	68,44
755,564	19,29
755,748	74,58
755,932	97,11
756,116	131,92
756,3	82,77
756,484	2,9
756,668	97,11
756,852	-72,87
757,036	54,1
757,22	70,48
757,404	70,48
757,588	64,34
757,772	148,31
757,956	82,77
758,14	115,54
758,323	74,58
758,507	90,96
758,691	17,24
758,875	162,64
759,059	140,12
759,242	39,76
759,426	82,77
759,61	17,24
759,794	-13,48
759,977	197,46
760,161	252,75
760,345	115,54
760,528	82,77
760,712	9,05
760,895	117,59
761,079	-36,01
761,263	41,81
761,446	9,05
761,63	-40,11
761,813	152,4
761,997	54,1
762,18	-50,35
762,364	17,24
762,547	-52,39
762,731	-36,01
762,914	68,44
763,098	60,24
763,281	78,68
763,464	41,81
763,648	-1,19
763,831	-42,15
764,015	50
764,198	121,68
764,381	-1,19
764,564	-9,39
764,748	64,34
764,931	66,39
765,114	70,48
765,297	123,73
765,481	0,85
765,664	-9,39
765,847	19,29
766,03	133,97
766,213	80,72
766,397	45,91
766,58	-40,11
766,763	129,88
766,946	35,67
767,129	25,43
767,312	37,72
767,495	72,53
767,678	-17,58
767,861	70,48
768,044	95,06
768,227	68,44
768,41	-23,72
768,593	90,96
768,776	82,77
768,959	31,57
769,142	103,25
769,324	-7,34
769,507	23,38
769,69	39,76
769,873	0,85
770,056	119,64
770,239	47,96
770,421	76,63
770,604	58,2
770,787	17,24
770,97	-5,29
771,152	25,43
771,335	99,16
771,518	-31,91
771,7	95,06
771,883	54,1
772,066	-72,87
772,248	58,2
772,431	111,44
772,613	56,15
772,796	-17,58
772,978	72,53
773,161	150,36
773,343	9,05
773,526	23,38
773,708	-130,22
773,891	-111,78
774,073	-1,19
774,256	50
774,438	111,44
774,621	50
774,803	-15,53
774,985	-64,68
775,168	78,68
775,35	-31,91
775,532	52,05
775,715	23,38
775,897	111,44
776,079	45,91
776,261	41,81
776,444	127,83
776,626	90,96
776,808	82,77
776,99	9,05
777,173	168,79
777,355	101,2
777,537	156,5
777,719	152,4
777,901	84,82
778,083	66,39
778,265	119,64
778,447	119,64
778,629	74,58
778,811	148,31
778,993	140,12
779,175	248,66
779,357	82,77
779,539	-60,59
779,721	23,38
779,903	72,53
780,085	25,43
780,267	80,72
780,449	115,54
780,631	9,05
780,812	154,45
780,994	66,39
781,176	84,82
781,358	33,62
781,54	56,15
781,721	70,48
781,903	50
782,085	54,1
782,267	127,83
782,448	-25,77
782,63	52,05
782,812	78,68
782,993	115,54
783,175	56,15
783,357	21,33
783,538	54,1
783,72	33,62
783,901	-17,58
784,083	58,2
784,264	105,3
784,446	-27,82
784,627	-36,01
784,809	103,25
784,99	-11,43
785,172	-5,29
785,353	-9,39
785,535	-23,72
785,716	-3,24
785,897	-83,11
786,079	39,76
786,26	52,05
786,441	58,2
786,623	-79,02
786,804	39,76
786,985	-7,34
787,167	62,29
787,348	56,15
787,529	-29,87
787,71	150,36
787,891	23,38
788,073	0,85
788,254	4,95
788,435	105,3
788,616	50
788,797	-44,2
788,978	-64,68
789,159	2,9
789,34	103,25
789,522	60,24
789,703	11,09
789,884	58,2
790,065	66,39
790,246	90,96
790,427	-40,11
790,607	146,26
790,788	7
790,969	-3,24
791,15	-3,24
791,331	-19,63
791,512	25,43
791,693	-19,63
791,874	35,67
792,054	107,35
792,235	35,67
792,416	-23,72
792,597	-15,53
792,778	93,01
792,958	-33,96
793,139	9,05
793,32	50
793,5	-3,24
793,681	97,11
793,862	2,9
794,042	88,92
794,223	-31,91
794,404	4,95
794,584	-40,11
794,765	45,91
794,945	23,38
795,126	82,77
795,306	146,26
795,487	68,44
795,667	-29,87
795,848	43,86
796,028	41,81
796,209	131,92
796,389	47,96
796,57	43,86
796,75	-25,77
796,93	29,52
797,111	56,15
797,291	-3,24
797,471	111,44
797,652	-1,19
797,832	50
798,012	37,72
798,192	19,29
798,373	0,85
798,553	52,05
798,733	37,72
798,913	-62,63
799,093	-9,39
799,274	58,2
799,454	78,68
799,634	80,72
799,814	17,24
799,994	21,33
800,174	39,76
800,354	-81,07
800,534	-68,78
800,714	31,57
800,894	9,05
801,074	2,9
801,254	7
801,434	146,26
801,614	-17,58
801,794	-15,53
801,974	1489,73
802,154	-7,34
802,334	70,48
802,514	-62,63
802,693	11,09
802,873	43,86
803,053	103,25
803,233	58,2
803,413	-9,39
803,592	41,81
803,772	56,15
803,952	33,62
804,131	-13,48
804,311	95,06
804,491	50
804,67	25,43
804,85	-3,24
805,03	66,39
805,209	148,31
805,389	-11,43
805,568	41,81
805,748	-5,29
805,928	41,81
806,107	64,34
806,287	39,76
806,466	58,2
806,646	-15,53
806,825	9,05
807,004	25,43
807,184	25,43
807,363	90,96
807,543	41,81
807,722	-15,53
807,901	37,72
808,081	50
808,26	-113,83
808,439	-3,24
808,619	-25,77
808,798	-27,82
808,977	-44,2
809,156	45,91
809,336	-36,01
809,515	78,68
809,694	-52,39
809,873	17,24
810,052	21,33
810,231	64,34
810,411	72,53
810,59	90,96
810,769	-19,63
810,948	80,72
811,127	-76,97
811,306	60,24
811,485	37,72
811,664	56,15
811,843	33,62
812,022	-13,48
812,201	-3,24
812,38	-7,34
812,559	-7,34
812,737	17,24
812,916	-48,3
813,095	-50,35
813,274	123,73
813,453	-3,24
813,632	-19,63
813,811	144,21
813,989	-122,02
814,168	56,15
814,347	-56,49
814,526	41,81
814,704	125,78
814,883	-3,24
815,062	-15,53
815,24	107,35
815,419	-9,39
815,598	82,77
815,776	-81,07
815,955	-19,63
816,133	-105,64
816,312	23,38
816,49	-23,72
816,669	29,52
816,847	17,24
817,026	74,58
817,204	-1,19
817,383	-50,35
817,561	-50,35
817,74	-7,34
817,918	31,57
818,097	4,95
818,275	43,86
818,453	62,29
818,632	50
818,81	11,09
818,988	41,81
819,167	-19,63
819,345	33,62
819,523	-62,63
819,701	31,57
819,879	105,3
820,058	62,29
820,236	54,1
820,414	58,2
820,592	-9,39
820,77	103,25
820,948	-5,29
821,127	-17,58
821,305	27,48
821,483	2,9
821,661	133,97
821,839	-40,11
822,017	-38,06
822,195	-23,72
822,373	74,58
822,551	23,38
822,729	45,91
822,907	15,19
823,085	25,43
823,262	56,15
823,44	-33,96
823,618	13,14
823,796	13,14
823,974	-13,48
824,152	23,38
824,329	-3,24
824,507	-9,39
824,685	80,72
824,863	-72,87
825,04	23,38
825,218	13,14
825,396	29,52
825,574	70,48
825,751	86,87
825,929	41,81
826,107	-60,59
826,284	-74,92
826,462	72,53
826,639	-68,78
826,817	-97,45
826,994	-7,34
827,172	-19,63
827,349	86,87
827,527	43,86
827,704	74,58
827,882	119,64
828,059	31,57
828,237	15,19
828,414	117,59
828,591	-109,74
828,769	35,67
828,946	-72,87
829,124	107,35
829,301	88,92
829,478	58,2
829,655	33,62
829,833	-17,58
830,01	-56,49
830,187	27,48
830,364	-25,77
830,542	13,14
830,719	70,48
830,896	62,29
831,073	-52,39
831,25	47,96
831,427	58,2
831,604	41,81
831,782	50
831,959	-9,39
832,136	2,9
832,313	23,38
832,49	-42,15
832,667	60,24
832,844	7
833,021	164,69
833,198	101,2
833,374	56,15
833,551	-44,2
833,728	56,15
833,905	-27,82
834,082	-126,12
834,259	19,29
834,436	68,44
834,612	-36,01
834,789	31,57
834,966	-13,48
835,143	68,44
835,319	50
835,496	9,05
835,673	39,76
835,85	76,63
836,026	19,29
836,203	103,25
836,38	39,76
836,556	35,67
836,733	-95,4
836,909	78,68
837,086	39,76
837,262	-36,01
837,439	31,57
837,616	-113,83
837,792	41,81
837,968	-40,11
838,145	-54,44
838,321	-27,82
838,498	50
838,674	58,2
838,851	15,19
839,027	72,53
839,203	-17,58
839,38	31,57
839,556	-7,34
839,732	113,49
839,909	7
840,085	31,57
840,261	-50,35
840,437	45,91
840,614	-54,44
840,79	56,15
840,966	54,1
841,142	58,2
841,318	33,62
841,494	37,72
841,671	113,49
841,847	-7,34
842,023	-23,72
842,199	41,81
842,375	11,09
842,551	-58,54
842,727	-9,39
842,903	72,53
843,079	15,19
843,255	131,92
843,431	17,24
843,607	37,72
843,783	-81,07
843,959	21,33
844,134	56,15
844,31	144,21
844,486	41,81
844,662	54,1
844,838	64,34
845,013	97,11
845,189	176,98
845,365	45,91
845,541	15,19
845,716	13,14
845,892	107,35
846,068	-23,72
846,244	41,81
846,419	146,26
846,595	-36,01
846,77	13,14
846,946	197,46
847,122	15,19
847,297	99,16
847,473	150,36
847,648	-11,43
847,824	-11,43
847,999	-23,72
848,175	-29,87
848,35	43,86
848,526	74,58
848,701	41,81
848,876	156,5
849,052	133,97
849,227	-44,2
849,403	2,9
849,578	-7,34
849,753	39,76
849,929	31,57
850,104	17,24
850,279	33,62
850,454	45,91
850,63	70,48
850,805	13,14
850,98	-60,59
851,155	-5,29
851,33	60,24
851,505	-44,2
851,681	133,97
851,856	-62,63
852,031	99,16
852,206	121,68
852,381	25,43
852,556	64,34
852,731	45,91
852,906	107,35
853,081	58,2
853,256	156,5
853,431	-76,97
853,606	-7,34
853,781	-50,35
853,956	-97,45
854,131	-29,87
854,305	-36,01
854,48	-27,82
854,655	-36,01
854,83	-27,82
855,005	-11,43
855,18	43,86
855,354	0,85
855,529	70,48
855,704	39,76
855,879	64,34
856,053	-29,87
856,228	72,53
856,403	-31,91
856,577	82,77
856,752	-64,68
856,926	39,76
857,101	62,29
857,276	-58,54
857,45	56,15
857,625	93,01
857,799	39,76
857,974	-46,25
858,148	-60,59
858,323	9,05
858,497	11,09
858,672	13,14
858,846	7
859,02	58,2
859,195	-52,39
859,369	13,14
859,543	45,91
859,718	-1,19
859,892	56,15
860,066	70,48
860,241	-11,43
860,415	-40,11
860,589	0,85
860,763	21,33
860,938	-40,11
861,112	50
861,286	4,95
861,46	60,24
861,634	29,52
861,808	37,72
861,982	-40,11
862,157	-36,01
862,331	0,85
862,505	-23,72
862,679	-146,6
862,853	43,86
863,027	-27,82
863,201	146,26
863,375	27,48
863,549	19,29
863,722	45,91
863,896	176,98
864,07	7
864,244	7
864,418	60,24
864,592	66,39
864,766	7
864,939	27,48
865,113	-64,68
865,287	84,82
865,461	-93,35
865,634	2,9
865,808	0,85
865,982	-5,29
866,156	-7,34
866,329	-15,53
866,503	80,72
866,676	95,06
866,85	58,2
867,024	-85,16
867,197	103,25
867,371	86,87
867,544	119,64
867,718	-72,87
867,891	90,96
868,065	-11,43
868,238	-44,2
868,412	70,48
868,585	31,57
868,759	-44,2
868,932	25,43
869,105	-81,07
869,279	2,9
869,452	-23,72
869,625	33,62
869,799	84,82
869,972	-81,07
870,145	-56,49
870,319	103,25
870,492	50
870,665	23,38
870,838	-29,87
871,011	-81,07
871,185	60,24
871,358	-113,83
871,531	97,11
871,704	-25,77
871,877	82,77
872,05	-52,39
872,223	21,33
872,396	90,96
872,569	15,19
872,742	-29,87
872,915	60,24
873,088	-21,67
873,261	-1,19
873,434	41,81
873,607	33,62
873,78	74,58
873,953	-31,91
874,126	9,05
874,299	29,52
874,471	-7,34
874,644	19,29
874,817	60,24
874,99	127,83
875,163	-97,45
875,335	50
875,508	-21,67
875,681	123,73
875,853	-48,3
876,026	2,9
876,199	74,58
876,371	-3,24
876,544	-48,3
876,717	66,39
876,889	15,19
877,062	21,33
877,234	-64,68
877,407	-27,82
877,579	17,24
877,752	54,1
877,924	58,2
878,097	74,58
878,269	90,96
878,442	33,62
878,614	52,05
878,786	29,52
878,959	7
879,131	66,39
879,303	-179,37
879,476	13,14
879,648	58,2
879,82	66,39
879,993	-56,49
880,165	33,62
880,337	-15,53
880,509	27,48
880,681	-7,34
880,854	25,43
881,026	99,16
881,198	142,16
881,37	-38,06
881,542	29,52
881,714	25,43
881,886	-23,72
882,058	58,2
882,23	15,19
882,402	-1,19
882,574	54,1
882,746	58,2
882,918	29,52
883,09	45,91
883,262	0,85
883,434	-44,2
883,606	-109,74
883,778	-31,91
883,95	-19,63
884,122	25,43
884,293	99,16
884,465	29,52
884,637	140,12
884,809	-68,78
884,98	15,19
885,152	37,72
885,324	37,72
885,496	15,19
885,667	17,24
885,839	-11,43
886,011	50
886,182	-42,15
886,354	58,2
886,525	-27,82
886,697	23,38
886,869	47,96
887,04	-27,82
887,212	80,72
887,383	125,78
887,555	74,58
887,726	-40,11
887,897	0,85
888,069	0,85
888,24	56,15
888,412	-7,34
888,583	35,67
888,754	-3,24
888,926	25,43
889,097	64,34
889,268	-46,25
889,44	47,96
889,611	-81,07
889,782	-38,06
889,953	-54,44
890,125	41,81
890,296	-9,39
890,467	-54,44
890,638	37,72
890,809	0,85
890,98	17,24
891,151	60,24
891,323	125,78
891,494	27,48
891,665	17,24
891,836	-11,43
892,007	33,62
892,178	50
892,349	-33,96
892,52	-25,77
892,691	35,67
892,862	27,48
893,032	-122,02
893,203	-50,35
893,374	105,3
893,545	103,25
893,716	-9,39
893,887	7
894,057	-15,53
894,228	47,96
894,399	-36,01
894,57	101,2
894,74	2,9
894,911	101,2
895,082	82,77
895,253	-62,63
895,423	23,38
895,594	45,91
895,764	25,43
895,935	25,43
896,106	41,81
896,276	-19,63
896,447	31,57
896,617	-64,68
896,788	-70,83
896,958	-44,2
897,129	-40,11
897,299	0,85
897,47	121,68
897,64	82,77
897,81	4,95
897,981	0,85
898,151	-97,45
898,322	62,29
898,492	101,2
898,662	-54,44
898,832	39,76
899,003	0,85
899,173	23,38
899,343	13,14
899,513	11,09
