Data from hydrogene_USB4F104151__2__09-04-09-820.txt Node

Date: Wed Apr 15 09:04:09 EDT 2026
User: LaboPhy
Spectrometer: USB4F10415
Trigger mode: 4
Integration Time (sec): 1,000000E-1
Scans to average: 1
Electric dark correction enabled: true
Nonlinearity correction enabled: false
Boxcar width: 0
XAxis mode: Wavelengths
Number of Pixels in Spectrum: 3648
>>>>>Begin Spectral Data<<<<<
178,204	-343,38
178,424	-343,38
178,644	-343,38
178,864	-308,56
179,084	-361,81
179,304	-71
179,524	-9,56
179,744	-27,99
179,964	94,89
180,184	58,03
180,404	-34,13
180,624	-9,56
180,844	27,31
181,064	-30,04
181,283	-17,75
181,503	-71
181,723	90,79
181,943	-15,7
182,163	137,9
182,383	60,07
182,602	39,59
182,822	111,27
183,042	-27,99
183,262	-58,71
183,482	10,92
183,701	-13,65
183,921	-5,46
184,141	2,73
184,361	98,99
184,58	90,79
184,8	64,17
185,02	-7,51
185,239	101,03
185,459	45,74
185,679	74,41
185,898	-34,13
186,118	78,51
186,338	31,4
186,557	51,88
186,777	-58,71
186,997	-15,7
187,216	19,11
187,436	182,95
187,655	64,17
187,875	111,27
188,095	35,5
188,314	37,55
188,534	78,51
188,753	35,5
188,973	119,46
189,192	117,42
189,412	23,21
189,631	90,79
189,851	55,98
190,07	215,72
190,29	-1,37
190,509	109,22
190,729	78,51
190,948	131,75
191,168	217,77
191,387	90,79
191,607	55,98
191,826	92,84
192,045	47,79
192,265	-19,8
192,484	29,35
192,704	68,27
192,923	-75,09
193,142	141,99
193,362	60,07
193,581	68,27
193,8	19,11
194,02	39,59
194,239	-17,75
194,458	60,07
194,678	72,36
194,897	12,97
195,116	47,79
195,335	17,07
195,555	31,4
195,774	-9,56
195,993	66,22
196,212	47,79
196,432	-38,23
196,651	8,87
196,87	8,87
197,089	146,09
197,308	64,17
197,528	47,79
197,747	-19,8
197,966	62,12
198,185	51,88
198,404	-23,89
198,623	47,79
198,842	80,55
199,062	96,94
199,281	119,46
199,5	45,74
199,719	117,42
199,938	53,93
200,157	70,31
200,376	70,31
200,595	45,74
200,814	47,79
201,033	-32,08
201,252	135,85
201,471	111,27
201,69	37,55
201,909	82,6
202,128	92,84
202,347	15,02
202,566	25,26
202,785	-25,94
203,004	23,21
203,223	283,3
203,442	51,88
203,661	23,21
203,879	-11,61
204,098	109,22
204,317	19,11
204,536	68,27
204,755	88,75
204,974	86,7
205,193	92,84
205,411	217,77
205,63	141,99
205,849	58,03
206,068	-36,18
206,287	6,83
206,505	72,36
206,724	-30,04
206,943	12,97
207,162	55,98
207,381	25,26
207,599	4,78
207,818	31,4
208,037	6,83
208,255	76,46
208,474	51,88
208,693	51,88
208,911	37,55
209,13	146,09
209,349	19,11
209,567	80,55
209,786	43,69
210,005	113,32
210,223	60,07
210,442	-64,85
210,661	43,69
210,879	0,68
211,098	96,94
211,316	31,4
211,535	127,66
211,753	-1,37
211,972	47,79
212,191	-25,94
212,409	15,02
212,628	64,17
212,846	-3,41
213,065	19,11
213,283	119,46
213,502	10,92
213,72	92,84
213,938	41,64
214,157	-48,47
214,375	166,57
214,594	70,31
214,812	35,5
215,031	-7,51
215,249	-13,65
215,467	62,12
215,686	31,4
215,904	127,66
216,122	29,35
216,341	139,94
216,559	39,59
216,778	78,51
216,996	131,75
217,214	-19,8
217,432	15,02
217,651	-27,99
217,869	-11,61
218,087	-17,75
218,306	21,16
218,524	78,51
218,742	-38,23
218,96	10,92
219,179	-30,04
219,397	62,12
219,615	197,29
219,833	129,7
220,051	23,21
220,27	23,21
220,488	60,07
220,706	55,98
220,924	-44,37
221,142	-17,75
221,36	-9,56
221,578	55,98
221,796	29,35
222,015	25,26
222,233	-1,37
222,451	92,84
222,669	-1,37
222,887	31,4
223,105	64,17
223,323	105,13
223,541	31,4
223,759	115,37
223,977	23,21
224,195	113,32
224,413	66,22
224,631	-7,51
224,849	25,26
225,067	103,08
225,285	-27,99
225,503	64,17
225,721	-34,13
225,939	8,87
226,157	33,45
226,375	221,86
226,592	0,68
226,81	66,22
227,028	131,75
227,246	103,08
227,464	58,03
227,682	23,21
227,9	49,83
228,117	64,17
228,335	74,41
228,553	82,6
228,771	74,41
228,989	6,83
229,206	111,27
229,424	2,73
229,642	53,93
229,86	27,31
230,077	88,75
230,295	-64,85
230,513	-9,56
230,731	101,03
230,948	174,76
231,166	135,85
231,384	21,16
231,601	-34,13
231,819	152,23
232,037	29,35
232,254	-89,43
232,472	64,17
232,689	45,74
232,907	111,27
233,125	39,59
233,342	-50,52
233,56	-7,51
233,777	55,98
233,995	12,97
234,213	88,75
234,43	90,79
234,648	0,68
234,865	4,78
235,083	6,83
235,3	72,36
235,518	80,55
235,735	96,94
235,953	105,13
236,17	-42,32
236,388	4,78
236,605	-30,04
236,822	88,75
237,04	119,46
237,257	64,17
237,475	-46,42
237,692	43,69
237,909	62,12
238,127	-32,08
238,344	53,93
238,562	60,07
238,779	-36,18
238,996	29,35
239,214	23,21
239,431	80,55
239,648	-17,75
239,865	103,08
240,083	51,88
240,3	58,03
240,517	15,02
240,735	47,79
240,952	78,51
241,169	119,46
241,386	37,55
241,603	-7,51
241,821	-36,18
242,038	51,88
242,255	146,09
242,472	-95,57
242,689	31,4
242,907	58,03
243,124	4,78
243,341	37,55
243,558	-52,56
243,775	-25,94
243,992	-25,94
244,209	12,97
244,426	154,28
244,643	29,35
244,86	8,87
245,078	45,74
245,295	15,02
245,512	121,51
245,729	-25,94
245,946	84,65
246,163	23,21
246,38	21,16
246,597	49,83
246,814	12,97
247,031	-25,94
247,248	2,73
247,464	15,02
247,681	58,03
247,898	58,03
248,115	-11,61
248,332	-9,56
248,549	107,18
248,766	117,42
248,983	-1,37
249,2	43,69
249,417	96,94
249,633	4,78
249,85	62,12
250,067	-34,13
250,284	43,69
250,501	72,36
250,717	-21,85
250,934	-1,37
251,151	66,22
251,368	33,45
251,585	37,55
251,801	84,65
252,018	-25,94
252,235	84,65
252,451	15,02
252,668	-25,94
252,885	148,14
253,102	0,68
253,318	23,21
253,535	60,07
253,752	-40,28
253,968	-9,56
254,185	-52,56
254,401	27,31
254,618	60,07
254,835	62,12
255,051	115,37
255,268	107,18
255,484	2,73
255,701	-9,56
255,917	37,55
256,134	-9,56
256,351	-11,61
256,567	-107,86
256,784	19,11
257	-66,9
257,217	96,94
257,433	146,09
257,65	41,64
257,866	113,32
258,082	-66,9
258,299	-38,23
258,515	109,22
258,732	-5,46
258,948	-54,61
259,165	41,64
259,381	-25,94
259,597	-15,7
259,814	10,92
260,03	-3,41
260,246	39,59
260,463	78,51
260,679	98,99
260,895	41,64
261,112	47,79
261,328	12,97
261,544	-1,37
261,761	125,61
261,977	2,73
262,193	15,02
262,409	80,55
262,626	43,69
262,842	29,35
263,058	39,59
263,274	141,99
263,49	21,16
263,707	45,74
263,923	62,12
264,139	-42,32
264,355	25,26
264,571	25,26
264,787	43,69
265,004	92,84
265,22	49,83
265,436	-48,47
265,652	37,55
265,868	96,94
266,084	-83,28
266,3	15,02
266,516	-128,34
266,732	76,46
266,948	72,36
267,164	-1,37
267,38	66,22
267,596	45,74
267,812	154,28
268,028	58,03
268,244	10,92
268,46	43,69
268,676	-75,09
268,892	113,32
269,108	-17,75
269,324	-48,47
269,54	-66,9
269,756	88,75
269,972	21,16
270,188	53,93
270,403	4,78
270,619	-9,56
270,835	-34,13
271,051	8,87
271,267	6,83
271,483	15,02
271,698	101,03
271,914	19,11
272,13	41,64
272,346	6,83
272,562	-27,99
272,777	55,98
272,993	29,35
273,209	-85,33
273,425	105,13
273,64	-38,23
273,856	80,55
274,072	-5,46
274,287	0,68
274,503	12,97
274,719	68,27
274,934	72,36
275,15	-126,29
275,366	-71
275,581	-34,13
275,797	-5,46
276,012	27,31
276,228	-25,94
276,444	47,79
276,659	72,36
276,875	-32,08
277,09	82,6
277,306	8,87
277,521	-9,56
277,737	72,36
277,952	6,83
278,168	23,21
278,383	66,22
278,599	66,22
278,814	121,51
279,03	-9,56
279,245	37,55
279,461	-5,46
279,676	68,27
279,892	-38,23
280,107	-42,32
280,322	-40,28
280,538	27,31
280,753	-30,04
280,969	-36,18
281,184	-17,75
281,399	148,14
281,615	78,51
281,83	-7,51
282,045	-25,94
282,26	21,16
282,476	-9,56
282,691	88,75
282,906	84,65
283,122	15,02
283,337	-13,65
283,552	84,65
283,767	-25,94
283,983	-1,37
284,198	55,98
284,413	111,27
284,628	-66,9
284,843	88,75
285,058	105,13
285,274	12,97
285,489	37,55
285,704	174,76
285,919	-60,76
286,134	43,69
286,349	31,4
286,564	-17,75
286,779	70,31
286,995	51,88
287,21	-38,23
287,425	47,79
287,64	-85,33
287,855	10,92
288,07	-50,52
288,285	125,61
288,5	53,93
288,715	27,31
288,93	27,31
289,145	0,68
289,36	88,75
289,575	64,17
289,79	141,99
290,004	-13,65
290,219	103,08
290,434	-21,85
290,649	12,97
290,864	45,74
291,079	21,16
291,294	88,75
291,509	58,03
291,724	-34,13
291,938	4,78
292,153	31,4
292,368	-34,13
292,583	47,79
292,798	62,12
293,012	121,51
293,227	19,11
293,442	-71
293,657	51,88
293,871	86,7
294,086	41,64
294,301	185
294,516	98,99
294,73	47,79
294,945	-30,04
295,16	-19,8
295,374	62,12
295,589	105,13
295,804	27,31
296,018	23,21
296,233	78,51
296,447	19,11
296,662	-36,18
296,877	152,23
297,091	115,37
297,306	43,69
297,52	41,64
297,735	2,73
297,949	68,27
298,164	127,66
298,378	39,59
298,593	-15,7
298,807	-42,32
299,022	0,68
299,236	105,13
299,451	-83,28
299,665	-15,7
299,88	68,27
300,094	68,27
300,309	-7,51
300,523	31,4
300,737	39,59
300,952	23,21
301,166	-1,37
301,381	6,83
301,595	31,4
301,809	4,78
302,024	43,69
302,238	-60,76
302,452	47,79
302,667	53,93
302,881	101,03
303,095	150,18
303,309	6,83
303,524	12,97
303,738	-5,46
303,952	-50,52
304,166	39,59
304,381	-85,33
304,595	55,98
304,809	45,74
305,023	-7,51
305,237	47,79
305,452	8,87
305,666	31,4
305,88	72,36
306,094	58,03
306,308	84,65
306,522	74,41
306,736	37,55
306,95	109,22
307,164	-7,51
307,379	-32,08
307,593	152,23
307,807	162,47
308,021	111,27
308,235	35,5
308,449	-44,37
308,663	68,27
308,877	234,15
309,091	4,78
309,305	60,07
309,519	0,68
309,733	117,42
309,947	-52,56
310,161	105,13
310,374	80,55
310,588	144,04
310,802	-15,7
311,016	-50,52
311,23	31,4
311,444	-5,46
311,658	-42,32
311,872	90,79
312,085	23,21
312,299	55,98
312,513	117,42
312,727	-40,28
312,941	-50,52
313,154	31,4
313,368	2,73
313,582	10,92
313,796	92,84
314,009	-11,61
314,223	53,93
314,437	111,27
314,651	113,32
314,864	10,92
315,078	43,69
315,292	6,83
315,505	55,98
315,719	15,02
315,933	72,36
316,146	-54,61
316,36	-38,23
316,573	68,27
316,787	15,02
317,001	-17,75
317,214	15,02
317,428	-1,37
317,641	-54,61
317,855	23,21
318,068	15,02
318,282	84,65
318,495	176,81
318,709	74,41
318,922	-7,51
319,136	160,42
319,349	133,8
319,563	-1,37
319,776	45,74
319,99	19,11
320,203	90,79
320,417	29,35
320,63	82,6
320,843	84,65
321,057	129,7
321,27	43,69
321,483	92,84
321,697	166,57
321,91	27,31
322,124	127,66
322,337	68,27
322,55	39,59
322,763	49,83
322,977	6,83
323,19	43,69
323,403	101,03
323,617	51,88
323,83	76,46
324,043	-44,37
324,256	129,7
324,469	-9,56
324,683	72,36
324,896	62,12
325,109	113,32
325,322	17,07
325,535	121,51
325,748	105,13
325,962	19,11
326,175	45,74
326,388	96,94
326,601	4,78
326,814	58,03
327,027	96,94
327,24	105,13
327,453	-114
327,666	80,55
327,879	92,84
328,092	144,04
328,305	101,03
328,518	60,07
328,731	-25,94
328,944	4,78
329,157	8,87
329,37	51,88
329,583	215,72
329,796	154,28
330,009	-101,72
330,222	150,18
330,435	146,09
330,648	23,21
330,861	-5,46
331,073	141,99
331,286	19,11
331,499	49,83
331,712	45,74
331,925	43,69
332,138	-1,37
332,35	131,75
332,563	-66,9
332,776	148,14
332,989	2,73
333,202	12,97
333,414	12,97
333,627	76,46
333,84	47,79
334,053	119,46
334,265	-25,94
334,478	10,92
334,691	70,31
334,903	101,03
335,116	-9,56
335,329	29,35
335,541	135,85
335,754	160,42
335,966	-11,61
336,179	39,59
336,392	25,26
336,604	-25,94
336,817	131,75
337,029	21,16
337,242	60,07
337,454	15,02
337,667	31,4
337,88	158,38
338,092	35,5
338,305	96,94
338,517	86,7
338,729	49,83
338,942	62,12
339,154	-32,08
339,367	27,31
339,579	37,55
339,792	-77,14
340,004	162,47
340,217	53,93
340,429	86,7
340,641	12,97
340,854	19,11
341,066	31,4
341,278	70,31
341,491	203,43
341,703	17,07
341,915	-79,19
342,128	113,32
342,34	68,27
342,552	-5,46
342,764	62,12
342,977	29,35
343,189	-17,75
343,401	-34,13
343,613	-66,9
343,826	39,59
344,038	-9,56
344,25	150,18
344,462	113,32
344,674	86,7
344,886	8,87
345,099	90,79
345,311	68,27
345,523	43,69
345,735	2,73
345,947	92,84
346,159	94,89
346,371	-21,85
346,583	84,65
346,795	162,47
347,007	80,55
347,219	88,75
347,431	64,17
347,643	156,33
347,855	23,21
348,067	121,51
348,279	-7,51
348,491	43,69
348,703	17,07
348,915	76,46
349,127	-9,56
349,339	96,94
349,551	62,12
349,763	105,13
349,975	78,51
350,187	127,66
350,399	141,99
350,61	21,16
350,822	2,73
351,034	64,17
351,246	47,79
351,458	92,84
351,669	39,59
351,881	76,46
352,093	49,83
352,305	154,28
352,517	94,89
352,728	139,94
352,94	68,27
353,152	117,42
353,363	10,92
353,575	41,64
353,787	170,66
353,999	82,6
354,21	131,75
354,422	31,4
354,633	90,79
354,845	133,8
355,057	86,7
355,268	6,83
355,48	185
355,692	-48,47
355,903	98,99
356,115	23,21
356,326	-85,33
356,538	49,83
356,749	113,32
356,961	146,09
357,172	96,94
357,384	-40,28
357,595	293,54
357,807	17,07
358,018	47,79
358,23	113,32
358,441	189,1
358,653	189,1
358,864	84,65
359,075	-25,94
359,287	68,27
359,498	72,36
359,709	133,8
359,921	12,97
360,132	170,66
360,344	12,97
360,555	84,65
360,766	58,03
360,977	25,26
361,189	146,09
361,4	35,5
361,611	127,66
361,823	248,49
362,034	101,03
362,245	-109,91
362,456	70,31
362,667	23,21
362,879	35,5
363,09	35,5
363,301	84,65
363,512	55,98
363,723	23,21
363,935	51,88
364,146	187,05
364,357	64,17
364,568	111,27
364,779	-50,52
364,99	96,94
365,201	88,75
365,412	158,38
365,623	-9,56
365,834	64,17
366,045	-19,8
366,256	64,17
366,467	39,59
366,678	41,64
366,889	39,59
367,1	35,5
367,311	168,62
367,522	88,75
367,733	86,7
367,944	139,94
368,155	23,21
368,366	158,38
368,577	228,01
368,788	154,28
368,999	-9,56
369,209	96,94
369,42	160,42
369,631	223,91
369,842	133,8
370,053	53,93
370,264	111,27
370,474	39,59
370,685	158,38
370,896	96,94
371,107	162,47
371,317	78,51
371,528	72,36
371,739	115,37
371,95	119,46
372,16	180,9
372,371	4,78
372,582	-5,46
372,792	113,32
373,003	74,41
373,214	60,07
373,424	156,33
373,635	39,59
373,846	152,23
374,056	103,08
374,267	137,9
374,477	127,66
374,688	45,74
374,898	4,78
375,109	119,46
375,319	148,14
375,53	170,66
375,74	189,1
375,951	64,17
376,161	113,32
376,372	215,72
376,582	47,79
376,793	103,08
377,003	78,51
377,214	47,79
377,424	119,46
377,635	55,98
377,845	72,36
378,055	185
378,266	12,97
378,476	133,8
378,686	185
378,897	90,79
379,107	182,95
379,317	76,46
379,528	62,12
379,738	195,24
379,948	23,21
380,158	88,75
380,369	123,56
380,579	119,46
380,789	70,31
380,999	101,03
381,21	248,49
381,42	273,06
381,63	53,93
381,84	98,99
382,05	144,04
382,261	228,01
382,471	86,7
382,681	80,55
382,891	129,7
383,101	51,88
383,311	72,36
383,521	96,94
383,731	148,14
383,941	135,85
384,151	86,7
384,361	182,95
384,571	94,89
384,781	117,42
384,991	303,78
385,201	219,82
385,411	195,24
385,621	107,18
385,831	141,99
386,041	162,47
386,251	92,84
386,461	260,77
386,671	94,89
386,881	185
387,091	141,99
387,301	215,72
387,511	96,94
387,72	141,99
387,93	150,18
388,14	43,69
388,35	80,55
388,56	178,86
388,769	176,81
388,979	62,12
389,189	80,55
389,399	123,56
389,609	109,22
389,818	158,38
390,028	94,89
390,238	174,76
390,447	37,55
390,657	103,08
390,867	70,31
391,076	60,07
391,286	133,8
391,496	88,75
391,705	107,18
391,915	225,96
392,125	84,65
392,334	107,18
392,544	203,43
392,753	41,64
392,963	60,07
393,172	47,79
393,382	170,66
393,591	238,25
393,801	105,13
394,01	203,43
394,22	201,38
394,429	74,41
394,639	37,55
394,848	86,7
395,058	137,9
395,267	74,41
395,477	144,04
395,686	111,27
395,895	191,14
396,105	303,78
396,314	135,85
396,524	178,86
396,733	55,98
396,942	217,77
397,152	101,03
397,361	250,53
397,57	135,85
397,78	158,38
397,989	141,99
398,198	246,44
398,407	94,89
398,617	78,51
398,826	137,9
399,035	62,12
399,244	182,95
399,453	60,07
399,663	88,75
399,872	98,99
400,081	80,55
400,29	146,09
400,499	39,59
400,708	182,95
400,917	84,65
401,127	125,61
401,336	154,28
401,545	273,06
401,754	168,62
401,963	111,27
402,172	121,51
402,381	74,41
402,59	88,75
402,799	131,75
403,008	123,56
403,217	121,51
403,426	219,82
403,635	27,31
403,844	121,51
404,053	39,59
404,262	84,65
404,471	154,28
404,68	166,57
404,888	68,27
405,097	135,85
405,306	109,22
405,515	158,38
405,724	182,95
405,933	228,01
406,142	166,57
406,35	150,18
406,559	170,66
406,768	86,7
406,977	209,58
407,185	144,04
407,394	107,18
407,603	35,5
407,812	170,66
408,02	187,05
408,229	105,13
408,438	170,66
408,646	109,22
408,855	146,09
409,064	182,95
409,272	228,01
409,481	205,48
409,69	164,52
409,898	113,32
410,107	318,12
410,315	320,17
410,524	209,58
410,733	271,01
410,941	277,16
411,15	271,01
411,358	252,58
411,567	228,01
411,775	123,56
411,984	111,27
412,192	154,28
412,401	72,36
412,609	172,71
412,818	162,47
413,026	82,6
413,234	60,07
413,443	84,65
413,651	92,84
413,86	12,97
414,068	180,9
414,276	172,71
414,485	29,35
414,693	76,46
414,901	221,86
415,11	58,03
415,318	121,51
415,526	113,32
415,734	195,24
415,943	74,41
416,151	180,9
416,359	70,31
416,567	152,23
416,776	82,6
416,984	172,71
417,192	178,86
417,4	137,9
417,608	15,02
417,817	82,6
418,025	131,75
418,233	172,71
418,441	60,07
418,649	23,21
418,857	113,32
419,065	195,24
419,273	127,66
419,481	144,04
419,689	105,13
419,897	37,55
420,105	62,12
420,313	193,19
420,521	223,91
420,729	121,51
420,937	53,93
421,145	70,31
421,353	125,61
421,561	127,66
421,769	31,4
421,977	43,69
422,185	139,94
422,393	55,98
422,601	150,18
422,809	96,94
423,017	158,38
423,224	139,94
423,432	182,95
423,64	2,73
423,848	133,8
424,056	78,51
424,263	121,51
424,471	51,88
424,679	109,22
424,887	29,35
425,094	191,14
425,302	107,18
425,51	47,79
425,718	-1,37
425,925	47,79
426,133	29,35
426,341	211,62
426,548	103,08
426,756	88,75
426,964	137,9
427,171	33,45
427,379	80,55
427,586	53,93
427,794	92,84
428,001	135,85
428,209	115,37
428,417	137,9
428,624	187,05
428,832	133,8
429,039	129,7
429,247	74,41
429,454	96,94
429,662	166,57
429,869	160,42
430,076	64,17
430,284	96,94
430,491	96,94
430,699	84,65
430,906	168,62
431,114	51,88
431,321	90,79
431,528	25,26
431,736	111,27
431,943	111,27
432,15	137,9
432,358	248,49
432,565	350,89
432,772	254,63
432,979	436,9
433,187	510,63
433,394	645,79
433,601	666,27
433,808	821,92
434,016	828,06
434,223	875,17
434,43	752,29
434,637	809,63
434,844	658,08
435,052	641,7
435,259	449,19
435,466	418,47
435,673	361,13
435,88	332,45
436,087	162,47
436,294	201,38
436,501	168,62
436,708	39,59
436,915	-11,61
437,122	62,12
437,329	39,59
437,537	135,85
437,743	105,13
437,95	150,18
438,157	86,7
438,364	105,13
438,571	137,9
438,778	80,55
438,985	119,46
439,192	182,95
439,399	58,03
439,606	160,42
439,813	103,08
440,02	174,76
440,227	242,34
440,433	113,32
440,64	107,18
440,847	119,46
441,054	117,42
441,261	234,15
441,467	195,24
441,674	35,5
441,881	43,69
442,088	88,75
442,294	113,32
442,501	119,46
442,708	182,95
442,914	88,75
443,121	66,22
443,328	189,1
443,534	178,86
443,741	141,99
443,948	35,5
444,154	72,36
444,361	150,18
444,568	84,65
444,774	154,28
444,981	68,27
445,187	152,23
445,394	82,6
445,6	76,46
445,807	158,38
446,013	88,75
446,22	-30,04
446,426	94,89
446,633	146,09
446,839	195,24
447,046	51,88
447,252	180,9
447,459	88,75
447,665	47,79
447,871	129,7
448,078	123,56
448,284	125,61
448,491	101,03
448,697	232,1
448,903	234,15
449,11	47,79
449,316	60,07
449,522	129,7
449,728	180,9
449,935	187,05
450,141	92,84
450,347	209,58
450,553	64,17
450,76	103,08
450,966	101,03
451,172	127,66
451,378	113,32
451,584	115,37
451,791	221,86
451,997	170,66
452,203	10,92
452,409	82,6
452,615	152,23
452,821	92,84
453,027	62,12
453,233	203,43
453,44	119,46
453,646	60,07
453,852	139,94
454,058	19,11
454,264	53,93
454,47	111,27
454,676	41,64
454,882	117,42
455,088	80,55
455,294	115,37
455,5	76,46
455,705	166,57
455,911	144,04
456,117	129,7
456,323	109,22
456,529	215,72
456,735	121,51
456,941	119,46
457,147	92,84
457,352	209,58
457,558	86,7
457,764	96,94
457,97	178,86
458,176	27,31
458,381	105,13
458,587	150,18
458,793	125,61
458,999	62,12
459,204	94,89
459,41	82,6
459,616	80,55
459,821	166,57
460,027	47,79
460,233	148,14
460,438	154,28
460,644	98,99
460,85	111,27
461,055	98,99
461,261	156,33
461,466	96,94
461,672	29,35
461,878	49,83
462,083	225,96
462,289	55,98
462,494	-3,41
462,7	113,32
462,905	123,56
463,111	154,28
463,316	176,81
463,522	234,15
463,727	133,8
463,932	144,04
464,138	103,08
464,343	203,43
464,549	154,28
464,754	137,9
464,959	185
465,165	154,28
465,37	141,99
465,575	152,23
465,781	111,27
465,986	189,1
466,191	96,94
466,397	170,66
466,602	150,18
466,807	68,27
467,012	260,77
467,218	187,05
467,423	80,55
467,628	150,18
467,833	62,12
468,038	105,13
468,244	8,87
468,449	88,75
468,654	117,42
468,859	92,84
469,064	37,55
469,269	80,55
469,474	160,42
469,679	211,62
469,885	76,46
470,09	113,32
470,295	39,59
470,5	105,13
470,705	47,79
470,91	141,99
471,115	174,76
471,32	101,03
471,525	166,57
471,73	185
471,935	101,03
472,139	33,45
472,344	148,14
472,549	129,7
472,754	115,37
472,959	187,05
473,164	109,22
473,369	133,8
473,574	168,62
473,778	86,7
473,983	174,76
474,188	195,24
474,393	80,55
474,598	121,51
474,802	60,07
475,007	121,51
475,212	121,51
475,417	84,65
475,621	211,62
475,826	8,87
476,031	113,32
476,235	103,08
476,44	109,22
476,645	109,22
476,849	96,94
477,054	60,07
477,259	55,98
477,463	172,71
477,668	279,21
477,872	131,75
478,077	96,94
478,282	64,17
478,486	180,9
478,691	137,9
478,895	172,71
479,1	217,77
479,304	201,38
479,509	35,5
479,713	133,8
479,918	162,47
480,122	168,62
480,326	150,18
480,531	146,09
480,735	113,32
480,94	127,66
481,144	211,62
481,348	215,72
481,553	211,62
481,757	82,6
481,961	166,57
482,166	225,96
482,37	90,79
482,574	109,22
482,778	8,87
482,983	203,43
483,187	144,04
483,391	156,33
483,595	135,85
483,8	248,49
484,004	502,43
484,208	756,38
484,412	1323,67
484,616	1923,73
484,821	2714,24
485,025	3627,64
485,229	4862,56
485,433	6056,53
485,637	7074,37
485,841	8112,69
486,045	9271,84
486,249	9706,01
486,453	9257,5
486,657	8925,73
486,861	7940,66
487,065	6750,79
487,269	5681,75
487,473	4455,01
487,677	3783,28
487,881	3205,75
488,085	2325,13
488,289	1931,92
488,493	1329,81
488,697	1170,07
488,901	823,97
489,105	520,87
489,309	340,65
489,512	334,5
489,716	262,82
489,92	211,62
490,124	178,86
490,328	248,49
490,531	209,58
490,735	217,77
490,939	137,9
491,143	137,9
491,346	195,24
491,55	185
491,754	139,94
491,958	160,42
492,161	129,7
492,365	172,71
492,569	191,14
492,772	131,75
492,976	264,87
493,18	185
493,383	244,39
493,587	225,96
493,79	244,39
493,994	178,86
494,197	129,7
494,401	154,28
494,605	45,74
494,808	148,14
495,012	135,85
495,215	271,01
495,419	223,91
495,622	105,13
495,825	76,46
496,029	129,7
496,232	166,57
496,436	141,99
496,639	182,95
496,843	113,32
497,046	94,89
497,249	215,72
497,453	144,04
497,656	141,99
497,859	113,32
498,063	82,6
498,266	197,29
498,469	47,79
498,673	64,17
498,876	70,31
499,079	72,36
499,282	121,51
499,485	354,98
499,689	170,66
499,892	223,91
500,095	8,87
500,298	80,55
500,501	8,87
500,705	92,84
500,908	162,47
501,111	51,88
501,314	154,28
501,517	228,01
501,72	141,99
501,923	187,05
502,126	223,91
502,329	37,55
502,532	166,57
502,735	144,04
502,938	127,66
503,141	103,08
503,344	27,31
503,547	185
503,75	96,94
503,953	-3,41
504,156	98,99
504,359	131,75
504,562	154,28
504,765	41,64
504,968	164,52
505,17	164,52
505,373	244,39
505,576	68,27
505,779	43,69
505,982	31,4
506,185	127,66
506,387	68,27
506,59	88,75
506,793	107,18
506,996	162,47
507,198	178,86
507,401	219,82
507,604	115,37
507,807	21,16
508,009	117,42
508,212	88,75
508,415	29,35
508,617	150,18
508,82	127,66
509,022	101,03
509,225	103,08
509,428	58,03
509,63	113,32
509,833	15,02
510,035	203,43
510,238	131,75
510,44	31,4
510,643	170,66
510,845	248,49
511,048	152,23
511,25	64,17
511,453	55,98
511,655	88,75
511,858	172,71
512,06	203,43
512,262	62,12
512,465	35,5
512,667	64,17
512,87	31,4
513,072	172,71
513,274	166,57
513,477	29,35
513,679	60,07
513,881	29,35
514,084	82,6
514,286	193,19
514,488	43,69
514,69	107,18
514,893	191,14
515,095	47,79
515,297	84,65
515,499	121,51
515,701	90,79
515,904	117,42
516,106	141,99
516,308	182,95
516,51	109,22
516,712	101,03
516,914	31,4
517,116	82,6
517,318	29,35
517,52	133,8
517,722	113,32
517,925	125,61
518,127	101,03
518,329	197,29
518,531	98,99
518,733	129,7
518,935	62,12
519,136	160,42
519,338	-17,75
519,54	53,93
519,742	64,17
519,944	146,09
520,146	88,75
520,348	109,22
520,55	152,23
520,752	70,31
520,954	39,59
521,155	105,13
521,357	64,17
521,559	232,1
521,761	195,24
521,963	129,7
522,164	123,56
522,366	55,98
522,568	131,75
522,77	88,75
522,971	162,47
523,173	92,84
523,375	98,99
523,576	88,75
523,778	2,73
523,98	90,79
524,181	178,86
524,383	170,66
524,584	31,4
524,786	12,97
524,988	107,18
525,189	19,11
525,391	51,88
525,592	146,09
525,794	74,41
525,995	27,31
526,197	98,99
526,398	303,78
526,6	109,22
526,801	115,37
527,003	76,46
527,204	49,83
527,406	119,46
527,607	84,65
527,808	144,04
528,01	55,98
528,211	154,28
528,412	45,74
528,614	187,05
528,815	154,28
529,016	160,42
529,218	96,94
529,419	166,57
529,62	-15,7
529,822	139,94
530,023	113,32
530,224	88,75
530,425	164,52
530,626	45,74
530,828	15,02
531,029	64,17
531,23	137,9
531,431	117,42
531,632	103,08
531,833	92,84
532,035	146,09
532,236	4,78
532,437	107,18
532,638	92,84
532,839	39,59
533,04	51,88
533,241	164,52
533,442	25,26
533,643	66,22
533,844	21,16
534,045	12,97
534,246	47,79
534,447	51,88
534,648	105,13
534,849	92,84
535,05	43,69
535,251	-3,41
535,451	101,03
535,652	51,88
535,853	113,32
536,054	144,04
536,255	47,79
536,456	55,98
536,657	76,46
536,857	125,61
537,058	154,28
537,259	78,51
537,46	37,55
537,66	64,17
537,861	78,51
538,062	113,32
538,263	-52,56
538,463	113,32
538,664	33,45
538,865	43,69
539,065	162,47
539,266	60,07
539,466	-23,89
539,667	92,84
539,868	47,79
540,068	29,35
540,269	53,93
540,469	86,7
540,67	109,22
540,87	127,66
541,071	-44,37
541,271	144,04
541,472	170,66
541,672	182,95
541,873	62,12
542,073	68,27
542,274	49,83
542,474	166,57
542,675	156,33
542,875	137,9
543,075	-48,47
543,276	64,17
543,476	105,13
543,676	162,47
543,877	39,59
544,077	105,13
544,277	150,18
544,478	84,65
544,678	129,7
544,878	78,51
545,078	80,55
545,279	55,98
545,479	45,74
545,679	105,13
545,879	-9,56
546,079	74,41
546,28	-1,37
546,48	66,22
546,68	162,47
546,88	64,17
547,08	51,88
547,28	135,85
547,48	-1,37
547,68	144,04
547,88	111,27
548,081	113,32
548,281	-75,09
548,481	19,11
548,681	127,66
548,881	109,22
549,081	123,56
549,28	135,85
549,48	111,27
549,68	178,86
549,88	35,5
550,08	23,21
550,28	35,5
550,48	172,71
550,68	53,93
550,88	58,03
551,08	39,59
551,279	129,7
551,479	66,22
551,679	137,9
551,879	-3,41
552,079	150,18
552,278	98,99
552,478	187,05
552,678	137,9
552,878	119,46
553,077	37,55
553,277	92,84
553,477	35,5
553,676	115,37
553,876	101,03
554,076	107,18
554,275	70,31
554,475	29,35
554,674	182,95
554,874	60,07
555,074	-54,61
555,273	-25,94
555,473	25,26
555,672	94,89
555,872	76,46
556,071	84,65
556,271	158,38
556,47	94,89
556,67	127,66
556,869	96,94
557,068	4,78
557,268	53,93
557,467	39,59
557,667	121,51
557,866	15,02
558,065	74,41
558,265	76,46
558,464	-17,75
558,663	33,45
558,863	45,74
559,062	64,17
559,261	119,46
559,461	92,84
559,66	90,79
559,859	-21,85
560,058	160,42
560,258	2,73
560,457	119,46
560,656	178,86
560,855	17,07
561,054	125,61
561,253	133,8
561,453	107,18
561,652	70,31
561,851	125,61
562,05	10,92
562,249	-95,57
562,448	117,42
562,647	68,27
562,846	123,56
563,045	113,32
563,244	35,5
563,443	27,31
563,642	80,55
563,841	86,7
564,04	76,46
564,239	80,55
564,438	2,73
564,637	19,11
564,836	10,92
565,035	53,93
565,234	41,64
565,432	82,6
565,631	27,31
565,83	113,32
566,029	168,62
566,228	113,32
566,427	180,9
566,625	88,75
566,824	182,95
567,023	150,18
567,222	80,55
567,42	125,61
567,619	141,99
567,818	162,47
568,016	215,72
568,215	152,23
568,414	166,57
568,612	72,36
568,811	189,1
569,01	170,66
569,208	135,85
569,407	162,47
569,605	172,71
569,804	187,05
570,002	230,06
570,201	146,09
570,4	187,05
570,598	109,22
570,797	185
570,995	78,51
571,193	129,7
571,392	121,51
571,59	131,75
571,789	158,38
571,987	156,33
572,186	228,01
572,384	164,52
572,582	121,51
572,781	299,69
572,979	51,88
573,177	236,2
573,376	207,53
573,574	271,01
573,772	154,28
573,971	29,35
574,169	101,03
574,367	236,2
574,565	137,9
574,763	152,23
574,962	203,43
575,16	117,42
575,358	101,03
575,556	207,53
575,754	228,01
575,952	223,91
576,151	176,81
576,349	225,96
576,547	55,98
576,745	242,34
576,943	213,67
577,141	189,1
577,339	117,42
577,537	197,29
577,735	168,62
577,933	232,1
578,131	148,14
578,329	342,69
578,527	162,47
578,725	244,39
578,923	211,62
579,121	236,2
579,319	131,75
579,516	242,34
579,714	457,38
579,912	250,53
580,11	189,1
580,308	330,41
580,506	348,84
580,704	195,24
580,901	277,16
581,099	342,69
581,297	279,21
581,495	381,6
581,692	314,02
581,89	424,61
582,088	291,49
582,285	316,07
582,483	365,22
582,681	244,39
582,878	301,73
583,076	264,87
583,274	168,62
583,471	328,36
583,669	346,79
583,866	180,9
584,064	160,42
584,262	230,06
584,459	103,08
584,657	287,4
584,854	293,54
585,052	221,86
585,249	228,01
585,447	199,34
585,644	103,08
585,841	193,19
586,039	236,2
586,236	266,92
586,434	174,76
586,631	105,13
586,828	166,57
587,026	152,23
587,223	170,66
587,42	187,05
587,618	162,47
587,815	295,59
588,012	285,35
588,21	289,45
588,407	332,45
588,604	326,31
588,801	170,66
588,999	301,73
589,196	275,11
589,393	123,56
589,59	252,58
589,787	219,82
589,984	217,77
590,182	266,92
590,379	92,84
590,576	119,46
590,773	137,9
590,97	219,82
591,167	141,99
591,364	228,01
591,561	158,38
591,758	314,02
591,955	260,77
592,152	160,42
592,349	146,09
592,546	203,43
592,743	119,46
592,94	185
593,137	266,92
593,334	338,6
593,531	334,5
593,727	240,29
593,924	287,4
594,121	262,82
594,318	195,24
594,515	232,1
594,712	348,84
594,908	277,16
595,105	72,36
595,302	182,95
595,499	207,53
595,696	273,06
595,892	223,91
596,089	234,15
596,286	105,13
596,482	271,01
596,679	225,96
596,876	170,66
597,072	250,53
597,269	185
597,466	264,87
597,662	174,76
597,859	94,89
598,055	178,86
598,252	189,1
598,448	234,15
598,645	375,46
598,841	242,34
599,038	297,64
599,234	318,12
599,431	234,15
599,627	187,05
599,824	152,23
600,02	211,62
600,217	113,32
600,413	131,75
600,609	158,38
600,806	389,8
601,002	146,09
601,198	107,18
601,395	275,11
601,591	211,62
601,787	248,49
601,984	273,06
602,18	248,49
602,376	309,93
602,572	258,73
602,769	342,69
602,965	264,87
603,161	332,45
603,357	305,83
603,553	340,65
603,75	297,64
603,946	258,73
604,142	234,15
604,338	301,73
604,534	154,28
604,73	156,33
604,926	154,28
605,122	211,62
605,318	74,41
605,514	232,1
605,71	125,61
605,906	242,34
606,102	107,18
606,298	250,53
606,494	228,01
606,69	144,04
606,886	187,05
607,082	195,24
607,278	154,28
607,474	248,49
607,67	215,72
607,866	154,28
608,062	236,2
608,257	230,06
608,453	195,24
608,649	199,34
608,845	178,86
609,041	166,57
609,236	139,94
609,432	154,28
609,628	201,38
609,824	166,57
610,019	162,47
610,215	160,42
610,411	266,92
610,606	232,1
610,802	119,46
610,998	158,38
611,193	187,05
611,389	49,83
611,584	205,48
611,78	111,27
611,976	137,9
612,171	271,01
612,367	211,62
612,562	133,8
612,758	185
612,953	84,65
613,149	244,39
613,344	158,38
613,539	248,49
613,735	203,43
613,93	193,19
614,126	135,85
614,321	133,8
614,517	285,35
614,712	207,53
614,907	201,38
615,103	180,9
615,298	72,36
615,493	109,22
615,688	76,46
615,884	135,85
616,079	96,94
616,274	166,57
616,47	129,7
616,665	78,51
616,86	211,62
617,055	70,31
617,25	27,31
617,445	146,09
617,641	131,75
617,836	152,23
618,031	127,66
618,226	144,04
618,421	211,62
618,616	148,14
618,811	125,61
619,006	166,57
619,201	205,48
619,396	117,42
619,591	84,65
619,786	162,47
619,981	137,9
620,176	129,7
620,371	74,41
620,566	146,09
620,761	211,62
620,956	152,23
621,151	70,31
621,346	127,66
621,541	8,87
621,735	219,82
621,93	125,61
622,125	150,18
622,32	119,46
622,515	109,22
622,709	225,96
622,904	197,29
623,099	92,84
623,294	187,05
623,488	103,08
623,683	92,84
623,878	115,37
624,072	137,9
624,267	86,7
624,462	72,36
624,656	55,98
624,851	158,38
625,046	88,75
625,24	41,64
625,435	88,75
625,629	64,17
625,824	240,29
626,018	170,66
626,213	164,52
626,407	-19,8
626,602	88,75
626,796	68,27
626,991	187,05
627,185	53,93
627,38	84,65
627,574	152,23
627,768	101,03
627,963	94,89
628,157	160,42
628,352	37,55
628,546	-40,28
628,74	135,85
628,935	45,74
629,129	39,59
629,323	187,05
629,517	35,5
629,712	76,46
629,906	101,03
630,1	182,95
630,294	193,19
630,489	66,22
630,683	12,97
630,877	78,51
631,071	174,76
631,265	17,07
631,459	60,07
631,653	98,99
631,848	39,59
632,042	158,38
632,236	74,41
632,43	162,47
632,624	62,12
632,818	137,9
633,012	154,28
633,206	113,32
633,4	78,51
633,594	111,27
633,788	154,28
633,982	119,46
634,176	236,2
634,369	150,18
634,563	111,27
634,757	-3,41
634,951	39,59
635,145	113,32
635,339	-30,04
635,533	144,04
635,726	101,03
635,92	47,79
636,114	55,98
636,308	76,46
636,501	47,79
636,695	88,75
636,889	47,79
637,083	96,94
637,276	72,36
637,47	19,11
637,664	101,03
637,857	72,36
638,051	78,51
638,244	113,32
638,438	101,03
638,632	228,01
638,825	-54,61
639,019	144,04
639,212	80,55
639,406	98,99
639,599	60,07
639,793	121,51
639,986	164,52
640,18	88,75
640,373	55,98
640,567	72,36
640,76	121,51
640,954	170,66
641,147	-21,85
641,34	115,37
641,534	109,22
641,727	199,34
641,92	127,66
642,114	78,51
642,307	70,31
642,5	156,33
642,694	76,46
642,887	125,61
643,08	101,03
643,273	137,9
643,467	78,51
643,66	90,79
643,853	113,32
644,046	191,14
644,239	94,89
644,432	72,36
644,626	-17,75
644,819	70,31
645,012	96,94
645,205	78,51
645,398	174,76
645,591	39,59
645,784	39,59
645,977	4,78
646,17	-9,56
646,363	39,59
646,556	10,92
646,749	23,21
646,942	31,4
647,135	144,04
647,328	35,5
647,521	92,84
647,714	66,22
647,907	115,37
648,099	78,51
648,292	225,96
648,485	37,55
648,678	133,8
648,871	90,79
649,064	123,56
649,256	27,31
649,449	23,21
649,642	12,97
649,835	23,21
650,027	62,12
650,22	150,18
650,413	78,51
650,605	150,18
650,798	47,79
650,991	88,75
651,183	133,8
651,376	162,47
651,568	148,14
651,761	203,43
651,954	195,24
652,146	187,05
652,339	252,58
652,531	158,38
652,724	103,08
652,916	152,23
653,109	-3,41
653,301	207,53
653,494	170,66
653,686	228,01
653,879	277,16
654,071	244,39
654,263	244,39
654,456	252,58
654,648	799,39
654,84	2603,65
655,033	6619,72
655,225	13539,8
655,417	23101,77
655,61	33577,13
655,802	43298,84
655,994	52395,92
656,186	59875,1
656,379	62430,96
656,571	61845,24
656,763	59305,76
656,955	56504,14
657,148	52891,52
657,34	48158,67
657,532	43683,86
657,724	39192,66
657,916	34574,49
658,108	29886,69
658,3	24643,89
658,492	20904,3
658,684	17007,02
658,876	14117,33
659,068	11829,75
659,26	9310,75
659,452	7137,85
659,644	5382,74
659,836	3947,12
660,028	2693,76
660,22	1870,48
660,412	1280,66
660,604	1088,15
660,796	768,67
660,988	662,18
661,18	463,52
661,372	432,8
661,563	391,84
661,755	383,65
661,947	279,21
662,139	160,42
662,331	164,52
662,522	266,92
662,714	90,79
662,906	107,18
663,097	176,81
663,289	115,37
663,481	60,07
663,673	187,05
663,864	117,42
664,056	164,52
664,247	103,08
664,439	168,62
664,631	29,35
664,822	119,46
665,014	74,41
665,205	94,89
665,397	150,18
665,588	76,46
665,78	84,65
665,971	148,14
666,163	53,93
666,354	119,46
666,546	47,79
666,737	62,12
666,929	31,4
667,12	31,4
667,311	47,79
667,503	60,07
667,694	98,99
667,885	119,46
668,077	86,7
668,268	-50,52
668,459	23,21
668,651	37,55
668,842	86,7
669,033	92,84
669,224	64,17
669,416	189,1
669,607	88,75
669,798	-36,18
669,989	119,46
670,18	49,83
670,371	62,12
670,563	-36,18
670,754	174,76
670,945	127,66
671,136	137,9
671,327	15,02
671,518	144,04
671,709	105,13
671,9	137,9
672,091	160,42
672,282	31,4
672,473	78,51
672,664	23,21
672,855	55,98
673,046	43,69
673,237	47,79
673,428	137,9
673,619	137,9
673,809	76,46
674	160,42
674,191	70,31
674,382	88,75
674,573	-30,04
674,764	60,07
674,954	74,41
675,145	-38,23
675,336	51,88
675,527	10,92
675,717	-36,18
675,908	41,64
676,099	-62,8
676,289	150,18
676,48	19,11
676,671	47,79
676,861	-15,7
677,052	19,11
677,243	33,45
677,433	-17,75
677,624	103,08
677,814	58,03
678,005	-30,04
678,195	121,51
678,386	6,83
678,576	10,92
678,767	-25,94
678,957	35,5
679,148	144,04
679,338	162,47
679,529	119,46
679,719	-25,94
679,909	-11,61
680,1	80,55
680,29	137,9
680,481	-50,52
680,671	62,12
680,861	31,4
681,052	29,35
681,242	68,27
681,432	4,78
681,622	27,31
681,813	-17,75
682,003	-50,52
682,193	37,55
682,383	12,97
682,573	-58,71
682,764	-13,65
682,954	60,07
683,144	39,59
683,334	41,64
683,524	-1,37
683,714	39,59
683,904	35,5
684,094	-46,42
684,284	-3,41
684,474	170,66
684,664	121,51
684,854	-13,65
685,044	12,97
685,234	21,16
685,424	86,7
685,614	-30,04
685,804	139,94
685,994	-3,41
686,184	55,98
686,374	49,83
686,564	62,12
686,753	2,73
686,943	-9,56
687,133	-21,85
687,323	-34,13
687,513	51,88
687,702	80,55
687,892	-17,75
688,082	98,99
688,272	64,17
688,461	137,9
688,651	195,24
688,841	111,27
689,03	78,51
689,22	94,89
689,41	-9,56
689,599	27,31
689,789	41,64
689,979	129,7
690,168	29,35
690,358	55,98
690,547	21,16
690,737	-7,51
690,926	47,79
691,116	31,4
691,305	72,36
691,495	-27,99
691,684	8,87
691,874	-23,89
692,063	0,68
692,252	133,8
692,442	103,08
692,631	-83,28
692,82	-19,8
693,01	49,83
693,199	-1,37
693,388	21,16
693,578	35,5
693,767	80,55
693,956	60,07
694,146	10,92
694,335	62,12
694,524	6,83
694,713	35,5
694,902	12,97
695,092	-19,8
695,281	47,79
695,47	-19,8
695,659	-50,52
695,848	-5,46
696,037	10,92
696,226	4,78
696,415	6,83
696,604	60,07
696,793	111,27
696,982	27,31
697,171	133,8
697,36	84,65
697,549	60,07
697,738	-118,1
697,927	66,22
698,116	-44,37
698,305	92,84
698,494	-11,61
698,683	-48,47
698,872	88,75
699,061	53,93
699,25	15,02
699,438	47,79
699,627	-48,47
699,816	72,36
700,005	-9,56
700,193	0,68
700,382	127,66
700,571	162,47
700,76	23,21
700,948	92,84
701,137	47,79
701,326	29,35
701,514	-68,95
701,703	39,59
701,892	17,07
702,08	193,19
702,269	-13,65
702,457	35,5
702,646	88,75
702,834	31,4
703,023	51,88
703,212	37,55
703,4	55,98
703,589	4,78
703,777	-9,56
703,965	-30,04
704,154	-38,23
704,342	-25,94
704,531	-3,41
704,719	-34,13
704,907	101,03
705,096	37,55
705,284	6,83
705,472	47,79
705,661	101,03
705,849	21,16
706,037	103,08
706,226	23,21
706,414	35,5
706,602	17,07
706,79	64,17
706,979	64,17
707,167	-17,75
707,355	-103,76
707,543	51,88
707,731	37,55
707,919	-1,37
708,107	58,03
708,296	25,26
708,484	47,79
708,672	-32,08
708,86	31,4
709,048	62,12
709,236	-11,61
709,424	94,89
709,612	19,11
709,8	4,78
709,988	-21,85
710,176	160,42
710,364	101,03
710,551	0,68
710,739	37,55
710,927	41,64
711,115	68,27
711,303	80,55
711,491	115,37
711,679	-27,99
711,866	62,12
712,054	19,11
712,242	39,59
712,43	70,31
712,617	-56,66
712,805	45,74
712,993	-58,71
713,181	-52,56
713,368	111,27
713,556	-19,8
713,744	-19,8
713,931	129,7
714,119	90,79
714,306	2,73
714,494	-44,37
714,682	-11,61
714,869	-3,41
715,057	-66,9
715,244	-93,52
715,432	55,98
715,619	-58,71
715,807	-38,23
715,994	-62,8
716,182	23,21
716,369	15,02
716,556	105,13
716,744	-71
716,931	-95,57
717,119	47,79
717,306	17,07
717,493	55,98
717,681	-60,76
717,868	19,11
718,055	86,7
718,242	23,21
718,43	66,22
718,617	133,8
718,804	-38,23
718,991	76,46
719,179	25,26
719,366	64,17
719,553	21,16
719,74	-9,56
719,927	-60,76
720,114	164,52
720,301	-81,24
720,488	-30,04
720,676	-77,14
720,863	94,89
721,05	90,79
721,237	37,55
721,424	113,32
721,611	62,12
721,798	-9,56
721,985	-34,13
722,172	-19,8
722,358	68,27
722,545	25,26
722,732	0,68
722,919	92,84
723,106	39,59
723,293	-58,71
723,48	29,35
723,667	35,5
723,853	137,9
724,04	25,26
724,227	21,16
724,414	-13,65
724,6	131,75
724,787	133,8
724,974	105,13
725,161	47,79
725,347	-58,71
725,534	62,12
725,72	92,84
725,907	137,9
726,094	72,36
726,28	-9,56
726,467	55,98
726,653	39,59
726,84	80,55
727,027	156,33
727,213	96,94
727,4	41,64
727,586	64,17
727,773	15,02
727,959	78,51
728,145	-17,75
728,332	19,11
728,518	82,6
728,705	113,32
728,891	25,26
729,077	2,73
729,264	-42,32
729,45	4,78
729,636	109,22
729,823	10,92
730,009	62,12
730,195	64,17
730,382	168,62
730,568	6,83
730,754	8,87
730,94	45,74
731,126	25,26
731,313	29,35
731,499	-36,18
731,685	80,55
731,871	-9,56
732,057	-9,56
732,243	129,7
732,429	70,31
732,615	80,55
732,801	-5,46
732,987	55,98
733,173	-1,37
733,359	-40,28
733,545	21,16
733,731	49,83
733,917	98,99
734,103	72,36
734,289	10,92
734,475	-30,04
734,661	92,84
734,847	86,7
735,033	31,4
735,219	55,98
735,404	35,5
735,59	-19,8
735,776	-13,65
735,962	88,75
736,148	31,4
736,333	137,9
736,519	53,93
736,705	154,28
736,89	-11,61
737,076	-15,7
737,262	-81,24
737,447	12,97
737,633	43,69
737,819	43,69
738,004	72,36
738,19	35,5
738,375	64,17
738,561	94,89
738,747	78,51
738,932	-21,85
739,118	187,05
739,303	21,16
739,489	35,5
739,674	-107,86
739,859	-103,76
740,045	12,97
740,23	53,93
740,416	-97,62
740,601	-7,51
740,786	51,88
740,972	-79,19
741,157	27,31
741,342	-50,52
741,528	-83,28
741,713	117,42
741,898	-1,37
742,084	64,17
742,269	31,4
742,454	94,89
742,639	66,22
742,824	62,12
743,01	123,56
743,195	154,28
743,38	-99,67
743,565	12,97
743,75	35,5
743,935	8,87
744,12	111,27
744,305	-38,23
744,49	68,27
744,675	-27,99
744,86	-77,14
745,045	55,98
745,23	-25,94
745,415	-13,65
745,6	137,9
745,785	113,32
745,97	103,08
746,155	105,13
746,34	4,78
746,525	29,35
746,71	82,6
746,895	-34,13
747,079	4,78
747,264	-13,65
747,449	62,12
747,634	72,36
747,819	123,56
748,003	47,79
748,188	29,35
748,373	58,03
748,557	109,22
748,742	68,27
748,927	43,69
749,111	17,07
749,296	35,5
749,481	86,7
749,665	43,69
749,85	-1,37
750,034	39,59
750,219	51,88
750,404	-15,7
750,588	70,31
750,773	39,59
750,957	45,74
751,141	-3,41
751,326	88,75
751,51	27,31
751,695	-13,65
751,879	-54,61
752,064	199,34
752,248	-40,28
752,432	125,61
752,617	62,12
752,801	152,23
752,985	-1,37
753,17	111,27
753,354	55,98
753,538	4,78
753,722	-5,46
753,907	-44,37
754,091	0,68
754,275	103,08
754,459	74,41
754,643	47,79
754,828	10,92
755,012	0,68
755,196	33,45
755,38	58,03
755,564	117,42
755,748	39,59
755,932	8,87
756,116	51,88
756,3	45,74
756,484	-11,61
756,668	105,13
756,852	10,92
757,036	47,79
757,22	35,5
757,404	-23,89
757,588	10,92
757,772	-3,41
757,956	-25,94
758,14	187,05
758,323	-27,99
758,507	117,42
758,691	23,21
758,875	45,74
759,059	129,7
759,242	-17,75
759,426	51,88
759,61	115,37
759,794	17,07
759,977	96,94
760,161	133,8
760,345	166,57
760,528	111,27
760,712	12,97
760,895	64,17
761,079	23,21
761,263	35,5
761,446	6,83
761,63	62,12
761,813	109,22
761,997	23,21
762,18	-54,61
762,364	47,79
762,547	-91,48
762,731	15,02
762,914	10,92
763,098	-5,46
763,281	8,87
763,464	-5,46
763,648	-1,37
763,831	68,27
764,015	-38,23
764,198	66,22
764,381	101,03
764,564	45,74
764,748	15,02
764,931	-1,37
765,114	-9,56
765,297	43,69
765,481	-34,13
765,664	72,36
765,847	80,55
766,03	60,07
766,213	15,02
766,397	6,83
766,58	-81,24
766,763	39,59
766,946	6,83
767,129	-42,32
767,312	-1,37
767,495	4,78
767,678	-25,94
767,861	109,22
768,044	35,5
768,227	-9,56
768,41	-27,99
768,593	-25,94
768,776	37,55
768,959	8,87
769,142	66,22
769,324	31,4
769,507	70,31
769,69	-23,89
769,873	47,79
770,056	158,38
770,239	-1,37
770,421	146,09
770,604	88,75
770,787	37,55
770,97	39,59
771,152	-9,56
771,335	37,55
771,518	-68,95
771,7	88,75
771,883	158,38
772,066	-27,99
772,248	-17,75
772,431	62,12
772,613	10,92
772,796	31,4
772,978	55,98
773,161	111,27
773,343	-50,52
773,526	-17,75
773,708	-50,52
773,891	-75,09
774,073	-34,13
774,256	15,02
774,438	88,75
774,621	15,02
774,803	29,35
774,985	2,73
775,168	94,89
775,35	-34,13
775,532	111,27
775,715	6,83
775,897	47,79
776,079	-50,52
776,261	-30,04
776,444	-13,65
776,626	41,64
776,808	101,03
776,99	35,5
777,173	109,22
777,355	148,14
777,537	162,47
777,719	148,14
777,901	82,6
778,083	53,93
778,265	64,17
778,447	137,9
778,629	70,31
778,811	115,37
778,993	162,47
779,175	133,8
779,357	47,79
779,539	6,83
779,721	113,32
779,903	137,9
780,085	47,79
780,267	-9,56
780,449	60,07
780,631	88,75
780,812	86,7
780,994	43,69
781,176	62,12
781,358	2,73
781,54	29,35
781,721	121,51
781,903	43,69
782,085	-46,42
782,267	21,16
782,448	-140,63
782,63	-3,41
782,812	-36,18
782,993	96,94
783,175	0,68
783,357	-34,13
783,538	43,69
783,72	41,64
783,901	-1,37
784,083	78,51
784,264	15,02
784,446	-9,56
784,627	-1,37
784,809	64,17
784,99	-11,61
785,172	45,74
785,353	31,4
785,535	27,31
785,716	-54,61
785,897	-34,13
786,079	-58,71
786,26	6,83
786,441	45,74
786,623	-17,75
786,804	-62,8
786,985	-7,51
787,167	113,32
787,348	21,16
787,529	-5,46
787,71	74,41
787,891	70,31
788,073	-34,13
788,254	-42,32
788,435	109,22
788,616	27,31
788,797	-46,42
788,978	60,07
789,159	-21,85
789,34	33,45
789,522	-1,37
789,703	-34,13
789,884	-11,61
790,065	-7,51
790,246	150,18
790,427	-62,8
790,607	12,97
790,788	66,22
790,969	-50,52
791,15	80,55
791,331	-52,56
791,512	-30,04
791,693	-11,61
791,874	-34,13
792,054	172,71
792,235	31,4
792,416	-79,19
792,597	-32,08
792,778	53,93
792,958	23,21
793,139	-34,13
793,32	-23,89
793,5	19,11
793,681	80,55
793,862	68,27
794,042	72,36
794,223	-75,09
794,404	2,73
794,584	-109,91
794,765	-50,52
794,945	-1,37
795,126	-50,52
795,306	51,88
795,487	31,4
795,667	-46,42
795,848	96,94
796,028	27,31
796,209	55,98
796,389	103,08
796,57	-1,37
796,75	-87,38
796,93	-5,46
797,111	-13,65
797,291	-25,94
797,471	72,36
797,652	17,07
797,832	-38,23
798,012	45,74
798,192	-38,23
798,373	-44,37
798,553	37,55
798,733	72,36
798,913	-9,56
799,093	-13,65
799,274	-5,46
799,454	23,21
799,634	29,35
799,814	68,27
799,994	117,42
800,174	33,45
800,354	-52,56
800,534	-134,48
800,714	64,17
800,894	-62,8
801,074	-66,9
801,254	-64,85
801,434	21,16
801,614	-9,56
801,794	-99,67
801,974	1481,36
802,154	-34,13
802,334	78,51
802,514	-42,32
802,693	17,07
802,873	-34,13
803,053	135,85
803,233	17,07
803,413	-27,99
803,592	33,45
803,772	10,92
803,952	19,11
804,131	-7,51
804,311	-7,51
804,491	23,21
804,67	-44,37
804,85	-116,05
805,03	51,88
805,209	72,36
805,389	-13,65
805,568	-46,42
805,748	35,5
805,928	4,78
806,107	49,83
806,287	43,69
806,466	47,79
806,646	-50,52
806,825	-1,37
807,004	-30,04
807,184	6,83
807,363	6,83
807,543	-87,38
807,722	-44,37
807,901	119,46
808,081	31,4
808,26	-161,11
808,439	21,16
808,619	-1,37
808,798	-58,71
808,977	-58,71
809,156	82,6
809,336	72,36
809,515	43,69
809,694	-107,86
809,873	-1,37
810,052	-9,56
810,231	6,83
810,411	-11,61
810,59	25,26
810,769	-77,14
810,948	23,21
811,127	-11,61
811,306	-38,23
811,485	-17,75
811,664	127,66
811,843	27,31
812,022	-30,04
812,201	45,74
812,38	78,51
812,559	-3,41
812,737	62,12
812,916	-42,32
813,095	-19,8
813,274	-9,56
813,453	-7,51
813,632	4,78
813,811	19,11
813,989	-38,23
814,168	-5,46
814,347	-93,52
814,526	-58,71
814,704	74,41
814,883	117,42
815,062	-42,32
815,24	6,83
815,419	-27,99
815,598	39,59
815,776	-140,63
815,955	-44,37
816,133	-154,96
816,312	70,31
816,49	-17,75
816,669	-30,04
816,847	-42,32
817,026	21,16
817,204	-66,9
817,383	-34,13
817,561	-19,8
817,74	15,02
817,918	-19,8
818,097	-50,52
818,275	-13,65
818,453	-19,8
818,632	25,26
818,81	-36,18
818,988	-17,75
819,167	2,73
819,345	72,36
819,523	-50,52
819,701	-17,75
819,879	31,4
820,058	-3,41
820,236	-99,67
820,414	35,5
820,592	-60,76
820,77	-83,28
820,948	-52,56
821,127	-13,65
821,305	55,98
821,483	-25,94
821,661	19,11
821,839	-3,41
822,017	-71
822,195	-23,89
822,373	74,41
822,551	-19,8
822,729	58,03
822,907	-48,47
823,085	41,64
823,262	47,79
823,44	-93,52
823,618	-13,65
823,796	-23,89
823,974	-36,18
824,152	-52,56
824,329	-11,61
824,507	-38,23
824,685	133,8
824,863	-3,41
825,04	37,55
825,218	17,07
825,396	-9,56
825,574	-34,13
825,751	-19,8
825,929	121,51
826,107	-58,71
826,284	8,87
826,462	-21,85
826,639	-9,56
826,817	-118,1
826,994	-23,89
827,172	-122,2
827,349	76,46
827,527	47,79
827,704	31,4
827,882	68,27
828,059	8,87
828,237	2,73
828,414	19,11
828,591	-130,39
828,769	4,78
828,946	2,73
829,124	66,22
829,301	88,75
829,478	-27,99
829,655	55,98
829,833	-1,37
830,01	-54,61
830,187	-58,71
830,364	45,74
830,542	27,31
830,719	78,51
830,896	-30,04
831,073	47,79
831,25	-42,32
831,427	45,74
831,604	-30,04
831,782	-21,85
831,959	15,02
832,136	-36,18
832,313	62,12
832,49	-62,8
832,667	25,26
832,844	-32,08
833,021	107,18
833,198	-44,37
833,374	-11,61
833,551	-99,67
833,728	-19,8
833,905	45,74
834,082	-122,2
834,259	12,97
834,436	31,4
834,612	-11,61
834,789	64,17
834,966	27,31
835,143	12,97
835,319	-85,33
835,496	68,27
835,673	88,75
835,85	80,55
836,026	31,4
836,203	23,21
836,38	-9,56
836,556	-34,13
836,733	-9,56
836,909	133,8
837,086	-25,94
837,262	-62,8
837,439	-109,91
837,616	-17,75
837,792	-46,42
837,968	43,69
838,145	-21,85
838,321	-13,65
838,498	17,07
838,674	8,87
838,851	37,55
839,027	29,35
839,203	-60,76
839,38	39,59
839,556	-5,46
839,732	146,09
839,909	-9,56
840,085	-13,65
840,261	-66,9
840,437	31,4
840,614	2,73
840,79	105,13
840,966	12,97
841,142	-54,61
841,318	-25,94
841,494	51,88
841,671	-11,61
841,847	-103,76
842,023	-66,9
842,199	23,21
842,375	144,04
842,551	-81,24
842,727	-66,9
842,903	90,79
843,079	-36,18
843,255	6,83
843,431	-60,76
843,607	96,94
843,783	-103,76
843,959	53,93
844,134	-15,7
844,31	60,07
844,486	74,41
844,662	39,59
844,838	39,59
845,013	31,4
845,189	90,79
845,365	-30,04
845,541	4,78
845,716	17,07
845,892	-3,41
846,068	62,12
846,244	-17,75
846,419	10,92
846,595	15,02
846,77	-64,85
846,946	58,03
847,122	-34,13
847,297	-5,46
847,473	109,22
847,648	-146,77
847,824	39,59
847,999	-62,8
848,175	-21,85
848,35	25,26
848,526	80,55
848,701	55,98
848,876	15,02
849,052	84,65
849,227	-52,56
849,403	-7,51
849,578	-17,75
849,753	-27,99
849,929	12,97
850,104	-19,8
850,279	15,02
850,454	-40,28
850,63	31,4
850,805	12,97
850,98	-21,85
851,155	0,68
851,33	15,02
851,505	-101,72
851,681	92,84
851,856	-64,85
852,031	47,79
852,206	-19,8
852,381	-15,7
852,556	-36,18
852,731	-5,46
852,906	51,88
853,081	55,98
853,256	66,22
853,431	8,87
853,606	10,92
853,781	31,4
853,956	-109,91
854,131	72,36
854,305	23,21
854,48	-38,23
854,655	-9,56
854,83	-73,04
855,005	-30,04
855,18	17,07
855,354	-60,76
855,529	-19,8
855,704	-62,8
855,879	19,11
856,053	-58,71
856,228	-79,19
856,403	-101,72
856,577	68,27
856,752	-66,9
856,926	17,07
857,101	88,75
857,276	-40,28
857,45	29,35
857,625	43,69
857,799	-38,23
857,974	31,4
858,148	-17,75
858,323	31,4
858,497	10,92
858,672	-30,04
858,846	-27,99
859,02	33,45
859,195	-83,28
859,369	37,55
859,543	2,73
859,718	6,83
859,892	-44,37
860,066	-9,56
860,241	41,64
860,415	-50,52
860,589	-87,38
860,763	12,97
860,938	-32,08
861,112	49,83
861,286	-60,76
861,46	-42,32
861,634	-66,9
861,808	2,73
861,982	-30,04
862,157	-87,38
862,331	-58,71
862,505	-54,61
862,679	-128,34
862,853	-91,48
863,027	-32,08
863,201	111,27
863,375	-34,13
863,549	-27,99
863,722	-1,37
863,896	70,31
864,07	-52,56
864,244	27,31
864,418	66,22
864,592	6,83
864,766	-54,61
864,939	-5,46
865,113	-52,56
865,287	74,41
865,461	-44,37
865,634	-3,41
865,808	-1,37
865,982	-17,75
866,156	-66,9
866,329	-81,24
866,503	60,07
866,676	35,5
866,85	-27,99
867,024	-32,08
867,197	47,79
867,371	-3,41
867,544	-21,85
867,718	-42,32
867,891	88,75
868,065	25,26
868,238	-13,65
868,412	88,75
868,585	-17,75
868,759	-64,85
868,932	23,21
869,105	-66,9
869,279	55,98
869,452	-58,71
869,625	64,17
869,799	-36,18
869,972	-38,23
870,145	0,68
870,319	17,07
870,492	-23,89
870,665	2,73
870,838	-42,32
871,011	-64,85
871,185	-107,86
871,358	-58,71
871,531	64,17
871,704	-85,33
871,877	-25,94
872,05	-13,65
872,223	4,78
872,396	39,59
872,569	27,31
872,742	-32,08
872,915	-1,37
873,088	-91,48
873,261	60,07
873,434	103,08
873,607	-11,61
873,78	111,27
873,953	-85,33
874,126	10,92
874,299	88,75
874,471	-44,37
874,644	-9,56
874,817	47,79
874,99	43,69
875,163	-13,65
875,335	86,7
875,508	-79,19
875,681	47,79
875,853	-58,71
876,026	43,69
876,199	43,69
876,371	-46,42
876,544	-17,75
876,717	10,92
876,889	-85,33
877,062	-15,7
877,234	-77,14
877,407	-44,37
877,579	-21,85
877,752	45,74
877,924	60,07
878,097	-36,18
878,269	-21,85
878,442	4,78
878,614	78,51
878,786	86,7
878,959	33,45
879,131	-9,56
879,303	-85,33
879,476	15,02
879,648	152,23
879,82	0,68
879,993	-34,13
880,165	-38,23
880,337	-75,09
880,509	51,88
880,681	-5,46
880,854	23,21
881,026	55,98
881,198	86,7
881,37	25,26
881,542	8,87
881,714	29,35
881,886	-17,75
882,058	-17,75
882,23	-9,56
882,402	-42,32
882,574	84,65
882,746	12,97
882,918	70,31
883,09	-3,41
883,262	-1,37
883,434	6,83
883,606	-75,09
883,778	-21,85
883,95	101,03
884,122	-58,71
884,293	27,31
884,465	6,83
884,637	60,07
884,809	-66,9
884,98	15,02
885,152	-66,9
885,324	17,07
885,496	-17,75
885,667	-142,68
885,839	-56,66
886,011	35,5
886,182	6,83
886,354	23,21
886,525	62,12
886,697	-17,75
886,869	-114
887,04	-46,42
887,212	70,31
887,383	96,94
887,555	55,98
887,726	29,35
887,897	-30,04
888,069	-34,13
888,24	88,75
888,412	29,35
888,583	8,87
888,754	-11,61
888,926	2,73
889,097	0,68
889,268	-107,86
889,44	10,92
889,611	-44,37
889,782	-64,85
889,953	35,5
890,125	58,03
890,296	-36,18
890,467	-42,32
890,638	-50,52
890,809	45,74
890,98	-42,32
891,151	60,07
891,323	76,46
891,494	23,21
891,665	55,98
891,836	19,11
892,007	47,79
892,178	88,75
892,349	15,02
892,52	-75,09
892,691	23,21
892,862	-17,75
893,032	-118,1
893,203	4,78
893,374	19,11
893,545	74,41
893,716	-36,18
893,887	4,78
894,057	-79,19
894,228	-60,76
894,399	-81,24
894,57	27,31
894,74	23,21
894,911	49,83
895,082	-77,14
895,253	-19,8
895,423	64,17
895,594	25,26
895,764	-38,23
895,935	-116,05
896,106	23,21
896,276	17,07
896,447	2,73
896,617	-99,67
896,788	-77,14
896,958	-73,04
897,129	-101,72
897,299	-25,94
897,47	33,45
897,64	-13,65
897,81	-81,24
897,981	-19,8
898,151	-17,75
898,322	21,16
898,492	-3,41
898,662	-30,04
898,832	-120,15
899,003	-1,37
899,173	10,92
899,343	-93,52
899,513	-99,67
