Data from hydrogene_USB4F104151__6__09-04-10-011.txt Node

Date: Wed Apr 15 09:04:10 EDT 2026
User: LaboPhy
Spectrometer: USB4F10415
Trigger mode: 4
Integration Time (sec): 1,000000E-1
Scans to average: 1
Electric dark correction enabled: true
Nonlinearity correction enabled: false
Boxcar width: 0
XAxis mode: Wavelengths
Number of Pixels in Spectrum: 3648
>>>>>Begin Spectral Data<<<<<
178,204	-307,2
178,424	-307,2
178,644	-307,2
178,864	-360,44
179,084	-337,91
179,304	-2,05
179,524	-14,34
179,744	-12,29
179,964	114,69
180,184	20,48
180,404	53,25
180,624	-8,19
180,844	24,58
181,064	-71,68
181,283	-36,86
181,503	-96,25
181,723	28,67
181,943	-73,73
182,163	174,08
182,383	20,48
182,602	28,67
182,822	59,39
183,042	20,48
183,262	-69,63
183,482	-55,3
183,701	12,29
183,921	67,58
184,141	-2,05
184,361	32,77
184,58	88,06
184,8	30,72
185,02	24,58
185,239	57,34
185,459	10,24
185,679	118,78
185,898	-71,68
186,118	-6,14
186,338	30,72
186,557	102,4
186,777	-86,01
186,997	-63,49
187,216	10,24
187,436	110,59
187,655	73,73
187,875	92,16
188,095	26,62
188,314	131,07
188,534	98,3
188,753	-28,67
188,973	20,48
189,192	108,54
189,412	32,77
189,631	28,67
189,851	20,48
190,07	88,06
190,29	-18,43
190,509	69,63
190,729	20,48
190,948	165,89
191,168	212,99
191,387	30,72
191,607	90,11
191,826	98,3
192,045	18,43
192,265	129,02
192,484	-8,19
192,704	-34,82
192,923	-4,1
193,142	182,27
193,362	92,16
193,581	96,25
193,8	67,58
194,02	90,11
194,239	86,01
194,458	53,25
194,678	45,06
194,897	-14,34
195,116	24,58
195,335	63,49
195,555	45,06
195,774	28,67
195,993	67,58
196,212	53,25
196,432	53,25
196,651	-36,86
196,87	36,86
197,089	163,84
197,308	90,11
197,528	63,49
197,747	0
197,966	-20,48
198,185	176,13
198,404	-24,58
198,623	90,11
198,842	143,36
199,062	94,21
199,281	40,96
199,5	45,06
199,719	16,38
199,938	106,49
200,157	137,21
200,376	126,97
200,595	169,98
200,814	-22,53
201,033	32,77
201,252	151,55
201,471	-28,67
201,69	57,34
201,909	14,34
202,128	65,53
202,347	49,15
202,566	0
202,785	-63,49
203,004	-20,48
203,223	274,43
203,442	30,72
203,661	6,14
203,879	57,34
204,098	63,49
204,317	-45,06
204,536	112,64
204,755	22,53
204,974	61,44
205,193	22,53
205,411	163,84
205,63	49,15
205,849	59,39
206,068	14,34
206,287	-26,62
206,505	36,86
206,724	75,77
206,943	36,86
207,162	-26,62
207,381	30,72
207,599	4,1
207,818	20,48
208,037	-73,73
208,255	67,58
208,474	10,24
208,693	20,48
208,911	-32,77
209,13	100,35
209,349	47,1
209,567	81,92
209,786	96,25
210,005	53,25
210,223	59,39
210,442	-55,3
210,661	-12,29
210,879	-4,1
211,098	-18,43
211,316	16,38
211,535	114,69
211,753	65,53
211,972	69,63
212,191	-18,43
212,409	40,96
212,628	-38,91
212,846	32,77
213,065	2,05
213,283	77,82
213,502	81,92
213,72	16,38
213,938	45,06
214,157	-2,05
214,375	86,01
214,594	36,86
214,812	-14,34
215,031	20,48
215,249	-8,19
215,467	12,29
215,686	2,05
215,904	118,78
216,122	-49,15
216,341	90,11
216,559	4,1
216,778	151,55
216,996	143,36
217,214	34,82
217,432	12,29
217,651	-43,01
217,869	65,53
218,087	90,11
218,306	73,73
218,524	61,44
218,742	-53,25
218,96	10,24
219,179	0
219,397	24,58
219,615	229,37
219,833	108,54
220,051	-6,14
220,27	100,35
220,488	69,63
220,706	18,43
220,924	69,63
221,142	45,06
221,36	-24,58
221,578	53,25
221,796	47,1
222,015	12,29
222,233	59,39
222,451	92,16
222,669	0
222,887	28,67
223,105	2,05
223,323	43,01
223,541	0
223,759	151,55
223,977	36,86
224,195	114,69
224,413	45,06
224,631	22,53
224,849	6,14
225,067	139,26
225,285	30,72
225,503	49,15
225,721	-79,87
225,939	98,3
226,157	32,77
226,375	204,8
226,592	-131,07
226,81	45,06
227,028	73,73
227,246	157,69
227,464	2,05
227,682	30,72
227,9	43,01
228,117	-24,58
228,335	43,01
228,553	86,01
228,771	69,63
228,989	32,77
229,206	30,72
229,424	-4,1
229,642	-8,19
229,86	18,43
230,077	69,63
230,295	32,77
230,513	40,96
230,731	59,39
230,948	102,4
231,166	122,88
231,384	-18,43
231,601	-36,86
231,819	106,49
232,037	-51,2
232,254	-14,34
232,472	16,38
232,689	24,58
232,907	-6,14
233,125	-20,48
233,342	-14,34
233,56	20,48
233,777	8,19
233,995	20,48
234,213	151,55
234,43	126,97
234,648	-49,15
234,865	28,67
235,083	61,44
235,3	40,96
235,518	92,16
235,735	77,82
235,953	88,06
236,17	-4,1
236,388	-22,53
236,605	-6,14
236,822	104,45
237,04	69,63
237,257	4,1
237,475	61,44
237,692	43,01
237,909	-24,58
238,127	69,63
238,344	67,58
238,562	59,39
238,779	-38,91
238,996	-53,25
239,214	-2,05
239,431	147,45
239,648	16,38
239,865	106,49
240,083	73,73
240,3	34,82
240,517	0
240,735	-10,24
240,952	61,44
241,169	30,72
241,386	77,82
241,603	26,62
241,821	-30,72
242,038	73,73
242,255	34,82
242,472	-6,14
242,689	59,39
242,907	-49,15
243,124	-4,1
243,341	-53,25
243,558	-20,48
243,775	-32,77
243,992	-71,68
244,209	94,21
244,426	126,97
244,643	106,49
244,86	12,29
245,078	86,01
245,295	75,77
245,512	-45,06
245,729	22,53
245,946	65,53
246,163	28,67
246,38	-26,62
246,597	45,06
246,814	28,67
247,031	18,43
247,248	36,86
247,464	0
247,681	16,38
247,898	-26,62
248,115	14,34
248,332	-4,1
248,549	81,92
248,766	112,64
248,983	45,06
249,2	69,63
249,417	83,97
249,633	32,77
249,85	26,62
250,067	34,82
250,284	36,86
250,501	61,44
250,717	36,86
250,934	-28,67
251,151	16,38
251,368	86,01
251,585	43,01
251,801	32,77
252,018	-34,82
252,235	116,73
252,451	-10,24
252,668	-24,58
252,885	51,2
253,102	12,29
253,318	4,1
253,535	-47,1
253,752	-28,67
253,968	4,1
254,185	-26,62
254,401	8,19
254,618	-20,48
254,835	20,48
255,051	61,44
255,268	90,11
255,484	49,15
255,701	26,62
255,917	40,96
256,134	-16,38
256,351	88,06
256,567	-94,21
256,784	-26,62
257	-24,58
257,217	32,77
257,433	198,65
257,65	20,48
257,866	88,06
258,082	36,86
258,299	-40,96
258,515	90,11
258,732	-20,48
258,948	4,1
259,165	-73,73
259,381	-24,58
259,597	98,3
259,814	-65,54
260,03	-8,19
260,246	-4,1
260,463	145,41
260,679	86,01
260,895	51,2
261,112	45,06
261,328	36,86
261,544	-49,15
261,761	147,45
261,977	-22,53
262,193	49,15
262,409	94,21
262,626	88,06
262,842	-86,01
263,058	38,91
263,274	6,14
263,49	38,91
263,707	57,34
263,923	-12,29
264,139	-53,25
264,355	36,86
264,571	96,25
264,787	-18,43
265,004	90,11
265,22	28,67
265,436	-2,05
265,652	-26,62
265,868	4,1
266,084	-10,24
266,3	75,77
266,516	8,19
266,732	0
266,948	61,44
267,164	28,67
267,38	28,67
267,596	53,25
267,812	169,98
268,028	90,11
268,244	47,1
268,46	49,15
268,676	22,53
268,892	69,63
269,108	-38,91
269,324	-81,92
269,54	-47,1
269,756	108,54
269,972	-32,77
270,188	12,29
270,403	-8,19
270,619	12,29
270,835	34,82
271,051	26,62
271,267	-22,53
271,483	18,43
271,698	88,06
271,914	-36,86
272,13	49,15
272,346	112,64
272,562	45,06
272,777	92,16
272,993	-26,62
273,209	-32,77
273,425	36,86
273,64	-77,82
273,856	-40,96
274,072	-36,86
274,287	-6,14
274,503	116,73
274,719	-2,05
274,934	-28,67
275,15	-55,3
275,366	61,44
275,581	10,24
275,797	30,72
276,012	45,06
276,228	73,73
276,444	45,06
276,659	102,4
276,875	-30,72
277,09	18,43
277,306	49,15
277,521	126,97
277,737	-49,15
277,952	12,29
278,168	102,4
278,383	-53,25
278,599	34,82
278,814	61,44
279,03	67,58
279,245	137,21
279,461	14,34
279,676	36,86
279,892	-110,59
280,107	-16,38
280,322	22,53
280,538	10,24
280,753	0
280,969	43,01
281,184	28,67
281,399	165,89
281,615	-75,77
281,83	55,3
282,045	-36,86
282,26	-61,44
282,476	20,48
282,691	45,06
282,906	20,48
283,122	92,16
283,337	-2,05
283,552	57,34
283,767	-16,38
283,983	24,58
284,198	28,67
284,413	-45,06
284,628	-36,86
284,843	83,97
285,058	49,15
285,274	51,2
285,489	-65,54
285,704	86,01
285,919	-38,91
286,134	86,01
286,349	12,29
286,564	18,43
286,779	126,97
286,995	-40,96
287,21	-81,92
287,425	59,39
287,64	10,24
287,855	20,48
288,07	-124,93
288,285	69,63
288,5	75,77
288,715	2,05
288,93	57,34
289,145	-10,24
289,36	4,1
289,575	12,29
289,79	53,25
290,004	-71,68
290,219	104,45
290,434	-8,19
290,649	20,48
290,864	-20,48
291,079	6,14
291,294	4,1
291,509	59,39
291,724	-10,24
291,938	10,24
292,153	98,3
292,368	-40,96
292,583	22,53
292,798	65,53
293,012	69,63
293,227	-38,91
293,442	38,91
293,657	53,25
293,871	92,16
294,086	0
294,301	151,55
294,516	8,19
294,73	4,1
294,945	-36,86
295,16	36,86
295,374	55,3
295,589	131,07
295,804	12,29
296,018	90,11
296,233	139,26
296,447	-59,39
296,662	-94,21
296,877	81,92
297,091	63,49
297,306	38,91
297,52	59,39
297,735	32,77
297,949	65,53
298,164	28,67
298,378	20,48
298,593	-81,92
298,807	12,29
299,022	45,06
299,236	100,35
299,451	20,48
299,665	-12,29
299,88	-38,91
300,094	118,78
300,309	20,48
300,523	77,82
300,737	-88,06
300,952	20,48
301,166	43,01
301,381	-6,14
301,595	57,34
301,809	43,01
302,024	-77,82
302,238	-36,86
302,452	51,2
302,667	28,67
302,881	22,53
303,095	114,69
303,309	36,86
303,524	-114,69
303,738	-36,86
303,952	-32,77
304,166	94,21
304,381	-65,54
304,595	98,3
304,809	-28,67
305,023	16,38
305,237	-22,53
305,452	2,05
305,666	108,54
305,88	34,82
306,094	45,06
306,308	40,96
306,522	126,97
306,736	-28,67
306,95	57,34
307,164	22,53
307,379	71,68
307,593	98,3
307,807	53,25
308,021	57,34
308,235	47,1
308,449	-172,03
308,663	22,53
308,877	159,74
309,091	81,92
309,305	94,21
309,519	12,29
309,733	51,2
309,947	-92,16
310,161	75,77
310,374	106,49
310,588	40,96
310,802	-57,34
311,016	16,38
311,23	118,78
311,444	79,87
311,658	65,53
311,872	141,31
312,085	90,11
312,299	192,51
312,513	83,97
312,727	75,77
312,941	-30,72
313,154	57,34
313,368	77,82
313,582	67,58
313,796	81,92
314,009	12,29
314,223	6,14
314,437	-12,29
314,651	43,01
314,864	55,3
315,078	-28,67
315,292	32,77
315,505	8,19
315,719	-22,53
315,933	28,67
316,146	-4,1
316,36	53,25
316,573	79,87
316,787	24,58
317,001	116,73
317,214	-10,24
317,428	102,4
317,641	20,48
317,855	4,1
318,068	-26,62
318,282	-12,29
318,495	143,36
318,709	61,44
318,922	28,67
319,136	69,63
319,349	92,16
319,563	-12,29
319,776	-12,29
319,99	-106,49
320,203	153,6
320,417	32,77
320,63	141,31
320,843	225,28
321,057	8,19
321,27	-12,29
321,483	98,3
321,697	165,89
321,91	18,43
322,124	53,25
322,337	20,48
322,55	-51,2
322,763	36,86
322,977	16,38
323,19	12,29
323,403	0
323,617	69,63
323,83	36,86
324,043	-22,53
324,256	36,86
324,469	-24,58
324,683	16,38
324,896	4,1
325,109	-43,01
325,322	-57,34
325,535	145,41
325,748	114,69
325,962	32,77
326,175	38,91
326,388	81,92
326,601	139,26
326,814	0
327,027	-2,05
327,24	57,34
327,453	-108,54
327,666	114,69
327,879	126,97
328,092	133,12
328,305	-10,24
328,518	4,1
328,731	24,58
328,944	-30,72
329,157	110,59
329,37	20,48
329,583	114,69
329,796	104,45
330,009	-45,06
330,222	38,91
330,435	36,86
330,648	57,34
330,861	-73,73
331,073	-18,43
331,286	53,25
331,499	26,62
331,712	-63,49
331,925	-20,48
332,138	20,48
332,35	49,15
332,563	0
332,776	110,59
332,989	16,38
333,202	-16,38
333,414	4,1
333,627	102,4
333,84	-36,86
334,053	47,1
334,265	10,24
334,478	100,35
334,691	45,06
334,903	79,87
335,116	-36,86
335,329	75,77
335,541	92,16
335,754	167,93
335,966	-38,91
336,179	88,06
336,392	-14,34
336,604	69,63
336,817	114,69
337,029	14,34
337,242	-28,67
337,454	61,44
337,667	83,97
337,88	124,93
338,092	61,44
338,305	114,69
338,517	40,96
338,729	14,34
338,942	118,78
339,154	24,58
339,367	-36,86
339,579	118,78
339,792	28,67
340,004	8,19
340,217	65,53
340,429	59,39
340,641	-28,67
340,854	-12,29
341,066	-10,24
341,278	75,77
341,491	86,01
341,703	88,06
341,915	-6,14
342,128	55,3
342,34	53,25
342,552	57,34
342,764	118,78
342,977	36,86
343,189	86,01
343,401	124,93
343,613	-49,15
343,826	38,91
344,038	2,05
344,25	55,3
344,462	28,67
344,674	45,06
344,886	12,29
345,099	22,53
345,311	51,2
345,523	16,38
345,735	-141,31
345,947	53,25
346,159	45,06
346,371	0
346,583	26,62
346,795	196,61
347,007	122,88
347,219	94,21
347,431	57,34
347,643	133,12
347,855	43,01
348,067	114,69
348,279	16,38
348,491	141,31
348,703	174,08
348,915	49,15
349,127	-26,62
349,339	61,44
349,551	20,48
349,763	67,58
349,975	88,06
350,187	98,3
350,399	75,77
350,61	77,82
350,822	108,54
351,034	100,35
351,246	43,01
351,458	178,17
351,669	75,77
351,881	104,45
352,093	102,4
352,305	108,54
352,517	77,82
352,728	167,93
352,94	53,25
353,152	6,14
353,363	20,48
353,575	133,12
353,787	176,13
353,999	86,01
354,21	176,13
354,422	112,64
354,633	61,44
354,845	22,53
355,057	34,82
355,268	-12,29
355,48	139,26
355,692	40,96
355,903	-4,1
356,115	12,29
356,326	69,63
356,538	102,4
356,749	47,1
356,961	108,54
357,172	53,25
357,384	32,77
357,595	249,85
357,807	61,44
358,018	45,06
358,23	-22,53
358,441	126,97
358,653	47,1
358,864	36,86
359,075	-32,77
359,287	36,86
359,498	149,5
359,709	129,02
359,921	6,14
360,132	131,07
360,344	79,87
360,555	57,34
360,766	98,3
360,977	126,97
361,189	167,93
361,4	112,64
361,611	69,63
361,823	129,02
362,034	71,68
362,245	-69,63
362,456	81,92
362,667	45,06
362,879	-18,43
363,09	92,16
363,301	67,58
363,512	75,77
363,723	36,86
363,935	53,25
364,146	182,27
364,357	61,44
364,568	65,53
364,779	32,77
364,99	182,27
365,201	20,48
365,412	118,78
365,623	65,53
365,834	135,17
366,045	32,77
366,256	180,22
366,467	151,55
366,678	-12,29
366,889	43,01
367,1	133,12
367,311	96,25
367,522	100,35
367,733	159,74
367,944	94,21
368,155	126,97
368,366	116,73
368,577	151,55
368,788	192,51
368,999	63,49
369,209	45,06
369,42	235,52
369,631	223,23
369,842	86,01
370,053	4,1
370,264	163,84
370,474	4,1
370,685	61,44
370,896	20,48
371,107	163,84
371,317	126,97
371,528	86,01
371,739	212,99
371,95	159,74
372,16	69,63
372,371	47,1
372,582	65,53
372,792	196,61
373,003	83,97
373,214	51,2
373,424	114,69
373,635	55,3
373,846	131,07
374,056	110,59
374,267	159,74
374,477	108,54
374,688	28,67
374,898	43,01
375,109	137,21
375,319	112,64
375,53	110,59
375,74	118,78
375,951	118,78
376,161	114,69
376,372	137,21
376,582	26,62
376,793	92,16
377,003	51,2
377,214	69,63
377,424	126,97
377,635	53,25
377,845	45,06
378,055	161,79
378,266	4,1
378,476	86,01
378,686	45,06
378,897	94,21
379,107	126,97
379,317	167,93
379,528	102,4
379,738	149,5
379,948	83,97
380,158	190,46
380,369	118,78
380,579	135,17
380,789	77,82
380,999	153,6
381,21	174,08
381,42	278,52
381,63	106,49
381,84	135,17
382,05	133,12
382,261	180,22
382,471	184,32
382,681	22,53
382,891	188,41
383,101	120,83
383,311	32,77
383,521	106,49
383,731	124,93
383,941	219,13
384,151	61,44
384,361	114,69
384,571	131,07
384,781	69,63
384,991	321,53
385,201	188,41
385,411	167,93
385,621	90,11
385,831	192,51
386,041	122,88
386,251	133,12
386,461	149,5
386,671	18,43
386,881	143,36
387,091	141,31
387,301	122,88
387,511	61,44
387,72	106,49
387,93	167,93
388,14	10,24
388,35	153,6
388,56	167,93
388,769	151,55
388,979	106,49
389,189	114,69
389,399	131,07
389,609	192,51
389,818	135,17
390,028	124,93
390,238	155,65
390,447	67,58
390,657	106,49
390,867	45,06
391,076	8,19
391,286	147,45
391,496	34,82
391,705	61,44
391,915	200,7
392,125	129,02
392,334	40,96
392,544	184,32
392,753	28,67
392,963	-4,1
393,172	63,49
393,382	55,3
393,591	311,29
393,801	118,78
394,01	180,22
394,22	198,65
394,429	108,54
394,639	43,01
394,848	108,54
395,058	92,16
395,267	126,97
395,477	147,45
395,686	137,21
395,895	196,61
396,105	305,15
396,314	141,31
396,524	153,6
396,733	126,97
396,942	151,55
397,152	229,37
397,361	141,31
397,57	110,59
397,78	20,48
397,989	102,4
398,198	286,72
398,407	90,11
398,617	124,93
398,826	118,78
399,035	57,34
399,244	182,27
399,453	118,78
399,663	59,39
399,872	110,59
400,081	28,67
400,29	198,65
400,499	75,77
400,708	120,83
400,917	32,77
401,127	59,39
401,336	63,49
401,545	208,89
401,754	174,08
401,963	90,11
402,172	77,82
402,381	34,82
402,59	57,34
402,799	65,53
403,008	192,51
403,217	100,35
403,426	116,73
403,635	-4,1
403,844	102,4
404,053	79,87
404,262	126,97
404,471	284,67
404,68	102,4
404,888	106,49
405,097	143,36
405,306	112,64
405,515	180,22
405,724	126,97
405,933	190,46
406,142	145,41
406,35	182,27
406,559	86,01
406,768	124,93
406,977	112,64
407,185	100,35
407,394	131,07
407,603	-69,63
407,812	118,78
408,02	190,46
408,229	61,44
408,438	104,45
408,646	98,3
408,855	178,17
409,064	157,69
409,272	110,59
409,481	186,37
409,69	155,65
409,898	190,46
410,107	305,15
410,315	321,53
410,524	190,46
410,733	221,18
410,941	165,89
411,15	215,04
411,358	167,93
411,567	192,51
411,775	184,32
411,984	102,4
412,192	208,89
412,401	133,12
412,609	212,99
412,818	180,22
413,026	204,8
413,234	92,16
413,443	139,26
413,651	28,67
413,86	151,55
414,068	186,37
414,276	190,46
414,485	22,53
414,693	184,32
414,901	180,22
415,11	110,59
415,318	26,62
415,526	94,21
415,734	116,73
415,943	118,78
416,151	167,93
416,359	135,17
416,567	116,73
416,776	172,03
416,984	182,27
417,192	284,67
417,4	26,62
417,608	53,25
417,817	65,53
418,025	165,89
418,233	210,94
418,441	-10,24
418,649	20,48
418,857	143,36
419,065	165,89
419,273	163,84
419,481	45,06
419,689	75,77
419,897	-16,38
420,105	45,06
420,313	184,32
420,521	221,18
420,729	172,03
420,937	118,78
421,145	53,25
421,353	157,69
421,561	198,65
421,769	61,44
421,977	59,39
422,185	106,49
422,393	45,06
422,601	143,36
422,809	102,4
423,017	176,13
423,224	163,84
423,432	151,55
423,64	135,17
423,848	131,07
424,056	30,72
424,263	178,17
424,471	79,87
424,679	98,3
424,887	94,21
425,094	172,03
425,302	129,02
425,51	120,83
425,718	57,34
425,925	40,96
426,133	-12,29
426,341	198,65
426,548	49,15
426,756	81,92
426,964	159,74
427,171	18,43
427,379	36,86
427,586	51,2
427,794	16,38
428,001	153,6
428,209	6,14
428,417	184,32
428,624	73,73
428,832	180,22
429,039	30,72
429,247	141,31
429,454	139,26
429,662	157,69
429,869	61,44
430,076	174,08
430,284	53,25
430,491	172,03
430,699	159,74
430,906	215,04
431,114	61,44
431,321	116,73
431,528	51,2
431,736	129,02
431,943	139,26
432,15	126,97
432,358	286,72
432,565	311,29
432,772	274,43
432,979	432,12
433,187	495,61
433,394	626,68
433,601	684,02
433,808	782,32
434,016	804,85
434,223	823,28
434,43	845,81
434,637	780,28
434,844	706,55
435,052	509,94
435,259	524,28
435,466	413,69
435,673	296,96
435,88	319,48
436,087	272,38
436,294	172,03
436,501	180,22
436,708	147,45
436,915	131,07
437,122	98,3
437,329	86,01
437,537	92,16
437,743	83,97
437,95	157,69
438,157	0
438,364	59,39
438,571	14,34
438,778	188,41
438,985	69,63
439,192	143,36
439,399	71,68
439,606	65,53
439,813	163,84
440,02	186,37
440,227	176,13
440,433	233,47
440,64	110,59
440,847	20,48
441,054	178,17
441,261	286,72
441,467	120,83
441,674	43,01
441,881	188,41
442,088	137,21
442,294	139,26
442,501	102,4
442,708	126,97
442,914	75,77
443,121	92,16
443,328	159,74
443,534	106,49
443,741	57,34
443,948	45,06
444,154	102,4
444,361	256
444,568	118,78
444,774	92,16
444,981	18,43
445,187	225,28
445,394	129,02
445,6	71,68
445,807	159,74
446,013	86,01
446,22	16,38
446,426	81,92
446,633	102,4
446,839	120,83
447,046	102,4
447,252	81,92
447,459	122,88
447,665	94,21
447,871	169,98
448,078	90,11
448,284	204,8
448,491	129,02
448,697	120,83
448,903	135,17
449,11	104,45
449,316	49,15
449,522	169,98
449,728	178,17
449,935	126,97
450,141	73,73
450,347	215,04
450,553	163,84
450,76	151,55
450,966	124,93
451,172	135,17
451,378	38,91
451,584	151,55
451,791	192,51
451,997	90,11
452,203	135,17
452,409	114,69
452,615	176,13
452,821	86,01
453,027	73,73
453,233	253,95
453,44	147,45
453,646	120,83
453,852	90,11
454,058	36,86
454,264	172,03
454,47	167,93
454,676	102,4
454,882	102,4
455,088	151,55
455,294	28,67
455,5	145,41
455,705	77,82
455,911	147,45
456,117	49,15
456,323	16,38
456,529	155,65
456,735	61,44
456,941	112,64
457,147	114,69
457,352	184,32
457,558	6,14
457,764	204,8
457,97	77,82
458,176	96,25
458,381	-22,53
458,587	219,13
458,793	118,78
458,999	79,87
459,204	131,07
459,41	131,07
459,616	59,39
459,821	139,26
460,027	-4,1
460,233	192,51
460,438	126,97
460,644	94,21
460,85	122,88
461,055	88,06
461,261	139,26
461,466	131,07
461,672	159,74
461,878	51,2
462,083	163,84
462,289	61,44
462,494	38,91
462,7	126,97
462,905	124,93
463,111	145,41
463,316	184,32
463,522	133,12
463,727	141,31
463,932	122,88
464,138	118,78
464,343	61,44
464,549	118,78
464,754	147,45
464,959	151,55
465,165	106,49
465,37	106,49
465,575	108,54
465,781	55,3
465,986	86,01
466,191	94,21
466,397	106,49
466,602	159,74
466,807	92,16
467,012	172,03
467,218	112,64
467,423	34,82
467,628	135,17
467,833	24,58
468,038	167,93
468,244	86,01
468,449	61,44
468,654	49,15
468,859	96,25
469,064	18,43
469,269	10,24
469,474	124,93
469,679	178,17
469,885	81,92
470,09	45,06
470,295	61,44
470,5	75,77
470,705	114,69
470,91	98,3
471,115	98,3
471,32	126,97
471,525	233,47
471,73	184,32
471,935	139,26
472,139	75,77
472,344	32,77
472,549	96,25
472,754	110,59
472,959	147,45
473,164	92,16
473,369	69,63
473,574	190,46
473,778	159,74
473,983	172,03
474,188	141,31
474,393	77,82
474,598	49,15
474,802	59,39
475,007	36,86
475,212	172,03
475,417	69,63
475,621	169,98
475,826	43,01
476,031	65,53
476,235	32,77
476,44	98,3
476,645	122,88
476,849	2,05
477,054	77,82
477,259	49,15
477,463	165,89
477,668	299
477,872	217,08
478,077	229,37
478,282	100,35
478,486	133,12
478,691	94,21
478,895	40,96
479,1	151,55
479,304	196,61
479,509	75,77
479,713	217,08
479,918	106,49
480,122	143,36
480,326	153,6
480,531	126,97
480,735	167,93
480,94	94,21
481,144	249,85
481,348	75,77
481,553	143,36
481,757	69,63
481,961	45,06
482,166	145,41
482,37	63,49
482,574	149,5
482,778	65,53
482,983	145,41
483,187	180,22
483,391	116,73
483,595	124,93
483,8	258,04
484,004	503,8
484,208	765,94
484,412	1282,03
484,616	1877,99
484,821	2588,63
485,025	3463,12
485,229	4675,51
485,433	5824,42
485,637	7120,79
485,841	8200,07
486,045	9062,26
486,249	9887,59
486,453	9541,49
486,657	8523,65
486,861	7874,44
487,065	6911,89
487,269	5803,94
487,473	4458,43
487,677	3751,88
487,881	3133,39
488,085	2381,79
488,289	2013,15
488,493	1478,63
488,697	1099,76
488,901	759,8
489,105	544,76
489,309	350,2
489,512	372,73
489,716	217,08
489,92	249,85
490,124	178,17
490,328	219,13
490,531	102,4
490,735	258,04
490,939	90,11
491,143	151,55
491,346	182,27
491,55	184,32
491,754	141,31
491,958	157,69
492,161	141,31
492,365	178,17
492,569	204,8
492,772	190,46
492,976	221,18
493,18	157,69
493,383	208,89
493,587	215,04
493,79	196,61
493,994	143,36
494,197	217,08
494,401	139,26
494,605	153,6
494,808	69,63
495,012	92,16
495,215	190,46
495,419	210,94
495,622	221,18
495,825	75,77
496,029	57,34
496,232	155,65
496,436	120,83
496,639	176,13
496,843	137,21
497,046	83,97
497,249	174,08
497,453	159,74
497,656	28,67
497,859	143,36
498,063	176,13
498,266	104,45
498,469	92,16
498,673	104,45
498,876	73,73
499,079	81,92
499,282	102,4
499,485	282,62
499,689	86,01
499,892	192,51
500,095	79,87
500,298	120,83
500,501	14,34
500,705	122,88
500,908	75,77
501,111	92,16
501,314	225,28
501,517	167,93
501,72	36,86
501,923	135,17
502,126	90,11
502,329	131,07
502,532	161,79
502,735	167,93
502,938	245,76
503,141	139,26
503,344	-16,38
503,547	223,23
503,75	40,96
503,953	100,35
504,156	143,36
504,359	116,73
504,562	20,48
504,765	86,01
504,968	165,89
505,17	129,02
505,373	98,3
505,576	57,34
505,779	34,82
505,982	53,25
506,185	126,97
506,387	61,44
506,59	90,11
506,793	153,6
506,996	104,45
507,198	143,36
507,401	143,36
507,604	268,28
507,807	73,73
508,009	106,49
508,212	147,45
508,415	36,86
508,617	75,77
508,82	86,01
509,022	67,58
509,225	243,71
509,428	81,92
509,63	110,59
509,833	32,77
510,035	147,45
510,238	81,92
510,44	75,77
510,643	147,45
510,845	151,55
511,048	178,17
511,25	49,15
511,453	53,25
511,655	163,84
511,858	204,8
512,06	241,66
512,262	45,06
512,465	57,34
512,667	96,25
512,87	-22,53
513,072	147,45
513,274	53,25
513,477	100,35
513,679	81,92
513,881	124,93
514,084	40,96
514,286	182,27
514,488	135,17
514,69	61,44
514,893	92,16
515,095	47,1
515,297	6,14
515,499	45,06
515,701	73,73
515,904	165,89
516,106	202,75
516,308	198,65
516,51	110,59
516,712	167,93
516,914	143,36
517,116	51,2
517,318	20,48
517,52	118,78
517,722	45,06
517,925	96,25
518,127	61,44
518,329	202,75
518,531	38,91
518,733	149,5
518,935	83,97
519,136	188,41
519,338	36,86
519,54	69,63
519,742	98,3
519,944	174,08
520,146	81,92
520,348	77,82
520,55	159,74
520,752	61,44
520,954	24,58
521,155	147,45
521,357	16,38
521,559	192,51
521,761	188,41
521,963	131,07
522,164	194,56
522,366	178,17
522,568	83,97
522,77	155,65
522,971	135,17
523,173	108,54
523,375	135,17
523,576	-18,43
523,778	10,24
523,98	131,07
524,181	157,69
524,383	90,11
524,584	104,45
524,786	53,25
524,988	12,29
525,189	53,25
525,391	139,26
525,592	18,43
525,794	30,72
525,995	165,89
526,197	126,97
526,398	215,04
526,6	116,73
526,801	114,69
527,003	30,72
527,204	131,07
527,406	79,87
527,607	83,97
527,808	114,69
528,01	61,44
528,211	180,22
528,412	-22,53
528,614	151,55
528,815	124,93
529,016	161,79
529,218	143,36
529,419	133,12
529,62	100,35
529,822	120,83
530,023	45,06
530,224	137,21
530,425	192,51
530,626	94,21
530,828	100,35
531,029	16,38
531,23	204,8
531,431	-26,62
531,632	184,32
531,833	32,77
532,035	77,82
532,236	51,2
532,437	182,27
532,638	55,3
532,839	0
533,04	86,01
533,241	104,45
533,442	45,06
533,643	45,06
533,844	34,82
534,045	0
534,246	71,68
534,447	69,63
534,648	51,2
534,849	212,99
535,05	102,4
535,251	83,97
535,451	133,12
535,652	28,67
535,853	10,24
536,054	73,73
536,255	61,44
536,456	45,06
536,657	104,45
536,857	71,68
537,058	38,91
537,259	69,63
537,46	49,15
537,66	53,25
537,861	53,25
538,062	40,96
538,263	-12,29
538,463	20,48
538,664	75,77
538,865	57,34
539,065	77,82
539,266	96,25
539,466	36,86
539,667	104,45
539,868	26,62
540,068	45,06
540,269	165,89
540,469	75,77
540,67	180,22
540,87	59,39
541,071	16,38
541,271	174,08
541,472	180,22
541,672	155,65
541,873	192,51
542,073	73,73
542,274	53,25
542,474	114,69
542,675	126,97
542,875	100,35
543,075	10,24
543,276	106,49
543,476	10,24
543,676	161,79
543,877	90,11
544,077	118,78
544,277	159,74
544,478	83,97
544,678	139,26
544,878	122,88
545,078	77,82
545,279	20,48
545,479	36,86
545,679	2,05
545,879	-22,53
546,079	83,97
546,28	-65,54
546,48	61,44
546,68	135,17
546,88	32,77
547,08	63,49
547,28	92,16
547,48	-24,58
547,68	69,63
547,88	4,1
548,081	30,72
548,281	-71,68
548,481	10,24
548,681	176,13
548,881	77,82
549,081	83,97
549,28	32,77
549,48	28,67
549,68	88,06
549,88	-45,06
550,08	51,2
550,28	110,59
550,48	196,61
550,68	20,48
550,88	40,96
551,08	28,67
551,279	157,69
551,479	-4,1
551,679	69,63
551,879	24,58
552,079	116,73
552,278	110,59
552,478	172,03
552,678	28,67
552,878	102,4
553,077	47,1
553,277	-20,48
553,477	73,73
553,676	190,46
553,876	131,07
554,076	65,53
554,275	28,67
554,475	135,17
554,674	126,97
554,874	98,3
555,074	69,63
555,273	73,73
555,473	108,54
555,672	40,96
555,872	65,53
556,071	83,97
556,271	176,13
556,47	98,3
556,67	86,01
556,869	92,16
557,068	36,86
557,268	116,73
557,467	-6,14
557,667	100,35
557,866	32,77
558,065	67,58
558,265	90,11
558,464	30,72
558,663	77,82
558,863	73,73
559,062	186,37
559,261	24,58
559,461	77,82
559,66	65,53
559,859	12,29
560,058	18,43
560,258	61,44
560,457	73,73
560,656	88,06
560,855	-26,62
561,054	81,92
561,253	151,55
561,453	40,96
561,652	122,88
561,851	59,39
562,05	-14,34
562,249	-57,34
562,448	98,3
562,647	-53,25
562,846	26,62
563,045	126,97
563,244	77,82
563,443	65,53
563,642	61,44
563,841	77,82
564,04	77,82
564,239	55,3
564,438	96,25
564,637	-61,44
564,836	100,35
565,035	77,82
565,234	45,06
565,432	135,17
565,631	143,36
565,83	159,74
566,029	12,29
566,228	106,49
566,427	184,32
566,625	-4,1
566,824	118,78
567,023	100,35
567,222	6,14
567,42	112,64
567,619	141,31
567,818	122,88
568,016	155,65
568,215	133,12
568,414	196,61
568,612	135,17
568,811	176,13
569,01	112,64
569,208	131,07
569,407	192,51
569,605	243,71
569,804	180,22
570,002	180,22
570,201	92,16
570,4	133,12
570,598	208,89
570,797	178,17
570,995	81,92
571,193	192,51
571,392	86,01
571,59	28,67
571,789	161,79
571,987	174,08
572,186	217,08
572,384	192,51
572,582	94,21
572,781	286,72
572,979	124,93
573,177	147,45
573,376	231,42
573,574	258,04
573,772	167,93
573,971	174,08
574,169	149,5
574,367	249,85
574,565	133,12
574,763	100,35
574,962	200,7
575,16	124,93
575,358	133,12
575,556	126,97
575,754	217,08
575,952	143,36
576,151	206,84
576,349	217,08
576,547	108,54
576,745	258,04
576,943	239,61
577,141	188,41
577,339	143,36
577,537	196,61
577,735	278,52
577,933	299
578,131	145,41
578,329	360,44
578,527	155,65
578,725	290,81
578,923	69,63
579,121	327,67
579,319	202,75
579,516	278,52
579,714	407,55
579,912	241,66
580,11	118,78
580,308	196,61
580,506	331,77
580,704	221,18
580,901	370,68
581,099	444,41
581,297	370,68
581,495	389,11
581,692	337,91
581,89	436,22
582,088	286,72
582,285	382,97
582,483	286,72
582,681	366,59
582,878	321,53
583,076	339,96
583,274	204,8
583,471	395,26
583,669	303,1
583,866	131,07
584,064	176,13
584,262	165,89
584,459	258,04
584,657	278,52
584,854	225,28
585,052	208,89
585,249	137,21
585,447	241,66
585,644	176,13
585,841	235,52
586,039	198,65
586,236	174,08
586,434	176,13
586,631	227,32
586,828	176,13
587,026	237,56
587,223	126,97
587,42	184,32
587,618	315,39
587,815	346,11
588,012	262,14
588,21	196,61
588,407	288,76
588,604	280,57
588,801	264,19
588,999	241,66
589,196	313,34
589,393	182,27
589,59	274,43
589,787	225,28
589,984	229,37
590,182	188,41
590,379	100,35
590,576	88,06
590,773	221,18
590,97	141,31
591,167	143,36
591,364	217,08
591,561	167,93
591,758	299
591,955	212,99
592,152	204,8
592,349	194,56
592,546	208,89
592,743	229,37
592,94	253,95
593,137	163,84
593,334	319,48
593,531	225,28
593,727	296,96
593,924	233,47
594,121	256
594,318	159,74
594,515	206,84
594,712	323,58
594,908	282,62
595,105	108,54
595,302	237,56
595,499	266,24
595,696	233,47
595,892	202,75
596,089	157,69
596,286	159,74
596,482	276,48
596,679	180,22
596,876	182,27
597,072	292,86
597,269	227,32
597,466	233,47
597,662	194,56
597,859	98,3
598,055	145,41
598,252	243,71
598,448	231,42
598,645	239,61
598,841	180,22
599,038	307,2
599,234	274,43
599,431	258,04
599,627	135,17
599,824	163,84
600,02	131,07
600,217	81,92
600,413	112,64
600,609	131,07
600,806	321,53
601,002	116,73
601,198	86,01
601,395	190,46
601,591	229,37
601,787	219,13
601,984	288,76
602,18	268,28
602,376	239,61
602,572	335,87
602,769	391,16
602,965	241,66
603,161	290,81
603,357	317,44
603,553	299
603,75	212,99
603,946	235,52
604,142	217,08
604,338	292,86
604,534	159,74
604,73	204,8
604,926	172,03
605,122	264,19
605,318	118,78
605,514	208,89
605,71	24,58
605,906	235,52
606,102	149,5
606,298	233,47
606,494	268,28
606,69	317,44
606,886	192,51
607,082	174,08
607,278	79,87
607,474	305,15
607,67	258,04
607,866	118,78
608,062	276,48
608,257	204,8
608,453	45,06
608,649	260,09
608,845	151,55
609,041	174,08
609,236	184,32
609,432	233,47
609,628	231,42
609,824	143,36
610,019	61,44
610,215	90,11
610,411	200,7
610,606	239,61
610,802	59,39
610,998	96,25
611,193	147,45
611,389	61,44
611,584	200,7
611,78	86,01
611,976	108,54
612,171	296,96
612,367	153,6
612,562	200,7
612,758	157,69
612,953	86,01
613,149	155,65
613,344	202,75
613,539	180,22
613,735	274,43
613,93	106,49
614,126	122,88
614,321	200,7
614,517	202,75
614,712	196,61
614,907	245,76
615,103	116,73
615,298	86,01
615,493	79,87
615,688	112,64
615,884	188,41
616,079	96,25
616,274	157,69
616,47	49,15
616,665	0
616,86	143,36
617,055	155,65
617,25	69,63
617,445	92,16
617,641	79,87
617,836	79,87
618,031	57,34
618,226	98,3
618,421	174,08
618,616	104,45
618,811	149,5
619,006	88,06
619,201	219,13
619,396	133,12
619,591	137,21
619,786	182,27
619,981	94,21
620,176	131,07
620,371	67,58
620,566	73,73
620,761	212,99
620,956	147,45
621,151	86,01
621,346	86,01
621,541	-47,1
621,735	190,46
621,93	106,49
622,125	36,86
622,32	126,97
622,515	10,24
622,709	129,02
622,904	258,04
623,099	108,54
623,294	184,32
623,488	98,3
623,683	94,21
623,878	174,08
624,072	204,8
624,267	81,92
624,462	75,77
624,656	81,92
624,851	92,16
625,046	114,69
625,24	77,82
625,435	26,62
625,629	81,92
625,824	223,23
626,018	75,77
626,213	133,12
626,407	106,49
626,602	194,56
626,796	112,64
626,991	210,94
627,185	49,15
627,38	94,21
627,574	161,79
627,768	126,97
627,963	135,17
628,157	16,38
628,352	24,58
628,546	94,21
628,74	86,01
628,935	139,26
629,129	102,4
629,323	98,3
629,517	0
629,712	12,29
629,906	118,78
630,1	188,41
630,294	190,46
630,489	22,53
630,683	106,49
630,877	65,53
631,071	71,68
631,265	34,82
631,459	122,88
631,653	73,73
631,848	90,11
632,042	124,93
632,236	126,97
632,43	167,93
632,624	20,48
632,818	135,17
633,012	112,64
633,206	126,97
633,4	133,12
633,594	217,08
633,788	59,39
633,982	120,83
634,176	235,52
634,369	114,69
634,563	165,89
634,757	8,19
634,951	122,88
635,145	172,03
635,339	112,64
635,533	83,97
635,726	98,3
635,92	163,84
636,114	67,58
636,308	57,34
636,501	83,97
636,695	69,63
636,889	-16,38
637,083	167,93
637,276	77,82
637,47	-4,1
637,664	34,82
637,857	79,87
638,051	63,49
638,244	237,56
638,438	102,4
638,632	225,28
638,825	2,05
639,019	135,17
639,212	32,77
639,406	143,36
639,599	45,06
639,793	96,25
639,986	34,82
640,18	126,97
640,373	114,69
640,567	106,49
640,76	122,88
640,954	124,93
641,147	69,63
641,34	69,63
641,534	124,93
641,727	94,21
641,92	114,69
642,114	90,11
642,307	57,34
642,5	86,01
642,694	-8,19
642,887	61,44
643,08	102,4
643,273	143,36
643,467	12,29
643,66	92,16
643,853	53,25
644,046	94,21
644,239	92,16
644,432	77,82
644,626	18,43
644,819	47,1
645,012	69,63
645,205	124,93
645,398	131,07
645,591	32,77
645,784	32,77
645,977	40,96
646,17	69,63
646,363	102,4
646,556	-12,29
646,749	49,15
646,942	86,01
647,135	163,84
647,328	8,19
647,521	88,06
647,714	-22,53
647,907	81,92
648,099	104,45
648,292	118,78
648,485	116,73
648,678	59,39
648,871	24,58
649,064	94,21
649,256	40,96
649,449	6,14
649,642	-14,34
649,835	34,82
650,027	94,21
650,22	112,64
650,413	40,96
650,605	118,78
650,798	86,01
650,991	67,58
651,183	163,84
651,376	192,51
651,568	247,8
651,761	204,8
651,954	165,89
652,146	133,12
652,339	184,32
652,531	262,14
652,724	108,54
652,916	100,35
653,109	63,49
653,301	249,85
653,494	253,95
653,686	204,8
653,879	311,29
654,071	286,72
654,263	215,04
654,456	421,88
654,648	903,15
654,84	2482,14
655,033	6584,22
655,225	13319,99
655,417	22970,02
655,61	32970,25
655,802	43021,68
655,994	51893,48
656,186	59067,51
656,379	62121,04
656,571	61963,34
656,763	59380,85
656,955	55925,93
657,148	52774,11
657,34	48731,42
657,532	43513,19
657,724	39318,95
657,916	34944,49
658,108	29910,58
658,3	25005,7
658,492	20639,43
658,684	17041,15
658,876	14173,99
659,068	11831,12
659,26	9351,03
659,452	7206,8
659,644	5361,58
659,836	4083,65
660,028	2748,37
660,22	1865,7
660,412	1298,41
660,604	968,69
660,796	739,32
660,988	727,03
661,18	438,27
661,372	415,74
661,563	391,16
661,755	247,8
661,947	172,03
662,139	198,65
662,331	174,08
662,522	239,61
662,714	155,65
662,906	126,97
663,097	143,36
663,289	155,65
663,481	61,44
663,673	208,89
663,864	180,22
664,056	163,84
664,247	20,48
664,439	225,28
664,631	69,63
664,822	161,79
665,014	94,21
665,205	149,5
665,397	40,96
665,588	40,96
665,78	73,73
665,971	200,7
666,163	40,96
666,354	59,39
666,546	59,39
666,737	88,06
666,929	43,01
667,12	45,06
667,311	81,92
667,503	32,77
667,694	108,54
667,885	83,97
668,077	86,01
668,268	86,01
668,459	2,05
668,651	30,72
668,842	114,69
669,033	49,15
669,224	36,86
669,416	194,56
669,607	73,73
669,798	0
669,989	172,03
670,18	100,35
670,371	90,11
670,563	0
670,754	98,3
670,945	122,88
671,136	122,88
671,327	43,01
671,518	163,84
671,709	180,22
671,9	86,01
672,091	120,83
672,282	67,58
672,473	83,97
672,664	12,29
672,855	24,58
673,046	100,35
673,237	67,58
673,428	61,44
673,619	98,3
673,809	-86,01
674	61,44
674,191	36,86
674,382	28,67
674,573	38,91
674,764	40,96
674,954	45,06
675,145	14,34
675,336	32,77
675,527	-38,91
675,717	32,77
675,908	38,91
676,099	-12,29
676,289	47,1
676,48	36,86
676,671	57,34
676,861	4,1
677,052	86,01
677,243	-18,43
677,433	77,82
677,624	81,92
677,814	49,15
678,005	-71,68
678,195	131,07
678,386	51,2
678,576	20,48
678,767	-38,91
678,957	79,87
679,148	174,08
679,338	141,31
679,529	-12,29
679,719	-8,19
679,909	45,06
680,1	106,49
680,29	14,34
680,481	-55,3
680,671	81,92
680,861	28,67
681,052	12,29
681,242	40,96
681,432	34,82
681,622	0
681,813	20,48
682,003	57,34
682,193	-20,48
682,383	22,53
682,573	18,43
682,764	10,24
682,954	-4,1
683,144	10,24
683,334	-16,38
683,524	45,06
683,714	-30,72
683,904	71,68
684,094	43,01
684,284	53,25
684,474	59,39
684,664	77,82
684,854	-38,91
685,044	43,01
685,234	-24,58
685,424	81,92
685,614	-71,68
685,804	124,93
685,994	43,01
686,184	104,45
686,374	36,86
686,564	12,29
686,753	26,62
686,943	-55,3
687,133	4,1
687,323	24,58
687,513	0
687,702	57,34
687,892	28,67
688,082	71,68
688,272	98,3
688,461	12,29
688,651	28,67
688,841	32,77
689,03	-8,19
689,22	-32,77
689,41	75,77
689,599	98,3
689,789	4,1
689,979	86,01
690,168	-45,06
690,358	57,34
690,547	2,05
690,737	63,49
690,926	4,1
691,116	112,64
691,305	81,92
691,495	102,4
691,684	12,29
691,874	53,25
692,063	-34,82
692,252	69,63
692,442	43,01
692,631	16,38
692,82	-65,54
693,01	65,53
693,199	96,25
693,388	67,58
693,578	-34,82
693,767	30,72
693,956	14,34
694,146	14,34
694,335	120,83
694,524	38,91
694,713	24,58
694,902	-147,45
695,092	-45,06
695,281	88,06
695,47	40,96
695,659	16,38
695,848	75,77
696,037	-55,3
696,226	131,07
696,415	-4,1
696,604	94,21
696,793	65,53
696,982	-4,1
697,171	116,73
697,36	-4,1
697,549	24,58
697,738	-86,01
697,927	10,24
698,116	-79,87
698,305	51,2
698,494	38,91
698,683	-36,86
698,872	126,97
699,061	-57,34
699,25	16,38
699,438	-10,24
699,627	-4,1
699,816	108,54
700,005	-110,59
700,193	38,91
700,382	8,19
700,571	2,05
700,76	24,58
700,948	65,53
701,137	71,68
701,326	59,39
701,514	-6,14
701,703	79,87
701,892	14,34
702,08	180,22
702,269	73,73
702,457	18,43
702,646	69,63
702,834	-14,34
703,023	69,63
703,212	16,38
703,4	-30,72
703,589	75,77
703,777	-18,43
703,965	-14,34
704,154	20,48
704,342	18,43
704,531	-32,77
704,719	18,43
704,907	77,82
705,096	67,58
705,284	-24,58
705,472	2,05
705,661	73,73
705,849	-2,05
706,037	12,29
706,226	32,77
706,414	51,2
706,602	14,34
706,79	45,06
706,979	-18,43
707,167	-34,82
707,355	-43,01
707,543	34,82
707,731	65,53
707,919	-12,29
708,107	-24,58
708,296	-36,86
708,484	-24,58
708,672	133,12
708,86	32,77
709,048	67,58
709,236	8,19
709,424	-36,86
709,612	65,53
709,8	-81,92
709,988	43,01
710,176	57,34
710,364	139,26
710,551	10,24
710,739	-6,14
710,927	12,29
711,115	57,34
711,303	40,96
711,491	43,01
711,679	53,25
711,866	83,97
712,054	-12,29
712,242	65,53
712,43	45,06
712,617	18,43
712,805	104,45
712,993	4,1
713,181	-69,63
713,368	69,63
713,556	51,2
713,744	98,3
713,931	176,13
714,119	88,06
714,306	-36,86
714,494	-43,01
714,682	-20,48
714,869	-4,1
715,057	-6,14
715,244	-53,25
715,432	34,82
715,619	-65,54
715,807	-43,01
715,994	-92,16
716,182	-45,06
716,369	20,48
716,556	-22,53
716,744	-65,54
716,931	-55,3
717,119	38,91
717,306	-20,48
717,493	12,29
717,681	6,14
717,868	-10,24
718,055	75,77
718,242	-2,05
718,43	53,25
718,617	114,69
718,804	40,96
718,991	118,78
719,179	53,25
719,366	133,12
719,553	-45,06
719,74	8,19
719,927	26,62
720,114	-43,01
720,301	-28,67
720,488	-40,96
720,676	-49,15
720,863	114,69
721,05	182,27
721,237	26,62
721,424	30,72
721,611	10,24
721,798	-49,15
721,985	2,05
722,172	-4,1
722,358	4,1
722,545	65,53
722,732	6,14
722,919	53,25
723,106	-6,14
723,293	12,29
723,48	-12,29
723,667	-20,48
723,853	98,3
724,04	63,49
724,227	110,59
724,414	4,1
724,6	83,97
724,787	200,7
724,974	129,02
725,161	-36,86
725,347	-34,82
725,534	2,05
725,72	94,21
725,907	83,97
726,094	112,64
726,28	-4,1
726,467	26,62
726,653	-57,34
726,84	77,82
727,027	108,54
727,213	69,63
727,4	133,12
727,586	47,1
727,773	-38,91
727,959	114,69
728,145	94,21
728,332	63,49
728,518	-53,25
728,705	83,97
728,891	98,3
729,077	26,62
729,264	-40,96
729,45	-20,48
729,636	98,3
729,823	20,48
730,009	6,14
730,195	69,63
730,382	94,21
730,568	-129,02
730,754	49,15
730,94	16,38
731,126	96,25
731,313	126,97
731,499	-28,67
731,685	75,77
731,871	22,53
732,057	24,58
732,243	114,69
732,429	49,15
732,615	28,67
732,801	45,06
732,987	69,63
733,173	-34,82
733,359	-77,82
733,545	24,58
733,731	65,53
733,917	40,96
734,103	61,44
734,289	63,49
734,475	-43,01
734,661	149,5
734,847	53,25
735,033	-38,91
735,219	34,82
735,404	8,19
735,59	2,05
735,776	22,53
735,962	77,82
736,148	43,01
736,333	32,77
736,519	10,24
736,705	10,24
736,89	43,01
737,076	75,77
737,262	-57,34
737,447	-16,38
737,633	36,86
737,819	92,16
738,004	38,91
738,19	92,16
738,375	114,69
738,561	98,3
738,747	28,67
738,932	-36,86
739,118	131,07
739,303	12,29
739,489	47,1
739,674	-30,72
739,859	-79,87
740,045	53,25
740,23	-8,19
740,416	-61,44
740,601	45,06
740,786	-26,62
740,972	30,72
741,157	-49,15
741,342	-69,63
741,528	-96,25
741,713	75,77
741,898	20,48
742,084	-36,86
742,269	-6,14
742,454	83,97
742,639	94,21
742,824	24,58
743,01	106,49
743,195	114,69
743,38	10,24
743,565	-55,3
743,75	51,2
743,935	75,77
744,12	59,39
744,305	0
744,49	51,2
744,675	-47,1
744,86	57,34
745,045	92,16
745,23	18,43
745,415	73,73
745,6	63,49
745,785	-18,43
745,97	192,51
746,155	131,07
746,34	49,15
746,525	16,38
746,71	110,59
746,895	32,77
747,079	-90,11
747,264	49,15
747,449	118,78
747,634	36,86
747,819	61,44
748,003	45,06
748,188	6,14
748,373	75,77
748,557	77,82
748,742	16,38
748,927	34,82
749,111	49,15
749,296	-18,43
749,481	53,25
749,665	28,67
749,85	4,1
750,034	116,73
750,219	118,78
750,404	28,67
750,588	51,2
750,773	-14,34
750,957	-18,43
751,141	61,44
751,326	73,73
751,51	-30,72
751,695	-8,19
751,879	0
752,064	135,17
752,248	12,29
752,432	61,44
752,617	126,97
752,801	114,69
752,985	6,14
753,17	98,3
753,354	-4,1
753,538	81,92
753,722	2,05
753,907	34,82
754,091	-40,96
754,275	79,87
754,459	-79,87
754,643	-38,91
754,828	63,49
755,012	73,73
755,196	-24,58
755,38	81,92
755,564	45,06
755,748	49,15
755,932	53,25
756,116	20,48
756,3	34,82
756,484	38,91
756,668	90,11
756,852	6,14
757,036	-55,3
757,22	-18,43
757,404	-38,91
757,588	71,68
757,772	45,06
757,956	59,39
758,14	120,83
758,323	-8,19
758,507	67,58
758,691	32,77
758,875	24,58
759,059	133,12
759,242	12,29
759,426	-32,77
759,61	104,45
759,794	-6,14
759,977	77,82
760,161	243,71
760,345	153,6
760,528	81,92
760,712	-2,05
760,895	12,29
761,079	100,35
761,263	-75,77
761,446	-4,1
761,63	4,1
761,813	98,3
761,997	-4,1
762,18	2,05
762,364	98,3
762,547	-16,38
762,731	20,48
762,914	81,92
763,098	40,96
763,281	-10,24
763,464	-59,39
763,648	-24,58
763,831	102,4
764,015	-12,29
764,198	75,77
764,381	0
764,564	53,25
764,748	51,2
764,931	12,29
765,114	2,05
765,297	110,59
765,481	-2,05
765,664	-43,01
765,847	71,68
766,03	43,01
766,213	-59,39
766,397	-18,43
766,58	-28,67
766,763	77,82
766,946	22,53
767,129	26,62
767,312	-90,11
767,495	-40,96
767,678	-81,92
767,861	26,62
768,044	2,05
768,227	-24,58
768,41	-22,53
768,593	40,96
768,776	10,24
768,959	47,1
769,142	135,17
769,324	2,05
769,507	69,63
769,69	-12,29
769,873	-20,48
770,056	178,17
770,239	-20,48
770,421	4,1
770,604	10,24
770,787	69,63
770,97	59,39
771,152	40,96
771,335	45,06
771,518	-57,34
771,7	61,44
771,883	129,02
772,066	-51,2
772,248	53,25
772,431	32,77
772,613	118,78
772,796	49,15
772,978	69,63
773,161	110,59
773,343	-38,91
773,526	22,53
773,708	-47,1
773,891	-53,25
774,073	-34,82
774,256	-24,58
774,438	108,54
774,621	-55,3
774,803	28,67
774,985	51,2
775,168	71,68
775,35	2,05
775,532	47,1
775,715	30,72
775,897	24,58
776,079	-79,87
776,261	18,43
776,444	-14,34
776,626	92,16
776,808	28,67
776,99	73,73
777,173	126,97
777,355	176,13
777,537	102,4
777,719	178,17
777,901	86,01
778,083	100,35
778,265	98,3
778,447	141,31
778,629	100,35
778,811	135,17
778,993	143,36
779,175	176,13
779,357	65,53
779,539	47,1
779,721	122,88
779,903	73,73
780,085	-20,48
780,267	53,25
780,449	-40,96
780,631	108,54
780,812	14,34
780,994	24,58
781,176	-16,38
781,358	-71,68
781,54	-18,43
781,721	45,06
781,903	69,63
782,085	-30,72
782,267	86,01
782,448	-36,86
782,63	-28,67
782,812	61,44
782,993	90,11
783,175	100,35
783,357	-28,67
783,538	8,19
783,72	-40,96
783,901	-4,1
784,083	-24,58
784,264	12,29
784,446	-45,06
784,627	-118,78
784,809	98,3
784,99	-14,34
785,172	-47,1
785,353	-43,01
785,535	118,78
785,716	-94,21
785,897	-28,67
786,079	-34,82
786,26	-12,29
786,441	100,35
786,623	-75,77
786,804	28,67
786,985	-18,43
787,167	22,53
787,348	2,05
787,529	69,63
787,71	157,69
787,891	49,15
788,073	-57,34
788,254	-51,2
788,435	86,01
788,616	32,77
788,797	2,05
788,978	-53,25
789,159	-28,67
789,34	-57,34
789,522	24,58
789,703	14,34
789,884	98,3
790,065	-12,29
790,246	145,41
790,427	-77,82
790,607	151,55
790,788	18,43
790,969	-4,1
791,15	34,82
791,331	20,48
791,512	-45,06
791,693	-69,63
791,874	-67,58
792,054	92,16
792,235	45,06
792,416	53,25
792,597	-30,72
792,778	-14,34
792,958	28,67
793,139	75,77
793,32	-16,38
793,5	-59,39
793,681	53,25
793,862	83,97
794,042	2,05
794,223	-79,87
794,404	-65,54
794,584	-96,25
794,765	-45,06
794,945	-75,77
795,126	34,82
795,306	45,06
795,487	26,62
795,667	-4,1
795,848	-4,1
796,028	86,01
796,209	-22,53
796,389	32,77
796,57	28,67
796,75	-24,58
796,93	38,91
797,111	-40,96
797,291	34,82
797,471	77,82
797,652	-8,19
797,832	-98,3
798,012	-30,72
798,192	65,53
798,373	22,53
798,553	-10,24
798,733	24,58
798,913	40,96
799,093	-16,38
799,274	-12,29
799,454	8,19
799,634	57,34
799,814	-34,82
799,994	26,62
800,174	135,17
800,354	10,24
800,534	-100,35
800,714	65,53
800,894	-73,73
801,074	-122,88
801,254	8,19
801,434	59,39
801,614	-34,82
801,794	-55,3
801,974	1449,96
802,154	-61,44
802,334	145,41
802,514	-63,49
802,693	-75,77
802,873	-20,48
803,053	90,11
803,233	0
803,413	-4,1
803,592	-45,06
803,772	-28,67
803,952	-14,34
804,131	-133,12
804,311	92,16
804,491	73,73
804,67	-20,48
804,85	-45,06
805,03	26,62
805,209	63,49
805,389	-61,44
805,568	2,05
805,748	-20,48
805,928	-92,16
806,107	28,67
806,287	34,82
806,466	-4,1
806,646	38,91
806,825	-38,91
807,004	-73,73
807,184	0
807,363	69,63
807,543	53,25
807,722	-106,49
807,901	10,24
808,081	110,59
808,26	-75,77
808,439	-2,05
808,619	18,43
808,798	-55,3
808,977	51,2
809,156	36,86
809,336	8,19
809,515	98,3
809,694	-49,15
809,873	49,15
810,052	86,01
810,231	30,72
810,411	-63,49
810,59	36,86
810,769	-63,49
810,948	36,86
811,127	-94,21
811,306	-102,4
811,485	-6,14
811,664	131,07
811,843	-38,91
812,022	45,06
812,201	-40,96
812,38	-26,62
812,559	22,53
812,737	28,67
812,916	-86,01
813,095	-40,96
813,274	43,01
813,453	-32,77
813,632	-40,96
813,811	-6,14
813,989	-53,25
814,168	20,48
814,347	-71,68
814,526	-55,3
814,704	45,06
814,883	59,39
815,062	-133,12
815,24	45,06
815,419	-55,3
815,598	28,67
815,776	-102,4
815,955	0
816,133	-90,11
816,312	67,58
816,49	-77,82
816,669	6,14
816,847	18,43
817,026	32,77
817,204	61,44
817,383	-67,58
817,561	4,1
817,74	61,44
817,918	34,82
818,097	-104,45
818,275	-40,96
818,453	36,86
818,632	-14,34
818,81	-40,96
818,988	-20,48
819,167	-30,72
819,345	-14,34
819,523	-102,4
819,701	-51,2
819,879	88,06
820,058	40,96
820,236	43,01
820,414	43,01
820,592	-6,14
820,77	2,05
820,948	-14,34
821,127	45,06
821,305	-18,43
821,483	-79,87
821,661	69,63
821,839	24,58
822,017	-61,44
822,195	-49,15
822,373	96,25
822,551	24,58
822,729	90,11
822,907	16,38
823,085	94,21
823,262	0
823,44	-90,11
823,618	-88,06
823,796	36,86
823,974	28,67
824,152	-61,44
824,329	-61,44
824,507	10,24
824,685	-40,96
824,863	-32,77
825,04	-47,1
825,218	49,15
825,396	4,1
825,574	53,25
825,751	20,48
825,929	45,06
826,107	-69,63
826,284	28,67
826,462	-34,82
826,639	-28,67
826,817	-57,34
826,994	-51,2
827,172	0
827,349	83,97
827,527	12,29
827,704	-30,72
827,882	79,87
828,059	-61,44
828,237	12,29
828,414	51,2
828,591	-32,77
828,769	10,24
828,946	-69,63
829,124	8,19
829,301	133,12
829,478	18,43
829,655	53,25
829,833	36,86
830,01	-14,34
830,187	22,53
830,364	-18,43
830,542	-6,14
830,719	36,86
830,896	47,1
831,073	-53,25
831,25	32,77
831,427	57,34
831,604	10,24
831,782	-14,34
831,959	-20,48
832,136	-47,1
832,313	43,01
832,49	-30,72
832,667	81,92
832,844	-57,34
833,021	47,1
833,198	28,67
833,374	-65,54
833,551	71,68
833,728	32,77
833,905	75,77
834,082	-155,65
834,259	-71,68
834,436	83,97
834,612	-24,58
834,789	32,77
834,966	-28,67
835,143	22,53
835,319	-86,01
835,496	28,67
835,673	98,3
835,85	38,91
836,026	40,96
836,203	122,88
836,38	-90,11
836,556	6,14
836,733	-32,77
836,909	63,49
837,086	-28,67
837,262	-36,86
837,439	28,67
837,616	-81,92
837,792	-79,87
837,968	12,29
838,145	-135,17
838,321	-49,15
838,498	-36,86
838,674	86,01
838,851	-8,19
839,027	-32,77
839,203	2,05
839,38	-10,24
839,556	-90,11
839,732	102,4
839,909	-36,86
840,085	47,1
840,261	-22,53
840,437	49,15
840,614	6,14
840,79	40,96
840,966	38,91
841,142	-2,05
841,318	-10,24
841,494	69,63
841,671	100,35
841,847	-90,11
842,023	-43,01
842,199	61,44
842,375	90,11
842,551	-81,92
842,727	-118,78
842,903	151,55
843,079	-94,21
843,255	61,44
843,431	-36,86
843,607	92,16
843,783	-75,77
843,959	61,44
844,134	2,05
844,31	174,08
844,486	83,97
844,662	4,1
844,838	194,56
845,013	69,63
845,189	124,93
845,365	75,77
845,541	86,01
845,716	94,21
845,892	49,15
846,068	-14,34
846,244	49,15
846,419	-6,14
846,595	-28,67
846,77	-49,15
846,946	8,19
847,122	-55,3
847,297	-2,05
847,473	86,01
847,648	-86,01
847,824	32,77
847,999	-81,92
848,175	-102,4
848,35	-12,29
848,526	59,39
848,701	61,44
848,876	36,86
849,052	77,82
849,227	-24,58
849,403	-16,38
849,578	-55,3
849,753	10,24
849,929	18,43
850,104	-102,4
850,279	53,25
850,454	-30,72
850,63	-8,19
850,805	-24,58
850,98	32,77
851,155	-45,06
851,33	69,63
851,505	-57,34
851,681	135,17
851,856	-38,91
852,031	8,19
852,206	32,77
852,381	0
852,556	-8,19
852,731	-2,05
852,906	10,24
853,081	77,82
853,256	163,84
853,431	53,25
853,606	-88,06
853,781	20,48
853,956	-96,25
854,131	36,86
854,305	-77,82
854,48	51,2
854,655	28,67
854,83	-40,96
855,005	2,05
855,18	51,2
855,354	-86,01
855,529	51,2
855,704	20,48
855,879	77,82
856,053	-51,2
856,228	-12,29
856,403	-63,49
856,577	-36,86
856,752	-98,3
856,926	-34,82
857,101	24,58
857,276	-96,25
857,45	10,24
857,625	22,53
857,799	-26,62
857,974	-8,19
858,148	-129,02
858,323	14,34
858,497	-67,58
858,672	-24,58
858,846	-67,58
859,02	28,67
859,195	-20,48
859,369	-30,72
859,543	-14,34
859,718	-30,72
859,892	61,44
860,066	6,14
860,241	-45,06
860,415	-47,1
860,589	55,3
860,763	4,1
860,938	-104,45
861,112	-36,86
861,286	-126,97
861,46	51,2
861,634	-47,1
861,808	-6,14
861,982	-8,19
862,157	-43,01
862,331	-112,64
862,505	-43,01
862,679	-102,4
862,853	-4,1
863,027	-36,86
863,201	86,01
863,375	-88,06
863,549	38,91
863,722	24,58
863,896	20,48
864,07	-69,63
864,244	-22,53
864,418	-53,25
864,592	34,82
864,766	24,58
864,939	0
865,113	-18,43
865,287	65,53
865,461	-102,4
865,634	-49,15
865,808	-12,29
865,982	65,53
866,156	-81,92
866,329	-63,49
866,503	-53,25
866,676	40,96
866,85	28,67
867,024	2,05
867,197	45,06
867,371	28,67
867,544	43,01
867,718	-28,67
867,891	43,01
868,065	-100,35
868,238	-22,53
868,412	6,14
868,585	-28,67
868,759	-63,49
868,932	2,05
869,105	-118,78
869,279	47,1
869,452	-20,48
869,625	-45,06
869,799	-32,77
869,972	-61,44
870,145	-47,1
870,319	-6,14
870,492	-53,25
870,665	-4,1
870,838	-22,53
871,011	-61,44
871,185	-77,82
871,358	-69,63
871,531	28,67
871,704	-47,1
871,877	24,58
872,05	22,53
872,223	-53,25
872,396	12,29
872,569	28,67
872,742	-86,01
872,915	55,3
873,088	-26,62
873,261	-73,73
873,434	-36,86
873,607	26,62
873,78	28,67
873,953	-73,73
874,126	4,1
874,299	40,96
874,471	-14,34
874,644	-8,19
874,817	28,67
874,99	86,01
875,163	-30,72
875,335	51,2
875,508	-14,34
875,681	81,92
875,853	0
876,026	-45,06
876,199	20,48
876,371	-30,72
876,544	-28,67
876,717	-18,43
876,889	32,77
877,062	18,43
877,234	-77,82
877,407	-12,29
877,579	-53,25
877,752	10,24
877,924	22,53
878,097	69,63
878,269	2,05
878,442	67,58
878,614	36,86
878,786	-34,82
878,959	-24,58
879,131	-28,67
879,303	-69,63
879,476	81,92
879,648	90,11
879,82	-28,67
879,993	-4,1
880,165	-40,96
880,337	-65,54
880,509	16,38
880,681	-22,53
880,854	0
881,026	75,77
881,198	104,45
881,37	20,48
881,542	-8,19
881,714	12,29
881,886	-45,06
882,058	-73,73
882,23	-43,01
882,402	36,86
882,574	-12,29
882,746	20,48
882,918	28,67
883,09	10,24
883,262	0
883,434	-22,53
883,606	-139,26
883,778	-4,1
883,95	122,88
884,122	-65,54
884,293	28,67
884,465	10,24
884,637	71,68
884,809	-22,53
884,98	45,06
885,152	94,21
885,324	92,16
885,496	-14,34
885,667	0
885,839	43,01
886,011	59,39
886,182	20,48
886,354	34,82
886,525	30,72
886,697	-36,86
886,869	-22,53
887,04	-47,1
887,212	47,1
887,383	59,39
887,555	-71,68
887,726	-73,73
887,897	16,38
888,069	34,82
888,24	55,3
888,412	-8,19
888,583	-47,1
888,754	-94,21
888,926	-106,49
889,097	-38,91
889,268	-36,86
889,44	4,1
889,611	-28,67
889,782	-63,49
889,953	-49,15
890,125	73,73
890,296	-141,31
890,467	-36,86
890,638	-77,82
890,809	-10,24
890,98	2,05
891,151	24,58
891,323	45,06
891,494	8,19
891,665	-12,29
891,836	38,91
892,007	67,58
892,178	86,01
892,349	-75,77
892,52	-45,06
892,691	-77,82
892,862	-30,72
893,032	-94,21
893,203	-38,91
893,374	-100,35
893,545	57,34
893,716	24,58
893,887	-8,19
894,057	-47,1
894,228	-18,43
894,399	-45,06
894,57	102,4
894,74	0
894,911	98,3
895,082	-43,01
895,253	-24,58
895,423	22,53
895,594	-36,86
895,764	26,62
895,935	-26,62
896,106	61,44
896,276	-100,35
896,447	-26,62
896,617	-55,3
896,788	6,14
896,958	-16,38
897,129	12,29
897,299	-86,01
897,47	61,44
897,64	65,53
897,81	-77,82
897,981	26,62
898,151	-110,59
898,322	45,06
898,492	61,44
898,662	-45,06
898,832	-34,82
899,003	-18,43
899,173	-40,96
899,343	-36,86
899,513	-98,3
