Data from hydrogene_USB4F104151__8__09-04-10-211.txt Node

Date: Wed Apr 15 09:04:10 EDT 2026
User: LaboPhy
Spectrometer: USB4F10415
Trigger mode: 4
Integration Time (sec): 1,000000E-1
Scans to average: 1
Electric dark correction enabled: true
Nonlinearity correction enabled: false
Boxcar width: 0
XAxis mode: Wavelengths
Number of Pixels in Spectrum: 3648
>>>>>Begin Spectral Data<<<<<
178,204	-336,72
178,424	-336,72
178,644	-336,72
178,864	-353,1
179,084	-346,96
179,304	-0,85
179,524	9,39
179,744	7,34
179,964	40,11
180,184	27,82
180,404	15,53
180,624	27,82
180,844	3,24
181,064	-33,62
181,283	-64,34
181,503	-93,01
181,723	60,59
181,943	-93,01
182,163	105,64
182,383	15,53
182,602	-25,43
182,822	68,78
183,042	38,06
183,262	23,72
183,482	-2,9
183,701	-11,09
183,921	19,63
184,141	-50
184,361	97,45
184,58	-41,81
184,8	54,44
185,02	-41,81
185,239	107,69
185,459	19,63
185,679	40,11
185,898	-88,92
186,118	17,58
186,338	72,87
186,557	101,55
186,777	13,48
186,997	17,58
187,216	72,87
187,436	160,94
187,655	60,59
187,875	144,55
188,095	81,07
188,314	165,03
188,534	93,35
188,753	-0,85
188,973	83,11
189,192	171,18
189,412	27,82
189,631	56,49
189,851	83,11
190,07	117,93
190,29	-9,05
190,509	19,63
190,729	3,24
190,948	62,63
191,168	240,81
191,387	130,22
191,607	105,64
191,826	50,35
192,045	-29,52
192,265	9,39
192,484	66,73
192,704	1,19
192,923	-119,64
193,142	136,36
193,362	126,12
193,581	113,83
193,8	-33,62
194,02	58,54
194,239	-11,09
194,458	19,63
194,678	13,48
194,897	31,91
195,116	33,96
195,335	15,53
195,555	38,06
195,774	-37,72
195,993	40,11
196,212	3,24
196,432	-33,62
196,651	33,96
196,87	-52,05
197,089	183,46
197,308	17,58
197,528	48,3
197,747	-68,44
197,966	-4,95
198,185	111,78
198,404	-90,96
198,623	89,26
198,842	126,12
199,062	17,58
199,281	122,02
199,5	-21,33
199,719	64,68
199,938	74,92
200,157	56,49
200,376	99,5
200,595	74,92
200,814	44,2
201,033	-13,14
201,252	97,45
201,471	-17,24
201,69	56,49
201,909	11,43
202,128	103,59
202,347	27,82
202,566	-17,24
202,785	-33,62
203,004	-25,43
203,223	138,41
203,442	111,78
203,661	5,29
203,879	-9,05
204,098	64,68
204,317	-17,24
204,536	105,64
204,755	-0,85
204,974	107,69
205,193	23,72
205,411	122,02
205,63	3,24
205,849	27,82
206,068	-15,19
206,287	-56,15
206,505	115,88
206,724	1,19
206,943	-31,57
207,162	-60,24
207,381	76,97
207,599	-11,09
207,818	7,34
208,037	11,43
208,255	-7
208,474	-50
208,693	15,53
208,911	31,91
209,13	64,68
209,349	89,26
209,567	13,48
209,786	148,65
210,005	31,91
210,223	19,63
210,442	-54,1
210,661	23,72
210,879	101,55
211,098	15,53
211,316	97,45
211,535	128,17
211,753	5,29
211,972	95,4
212,191	-62,29
212,409	-121,68
212,628	60,59
212,846	21,67
213,065	97,45
213,283	122,02
213,502	29,87
213,72	19,63
213,938	56,49
214,157	-109,4
214,375	152,74
214,594	40,11
214,812	60,59
215,031	27,82
215,249	99,5
215,467	31,91
215,686	3,24
215,904	76,97
216,122	-9,05
216,341	74,92
216,559	21,67
216,778	146,6
216,996	105,64
217,214	-11,09
217,432	-9,05
217,651	-111,44
217,869	50,35
218,087	13,48
218,306	31,91
218,524	109,74
218,742	-50
218,96	29,87
219,179	-50
219,397	79,02
219,615	105,64
219,833	40,11
220,051	-13,14
220,27	85,16
220,488	111,78
220,706	64,68
220,924	-45,91
221,142	-2,9
221,36	19,63
221,578	52,39
221,796	93,35
222,015	64,68
222,233	11,43
222,451	146,6
222,669	-129,88
222,887	122,02
223,105	-70,48
223,323	76,97
223,541	-45,91
223,759	7,34
223,977	3,24
224,195	60,59
224,413	132,26
224,631	40,11
224,849	70,83
225,067	109,74
225,285	-11,09
225,503	7,34
225,721	-111,44
225,939	-9,05
226,157	44,2
226,375	193,7
226,592	-41,81
226,81	-43,86
227,028	85,16
227,246	183,46
227,464	93,35
227,682	113,83
227,9	87,21
228,117	31,91
228,335	81,07
228,553	5,29
228,771	-29,52
228,989	109,74
229,206	56,49
229,424	15,53
229,642	21,67
229,86	-82,77
230,077	38,06
230,295	60,59
230,513	87,21
230,731	76,97
230,948	148,65
231,166	136,36
231,384	-76,63
231,601	-31,57
231,819	150,7
232,037	-90,96
232,254	27,82
232,472	25,77
232,689	-60,24
232,907	87,21
233,125	-25,43
233,342	3,24
233,56	-72,53
233,777	-37,72
233,995	5,29
234,213	126,12
234,43	48,3
234,648	27,82
234,865	-11,09
235,083	-7
235,3	-9,05
235,518	23,72
235,735	64,68
235,953	85,16
236,17	-33,62
236,388	-39,76
236,605	13,48
236,822	122,02
237,04	40,11
237,257	81,07
237,475	70,83
237,692	54,44
237,909	29,87
238,127	-7
238,344	38,06
238,562	-21,33
238,779	-21,33
238,996	-7
239,214	81,07
239,431	66,73
239,648	-58,2
239,865	81,07
240,083	81,07
240,3	-29,52
240,517	-29,52
240,735	42,15
240,952	103,59
241,169	60,59
241,386	48,3
241,603	-13,14
241,821	-58,2
242,038	46,25
242,255	142,5
242,472	-70,48
242,689	23,72
242,907	38,06
243,124	64,68
243,341	-17,24
243,558	-2,9
243,775	7,34
243,992	-58,2
244,209	72,87
244,426	109,74
244,643	1,19
244,86	-31,57
245,078	-4,95
245,295	89,26
245,512	44,2
245,729	7,34
245,946	38,06
246,163	38,06
246,38	-17,24
246,597	56,49
246,814	5,29
247,031	-19,29
247,248	-4,95
247,464	101,55
247,681	56,49
247,898	68,78
248,115	9,39
248,332	-25,43
248,549	99,5
248,766	130,22
248,983	76,97
249,2	19,63
249,417	31,91
249,633	11,43
249,85	46,25
250,067	-19,29
250,284	48,3
250,501	72,87
250,717	62,63
250,934	-41,81
251,151	5,29
251,368	64,68
251,585	70,83
251,801	-2,9
252,018	27,82
252,235	99,5
252,451	-123,73
252,668	-2,9
252,885	40,11
253,102	-0,85
253,318	-7
253,535	-19,29
253,752	5,29
253,968	-58,2
254,185	-43,86
254,401	-2,9
254,618	33,96
254,835	-2,9
255,051	113,83
255,268	33,96
255,484	27,82
255,701	17,58
255,917	9,39
256,134	-52,05
256,351	38,06
256,567	-41,81
256,784	-23,38
257	7,34
257,217	72,87
257,433	93,35
257,65	19,63
257,866	99,5
258,082	-0,85
258,299	-13,14
258,515	-0,85
258,732	36,01
258,948	-2,9
259,165	97,45
259,381	-9,05
259,597	13,48
259,814	-33,62
260,03	-27,48
260,246	3,24
260,463	134,31
260,679	83,11
260,895	-11,09
261,112	29,87
261,328	17,58
261,544	-47,96
261,761	144,55
261,977	40,11
262,193	-86,87
262,409	46,25
262,626	3,24
262,842	23,72
263,058	-17,24
263,274	130,22
263,49	-35,67
263,707	66,73
263,923	15,53
264,139	-60,24
264,355	1,19
264,571	52,39
264,787	95,4
265,004	144,55
265,22	42,15
265,436	25,77
265,652	52,39
265,868	60,59
266,084	-115,54
266,3	52,39
266,516	11,43
266,732	54,44
266,948	23,72
267,164	23,72
267,38	126,12
267,596	119,98
267,812	167,08
268,028	38,06
268,244	1,19
268,46	3,24
268,676	-17,24
268,892	50,35
269,108	-4,95
269,324	7,34
269,54	-58,2
269,756	85,16
269,972	-50
270,188	-19,29
270,403	-95,06
270,619	13,48
270,835	64,68
271,051	89,26
271,267	-90,96
271,483	-41,81
271,698	70,83
271,914	76,97
272,13	72,87
272,346	-13,14
272,562	62,63
272,777	52,39
272,993	64,68
273,209	7,34
273,425	58,54
273,64	-41,81
273,856	56,49
274,072	-29,52
274,287	-29,52
274,503	95,4
274,719	29,87
274,934	31,91
275,15	-131,92
275,366	-17,24
275,581	13,48
275,797	-37,72
276,012	66,73
276,228	-0,85
276,444	5,29
276,659	93,35
276,875	-66,39
277,09	79,02
277,306	19,63
277,521	66,73
277,737	44,2
277,952	50,35
278,168	15,53
278,383	-11,09
278,599	64,68
278,814	21,67
279,03	42,15
279,245	119,98
279,461	46,25
279,676	60,59
279,892	-101,2
280,107	-9,05
280,322	17,58
280,538	3,24
280,753	-50
280,969	101,55
281,184	15,53
281,399	95,4
281,615	-80,72
281,83	19,63
282,045	-41,81
282,26	-72,53
282,476	68,78
282,691	9,39
282,906	23,72
283,122	56,49
283,337	-9,05
283,552	89,26
283,767	-27,48
283,983	97,45
284,198	79,02
284,413	40,11
284,628	-93,01
284,843	79,02
285,058	15,53
285,274	23,72
285,489	-2,9
285,704	113,83
285,919	-19,29
286,134	21,67
286,349	-50
286,564	-74,58
286,779	146,6
286,995	50,35
287,21	-84,82
287,425	17,58
287,64	-25,43
287,855	23,72
288,07	-70,48
288,285	70,83
288,5	87,21
288,715	40,11
288,93	-33,62
289,145	-2,9
289,36	81,07
289,575	-25,43
289,79	91,31
290,004	-13,14
290,219	115,88
290,434	-13,14
290,649	-90,96
290,864	-23,38
291,079	25,77
291,294	5,29
291,509	68,78
291,724	11,43
291,938	-35,67
292,153	-41,81
292,368	-0,85
292,583	72,87
292,798	68,78
293,012	23,72
293,227	31,91
293,442	-17,24
293,657	111,78
293,871	50,35
294,086	27,82
294,301	105,64
294,516	97,45
294,73	54,44
294,945	-33,62
295,16	23,72
295,374	62,63
295,589	103,59
295,804	-25,43
296,018	38,06
296,233	122,02
296,447	81,07
296,662	7,34
296,877	9,39
297,091	52,39
297,306	29,87
297,52	29,87
297,735	5,29
297,949	62,63
298,164	46,25
298,378	40,11
298,593	-58,2
298,807	-60,24
299,022	36,01
299,236	162,98
299,451	-41,81
299,665	23,72
299,88	23,72
300,094	46,25
300,309	40,11
300,523	60,59
300,737	-11,09
300,952	79,02
301,166	3,24
301,381	-45,91
301,595	40,11
301,809	-11,09
302,024	-21,33
302,238	-54,1
302,452	74,92
302,667	89,26
302,881	150,7
303,095	109,74
303,309	7,34
303,524	-31,57
303,738	-17,24
303,952	-39,76
304,166	21,67
304,381	-70,48
304,595	101,55
304,809	7,34
305,023	-17,24
305,237	-39,76
305,452	-17,24
305,666	76,97
305,88	52,39
306,094	70,83
306,308	42,15
306,522	48,3
306,736	17,58
306,95	48,3
307,164	-25,43
307,379	72,87
307,593	119,98
307,807	105,64
308,021	46,25
308,235	-17,24
308,449	-95,06
308,663	40,11
308,877	287,91
309,091	68,78
309,305	72,87
309,519	-33,62
309,733	91,31
309,947	-78,68
310,161	85,16
310,374	29,87
310,588	117,93
310,802	-21,33
311,016	15,53
311,23	72,87
311,444	-19,29
311,658	-7
311,872	87,21
312,085	36,01
312,299	158,89
312,513	36,01
312,727	9,39
312,941	-9,05
313,154	27,82
313,368	107,69
313,582	1,19
313,796	21,67
314,009	-41,81
314,223	138,41
314,437	56,49
314,651	93,35
314,864	89,26
315,078	31,91
315,292	-4,95
315,505	25,77
315,719	60,59
315,933	15,53
316,146	11,43
316,36	-25,43
316,573	115,88
316,787	31,91
317,001	68,78
317,214	-2,9
317,428	58,54
317,641	3,24
317,855	5,29
318,068	52,39
318,282	-4,95
318,495	156,84
318,709	72,87
318,922	23,72
319,136	105,64
319,349	40,11
319,563	48,3
319,776	62,63
319,99	-29,52
320,203	113,83
320,417	-2,9
320,63	58,54
320,843	105,64
321,057	19,63
321,27	44,2
321,483	48,3
321,697	97,45
321,91	62,63
322,124	72,87
322,337	15,53
322,55	-50
322,763	31,91
322,977	42,15
323,19	-2,9
323,403	13,48
323,617	25,77
323,83	56,49
324,043	-17,24
324,256	103,59
324,469	-29,52
324,683	97,45
324,896	-9,05
325,109	48,3
325,322	-148,31
325,535	64,68
325,748	52,39
325,962	36,01
326,175	27,82
326,388	19,63
326,601	74,92
326,814	-27,48
327,027	40,11
327,24	103,59
327,453	-123,73
327,666	83,11
327,879	66,73
328,092	115,88
328,305	58,54
328,518	31,91
328,731	40,11
328,944	11,43
329,157	48,3
329,37	-41,81
329,583	122,02
329,796	132,26
330,009	-17,24
330,222	72,87
330,435	74,92
330,648	89,26
330,861	113,83
331,073	-7
331,286	54,44
331,499	126,12
331,712	-62,29
331,925	70,83
332,138	31,91
332,35	46,25
332,563	-21,33
332,776	113,83
332,989	-9,05
333,202	38,06
333,414	-17,24
333,627	58,54
333,84	21,67
334,053	58,54
334,265	31,91
334,478	-45,91
334,691	44,2
334,903	68,78
335,116	42,15
335,329	-29,52
335,541	64,68
335,754	171,18
335,966	-4,95
336,179	50,35
336,392	25,77
336,604	7,34
336,817	79,02
337,029	-0,85
337,242	-9,05
337,454	105,64
337,667	40,11
337,88	177,32
338,092	81,07
338,305	54,44
338,517	-29,52
338,729	52,39
338,942	175,27
339,154	-131,92
339,367	-4,95
339,579	122,02
339,792	48,3
340,004	64,68
340,217	1,19
340,429	91,31
340,641	-19,29
340,854	58,54
341,066	-13,14
341,278	83,11
341,491	177,32
341,703	52,39
341,915	-17,24
342,128	158,89
342,34	52,39
342,552	21,67
342,764	27,82
342,977	81,07
343,189	27,82
343,401	95,4
343,613	-4,95
343,826	-29,52
344,038	-35,67
344,25	101,55
344,462	31,91
344,674	179,37
344,886	93,35
345,099	62,63
345,311	138,41
345,523	23,72
345,735	40,11
345,947	79,02
346,159	17,58
346,371	56,49
346,583	-0,85
346,795	185,51
347,007	5,29
347,219	66,73
347,431	-17,24
347,643	99,5
347,855	-0,85
348,067	224,42
348,279	-39,76
348,491	83,11
348,703	109,74
348,915	44,2
349,127	-15,19
349,339	38,06
349,551	-13,14
349,763	89,26
349,975	68,78
350,187	89,26
350,399	156,84
350,61	62,63
350,822	-2,9
351,034	103,59
351,246	29,87
351,458	15,53
351,669	68,78
351,881	109,74
352,093	109,74
352,305	158,89
352,517	56,49
352,728	185,51
352,94	74,92
353,152	48,3
353,363	13,48
353,575	126,12
353,787	113,83
353,999	74,92
354,21	79,02
354,422	-15,19
354,633	138,41
354,845	13,48
355,057	15,53
355,268	113,83
355,48	144,55
355,692	29,87
355,903	25,77
356,115	40,11
356,326	-17,24
356,538	54,44
356,749	91,31
356,961	72,87
357,172	25,77
357,384	-74,58
357,595	210,09
357,807	13,48
358,018	1,19
358,23	89,26
358,441	136,36
358,653	136,36
358,864	89,26
359,075	33,96
359,287	76,97
359,498	95,4
359,709	142,5
359,921	48,3
360,132	11,43
360,344	33,96
360,555	15,53
360,766	60,59
360,977	76,97
361,189	126,12
361,4	42,15
361,611	158,89
361,823	160,94
362,034	9,39
362,245	9,39
362,456	91,31
362,667	9,39
362,879	23,72
363,09	76,97
363,301	7,34
363,512	62,63
363,723	76,97
363,935	15,53
364,146	103,59
364,357	72,87
364,568	117,93
364,779	-9,05
364,99	162,98
365,201	25,77
365,412	152,74
365,623	-50
365,834	64,68
366,045	179,37
366,256	160,94
366,467	97,45
366,678	44,2
366,889	48,3
367,1	74,92
367,311	113,83
367,522	29,87
367,733	150,7
367,944	48,3
368,155	52,39
368,366	76,97
368,577	87,21
368,788	169,13
368,999	5,29
369,209	31,91
369,42	232,62
369,631	210,09
369,842	76,97
370,053	1,19
370,264	142,5
370,474	52,39
370,685	122,02
370,896	119,98
371,107	203,94
371,317	111,78
371,528	62,63
371,739	162,98
371,95	97,45
372,16	40,11
372,371	5,29
372,582	64,68
372,792	128,17
373,003	38,06
373,214	54,44
373,424	119,98
373,635	-11,09
373,846	173,22
374,056	74,92
374,267	117,93
374,477	70,83
374,688	-66,39
374,898	162,98
375,109	72,87
375,319	109,74
375,53	167,08
375,74	154,79
375,951	64,68
376,161	150,7
376,372	162,98
376,582	74,92
376,793	144,55
377,003	19,63
377,214	79,02
377,424	136,36
377,635	101,55
377,845	15,53
378,055	117,93
378,266	29,87
378,476	46,25
378,686	76,97
378,897	142,5
379,107	158,89
379,317	171,18
379,528	56,49
379,738	113,83
379,948	52,39
380,158	154,79
380,369	136,36
380,579	93,35
380,789	97,45
380,999	122,02
381,21	171,18
381,42	212,14
381,63	87,21
381,84	261,29
382,05	103,59
382,261	117,93
382,471	173,22
382,681	72,87
382,891	191,66
383,101	101,55
383,311	52,39
383,521	17,58
383,731	146,6
383,941	189,61
384,151	85,16
384,361	64,68
384,571	152,74
384,781	68,78
384,991	216,23
385,201	220,33
385,411	142,5
385,621	134,31
385,831	134,31
386,041	70,83
386,251	103,59
386,461	144,55
386,671	138,41
386,881	169,13
387,091	81,07
387,301	201,9
387,511	119,98
387,72	179,37
387,93	66,73
388,14	-29,52
388,35	97,45
388,56	101,55
388,769	138,41
388,979	97,45
389,189	81,07
389,399	138,41
389,609	126,12
389,818	167,08
390,028	46,25
390,238	257,19
390,447	23,72
390,657	97,45
390,867	122,02
391,076	29,87
391,286	146,6
391,496	38,06
391,705	144,55
391,915	144,55
392,125	144,55
392,334	38,06
392,544	212,14
392,753	-9,05
392,963	3,24
393,172	142,5
393,382	119,98
393,591	185,51
393,801	107,69
394,01	187,56
394,22	152,74
394,429	56,49
394,639	89,26
394,848	117,93
395,058	130,22
395,267	113,83
395,477	210,09
395,686	87,21
395,895	253,09
396,105	261,29
396,314	171,18
396,524	142,5
396,733	97,45
396,942	253,09
397,152	162,98
397,361	199,85
397,57	130,22
397,78	119,98
397,989	122,02
398,198	238,76
398,407	62,63
398,617	113,83
398,826	136,36
399,035	93,35
399,244	117,93
399,453	105,64
399,663	109,74
399,872	119,98
400,081	44,2
400,29	173,22
400,499	99,5
400,708	177,32
400,917	48,3
401,127	21,67
401,336	31,91
401,545	208,04
401,754	154,79
401,963	81,07
402,172	130,22
402,381	-4,95
402,59	64,68
402,799	68,78
403,008	199,85
403,217	64,68
403,426	87,21
403,635	31,91
403,844	130,22
404,053	144,55
404,262	122,02
404,471	228,52
404,68	50,35
404,888	138,41
405,097	124,07
405,306	64,68
405,515	185,51
405,724	148,65
405,933	148,65
406,142	126,12
406,35	228,52
406,559	81,07
406,768	212,14
406,977	255,14
407,185	220,33
407,394	124,07
407,603	15,53
407,812	122,02
408,02	193,7
408,229	122,02
408,438	89,26
408,646	144,55
408,855	138,41
409,064	152,74
409,272	68,78
409,481	265,38
409,69	142,5
409,898	154,79
410,107	269,48
410,315	294,05
410,524	165,03
410,733	287,91
410,941	197,8
411,15	236,71
411,358	187,56
411,567	195,75
411,775	136,36
411,984	95,4
412,192	171,18
412,401	107,69
412,609	124,07
412,818	167,08
413,026	232,62
413,234	68,78
413,443	105,64
413,651	38,06
413,86	76,97
414,068	150,7
414,276	162,98
414,485	81,07
414,693	236,71
414,901	201,9
415,11	95,4
415,318	124,07
415,526	105,64
415,734	138,41
415,943	85,16
416,151	109,74
416,359	31,91
416,567	150,7
416,776	158,89
416,984	249
417,192	259,24
417,4	62,63
417,608	109,74
417,817	81,07
418,025	134,31
418,233	205,99
418,441	64,68
418,649	-33,62
418,857	167,08
419,065	140,46
419,273	7,34
419,481	42,15
419,689	56,49
419,897	76,97
420,105	-25,43
420,313	105,64
420,521	142,5
420,729	130,22
420,937	42,15
421,145	64,68
421,353	72,87
421,561	142,5
421,769	136,36
421,977	66,73
422,185	146,6
422,393	122,02
422,601	138,41
422,809	124,07
423,017	119,98
423,224	60,59
423,432	122,02
423,64	76,97
423,848	189,61
424,056	52,39
424,263	128,17
424,471	72,87
424,679	130,22
424,887	7,34
425,094	195,75
425,302	46,25
425,51	-13,14
425,718	136,36
425,925	89,26
426,133	31,91
426,341	146,6
426,548	29,87
426,756	19,63
426,964	95,4
427,171	-41,81
427,379	165,03
427,586	-35,67
427,794	5,29
428,001	210,09
428,209	208,04
428,417	128,17
428,624	128,17
428,832	95,4
429,039	68,78
429,247	81,07
429,454	44,2
429,662	249
429,869	101,55
430,076	105,64
430,284	224,42
430,491	148,65
430,699	134,31
430,906	109,74
431,114	70,83
431,321	128,17
431,528	87,21
431,736	126,12
431,943	99,5
432,15	171,18
432,358	220,33
432,565	337,06
432,772	304,29
432,979	439,46
433,187	472,23
433,394	644,26
433,601	627,87
433,808	832,67
434,016	814,24
434,223	812,19
434,43	769,18
434,637	660,64
434,844	586,91
435,052	433,32
435,259	525,47
435,466	347,3
435,673	269,48
435,88	173,22
436,087	261,29
436,294	162,98
436,501	183,46
436,708	101,55
436,915	64,68
437,122	195,75
437,329	122,02
437,537	210,09
437,743	93,35
437,95	226,47
438,157	72,87
438,364	126,12
438,571	81,07
438,778	122,02
438,985	66,73
439,192	72,87
439,399	56,49
439,606	124,07
439,813	56,49
440,02	181,42
440,227	148,65
440,433	175,27
440,64	93,35
440,847	15,53
441,054	138,41
441,261	173,22
441,467	15,53
441,674	48,3
441,881	218,28
442,088	42,15
442,294	79,02
442,501	128,17
442,708	177,32
442,914	111,78
443,121	128,17
443,328	72,87
443,534	154,79
443,741	103,59
443,948	36,01
444,154	156,84
444,361	197,8
444,568	81,07
444,774	76,97
444,981	36,01
445,187	124,07
445,394	97,45
445,6	83,11
445,807	93,35
446,013	70,83
446,22	-0,85
446,426	115,88
446,633	50,35
446,839	228,52
447,046	36,01
447,252	210,09
447,459	46,25
447,665	-4,95
447,871	119,98
448,078	175,27
448,284	136,36
448,491	158,89
448,697	122,02
448,903	146,6
449,11	146,6
449,316	7,34
449,522	183,46
449,728	113,83
449,935	146,6
450,141	40,11
450,347	261,29
450,553	89,26
450,76	138,41
450,966	72,87
451,172	136,36
451,378	93,35
451,584	74,92
451,791	107,69
451,997	27,82
452,203	72,87
452,409	136,36
452,615	203,94
452,821	44,2
453,027	17,58
453,233	195,75
453,44	-11,09
453,646	76,97
453,852	44,2
454,058	19,63
454,264	93,35
454,47	76,97
454,676	87,21
454,882	76,97
455,088	154,79
455,294	103,59
455,5	81,07
455,705	179,37
455,911	105,64
456,117	93,35
456,323	126,12
456,529	181,42
456,735	95,4
456,941	119,98
457,147	115,88
457,352	158,89
457,558	64,68
457,764	122,02
457,97	117,93
458,176	134,31
458,381	62,63
458,587	220,33
458,793	83,11
458,999	60,59
459,204	42,15
459,41	54,44
459,616	72,87
459,821	140,46
460,027	27,82
460,233	136,36
460,438	173,22
460,644	122,02
460,85	156,84
461,055	134,31
461,261	91,31
461,466	58,54
461,672	64,68
461,878	64,68
462,083	165,03
462,289	21,67
462,494	130,22
462,7	185,51
462,905	128,17
463,111	181,42
463,316	140,46
463,522	72,87
463,727	113,83
463,932	238,76
464,138	113,83
464,343	218,28
464,549	140,46
464,754	224,42
464,959	142,5
465,165	23,72
465,37	158,89
465,575	27,82
465,781	68,78
465,986	72,87
466,191	81,07
466,397	124,07
466,602	191,66
466,807	38,06
467,012	142,5
467,218	83,11
467,423	79,02
467,628	126,12
467,833	60,59
468,038	81,07
468,244	72,87
468,449	31,91
468,654	119,98
468,859	-2,9
469,064	126,12
469,269	126,12
469,474	181,42
469,679	183,46
469,885	115,88
470,09	31,91
470,295	177,32
470,5	17,58
470,705	169,13
470,91	76,97
471,115	187,56
471,32	70,83
471,525	142,5
471,73	218,28
471,935	93,35
472,139	40,11
472,344	50,35
472,549	76,97
472,754	146,6
472,959	130,22
473,164	95,4
473,369	128,17
473,574	179,37
473,778	42,15
473,983	113,83
474,188	124,07
474,393	70,83
474,598	130,22
474,802	46,25
475,007	54,44
475,212	173,22
475,417	97,45
475,621	193,7
475,826	17,58
476,031	79,02
476,235	64,68
476,44	74,92
476,645	142,5
476,849	-25,43
477,054	-9,05
477,259	142,5
477,463	187,56
477,668	228,52
477,872	169,13
478,077	115,88
478,282	9,39
478,486	160,94
478,691	79,02
478,895	101,55
479,1	130,22
479,304	203,94
479,509	154,79
479,713	171,18
479,918	195,75
480,122	175,27
480,326	103,59
480,531	111,78
480,735	187,56
480,94	109,74
481,144	249
481,348	136,36
481,553	119,98
481,757	62,63
481,961	191,66
482,166	136,36
482,37	72,87
482,574	208,04
482,778	144,55
482,983	150,7
483,187	134,31
483,391	95,4
483,595	154,79
483,8	226,47
484,004	441,51
484,208	832,67
484,412	1318,04
484,616	1825,93
484,821	2702,47
485,025	3622
485,229	4832,35
485,433	5897,3
485,637	7222,33
485,841	8238,12
486,045	9063,46
486,249	9534,49
486,453	9368,6
486,657	8864,8
486,861	7877,68
487,065	6609,99
487,269	5862,48
487,473	4424,81
487,677	3746,93
487,881	3128,44
488,085	2317,45
488,289	1961,1
488,493	1399,96
488,697	1219,74
488,901	820,38
489,105	418,98
489,309	281,77
489,512	339,11
489,716	355,49
489,92	193,7
490,124	205,99
490,328	271,53
490,531	134,31
490,735	277,67
490,939	109,74
491,143	183,46
491,346	187,56
491,55	230,57
491,754	179,37
491,958	113,83
492,161	97,45
492,365	203,94
492,569	150,7
492,772	341,16
492,976	292,01
493,18	122,02
493,383	169,13
493,587	253,09
493,79	226,47
493,994	111,78
494,197	52,39
494,401	208,04
494,605	97,45
494,808	87,21
495,012	70,83
495,215	220,33
495,419	210,09
495,622	107,69
495,825	122,02
496,029	93,35
496,232	228,52
496,436	117,93
496,639	187,56
496,843	23,72
497,046	-4,95
497,249	179,37
497,453	126,12
497,656	56,49
497,859	109,74
498,063	169,13
498,266	220,33
498,469	87,21
498,673	46,25
498,876	81,07
499,079	40,11
499,282	85,16
499,485	310,44
499,689	179,37
499,892	199,85
500,095	136,36
500,298	103,59
500,501	54,44
500,705	124,07
500,908	68,78
501,111	99,5
501,314	171,18
501,517	220,33
501,72	48,3
501,923	87,21
502,126	105,64
502,329	203,94
502,532	177,32
502,735	115,88
502,938	171,18
503,141	142,5
503,344	89,26
503,547	179,37
503,75	119,98
503,953	52,39
504,156	103,59
504,359	64,68
504,562	-19,29
504,765	85,16
504,968	132,26
505,17	97,45
505,373	136,36
505,576	158,89
505,779	89,26
505,982	-9,05
506,185	171,18
506,387	97,45
506,59	193,7
506,793	79,02
506,996	140,46
507,198	107,69
507,401	185,51
507,604	187,56
507,807	101,55
508,009	119,98
508,212	130,22
508,415	95,4
508,617	115,88
508,82	46,25
509,022	105,64
509,225	152,74
509,428	101,55
509,63	130,22
509,833	-2,9
510,035	142,5
510,238	111,78
510,44	27,82
510,643	160,94
510,845	138,41
511,048	181,42
511,25	111,78
511,453	203,94
511,655	132,26
511,858	195,75
512,06	181,42
512,262	85,16
512,465	169,13
512,667	111,78
512,87	97,45
513,072	119,98
513,274	89,26
513,477	13,48
513,679	66,73
513,881	62,63
514,084	17,58
514,286	107,69
514,488	146,6
514,69	64,68
514,893	17,58
515,095	25,77
515,297	-17,24
515,499	72,87
515,701	7,34
515,904	113,83
516,106	171,18
516,308	101,55
516,51	83,11
516,712	48,3
516,914	132,26
517,116	66,73
517,318	97,45
517,52	81,07
517,722	60,59
517,925	87,21
518,127	93,35
518,329	160,94
518,531	72,87
518,733	105,64
518,935	-0,85
519,136	130,22
519,338	56,49
519,54	68,78
519,742	9,39
519,944	193,7
520,146	128,17
520,348	74,92
520,55	171,18
520,752	52,39
520,954	107,69
521,155	11,43
521,357	25,77
521,559	130,22
521,761	144,55
521,963	111,78
522,164	36,01
522,366	152,74
522,568	97,45
522,77	64,68
522,971	76,97
523,173	31,91
523,375	105,64
523,576	132,26
523,778	-50
523,98	11,43
524,181	146,6
524,383	236,71
524,584	95,4
524,786	76,97
524,988	-21,33
525,189	-19,29
525,391	72,87
525,592	7,34
525,794	-0,85
525,995	60,59
526,197	136,36
526,398	187,56
526,6	199,85
526,801	122,02
527,003	23,72
527,204	105,64
527,406	154,79
527,607	134,31
527,808	171,18
528,01	81,07
528,211	179,37
528,412	40,11
528,614	130,22
528,815	132,26
529,016	60,59
529,218	72,87
529,419	56,49
529,62	5,29
529,822	146,6
530,023	52,39
530,224	130,22
530,425	146,6
530,626	81,07
530,828	119,98
531,029	7,34
531,23	79,02
531,431	76,97
531,632	76,97
531,833	7,34
532,035	132,26
532,236	21,67
532,437	83,11
532,638	13,48
532,839	11,43
533,04	38,06
533,241	146,6
533,442	119,98
533,643	36,01
533,844	138,41
534,045	29,87
534,246	105,64
534,447	5,29
534,648	11,43
534,849	89,26
535,05	56,49
535,251	3,24
535,451	40,11
535,652	29,87
535,853	38,06
536,054	-9,05
536,255	56,49
536,456	11,43
536,657	76,97
536,857	23,72
537,058	52,39
537,259	105,64
537,46	62,63
537,66	91,31
537,861	97,45
538,062	25,77
538,263	-50
538,463	122,02
538,664	48,3
538,865	5,29
539,065	79,02
539,266	97,45
539,466	15,53
539,667	113,83
539,868	83,11
540,068	13,48
540,269	175,27
540,469	58,54
540,67	195,75
540,87	165,03
541,071	-54,1
541,271	99,5
541,472	146,6
541,672	154,79
541,873	136,36
542,073	113,83
542,274	119,98
542,474	76,97
542,675	142,5
542,875	27,82
543,075	33,96
543,276	42,15
543,476	93,35
543,676	101,55
543,877	27,82
544,077	136,36
544,277	103,59
544,478	36,01
544,678	130,22
544,878	76,97
545,078	85,16
545,279	-2,9
545,479	40,11
545,679	33,96
545,879	-25,43
546,079	87,21
546,28	-33,62
546,48	95,4
546,68	79,02
546,88	5,29
547,08	115,88
547,28	146,6
547,48	70,83
547,68	72,87
547,88	146,6
548,081	117,93
548,281	-82,77
548,481	62,63
548,681	38,06
548,881	64,68
549,081	56,49
549,28	105,64
549,48	103,59
549,68	56,49
549,88	-15,19
550,08	-78,68
550,28	36,01
550,48	148,65
550,68	-17,24
550,88	52,39
551,08	-0,85
551,279	156,84
551,479	36,01
551,679	175,27
551,879	-2,9
552,079	93,35
552,278	105,64
552,478	144,55
552,678	25,77
552,878	144,55
553,077	44,2
553,277	-37,72
553,477	85,16
553,676	162,98
553,876	52,39
554,076	93,35
554,275	160,94
554,475	23,72
554,674	169,13
554,874	21,67
555,074	44,2
555,273	107,69
555,473	21,67
555,672	119,98
555,872	-4,95
556,071	44,2
556,271	46,25
556,47	-9,05
556,67	64,68
556,869	50,35
557,068	64,68
557,268	122,02
557,467	111,78
557,667	142,5
557,866	109,74
558,065	33,96
558,265	97,45
558,464	-11,09
558,663	40,11
558,863	60,59
559,062	83,11
559,261	89,26
559,461	44,2
559,66	-39,76
559,859	66,73
560,058	99,5
560,258	-13,14
560,457	13,48
560,656	228,52
560,855	-13,14
561,054	169,13
561,253	132,26
561,453	40,11
561,652	-9,05
561,851	25,77
562,05	21,67
562,249	52,39
562,448	46,25
562,647	-17,24
562,846	-52,05
563,045	101,55
563,244	128,17
563,443	72,87
563,642	105,64
563,841	27,82
564,04	72,87
564,239	3,24
564,438	56,49
564,637	56,49
564,836	48,3
565,035	50,35
565,234	29,87
565,432	60,59
565,631	101,55
565,83	138,41
566,029	27,82
566,228	-9,05
566,427	81,07
566,625	31,91
566,824	126,12
567,023	128,17
567,222	173,22
567,42	31,91
567,619	101,55
567,818	126,12
568,016	253,09
568,215	79,02
568,414	171,18
568,612	101,55
568,811	89,26
569,01	76,97
569,208	259,24
569,407	185,51
569,605	179,37
569,804	152,74
570,002	183,46
570,201	48,3
570,4	124,07
570,598	156,84
570,797	195,75
570,995	56,49
571,193	128,17
571,392	154,79
571,59	85,16
571,789	265,38
571,987	173,22
572,186	201,9
572,384	87,21
572,582	113,83
572,781	300,2
572,979	130,22
573,177	167,08
573,376	130,22
573,574	242,85
573,772	126,12
573,971	140,46
574,169	105,64
574,367	205,99
574,565	162,98
574,763	160,94
574,962	138,41
575,16	95,4
575,358	23,72
575,556	203,94
575,754	138,41
575,952	216,23
576,151	214,18
576,349	253,09
576,547	162,98
576,745	244,9
576,943	210,09
577,141	169,13
577,339	130,22
577,537	173,22
577,735	310,44
577,933	171,18
578,131	187,56
578,329	294,05
578,527	265,38
578,725	263,33
578,923	162,98
579,121	205,99
579,319	122,02
579,516	212,14
579,714	359,59
579,912	349,35
580,11	171,18
580,308	279,72
580,506	304,29
580,704	187,56
580,901	281,77
581,099	412,84
581,297	318,63
581,495	455,84
581,692	365,73
581,89	466,08
582,088	337,06
582,285	275,62
582,483	281,77
582,681	330,92
582,878	406,69
583,076	279,72
583,274	277,67
583,471	451,75
583,669	283,81
583,866	251,05
584,064	226,47
584,262	128,17
584,459	87,21
584,657	191,66
584,854	269,48
585,052	228,52
585,249	216,23
585,447	162,98
585,644	70,83
585,841	238,76
586,039	171,18
586,236	285,86
586,434	199,85
586,631	134,31
586,828	169,13
587,026	203,94
587,223	122,02
587,42	105,64
587,618	220,33
587,815	320,68
588,012	236,71
588,21	224,42
588,407	281,77
588,604	375,97
588,801	220,33
588,999	292,01
589,196	326,82
589,393	212,14
589,59	214,18
589,787	134,31
589,984	179,37
590,182	240,81
590,379	76,97
590,576	162,98
590,773	146,6
590,97	101,55
591,167	257,19
591,364	152,74
591,561	218,28
591,758	234,66
591,955	261,29
592,152	195,75
592,349	136,36
592,546	232,62
592,743	160,94
592,94	253,09
593,137	298,15
593,334	298,15
593,531	244,9
593,727	242,85
593,924	287,91
594,121	246,95
594,318	257,19
594,515	240,81
594,712	244,9
594,908	267,43
595,105	171,18
595,302	234,66
595,499	122,02
595,696	312,49
595,892	97,45
596,089	244,9
596,286	146,6
596,482	273,57
596,679	232,62
596,876	195,75
597,072	273,57
597,269	259,24
597,466	158,89
597,662	283,81
597,859	224,42
598,055	179,37
598,252	240,81
598,448	226,47
598,645	230,57
598,841	306,34
599,038	169,13
599,234	269,48
599,431	169,13
599,627	179,37
599,824	210,09
600,02	109,74
600,217	177,32
600,413	218,28
600,609	109,74
600,806	292,01
601,002	187,56
601,198	-9,05
601,395	269,48
601,591	218,28
601,787	234,66
601,984	355,49
602,18	251,05
602,376	263,33
602,572	388,26
602,769	351,4
602,965	269,48
603,161	384,16
603,357	324,77
603,553	349,35
603,75	169,13
603,946	218,28
604,142	232,62
604,338	380,07
604,534	228,52
604,73	177,32
604,926	199,85
605,122	169,13
605,318	187,56
605,514	277,67
605,71	150,7
605,906	210,09
606,102	158,89
606,298	269,48
606,494	369,83
606,69	199,85
606,886	191,66
607,082	156,84
607,278	197,8
607,474	205,99
607,67	171,18
607,866	83,11
608,062	146,6
608,257	277,67
608,453	103,59
608,649	152,74
608,845	179,37
609,041	83,11
609,236	187,56
609,432	93,35
609,628	234,66
609,824	214,18
610,019	113,83
610,215	105,64
610,411	212,14
610,606	230,57
610,802	72,87
610,998	89,26
611,193	165,03
611,389	46,25
611,584	210,09
611,78	97,45
611,976	220,33
612,171	257,19
612,367	171,18
612,562	177,32
612,758	205,99
612,953	99,5
613,149	179,37
613,344	222,38
613,539	242,85
613,735	191,66
613,93	128,17
614,126	208,04
614,321	146,6
614,517	212,14
614,712	234,66
614,907	216,23
615,103	122,02
615,298	103,59
615,493	70,83
615,688	140,46
615,884	167,08
616,079	95,4
616,274	162,98
616,47	44,2
616,665	175,27
616,86	136,36
617,055	36,01
617,25	40,11
617,445	113,83
617,641	93,35
617,836	52,39
618,031	48,3
618,226	205,99
618,421	113,83
618,616	97,45
618,811	46,25
619,006	13,48
619,201	199,85
619,396	167,08
619,591	58,54
619,786	46,25
619,981	236,71
620,176	136,36
620,371	64,68
620,566	93,35
620,761	242,85
620,956	162,98
621,151	81,07
621,346	193,7
621,541	13,48
621,735	99,5
621,93	66,73
622,125	83,11
622,32	58,54
622,515	7,34
622,709	218,28
622,904	167,08
623,099	113,83
623,294	113,83
623,488	56,49
623,683	167,08
623,878	144,55
624,072	185,51
624,267	54,44
624,462	66,73
624,656	74,92
624,851	136,36
625,046	81,07
625,24	48,3
625,435	52,39
625,629	46,25
625,824	185,51
626,018	54,44
626,213	113,83
626,407	72,87
626,602	136,36
626,796	23,72
626,991	83,11
627,185	36,01
627,38	44,2
627,574	83,11
627,768	126,12
627,963	62,63
628,157	99,5
628,352	74,92
628,546	74,92
628,74	64,68
628,935	58,54
629,129	97,45
629,323	185,51
629,517	31,91
629,712	64,68
629,906	74,92
630,1	144,55
630,294	95,4
630,489	132,26
630,683	56,49
630,877	144,55
631,071	154,79
631,265	93,35
631,459	89,26
631,653	99,5
631,848	146,6
632,042	68,78
632,236	38,06
632,43	113,83
632,624	122,02
632,818	36,01
633,012	140,46
633,206	111,78
633,4	193,7
633,594	218,28
633,788	97,45
633,982	138,41
634,176	152,74
634,369	175,27
634,563	46,25
634,757	-76,63
634,951	85,16
635,145	185,51
635,339	105,64
635,533	179,37
635,726	74,92
635,92	76,97
636,114	-13,14
636,308	64,68
636,501	70,83
636,695	113,83
636,889	-35,67
637,083	146,6
637,276	64,68
637,47	-37,72
637,664	87,21
637,857	5,29
638,051	126,12
638,244	122,02
638,438	46,25
638,632	210,09
638,825	-25,43
639,019	222,38
639,212	31,91
639,406	195,75
639,599	46,25
639,793	64,68
639,986	15,53
640,18	187,56
640,373	33,96
640,567	60,59
640,76	66,73
640,954	60,59
641,147	62,63
641,34	7,34
641,534	40,11
641,727	140,46
641,92	101,55
642,114	119,98
642,307	19,63
642,5	240,81
642,694	40,11
642,887	66,73
643,08	171,18
643,273	150,7
643,467	36,01
643,66	60,59
643,853	122,02
644,046	162,98
644,239	79,02
644,432	29,87
644,626	17,58
644,819	56,49
645,012	15,53
645,205	72,87
645,398	132,26
645,591	23,72
645,784	25,77
645,977	33,96
646,17	23,72
646,363	66,73
646,556	11,43
646,749	21,67
646,942	119,98
647,135	134,31
647,328	17,58
647,521	56,49
647,714	50,35
647,907	38,06
648,099	11,43
648,292	117,93
648,485	-52,05
648,678	33,96
648,871	70,83
649,064	101,55
649,256	11,43
649,449	27,82
649,642	11,43
649,835	107,69
650,027	-25,43
650,22	111,78
650,413	-4,95
650,605	152,74
650,798	9,39
650,991	38,06
651,183	183,46
651,376	232,62
651,568	79,02
651,761	181,42
651,954	228,52
652,146	93,35
652,339	277,67
652,531	220,33
652,724	56,49
652,916	134,31
653,109	103,59
653,301	199,85
653,494	259,24
653,686	165,03
653,879	201,9
654,071	242,85
654,263	175,27
654,456	312,49
654,648	808,09
654,84	2626,69
655,033	6773,83
655,225	13657,05
655,417	22934,35
655,61	33544,87
655,802	43270,68
655,994	52543,88
656,186	59736,35
656,379	62157,05
656,571	61858,04
656,763	59048,23
656,955	56007
657,148	52464,01
657,34	48366,02
657,532	43323,93
657,724	38791,77
657,916	34742,94
658,108	29694,69
658,3	24961,84
658,492	20556,66
658,684	16741,29
658,876	13906,9
659,068	11627,51
659,26	9313,31
659,452	6970,43
659,644	5381,21
659,836	3820,66
660,028	2751,62
660,22	1852,56
660,412	1365,14
660,604	1105,05
660,796	711,84
660,988	588,96
661,18	496,8
661,372	408,74
661,563	294,05
661,755	308,39
661,947	175,27
662,139	226,47
662,331	259,24
662,522	187,56
662,714	50,35
662,906	25,77
663,097	210,09
663,289	56,49
663,481	40,11
663,673	185,51
663,864	58,54
664,056	193,7
664,247	48,3
664,439	187,56
664,631	70,83
664,822	191,66
665,014	40,11
665,205	126,12
665,397	128,17
665,588	148,65
665,78	142,5
665,971	79,02
666,163	25,77
666,354	56,49
666,546	109,74
666,737	27,82
666,929	11,43
667,12	48,3
667,311	154,79
667,503	48,3
667,694	89,26
667,885	142,5
668,077	144,55
668,268	-13,14
668,459	79,02
668,651	95,4
668,842	87,21
669,033	-11,09
669,224	15,53
669,416	142,5
669,607	40,11
669,798	31,91
669,989	122,02
670,18	136,36
670,371	87,21
670,563	70,83
670,754	87,21
670,945	29,87
671,136	107,69
671,327	66,73
671,518	87,21
671,709	181,42
671,9	113,83
672,091	93,35
672,282	66,73
672,473	115,88
672,664	7,34
672,855	60,59
673,046	103,59
673,237	68,78
673,428	25,77
673,619	119,98
673,809	83,11
674	36,01
674,191	119,98
674,382	-15,19
674,573	27,82
674,764	91,31
674,954	48,3
675,145	13,48
675,336	-33,62
675,527	52,39
675,717	19,63
675,908	7,34
676,099	29,87
676,289	17,58
676,48	-131,92
676,671	117,93
676,861	31,91
677,052	79,02
677,243	64,68
677,433	11,43
677,624	62,63
677,814	-2,9
678,005	-74,58
678,195	97,45
678,386	-0,85
678,576	-0,85
678,767	-31,57
678,957	5,29
679,148	99,5
679,338	124,07
679,529	15,53
679,719	-25,43
679,909	109,74
680,1	76,97
680,29	13,48
680,481	-35,67
680,671	70,83
680,861	21,67
681,052	87,21
681,242	-4,95
681,432	72,87
681,622	52,39
681,813	-64,34
682,003	5,29
682,193	-19,29
682,383	13,48
682,573	-29,52
682,764	-37,72
682,954	74,92
683,144	107,69
683,334	-25,43
683,524	48,3
683,714	81,07
683,904	48,3
684,094	3,24
684,284	23,72
684,474	148,65
684,664	19,63
684,854	-21,33
685,044	-27,48
685,234	-27,48
685,424	52,39
685,614	-62,29
685,804	130,22
685,994	19,63
686,184	-50
686,374	27,82
686,564	46,25
686,753	48,3
686,943	-125,78
687,133	-7
687,323	-41,81
687,513	56,49
687,702	42,15
687,892	-99,16
688,082	13,48
688,272	-7
688,461	87,21
688,651	142,5
688,841	23,72
689,03	-17,24
689,22	-27,48
689,41	93,35
689,599	48,3
689,789	-101,2
689,979	140,46
690,168	27,82
690,358	50,35
690,547	7,34
690,737	21,67
690,926	27,82
691,116	33,96
691,305	54,44
691,495	52,39
691,684	11,43
691,874	29,87
692,063	-35,67
692,252	23,72
692,442	7,34
692,631	40,11
692,82	31,91
693,01	-17,24
693,199	40,11
693,388	21,67
693,578	23,72
693,767	76,97
693,956	60,59
694,146	11,43
694,335	-39,76
694,524	-33,62
694,713	21,67
694,902	44,2
695,092	-31,57
695,281	23,72
695,47	52,39
695,659	-0,85
695,848	-21,33
696,037	27,82
696,226	54,44
696,415	-2,9
696,604	76,97
696,793	5,29
696,982	21,67
697,171	119,98
697,36	-54,1
697,549	68,78
697,738	-60,24
697,927	-23,38
698,116	-93,01
698,305	29,87
698,494	72,87
698,683	7,34
698,872	124,07
699,061	40,11
699,25	-56,15
699,438	52,39
699,627	46,25
699,816	138,41
700,005	-66,39
700,193	-45,91
700,382	76,97
700,571	70,83
700,76	-7
700,948	122,02
701,137	33,96
701,326	23,72
701,514	5,29
701,703	72,87
701,892	23,72
702,08	105,64
702,269	42,15
702,457	-11,09
702,646	113,83
702,834	-21,33
703,023	60,59
703,212	11,43
703,4	-9,05
703,589	-19,29
703,777	-50
703,965	-62,29
704,154	-64,34
704,342	-13,14
704,531	-50
704,719	76,97
704,907	68,78
705,096	54,44
705,284	-4,95
705,472	66,73
705,661	-11,09
705,849	99,5
706,037	95,4
706,226	117,93
706,414	81,07
706,602	1,19
706,79	81,07
706,979	-0,85
707,167	36,01
707,355	17,58
707,543	-4,95
707,731	122,02
707,919	15,53
708,107	-33,62
708,296	29,87
708,484	64,68
708,672	48,3
708,86	56,49
709,048	-27,48
709,236	-76,63
709,424	19,63
709,612	62,63
709,8	-4,95
709,988	31,91
710,176	23,72
710,364	85,16
710,551	-25,43
710,739	-33,62
710,927	-72,53
711,115	23,72
711,303	60,59
711,491	138,41
711,679	-25,43
711,866	122,02
712,054	-29,52
712,242	64,68
712,43	48,3
712,617	-2,9
712,805	70,83
712,993	17,58
713,181	-37,72
713,368	-29,52
713,556	50,35
713,744	-2,9
713,931	232,62
714,119	138,41
714,306	-82,77
714,494	1,19
714,682	42,15
714,869	-17,24
715,057	70,83
715,244	-43,86
715,432	-4,95
715,619	-68,44
715,807	70,83
715,994	60,59
716,182	64,68
716,369	52,39
716,556	-2,9
716,744	-56,15
716,931	-113,49
717,119	17,58
717,306	-43,86
717,493	95,4
717,681	-41,81
717,868	-33,62
718,055	36,01
718,242	-37,72
718,43	27,82
718,617	60,59
718,804	-17,24
718,991	72,87
719,179	74,92
719,366	52,39
719,553	15,53
719,74	11,43
719,927	13,48
720,114	42,15
720,301	-41,81
720,488	-17,24
720,676	-76,63
720,863	27,82
721,05	158,89
721,237	17,58
721,424	62,63
721,611	29,87
721,798	-50
721,985	-50
722,172	3,24
722,358	13,48
722,545	85,16
722,732	72,87
722,919	48,3
723,106	-0,85
723,293	-19,29
723,48	15,53
723,667	-45,91
723,853	40,11
724,04	154,79
724,227	72,87
724,414	-76,63
724,6	64,68
724,787	132,26
724,974	152,74
725,161	27,82
725,347	-2,9
725,534	79,02
725,72	72,87
725,907	117,93
726,094	76,97
726,28	11,43
726,467	-7
726,653	-27,48
726,84	124,07
727,027	89,26
727,213	64,68
727,4	113,83
727,586	91,31
727,773	54,44
727,959	29,87
728,145	70,83
728,332	138,41
728,518	-23,38
728,705	-27,48
728,891	13,48
729,077	81,07
729,264	-0,85
729,45	-11,09
729,636	66,73
729,823	122,02
730,009	40,11
730,195	72,87
730,382	64,68
730,568	-103,25
730,754	23,72
730,94	-19,29
731,126	64,68
731,313	91,31
731,499	11,43
731,685	62,63
731,871	74,92
732,057	31,91
732,243	76,97
732,429	44,2
732,615	38,06
732,801	23,72
732,987	5,29
733,173	-21,33
733,359	-52,05
733,545	60,59
733,731	23,72
733,917	72,87
734,103	46,25
734,289	44,2
734,475	-68,44
734,661	124,07
734,847	31,91
735,033	119,98
735,219	111,78
735,404	-33,62
735,59	-2,9
735,776	-7
735,962	54,44
736,148	-37,72
736,333	31,91
736,519	-62,29
736,705	-0,85
736,89	50,35
737,076	54,44
737,262	-17,24
737,447	42,15
737,633	-76,63
737,819	138,41
738,004	-33,62
738,19	81,07
738,375	93,35
738,561	165,03
738,747	-4,95
738,932	-47,96
739,118	109,74
739,303	64,68
739,489	11,43
739,674	36,01
739,859	-39,76
740,045	31,91
740,23	-17,24
740,416	-66,39
740,601	87,21
740,786	42,15
740,972	-99,16
741,157	-37,72
741,342	-56,15
741,528	-121,68
741,713	54,44
741,898	21,67
742,084	-74,58
742,269	27,82
742,454	48,3
742,639	87,21
742,824	-0,85
743,01	91,31
743,195	124,07
743,38	7,34
743,565	7,34
743,75	68,78
743,935	76,97
744,12	132,26
744,305	-31,57
744,49	23,72
744,675	-7
744,86	15,53
745,045	83,11
745,23	54,44
745,415	-45,91
745,6	60,59
745,785	27,82
745,97	46,25
746,155	85,16
746,34	158,89
746,525	23,72
746,71	101,55
746,895	-58,2
747,079	-45,91
747,264	48,3
747,449	76,97
747,634	62,63
747,819	-25,43
748,003	7,34
748,188	-17,24
748,373	60,59
748,557	134,31
748,742	23,72
748,927	40,11
749,111	21,67
749,296	46,25
749,481	40,11
749,665	19,63
749,85	-29,52
750,034	76,97
750,219	-7
750,404	3,24
750,588	33,96
750,773	-41,81
750,957	27,82
751,141	-21,33
751,326	17,58
751,51	-25,43
751,695	72,87
751,879	31,91
752,064	130,22
752,248	17,58
752,432	162,98
752,617	97,45
752,801	27,82
752,985	23,72
753,17	42,15
753,354	66,73
753,538	103,59
753,722	-0,85
753,907	15,53
754,091	-9,05
754,275	76,97
754,459	-86,87
754,643	7,34
754,828	101,55
755,012	-13,14
755,196	-25,43
755,38	122,02
755,564	36,01
755,748	25,77
755,932	21,67
756,116	66,73
756,3	79,02
756,484	-13,14
756,668	38,06
756,852	-123,73
757,036	-37,72
757,22	52,39
757,404	-45,91
757,588	46,25
757,772	23,72
757,956	46,25
758,14	95,4
758,323	44,2
758,507	11,43
758,691	-19,29
758,875	58,54
759,059	44,2
759,242	-11,09
759,426	64,68
759,61	72,87
759,794	-41,81
759,977	97,45
760,161	167,08
760,345	142,5
760,528	134,31
760,712	99,5
760,895	48,3
761,079	19,63
761,263	-21,33
761,446	-35,67
761,63	-0,85
761,813	109,74
761,997	-52,05
762,18	87,21
762,364	76,97
762,547	-93,01
762,731	15,53
762,914	-45,91
763,098	-37,72
763,281	-68,44
763,464	-29,52
763,648	5,29
763,831	-21,33
764,015	-25,43
764,198	-4,95
764,381	66,73
764,564	-7
764,748	-33,62
764,931	38,06
765,114	-41,81
765,297	74,92
765,481	-117,59
765,664	13,48
765,847	44,2
766,03	105,64
766,213	17,58
766,397	68,78
766,58	-70,48
766,763	44,2
766,946	23,72
767,129	-54,1
767,312	-56,15
767,495	15,53
767,678	-25,43
767,861	40,11
768,044	-4,95
768,227	-13,14
768,41	31,91
768,593	17,58
768,776	68,78
768,959	31,91
769,142	122,02
769,324	-64,34
769,507	23,72
769,69	-13,14
769,873	27,82
770,056	191,66
770,239	-70,48
770,421	81,07
770,604	-37,72
770,787	-11,09
770,97	74,92
771,152	52,39
771,335	15,53
771,518	3,24
771,7	38,06
771,883	152,74
772,066	17,58
772,248	-60,24
772,431	83,11
772,613	70,83
772,796	-41,81
772,978	58,54
773,161	130,22
773,343	3,24
773,526	-29,52
773,708	-142,16
773,891	-90,96
774,073	62,63
774,256	-95,06
774,438	119,98
774,621	19,63
774,803	-7
774,985	11,43
775,168	36,01
775,35	31,91
775,532	52,39
775,715	13,48
775,897	64,68
776,079	23,72
776,261	60,59
776,444	58,54
776,626	11,43
776,808	83,11
776,99	56,49
777,173	154,79
777,355	140,46
777,537	99,5
777,719	156,84
777,901	72,87
778,083	113,83
778,265	44,2
778,447	152,74
778,629	19,63
778,811	113,83
778,993	83,11
779,175	126,12
779,357	31,91
779,539	-7
779,721	50,35
779,903	117,93
780,085	87,21
780,267	36,01
780,449	79,02
780,631	76,97
780,812	66,73
780,994	15,53
781,176	-11,09
781,358	-19,29
781,54	40,11
781,721	79,02
781,903	81,07
782,085	-19,29
782,267	54,44
782,448	-52,05
782,63	29,87
782,812	-9,05
782,993	52,39
783,175	62,63
783,357	-9,05
783,538	56,49
783,72	-101,2
783,901	-2,9
784,083	-0,85
784,264	72,87
784,446	-111,44
784,627	-86,87
784,809	3,24
784,99	-86,87
785,172	19,63
785,353	-4,95
785,535	21,67
785,716	-21,33
785,897	-93,01
786,079	15,53
786,26	-0,85
786,441	33,96
786,623	-127,83
786,804	15,53
786,985	-11,09
787,167	3,24
787,348	-19,29
787,529	17,58
787,71	76,97
787,891	11,43
788,073	7,34
788,254	-107,35
788,435	85,16
788,616	19,63
788,797	-27,48
788,978	19,63
789,159	31,91
789,34	48,3
789,522	-41,81
789,703	-66,39
789,884	-21,33
790,065	-4,95
790,246	117,93
790,427	-101,2
790,607	146,6
790,788	150,7
790,969	-4,95
791,15	31,91
791,331	31,91
791,512	-25,43
791,693	-33,62
791,874	40,11
792,054	175,27
792,235	103,59
792,416	-2,9
792,597	-9,05
792,778	19,63
792,958	29,87
793,139	9,39
793,32	17,58
793,5	-82,77
793,681	9,39
793,862	21,67
794,042	-31,57
794,223	-90,96
794,404	-45,91
794,584	-78,68
794,765	-41,81
794,945	52,39
795,126	-4,95
795,306	27,82
795,487	-0,85
795,667	19,63
795,848	21,67
796,028	21,67
796,209	19,63
796,389	95,4
796,57	68,78
796,75	-62,29
796,93	-29,52
797,111	-37,72
797,291	-7
797,471	42,15
797,652	13,48
797,832	-25,43
798,012	70,83
798,192	-35,67
798,373	-17,24
798,553	-111,44
798,733	72,87
798,913	-50
799,093	-33,62
799,274	15,53
799,454	31,91
799,634	33,96
799,814	-17,24
799,994	36,01
800,174	38,06
800,354	7,34
800,534	-115,54
800,714	25,77
800,894	-50
801,074	-4,95
801,254	-25,43
801,434	79,02
801,614	-4,95
801,794	-74,58
801,974	1496,21
802,154	19,63
802,334	134,31
802,514	-2,9
802,693	-47,96
802,873	-45,91
803,053	79,02
803,233	15,53
803,413	-37,72
803,592	-29,52
803,772	-9,05
803,952	-17,24
804,131	-82,77
804,311	109,74
804,491	38,06
804,67	40,11
804,85	-29,52
805,03	105,64
805,209	126,12
805,389	-74,58
805,568	-76,63
805,748	-4,95
805,928	-2,9
806,107	11,43
806,287	21,67
806,466	89,26
806,646	25,77
806,825	-86,87
807,004	1,19
807,184	7,34
807,363	17,58
807,543	13,48
807,722	-4,95
807,901	13,48
808,081	5,29
808,26	-131,92
808,439	62,63
808,619	27,82
808,798	-39,76
808,977	54,44
809,156	68,78
809,336	29,87
809,515	48,3
809,694	15,53
809,873	-37,72
810,052	99,5
810,231	-9,05
810,411	23,72
810,59	111,78
810,769	-15,19
810,948	21,67
811,127	-80,72
811,306	-13,14
811,485	-93,01
811,664	122,02
811,843	23,72
812,022	17,58
812,201	-41,81
812,38	-21,33
812,559	-7
812,737	-68,44
812,916	-133,97
813,095	-62,29
813,274	-15,19
813,453	-62,29
813,632	9,39
813,811	36,01
813,989	-109,4
814,168	40,11
814,347	-64,34
814,526	-39,76
814,704	76,97
814,883	68,78
815,062	-21,33
815,24	1,19
815,419	-21,33
815,598	64,68
815,776	-164,69
815,955	21,67
816,133	-97,11
816,312	-23,38
816,49	-123,73
816,669	60,59
816,847	-60,24
817,026	36,01
817,204	-29,52
817,383	-7
817,561	11,43
817,74	17,58
817,918	-0,85
818,097	-33,62
818,275	-58,2
818,453	-33,62
818,632	11,43
818,81	3,24
818,988	-27,48
819,167	-41,81
819,345	1,19
819,523	-31,57
819,701	-27,48
819,879	93,35
820,058	-2,9
820,236	-76,63
820,414	-29,52
820,592	-47,96
820,77	19,63
820,948	-78,68
821,127	5,29
821,305	17,58
821,483	-17,24
821,661	109,74
821,839	52,39
822,017	3,24
822,195	38,06
822,373	81,07
822,551	-33,62
822,729	81,07
822,907	-35,67
823,085	-7
823,262	15,53
823,44	-19,29
823,618	-2,9
823,796	-15,19
823,974	56,49
824,152	-156,5
824,329	-35,67
824,507	5,29
824,685	-33,62
824,863	-58,2
825,04	-23,38
825,218	-9,05
825,396	-33,62
825,574	-33,62
825,751	70,83
825,929	-70,48
826,107	-82,77
826,284	-58,2
826,462	97,45
826,639	-93,01
826,817	-62,29
826,994	-68,44
827,172	-62,29
827,349	91,31
827,527	36,01
827,704	-52,05
827,882	31,91
828,059	-58,2
828,237	-95,06
828,414	31,91
828,591	-129,88
828,769	-13,14
828,946	-45,91
829,124	36,01
829,301	31,91
829,478	13,48
829,655	7,34
829,833	7,34
830,01	-109,4
830,187	21,67
830,364	-62,29
830,542	15,53
830,719	81,07
830,896	48,3
831,073	-25,43
831,25	-9,05
831,427	-23,38
831,604	-70,48
831,782	-58,2
831,959	-0,85
832,136	15,53
832,313	66,73
832,49	-37,72
832,667	-31,57
832,844	-60,24
833,021	44,2
833,198	-7
833,374	-4,95
833,551	64,68
833,728	-13,14
833,905	76,97
834,082	-70,48
834,259	-13,14
834,436	66,73
834,612	-29,52
834,789	33,96
834,966	52,39
835,143	33,96
835,319	-64,34
835,496	87,21
835,673	89,26
835,85	40,11
836,026	-13,14
836,203	64,68
836,38	-39,76
836,556	36,01
836,733	-74,58
836,909	124,07
837,086	-33,62
837,262	-58,2
837,439	7,34
837,616	-64,34
837,792	-58,2
837,968	-58,2
838,145	-109,4
838,321	-37,72
838,498	-9,05
838,674	68,78
838,851	56,49
839,027	-33,62
839,203	-33,62
839,38	113,83
839,556	-27,48
839,732	36,01
839,909	-27,48
840,085	40,11
840,261	-25,43
840,437	23,72
840,614	-0,85
840,79	19,63
840,966	-35,67
841,142	-29,52
841,318	7,34
841,494	-11,09
841,671	5,29
841,847	-21,33
842,023	-66,39
842,199	3,24
842,375	146,6
842,551	-95,06
842,727	-117,59
842,903	201,9
843,079	-74,58
843,255	72,87
843,431	-29,52
843,607	99,5
843,783	-80,72
843,959	93,35
844,134	5,29
844,31	54,44
844,486	-19,29
844,662	-50
844,838	13,48
845,013	113,83
845,189	103,59
845,365	48,3
845,541	54,44
845,716	29,87
845,892	38,06
846,068	-17,24
846,244	-50
846,419	23,72
846,595	-17,24
846,77	-74,58
846,946	1,19
847,122	-4,95
847,297	36,01
847,473	89,26
847,648	-82,77
847,824	-37,72
847,999	-88,92
848,175	-27,48
848,35	11,43
848,526	68,78
848,701	1,19
848,876	111,78
849,052	54,44
849,227	-4,95
849,403	81,07
849,578	-35,67
849,753	-25,43
849,929	31,91
850,104	-68,44
850,279	64,68
850,454	3,24
850,63	-13,14
850,805	38,06
850,98	27,82
851,155	36,01
851,33	-56,15
851,505	-131,92
851,681	42,15
851,856	-99,16
852,031	68,78
852,206	-13,14
852,381	-39,76
852,556	21,67
852,731	54,44
852,906	72,87
853,081	60,59
853,256	109,74
853,431	-33,62
853,606	-13,14
853,781	-37,72
853,956	-29,52
854,131	60,59
854,305	-19,29
854,48	-9,05
854,655	15,53
854,83	-84,82
855,005	-29,52
855,18	23,72
855,354	33,96
855,529	-7
855,704	-7
855,879	46,25
856,053	-45,91
856,228	40,11
856,403	-74,58
856,577	27,82
856,752	-170,83
856,926	-43,86
857,101	17,58
857,276	-78,68
857,45	1,19
857,625	97,45
857,799	40,11
857,974	-23,38
858,148	-111,44
858,323	5,29
858,497	-54,1
858,672	-95,06
858,846	-52,05
859,02	33,96
859,195	-99,16
859,369	5,29
859,543	3,24
859,718	1,19
859,892	31,91
860,066	-17,24
860,241	-60,24
860,415	-23,38
860,589	56,49
860,763	-9,05
860,938	-78,68
861,112	33,96
861,286	-37,72
861,46	-31,57
861,634	72,87
861,808	27,82
861,982	-60,24
862,157	-95,06
862,331	-54,1
862,505	-84,82
862,679	-119,64
862,853	13,48
863,027	-72,53
863,201	111,78
863,375	-7
863,549	52,39
863,722	23,72
863,896	72,87
864,07	-66,39
864,244	-33,62
864,418	17,58
864,592	-54,1
864,766	-9,05
864,939	-4,95
865,113	-58,2
865,287	91,31
865,461	-66,39
865,634	60,59
865,808	-43,86
865,982	-13,14
866,156	13,48
866,329	-70,48
866,503	54,44
866,676	109,74
866,85	-52,05
867,024	-66,39
867,197	46,25
867,371	132,26
867,544	-54,1
867,718	-78,68
867,891	91,31
868,065	-123,73
868,238	13,48
868,412	85,16
868,585	11,43
868,759	-52,05
868,932	-101,2
869,105	-142,16
869,279	-31,57
869,452	-82,77
869,625	-17,24
869,799	31,91
869,972	-109,4
870,145	-41,81
870,319	74,92
870,492	23,72
870,665	-33,62
870,838	-93,01
871,011	-86,87
871,185	-23,38
871,358	-21,33
871,531	-13,14
871,704	-70,48
871,877	36,01
872,05	-17,24
872,223	-52,05
872,396	68,78
872,569	64,68
872,742	-95,06
872,915	-35,67
873,088	25,77
873,261	-54,1
873,434	40,11
873,607	-13,14
873,78	103,59
873,953	-95,06
874,126	23,72
874,299	9,39
874,471	-86,87
874,644	-64,34
874,817	64,68
874,99	122,02
875,163	-27,48
875,335	-25,43
875,508	-9,05
875,681	27,82
875,853	9,39
876,026	15,53
876,199	146,6
876,371	31,91
876,544	70,83
876,717	-25,43
876,889	-2,9
877,062	52,39
877,234	-105,3
877,407	-99,16
877,579	-21,33
877,752	21,67
877,924	31,91
878,097	-13,14
878,269	-9,05
878,442	11,43
878,614	-2,9
878,786	42,15
878,959	-68,44
879,131	23,72
879,303	-156,5
879,476	27,82
879,648	40,11
879,82	-43,86
879,993	7,34
880,165	-11,09
880,337	-82,77
880,509	36,01
880,681	-111,44
880,854	-60,24
881,026	5,29
881,198	140,46
881,37	-50
881,542	-47,96
881,714	-4,95
881,886	-33,62
882,058	-17,24
882,23	21,67
882,402	52,39
882,574	-2,9
882,746	89,26
882,918	162,98
883,09	25,77
883,262	-2,9
883,434	-90,96
883,606	-74,58
883,778	21,67
883,95	56,49
884,122	-35,67
884,293	76,97
884,465	7,34
884,637	117,93
884,809	-64,34
884,98	-0,85
885,152	5,29
885,324	62,63
885,496	-52,05
885,667	-64,34
885,839	-50
886,011	85,16
886,182	62,63
886,354	74,92
886,525	-17,24
886,697	-13,14
886,869	-56,15
887,04	-52,05
887,212	81,07
887,383	130,22
887,555	7,34
887,726	-21,33
887,897	-35,67
888,069	36,01
888,24	-2,9
888,412	-35,67
888,583	29,87
888,754	7,34
888,926	-2,9
889,097	-66,39
889,268	-70,48
889,44	15,53
889,611	-27,48
889,782	-99,16
889,953	-74,58
890,125	36,01
890,296	-168,79
890,467	-25,43
890,638	15,53
890,809	-4,95
890,98	-13,14
891,151	-13,14
891,323	-17,24
891,494	-47,96
891,665	-21,33
891,836	56,49
892,007	27,82
892,178	-23,38
892,349	21,67
892,52	-62,29
892,691	-58,2
892,862	21,67
893,032	-31,57
893,203	-70,48
893,374	-21,33
893,545	76,97
893,716	-21,33
893,887	-90,96
894,057	-50
894,228	-58,2
894,399	-45,91
894,57	62,63
894,74	-13,14
894,911	29,87
895,082	23,72
895,253	-15,19
895,423	11,43
895,594	-2,9
895,764	15,53
895,935	-60,24
896,106	93,35
896,276	48,3
896,447	-43,86
896,617	-56,15
896,788	-107,35
896,958	-103,25
897,129	-37,72
897,299	-25,43
897,47	15,53
897,64	3,24
897,81	15,53
897,981	-17,24
898,151	-37,72
898,322	-13,14
898,492	66,73
898,662	-74,58
898,832	-127,83
899,003	33,96
899,173	23,72
899,343	-78,68
899,513	-62,29
