Data from krypton_USB4F104151__0__11-01-15-412.txt Node

Date: Wed Apr 15 11:01:15 EDT 2026
User: LaboPhy
Spectrometer: USB4F10415
Trigger mode: 4
Integration Time (sec): 1,000000E-1
Scans to average: 1
Electric dark correction enabled: true
Nonlinearity correction enabled: false
Boxcar width: 0
XAxis mode: Wavelengths
Number of Pixels in Spectrum: 3648
>>>>>Begin Spectral Data<<<<<
178,204	-564,22
178,424	-564,22
178,644	-564,22
178,864	-441,34
179,084	-465,91
179,304	48,13
179,524	-21,5
179,744	-9,22
179,964	-25,6
180,184	11,26
180,404	54,27
180,624	9,22
180,844	31,74
181,064	-15,36
181,283	25,6
181,503	-132,09
181,723	23,55
181,943	-115,71
182,163	289,79
182,383	-46,08
182,602	48,13
182,822	99,33
183,042	39,94
183,262	-15,36
183,482	70,65
183,701	33,79
183,921	132,09
184,141	-70,65
184,361	66,56
184,58	78,85
184,8	17,41
185,02	17,41
185,239	33,79
185,459	54,27
185,679	125,95
185,898	-48,13
186,118	37,89
186,338	68,61
186,557	189,44
186,777	-93,18
186,997	-44,03
187,216	48,13
187,436	211,96
187,655	74,75
187,875	181,25
188,095	56,32
188,314	132,09
188,534	101,37
188,753	3,07
188,973	134,14
189,192	140,29
189,412	-7,17
189,631	11,26
189,851	128
190,07	197,63
190,29	-58,37
190,509	-35,84
190,729	93,18
190,948	171,01
191,168	252,92
191,387	144,38
191,607	50,18
191,826	115,71
192,045	44,03
192,265	-33,79
192,484	138,24
192,704	64,51
192,923	-1,02
193,142	216,06
193,362	107,52
193,581	162,81
193,8	-5,12
194,02	158,72
194,239	-23,55
194,458	226,3
194,678	64,51
194,897	93,18
195,116	138,24
195,335	107,52
195,555	62,46
195,774	41,98
195,993	123,9
196,212	54,27
196,432	-5,12
196,651	64,51
196,87	76,8
197,089	310,27
197,308	115,71
197,528	60,42
197,747	1,02
197,966	140,29
198,185	179,2
198,404	-31,74
198,623	171,01
198,842	205,82
199,062	134,14
199,281	140,29
199,5	111,61
199,719	162,81
199,938	23,55
200,157	64,51
200,376	164,86
200,595	134,14
200,814	89,09
201,033	31,74
201,252	214,01
201,471	60,42
201,69	148,48
201,909	23,55
202,128	246,78
202,347	103,42
202,566	99,33
202,785	-134,14
203,004	62,46
203,223	361,47
203,442	52,22
203,661	1,02
203,879	132,09
204,098	199,68
204,317	66,56
204,536	132,09
204,755	216,06
204,974	162,81
205,193	23,55
205,411	197,63
205,63	187,39
205,849	226,3
206,068	7,17
206,287	-33,79
206,505	189,44
206,724	91,13
206,943	31,74
207,162	-15,36
207,381	80,89
207,599	56,32
207,818	48,13
208,037	-33,79
208,255	37,89
208,474	76,8
208,693	97,28
208,911	37,89
209,13	72,7
209,349	140,29
209,567	121,85
209,786	130,05
210,005	123,9
210,223	87,04
210,442	-89,09
210,661	7,17
210,879	93,18
211,098	115,71
211,316	-11,26
211,535	15,36
211,753	39,94
211,972	107,52
212,191	-56,32
212,409	-3,07
212,628	95,23
212,846	7,17
213,065	72,7
213,283	148,48
213,502	-54,27
213,72	84,99
213,938	41,98
214,157	82,94
214,375	146,43
214,594	31,74
214,812	48,13
215,031	-15,36
215,249	128
215,467	48,13
215,686	80,89
215,904	109,57
216,122	105,47
216,341	187,39
216,559	76,8
216,778	130,05
216,996	171,01
217,214	144,38
217,432	68,61
217,651	-50,18
217,869	52,22
218,087	95,23
218,306	19,46
218,524	97,28
218,742	72,7
218,96	189,44
219,179	109,57
219,397	-19,46
219,615	281,6
219,833	150,53
220,051	1,02
220,27	111,61
220,488	160,77
220,706	160,77
220,924	5,12
221,142	39,94
221,36	128
221,578	109,57
221,796	35,84
222,015	156,67
222,233	-13,31
222,451	142,33
222,669	-19,46
222,887	199,68
223,105	37,89
223,323	-1,02
223,541	-82,94
223,759	105,47
223,977	80,89
224,195	226,3
224,413	160,77
224,631	105,47
224,849	64,51
225,067	214,01
225,285	-82,94
225,503	-5,12
225,721	-95,23
225,939	60,42
226,157	74,75
226,375	230,4
226,592	-9,22
226,81	48,13
227,028	173,05
227,246	160,77
227,464	107,52
227,682	105,47
227,9	82,94
228,117	25,6
228,335	142,33
228,553	23,55
228,771	9,22
228,989	80,89
229,206	123,9
229,424	15,36
229,642	25,6
229,86	-1,02
230,077	171,01
230,295	117,76
230,513	115,71
230,731	89,09
230,948	173,05
231,166	216,06
231,384	46,08
231,601	-91,13
231,819	232,44
232,037	13,31
232,254	-13,31
232,472	39,94
232,689	31,74
232,907	156,67
233,125	5,12
233,342	-9,22
233,56	60,42
233,777	74,75
233,995	60,42
234,213	113,66
234,43	125,95
234,648	35,84
234,865	9,22
235,083	54,27
235,3	9,22
235,518	115,71
235,735	154,62
235,953	111,61
236,17	25,6
236,388	41,98
236,605	132,09
236,822	56,32
237,04	207,87
237,257	103,42
237,475	-60,42
237,692	148,48
237,909	64,51
238,127	46,08
238,344	134,14
238,562	21,5
238,779	-70,65
238,996	-23,55
239,214	13,31
239,431	80,89
239,648	-35,84
239,865	72,7
240,083	50,18
240,3	-15,36
240,517	23,55
240,735	41,98
240,952	173,05
241,169	66,56
241,386	158,72
241,603	74,75
241,821	-27,65
242,038	130,05
242,255	128
242,472	-48,13
242,689	144,38
242,907	109,57
243,124	97,28
243,341	11,26
243,558	31,74
243,775	-89,09
243,992	-9,22
244,209	76,8
244,426	203,77
244,643	95,23
244,86	113,66
245,078	74,75
245,295	66,56
245,512	1,02
245,729	-23,55
245,946	99,33
246,163	-9,22
246,38	11,26
246,597	111,61
246,814	105,47
247,031	78,85
247,248	52,22
247,464	138,24
247,681	74,75
247,898	62,46
248,115	82,94
248,332	15,36
248,549	162,81
248,766	132,09
248,983	95,23
249,2	154,62
249,417	128
249,633	-33,79
249,85	105,47
250,067	80,89
250,284	91,13
250,501	103,42
250,717	125,95
250,934	9,22
251,151	39,94
251,368	31,74
251,585	121,85
251,801	68,61
252,018	-33,79
252,235	64,51
252,451	-89,09
252,668	46,08
252,885	171,01
253,102	82,94
253,318	-19,46
253,535	31,74
253,752	39,94
253,968	-9,22
254,185	-46,08
254,401	101,37
254,618	74,75
254,835	27,65
255,051	158,72
255,268	146,43
255,484	117,76
255,701	27,65
255,917	68,61
256,134	1,02
256,351	72,7
256,567	-33,79
256,784	93,18
257	-56,32
257,217	207,87
257,433	136,19
257,65	76,8
257,866	222,2
258,082	-9,22
258,299	-5,12
258,515	68,61
258,732	-39,94
258,948	-37,89
259,165	89,09
259,381	27,65
259,597	91,13
259,814	76,8
260,03	48,13
260,246	50,18
260,463	128
260,679	168,96
260,895	99,33
261,112	152,57
261,328	46,08
261,544	-1,02
261,761	197,63
261,977	-39,94
262,193	13,31
262,409	64,51
262,626	68,61
262,842	56,32
263,058	37,89
263,274	113,66
263,49	58,37
263,707	154,62
263,923	113,66
264,139	-29,7
264,355	52,22
264,571	89,09
264,787	60,42
265,004	162,81
265,22	97,28
265,436	1,02
265,652	3,07
265,868	140,29
266,084	-50,18
266,3	56,32
266,516	-25,6
266,732	41,98
266,948	136,19
267,164	33,79
267,38	242,68
267,596	82,94
267,812	138,24
268,028	82,94
268,244	56,32
268,46	48,13
268,676	21,5
268,892	76,8
269,108	119,81
269,324	48,13
269,54	-21,5
269,756	189,44
269,972	52,22
270,188	19,46
270,403	-39,94
270,619	97,28
270,835	111,61
271,051	-3,07
271,267	72,7
271,483	25,6
271,698	89,09
271,914	150,53
272,13	80,89
272,346	25,6
272,562	97,28
272,777	187,39
272,993	48,13
273,209	76,8
273,425	119,81
273,64	-56,32
273,856	152,57
274,072	64,51
274,287	-15,36
274,503	101,37
274,719	144,38
274,934	64,51
275,15	-50,18
275,366	76,8
275,581	56,32
275,797	60,42
276,012	103,42
276,228	56,32
276,444	48,13
276,659	121,85
276,875	-35,84
277,09	105,47
277,306	27,65
277,521	123,9
277,737	99,33
277,952	82,94
278,168	101,37
278,383	105,47
278,599	-7,17
278,814	146,43
279,03	50,18
279,245	160,77
279,461	107,52
279,676	97,28
279,892	-37,89
280,107	-50,18
280,322	41,98
280,538	150,53
280,753	-15,36
280,969	89,09
281,184	52,22
281,399	144,38
281,615	3,07
281,83	37,89
282,045	-91,13
282,26	89,09
282,476	-33,79
282,691	105,47
282,906	105,47
283,122	103,42
283,337	-58,37
283,552	142,33
283,767	21,5
283,983	101,37
284,198	56,32
284,413	80,89
284,628	-58,37
284,843	-23,55
285,058	97,28
285,274	50,18
285,489	21,5
285,704	97,28
285,919	-27,65
286,134	9,22
286,349	41,98
286,564	23,55
286,779	109,57
286,995	7,17
287,21	13,31
287,425	134,14
287,64	-60,42
287,855	39,94
288,07	-44,03
288,285	173,05
288,5	115,71
288,715	82,94
288,93	78,85
289,145	23,55
289,36	99,33
289,575	23,55
289,79	168,96
290,004	72,7
290,219	84,99
290,434	-41,98
290,649	17,41
290,864	50,18
291,079	7,17
291,294	87,04
291,509	70,65
291,724	41,98
291,938	56,32
292,153	7,17
292,368	52,22
292,583	117,76
292,798	115,71
293,012	48,13
293,227	54,27
293,442	80,89
293,657	99,33
293,871	179,2
294,086	138,24
294,301	187,39
294,516	166,91
294,73	105,47
294,945	35,84
295,16	115,71
295,374	181,25
295,589	236,54
295,804	-27,65
296,018	125,95
296,233	117,76
296,447	39,94
296,662	-31,74
296,877	181,25
297,091	162,81
297,306	-15,36
297,52	33,79
297,735	97,28
297,949	125,95
298,164	39,94
298,378	107,52
298,593	27,65
298,807	-1,02
299,022	95,23
299,236	199,68
299,451	50,18
299,665	72,7
299,88	37,89
300,094	121,85
300,309	17,41
300,523	15,36
300,737	17,41
300,952	115,71
301,166	50,18
301,381	-19,46
301,595	-62,46
301,809	107,52
302,024	19,46
302,238	-48,13
302,452	179,2
302,667	64,51
302,881	189,44
303,095	148,48
303,309	48,13
303,524	119,81
303,738	3,07
303,952	41,98
304,166	144,38
304,381	-115,71
304,595	185,34
304,809	-29,7
305,023	31,74
305,237	33,79
305,452	111,61
305,666	121,85
305,88	146,43
306,094	166,91
306,308	72,7
306,522	101,37
306,736	105,47
306,95	103,42
307,164	123,9
307,379	113,66
307,593	240,64
307,807	201,72
308,021	138,24
308,235	166,91
308,449	-97,28
308,663	123,9
308,877	365,56
309,091	154,62
309,305	207,87
309,519	1,02
309,733	211,96
309,947	-25,6
310,161	91,13
310,374	199,68
310,588	209,92
310,802	35,84
311,016	64,51
311,23	173,05
311,444	93,18
311,658	91,13
311,872	181,25
312,085	150,53
312,299	220,16
312,513	297,98
312,727	105,47
312,941	27,65
313,154	35,84
313,368	82,94
313,582	39,94
313,796	134,14
314,009	66,56
314,223	230,4
314,437	123,9
314,651	220,16
314,864	-17,41
315,078	64,51
315,292	-7,17
315,505	56,32
315,719	111,61
315,933	78,85
316,146	23,55
316,36	15,36
316,573	242,68
316,787	193,53
317,001	142,33
317,214	87,04
317,428	1,02
317,641	13,31
317,855	87,04
318,068	121,85
318,282	117,76
318,495	304,12
318,709	138,24
318,922	97,28
319,136	209,92
319,349	271,36
319,563	97,28
319,776	189,44
319,99	62,46
320,203	195,58
320,417	162,81
320,63	171,01
320,843	232,44
321,057	142,33
321,27	166,91
321,483	111,61
321,697	205,82
321,91	168,96
322,124	68,61
322,337	158,72
322,55	56,32
322,763	203,77
322,977	60,42
323,19	84,99
323,403	58,37
323,617	207,87
323,83	130,05
324,043	50,18
324,256	189,44
324,469	-5,12
324,683	130,05
324,896	138,24
325,109	93,18
325,322	1,02
325,535	222,2
325,748	171,01
325,962	76,8
326,175	107,52
326,388	95,23
326,601	205,82
326,814	56,32
327,027	117,76
327,24	267,26
327,453	35,84
327,666	136,19
327,879	146,43
328,092	209,92
328,305	211,96
328,518	109,57
328,731	95,23
328,944	91,13
329,157	146,43
329,37	121,85
329,583	271,36
329,796	297,98
330,009	128
330,222	246,78
330,435	226,3
330,648	146,43
330,861	132,09
331,073	101,37
331,286	214,01
331,499	168,96
331,712	66,56
331,925	158,72
332,138	95,23
332,35	175,1
332,563	56,32
332,776	195,58
332,989	50,18
333,202	105,47
333,414	146,43
333,627	171,01
333,84	70,65
334,053	209,92
334,265	181,25
334,478	181,25
334,691	259,07
334,903	183,29
335,116	232,44
335,329	234,49
335,541	273,4
335,754	441,34
335,966	248,83
336,179	279,55
336,392	293,88
336,604	334,84
336,817	381,95
337,029	281,6
337,242	228,35
337,454	273,4
337,667	207,87
337,88	336,89
338,092	295,93
338,305	254,97
338,517	166,91
338,729	238,59
338,942	283,64
339,154	136,19
339,367	78,85
339,579	310,27
339,792	76,8
340,004	263,16
340,217	119,81
340,429	185,34
340,641	115,71
340,854	95,23
341,066	119,81
341,278	234,49
341,491	297,98
341,703	113,66
341,915	150,53
342,128	179,2
342,34	171,01
342,552	48,13
342,764	82,94
342,977	207,87
343,189	203,77
343,401	173,05
343,613	27,65
343,826	224,25
344,038	50,18
344,25	121,85
344,462	52,22
344,674	95,23
344,886	121,85
345,099	154,62
345,311	205,82
345,523	99,33
345,735	48,13
345,947	193,53
346,159	66,56
346,371	171,01
346,583	130,05
346,795	285,69
347,007	99,33
347,219	142,33
347,431	150,53
347,643	244,73
347,855	224,25
348,067	285,69
348,279	64,51
348,491	189,44
348,703	240,64
348,915	146,43
349,127	115,71
349,339	171,01
349,551	130,05
349,763	269,31
349,975	128
350,187	343,03
350,399	285,69
350,61	277,5
350,822	216,06
351,034	240,64
351,246	207,87
351,458	211,96
351,669	162,81
351,881	244,73
352,093	269,31
352,305	279,55
352,517	277,5
352,728	359,42
352,94	248,83
353,152	203,77
353,363	113,66
353,575	242,68
353,787	275,45
353,999	191,49
354,21	402,43
354,422	52,22
354,633	191,49
354,845	152,57
355,057	144,38
355,268	171,01
355,48	322,56
355,692	113,66
355,903	203,77
356,115	142,33
356,326	95,23
356,538	392,19
356,749	289,79
356,961	437,24
357,172	322,56
357,384	246,78
357,595	467,96
357,807	216,06
358,018	222,2
358,23	191,49
358,441	343,03
358,653	347,13
358,864	271,36
359,075	244,73
359,287	275,45
359,498	334,84
359,709	318,46
359,921	252,92
360,132	263,16
360,344	191,49
360,555	195,58
360,766	238,59
360,977	261,12
361,189	326,65
361,4	273,4
361,611	383,99
361,823	361,47
362,034	236,54
362,245	187,39
362,456	216,06
362,667	277,5
362,879	89,09
363,09	392,19
363,301	248,83
363,512	205,82
363,723	121,85
363,935	269,31
364,146	295,93
364,357	222,2
364,568	338,94
364,779	146,43
364,99	308,22
365,201	220,16
365,412	392,19
365,623	240,64
365,834	433,15
366,045	510,97
366,256	443,39
366,467	513,02
366,678	496,63
366,889	562,17
367,1	457,72
367,311	596,98
367,522	439,29
367,733	547,83
367,944	484,34
368,155	476,15
368,366	580,6
368,577	588,79
368,788	451,58
368,999	351,23
369,209	383,99
369,42	461,82
369,631	533,5
369,842	334,84
370,053	203,77
370,264	359,42
370,474	254,97
370,685	308,22
370,896	259,07
371,107	291,84
371,317	269,31
371,528	267,26
371,739	275,45
371,95	277,5
372,16	238,59
372,371	181,25
372,582	175,1
372,792	228,35
373,003	244,73
373,214	293,88
373,424	195,58
373,635	130,05
373,846	322,56
374,056	203,77
374,267	254,97
374,477	203,77
374,688	128
374,898	216,06
375,109	310,27
375,319	242,68
375,53	314,36
375,74	445,43
375,951	283,64
376,161	220,16
376,372	361,47
376,582	187,39
376,793	326,65
377,003	289,79
377,214	297,98
377,424	359,42
377,635	375,8
377,845	320,51
378,055	359,42
378,266	218,11
378,476	390,14
378,686	414,71
378,897	396,28
379,107	392,19
379,317	447,48
379,528	322,56
379,738	490,49
379,948	345,08
380,158	525,3
380,369	478,2
380,579	416,76
380,789	375,8
380,999	517,11
381,21	410,62
381,42	549,88
381,63	467,96
381,84	496,63
382,05	424,95
382,261	445,43
382,471	515,06
382,681	459,77
382,891	631,8
383,101	476,15
383,311	441,34
383,521	556,02
383,731	527,35
383,941	629,75
384,151	572,41
384,361	625,65
384,571	646,13
384,781	728,05
384,991	871,41
385,201	723,96
385,411	689,14
385,621	588,79
385,831	664,57
386,041	596,98
386,251	703,48
386,461	781,3
386,671	715,77
386,881	760,82
387,091	676,85
387,301	734,2
387,511	639,99
387,72	746,48
387,93	707,57
388,14	568,31
388,35	627,7
388,56	748,53
388,769	705,53
388,979	560,12
389,189	508,92
389,399	549,88
389,609	568,31
389,818	531,45
390,028	437,24
390,238	500,73
390,447	406,52
390,657	386,04
390,867	404,47
391,076	179,2
391,286	353,27
391,496	410,62
391,705	433,15
391,915	396,28
392,125	457,72
392,334	381,95
392,544	398,33
392,753	343,03
392,963	228,35
393,172	355,32
393,382	277,5
393,591	506,87
393,801	318,46
394,01	494,58
394,22	347,13
394,429	351,23
394,639	220,16
394,848	302,08
395,058	373,75
395,267	312,32
395,477	310,27
395,686	261,12
395,895	482,3
396,105	424,95
396,314	297,98
396,524	281,6
396,733	304,12
396,942	394,23
397,152	220,16
397,361	351,23
397,57	300,03
397,78	285,69
397,989	326,65
398,198	502,78
398,407	388,09
398,617	224,25
398,826	340,99
399,035	361,47
399,244	340,99
399,453	398,33
399,663	351,23
399,872	343,03
400,081	244,73
400,29	365,56
400,499	281,6
400,708	259,07
400,917	252,92
401,127	287,74
401,336	261,12
401,545	349,18
401,754	308,22
401,963	263,16
402,172	171,01
402,381	216,06
402,59	203,77
402,799	287,74
403,008	383,99
403,217	369,66
403,426	275,45
403,635	154,62
403,844	310,27
404,053	285,69
404,262	277,5
404,471	498,68
404,68	304,12
404,888	306,17
405,097	306,17
405,306	320,51
405,515	318,46
405,724	291,84
405,933	412,67
406,142	310,27
406,35	390,14
406,559	326,65
406,768	383,99
406,977	470,01
407,185	371,71
407,394	410,62
407,603	250,88
407,812	277,5
408,02	433,15
408,229	281,6
408,438	404,47
408,646	263,16
408,855	285,69
409,064	355,32
409,272	244,73
409,481	343,03
409,69	246,78
409,898	187,39
410,107	441,34
410,315	424,95
410,524	285,69
410,733	392,19
410,941	343,03
411,15	396,28
411,358	293,88
411,567	437,24
411,775	363,51
411,984	324,6
412,192	402,43
412,401	279,55
412,609	455,67
412,818	459,77
413,026	357,37
413,234	228,35
413,443	300,03
413,651	236,54
413,86	336,89
414,068	408,57
414,276	502,78
414,485	244,73
414,693	363,51
414,901	441,34
415,11	316,41
415,318	295,93
415,526	320,51
415,734	388,09
415,943	396,28
416,151	406,52
416,359	275,45
416,567	377,85
416,776	451,58
416,984	422,91
417,192	379,9
417,4	334,84
417,608	355,32
417,817	293,88
418,025	392,19
418,233	449,53
418,441	224,25
418,649	351,23
418,857	383,99
419,065	447,48
419,273	312,32
419,481	381,95
419,689	347,13
419,897	326,65
420,105	367,61
420,313	394,23
420,521	437,24
420,729	480,25
420,937	338,94
421,145	322,56
421,353	336,89
421,561	502,78
421,769	383,99
421,977	279,55
422,185	334,84
422,393	361,47
422,601	453,63
422,809	433,15
423,017	275,45
423,224	275,45
423,432	422,91
423,64	236,54
423,848	404,47
424,056	316,41
424,263	453,63
424,471	361,47
424,679	472,06
424,887	443,39
425,094	740,34
425,302	1096,69
425,51	1442,79
425,718	1997,79
425,925	2513,88
426,133	3105,74
426,341	4219,84
426,548	4776,89
426,756	5333,93
426,964	6009,76
427,171	6763,42
427,379	7422,86
427,586	7357,33
427,794	7181,2
428,001	7003,03
428,209	6372,25
428,417	5295,02
428,624	4654,01
428,832	3759,05
429,039	2948,05
429,247	2401,24
429,454	2255,84
429,662	2294,75
429,869	2247,65
430,076	2778,07
430,284	3206,1
430,491	4150,21
430,699	5088,18
430,906	6005,67
431,114	6544,28
431,321	7771,02
431,528	8528,77
431,736	9640,81
431,943	10056,55
432,15	9931,62
432,358	9194,36
432,565	9036,66
432,772	7449,49
432,979	6630,3
433,187	5077,94
433,394	4078,53
433,601	3017,68
433,808	2393,05
434,016	1907,68
434,223	1502,19
434,43	1289,2
434,637	1209,33
434,844	1317,87
435,052	1344,49
435,259	1547,24
435,466	1786,85
435,673	2061,28
435,88	2391
436,087	2712,53
436,294	3021,78
436,501	3206,1
436,708	3378,12
436,915	3572,68
437,122	3701,7
437,329	3621,83
437,537	3720,14
437,743	3713,99
437,95	3376,08
438,157	3136,46
438,364	2733,01
438,571	2501,59
438,778	2098,14
438,985	1819,62
439,192	1571,82
439,399	1324,01
439,606	1221,61
439,813	1129,45
440,02	1104,88
440,227	1084,4
440,433	879,6
440,64	719,86
440,847	719,86
441,054	719,86
441,261	859,12
441,467	775,16
441,674	502,78
441,881	621,56
442,088	525,3
442,294	578,55
442,501	549,88
442,708	566,26
442,914	527,35
443,121	615,41
443,328	674,81
443,534	852,98
443,741	877,55
443,948	949,23
444,154	1211,37
444,361	1784,8
444,568	2001,89
444,774	2438,11
444,981	2573,27
445,187	3226,57
445,394	3744,71
445,6	3861,45
445,807	4463,55
446,013	4260,8
446,22	4262,85
446,426	4426,68
446,633	4213,7
446,839	4146,11
447,046	3255,25
447,252	3044,31
447,459	2378,72
447,665	1827,81
447,871	1678,31
448,078	1448,94
448,284	1270,76
448,491	1213,42
448,697	1147,89
448,903	1293,29
449,11	1526,76
449,316	1668,07
449,522	1885,16
449,728	2118,62
449,935	2264,03
450,141	2370,52
450,347	2563,03
450,553	2206,69
450,76	2210,78
450,966	2030,56
451,172	1807,33
451,378	1506,28
451,584	1307,63
451,791	1154,03
451,997	926,71
452,203	695,29
452,409	781,3
452,615	666,61
452,821	435,19
453,027	355,32
453,233	515,06
453,44	381,95
453,646	322,56
453,852	429,05
454,058	314,36
454,264	463,86
454,47	433,15
454,676	316,41
454,882	312,32
455,088	484,34
455,294	441,34
455,5	445,43
455,705	453,63
455,911	300,03
456,117	285,69
456,323	371,71
456,529	416,76
456,735	324,6
456,941	334,84
457,147	379,9
457,352	400,38
457,558	254,97
457,764	375,8
457,97	248,83
458,176	367,61
458,381	267,26
458,587	519,16
458,793	435,19
458,999	277,5
459,204	343,03
459,41	367,61
459,616	314,36
459,821	437,24
460,027	189,44
460,233	492,54
460,438	357,37
460,644	377,85
460,85	416,76
461,055	353,27
461,261	463,86
461,466	310,27
461,672	334,84
461,878	336,89
462,083	383,99
462,289	205,82
462,494	263,16
462,7	343,03
462,905	343,03
463,111	433,15
463,316	343,03
463,522	422,91
463,727	310,27
463,932	297,98
464,138	351,23
464,343	357,37
464,549	433,15
464,754	410,62
464,959	394,23
465,165	304,12
465,37	369,66
465,575	437,24
465,781	324,6
465,986	396,28
466,191	404,47
466,397	556,02
466,602	594,93
466,807	449,53
467,012	482,3
467,218	513,02
467,423	435,19
467,628	496,63
467,833	463,86
468,038	537,59
468,244	433,15
468,449	496,63
468,654	564,22
468,859	398,33
469,064	467,96
469,269	351,23
469,474	504,82
469,679	551,93
469,885	476,15
470,09	484,34
470,295	543,74
470,5	355,32
470,705	508,92
470,91	472,06
471,115	453,63
471,32	314,36
471,525	605,17
471,73	508,92
471,935	427
472,139	353,27
472,344	412,67
472,549	439,29
472,754	457,72
472,959	478,2
473,164	470,01
473,369	484,34
473,574	527,35
473,778	467,96
473,983	484,34
474,188	478,2
474,393	406,52
474,598	394,23
474,802	394,23
475,007	400,38
475,212	562,17
475,417	392,19
475,621	461,82
475,826	347,13
476,031	453,63
476,235	427
476,44	424,95
476,645	474,1
476,849	437,24
477,054	400,38
477,259	486,39
477,463	566,26
477,668	601,08
477,872	490,49
478,077	476,15
478,282	361,47
478,486	506,87
478,691	467,96
478,895	486,39
479,1	498,68
479,304	564,22
479,509	510,97
479,713	621,56
479,918	566,26
480,122	420,86
480,326	533,5
480,531	658,42
480,735	621,56
480,94	508,92
481,144	678,9
481,348	648,18
481,553	623,61
481,757	556,02
481,961	683
482,166	752,63
482,37	584,7
482,574	590,84
482,778	474,1
482,983	642,04
483,187	648,18
483,391	599,03
483,595	646,13
483,8	553,98
484,004	592,89
484,208	596,98
484,412	642,04
484,616	599,03
484,821	508,92
485,025	590,84
485,229	525,3
485,433	584,7
485,637	596,98
485,841	541,69
486,045	744,44
486,249	728,05
486,453	650,23
486,657	527,35
486,861	574,46
487,065	693,24
487,269	748,53
487,473	605,17
487,677	709,62
487,881	1037,3
488,085	670,71
488,289	623,61
488,493	750,58
488,697	855,03
488,901	773,11
489,105	699,38
489,309	701,43
489,512	820,21
489,716	728,05
489,92	662,52
490,124	697,33
490,328	873,46
490,531	703,48
490,735	760,82
490,939	580,6
491,143	701,43
491,346	637,94
491,55	613,37
491,754	740,34
491,958	613,37
492,161	572,41
492,365	547,83
492,569	596,98
492,772	594,93
492,976	662,52
493,18	574,46
493,383	467,96
493,587	578,55
493,79	596,98
493,994	533,5
494,197	508,92
494,401	633,85
494,605	453,63
494,808	605,17
495,012	551,93
495,215	691,19
495,419	676,85
495,622	560,12
495,825	580,6
496,029	623,61
496,232	660,47
496,436	611,32
496,639	656,37
496,843	705,53
497,046	594,93
497,249	662,52
497,453	642,04
497,656	553,98
497,859	617,46
498,063	658,42
498,266	670,71
498,469	441,34
498,673	521,21
498,876	650,23
499,079	572,41
499,282	564,22
499,485	719,86
499,689	619,51
499,892	721,91
500,095	531,45
500,298	517,11
500,501	449,53
500,705	611,32
500,908	465,91
501,111	347,13
501,314	603,13
501,517	584,7
501,72	513,02
501,923	504,82
502,126	582,65
502,329	607,22
502,532	519,16
502,735	558,07
502,938	637,94
503,141	611,32
503,344	453,63
503,547	723,96
503,75	547,83
503,953	517,11
504,156	646,13
504,359	617,46
504,562	582,65
504,765	592,89
504,968	713,72
505,17	646,13
505,373	744,44
505,576	783,35
505,779	750,58
505,982	668,66
506,185	740,34
506,387	588,79
506,59	769,01
506,793	662,52
506,996	738,29
507,198	834,55
507,401	766,96
507,604	728,05
507,807	764,92
508,009	762,87
508,212	734,2
508,415	599,03
508,617	769,01
508,82	664,57
509,022	670,71
509,225	717,81
509,428	699,38
509,63	674,81
509,833	494,58
510,035	762,87
510,238	605,17
510,44	531,45
510,643	648,18
510,845	613,37
511,048	660,47
511,25	631,8
511,453	687,09
511,655	652,28
511,858	906,23
512,06	826,36
512,262	723,96
512,465	730,1
512,667	781,3
512,87	664,57
513,072	900,08
513,274	885,75
513,477	748,53
513,679	885,75
513,881	836,6
514,084	859,12
514,286	879,6
514,488	949,23
514,69	934,9
514,893	916,47
515,095	846,84
515,297	826,36
515,499	877,55
515,701	791,54
515,904	883,7
516,106	930,8
516,308	820,21
516,51	803,83
516,712	742,39
516,914	717,81
517,116	707,57
517,318	699,38
517,52	703,48
517,722	713,72
517,925	592,89
518,127	656,37
518,329	730,1
518,531	441,34
518,733	590,84
518,935	510,97
519,136	662,52
519,338	474,1
519,54	596,98
519,742	568,31
519,944	601,08
520,146	551,93
520,348	498,68
520,55	568,31
520,752	441,34
520,954	486,39
521,155	551,93
521,357	543,74
521,559	605,17
521,761	721,91
521,963	652,28
522,164	605,17
522,366	613,37
522,568	631,8
522,77	730,1
522,971	687,09
523,173	576,5
523,375	771,06
523,576	476,15
523,778	515,06
523,98	549,88
524,181	666,61
524,383	693,24
524,584	578,55
524,786	599,03
524,988	506,87
525,189	635,89
525,391	672,76
525,592	617,46
525,794	515,06
525,995	662,52
526,197	660,47
526,398	795,64
526,6	658,42
526,801	644,09
527,003	531,45
527,204	650,23
527,406	676,85
527,607	670,71
527,808	527,35
528,01	617,46
528,211	639,99
528,412	551,93
528,614	590,84
528,815	621,56
529,016	635,89
529,218	533,5
529,419	584,7
529,62	533,5
529,822	609,27
530,023	556,02
530,224	545,78
530,425	654,33
530,626	478,2
530,828	515,06
531,029	455,67
531,23	586,74
531,431	482,3
531,632	683
531,833	515,06
532,035	642,04
532,236	533,5
532,437	683
532,638	578,55
532,839	639,99
533,04	789,49
533,241	781,3
533,442	740,34
533,643	723,96
533,844	685,05
534,045	683
534,246	740,34
534,447	766,96
534,648	762,87
534,849	793,59
535,05	711,67
535,251	621,56
535,451	848,88
535,652	695,29
535,853	646,13
536,054	818,16
536,255	572,41
536,456	566,26
536,657	676,85
536,857	648,18
537,058	666,61
537,259	644,09
537,46	625,65
537,66	611,32
537,861	584,7
538,062	601,08
538,263	467,96
538,463	574,46
538,664	543,74
538,865	506,87
539,065	506,87
539,266	617,46
539,466	515,06
539,667	654,33
539,868	566,26
540,068	582,65
540,269	539,64
540,469	488,44
540,67	506,87
540,87	617,46
541,071	461,82
541,271	609,27
541,472	541,69
541,672	574,46
541,873	556,02
542,073	603,13
542,274	572,41
542,474	699,38
542,675	523,26
542,875	498,68
543,075	400,38
543,276	570,36
543,476	570,36
543,676	611,32
543,877	531,45
544,077	596,98
544,277	578,55
544,478	549,88
544,678	596,98
544,878	568,31
545,078	607,22
545,279	584,7
545,479	506,87
545,679	494,58
545,879	556,02
546,079	637,94
546,28	541,69
546,48	572,41
546,68	560,12
546,88	639,99
547,08	506,87
547,28	580,6
547,48	521,21
547,68	572,41
547,88	517,11
548,081	695,29
548,281	615,41
548,481	781,3
548,681	805,88
548,881	893,94
549,081	941,04
549,28	1160,17
549,48	996,34
549,68	986,1
549,88	1000,43
550,08	1006,58
550,28	1016,82
550,48	1137,65
550,68	1063,92
550,88	945,14
551,08	1008,62
551,279	1121,26
551,479	965,62
551,679	1006,58
551,879	920,56
552,079	926,71
552,278	936,95
552,478	1055,73
552,678	918,51
552,878	836,6
553,077	707,57
553,277	689,14
553,477	728,05
553,676	742,39
553,876	676,85
554,076	652,28
554,275	863,22
554,475	1203,18
554,674	2032,61
554,874	3015,63
555,074	4903,86
555,273	8123,27
555,473	12682,05
555,672	18563,81
555,872	26143,35
556,071	33817,08
556,271	40726,93
556,47	45629,77
556,67	49320,21
556,869	51382,51
557,068	51734,76
557,268	50241,79
557,467	47329,58
557,667	43913,57
557,866	39862,69
558,065	34587,12
558,265	29434,43
558,464	24476,3
558,663	21129,92
558,863	17150,71
559,062	14121,77
559,261	11475,79
559,461	9370,48
559,66	7144,34
559,859	5338,03
560,058	4043,71
560,258	2653,14
560,457	1940,45
560,656	1663,97
560,855	998,38
561,054	1113,07
561,253	887,79
561,453	859,12
561,652	707,57
561,851	762,87
562,05	592,89
562,249	525,3
562,448	609,27
562,647	506,87
562,846	637,94
563,045	738,29
563,244	637,94
563,443	816,12
563,642	879,6
563,841	1072,11
564,04	1145,84
564,239	1289,2
564,438	1397,74
564,637	1403,88
564,836	1530,86
565,035	1559,53
565,234	1571,82
565,432	1577,96
565,631	1549,29
565,83	1481,71
566,029	1450,99
566,228	1373,16
566,427	1528,81
566,625	1219,57
566,824	1455,08
567,023	1254,38
567,222	1405,93
567,42	1285,1
567,619	1274,86
567,818	1211,37
568,016	1324,01
568,215	955,38
568,414	1070,06
568,612	910,32
568,811	949,23
569,01	918,51
569,208	814,07
569,407	902,13
569,605	887,79
569,804	973,81
570,002	916,47
570,201	871,41
570,4	883,7
570,598	904,18
570,797	850,93
570,995	852,98
571,193	922,61
571,392	801,78
571,59	754,68
571,789	877,55
571,987	826,36
572,186	986,1
572,384	789,49
572,582	805,88
572,781	857,07
572,979	601,08
573,177	680,95
573,376	769,01
573,574	668,66
573,772	527,35
573,971	590,84
574,169	523,26
574,367	566,26
574,565	459,77
574,763	535,54
574,962	506,87
575,16	547,83
575,358	508,92
575,556	631,8
575,754	592,89
575,952	484,34
576,151	476,15
576,349	639,99
576,547	422,91
576,745	457,72
576,943	527,35
577,141	439,29
577,339	431,1
577,537	539,64
577,735	596,98
577,933	494,58
578,131	506,87
578,329	625,65
578,527	529,4
578,725	527,35
578,923	400,38
579,121	609,27
579,319	353,27
579,516	539,64
579,714	715,77
579,912	539,64
580,11	465,91
580,308	480,25
580,506	517,11
580,704	437,24
580,901	498,68
581,099	785,4
581,297	556,02
581,495	875,51
581,692	885,75
581,89	1172,46
582,088	1178,61
582,285	1317,87
582,483	1424,36
582,681	1442,79
582,878	1551,34
583,076	1737,7
583,274	1516,52
583,471	1598,44
583,669	1522,66
583,866	1305,58
584,064	1194,99
584,262	1059,82
584,459	1031,15
584,657	1113,07
584,854	1063,92
585,052	1170,41
585,249	1958,88
585,447	4131,78
585,644	8233,86
585,841	15168,28
586,039	24257,17
586,236	32832,01
586,434	40563,09
586,631	47804,71
586,828	52324,58
587,026	54417,6
587,223	54468,8
587,42	52623,58
587,618	50088,2
587,815	45779,27
588,012	41785,73
588,21	36626,9
588,407	32066,07
588,604	27476,57
588,801	23349,92
588,999	19512,02
589,196	16505,6
589,393	13302,58
589,59	11062,1
589,787	8885,11
589,984	6914,97
590,182	5147,57
590,379	3742,66
590,576	2671,58
590,773	1879,01
590,97	1416,17
591,167	1117,17
591,364	971,76
591,561	783,35
591,758	769,01
591,955	623,61
592,152	568,31
592,349	504,82
592,546	529,4
592,743	400,38
592,94	465,91
593,137	484,34
593,334	498,68
593,531	472,06
593,727	410,62
593,924	437,24
594,121	365,56
594,318	390,14
594,515	451,58
594,712	476,15
594,908	457,72
595,105	214,01
595,302	416,76
595,499	369,66
595,696	558,07
595,892	285,69
596,089	461,82
596,286	308,22
596,482	523,26
596,679	363,51
596,876	242,68
597,072	394,23
597,269	377,85
597,466	449,53
597,662	439,29
597,859	488,44
598,055	705,53
598,252	1012,72
598,448	1233,9
598,645	1641,45
598,841	1682,41
599,038	1983,46
599,234	2184,16
599,431	2114,53
599,627	1954,79
599,824	2065,38
600,02	2081,76
600,217	1938,4
600,413	2167,77
600,609	2149,34
600,806	2442,2
601,002	2128,86
601,198	1948,64
601,395	1965,03
601,591	1840,1
601,787	1719,27
601,984	1670,12
602,18	1459,18
602,376	1448,94
602,572	1326,06
602,769	1405,93
602,965	1156,08
603,161	1070,06
603,357	1078,26
603,553	992,24
603,75	955,38
603,946	951,28
604,142	971,76
604,338	1301,48
604,534	1088,5
604,73	1199,09
604,926	1383,4
605,122	1577,96
605,318	1539,05
605,514	1590,25
605,71	1526,76
605,906	1686,5
606,102	1354,73
606,298	1563,62
606,494	1410,03
606,69	1424,36
606,886	1252,33
607,082	1240,05
607,278	1172,46
607,474	1457,13
607,67	1278,96
607,866	1248,24
608,062	1391,59
608,257	1293,29
608,453	1010,67
608,649	1065,97
608,845	902,13
609,041	859,12
609,236	852,98
609,432	812,02
609,628	764,92
609,824	721,91
610,019	680,95
610,215	631,8
610,411	547,83
610,606	732,15
610,802	427
610,998	484,34
611,193	558,07
611,389	318,46
611,584	478,2
611,78	326,65
611,976	371,71
612,171	601,08
612,367	502,78
612,562	463,86
612,758	418,81
612,953	257,02
613,149	340,99
613,344	445,43
613,539	351,23
613,735	490,49
613,93	418,81
614,126	422,91
614,321	551,93
614,517	592,89
614,712	621,56
614,907	642,04
615,103	558,07
615,298	547,83
615,493	547,83
615,688	449,53
615,884	484,34
616,079	388,09
616,274	433,15
616,47	402,43
616,665	375,8
616,86	367,61
617,055	367,61
617,25	361,47
617,445	388,09
617,641	338,94
617,836	267,26
618,031	228,35
618,226	459,77
618,421	451,58
618,616	275,45
618,811	314,36
619,006	259,07
619,201	347,13
619,396	308,22
619,591	197,63
619,786	326,65
619,981	269,31
620,176	326,65
620,371	259,07
620,566	259,07
620,761	429,05
620,956	314,36
621,151	273,4
621,346	402,43
621,541	351,23
621,735	447,48
621,93	427
622,125	441,34
622,32	367,61
622,515	533,5
622,709	691,19
622,904	744,44
623,099	748,53
623,294	844,79
623,488	885,75
623,683	850,93
623,878	816,12
624,072	824,31
624,267	549,88
624,462	572,41
624,656	506,87
624,851	582,65
625,046	568,31
625,24	502,78
625,435	465,91
625,629	402,43
625,824	474,1
626,018	392,19
626,213	449,53
626,407	289,79
626,602	363,51
626,796	269,31
626,991	285,69
627,185	316,41
627,38	338,94
627,574	365,56
627,768	365,56
627,963	265,21
628,157	287,74
628,352	263,16
628,546	261,12
628,74	349,18
628,935	261,12
629,129	326,65
629,323	314,36
629,517	189,44
629,712	279,55
629,906	224,25
630,1	289,79
630,294	328,7
630,489	216,06
630,683	250,88
630,877	279,55
631,071	361,47
631,265	265,21
631,459	318,46
631,653	216,06
631,848	287,74
632,042	396,28
632,236	228,35
632,43	275,45
632,624	254,97
632,818	203,77
633,012	314,36
633,206	308,22
633,4	318,46
633,594	361,47
633,788	308,22
633,982	427
634,176	478,2
634,369	459,77
634,563	338,94
634,757	328,7
634,951	379,9
635,145	564,22
635,339	400,38
635,533	429,05
635,726	383,99
635,92	408,57
636,114	312,32
636,308	443,39
636,501	478,2
636,695	508,92
636,889	441,34
637,083	547,83
637,276	476,15
637,47	551,93
637,664	508,92
637,857	508,92
638,051	439,29
638,244	560,12
638,438	365,56
638,632	572,41
638,825	295,93
639,019	576,5
639,212	390,14
639,406	451,58
639,599	353,27
639,793	396,28
639,986	449,53
640,18	498,68
640,373	365,56
640,567	504,82
640,76	685,05
640,954	943,09
641,147	1047,54
641,34	1334,25
641,534	1567,72
641,727	1881,06
641,92	1965,03
642,114	1967,07
642,307	1836
642,5	1772,52
642,694	1582,06
642,887	1524,71
643,08	1682,41
643,273	1457,13
643,467	1131,5
643,66	1080,3
643,853	949,23
644,046	1008,62
644,239	1074,16
644,432	1219,57
644,626	1524,71
644,819	2071,52
645,012	2505,69
645,205	2821,08
645,398	3165,14
645,591	3093,46
645,784	3083,22
645,977	2935,76
646,17	2800,6
646,363	2483,16
646,556	2243,55
646,749	2122,72
646,942	2163,68
647,135	2071,52
647,328	1657,83
647,521	1586,15
647,714	1270,76
647,907	1235,95
648,099	1111,02
648,292	1020,91
648,485	877,55
648,678	721,91
648,871	760,82
649,064	777,2
649,256	566,26
649,449	443,39
649,642	373,75
649,835	517,11
650,027	484,34
650,22	670,71
650,413	558,07
650,605	533,5
650,798	478,2
650,991	525,3
651,183	484,34
651,376	443,39
651,568	457,72
651,761	351,23
651,954	476,15
652,146	402,43
652,339	412,67
652,531	474,1
652,724	355,32
652,916	435,19
653,109	252,92
653,301	500,73
653,494	500,73
653,686	465,91
653,879	519,16
654,071	435,19
654,263	383,99
654,456	441,34
654,648	531,45
654,84	455,67
655,033	459,77
655,225	662,52
655,417	433,15
655,61	670,71
655,802	797,68
655,994	756,72
656,186	582,65
656,379	635,89
656,571	668,66
656,763	639,99
656,955	607,22
657,148	625,65
657,34	734,2
657,532	639,99
657,724	650,23
657,916	672,76
658,108	541,69
658,3	508,92
658,492	523,26
658,684	328,7
658,876	431,1
659,068	353,27
659,26	236,54
659,452	322,56
659,644	334,84
659,836	498,68
660,028	345,08
660,22	273,4
660,412	273,4
660,604	232,44
660,796	316,41
660,988	400,38
661,18	265,21
661,372	357,37
661,563	205,82
661,755	269,31
661,947	259,07
662,139	293,88
662,331	189,44
662,522	248,83
662,714	201,72
662,906	261,12
663,097	230,4
663,289	214,01
663,481	152,57
663,673	293,88
663,864	246,78
664,056	316,41
664,247	279,55
664,439	510,97
664,631	506,87
664,822	619,51
665,014	619,51
665,205	680,95
665,397	631,8
665,588	652,28
665,78	584,7
665,971	627,7
666,163	490,49
666,354	578,55
666,546	349,18
666,737	318,46
666,929	334,84
667,12	355,32
667,311	412,67
667,503	304,12
667,694	310,27
667,885	353,27
668,077	406,52
668,268	214,01
668,459	277,5
668,651	240,64
668,842	398,33
669,033	410,62
669,224	498,68
669,416	793,59
669,607	672,76
669,798	701,43
669,989	918,51
670,18	814,07
670,371	721,91
670,563	613,37
670,754	760,82
670,945	629,75
671,136	648,18
671,327	490,49
671,518	596,98
671,709	584,7
671,9	551,93
672,091	515,06
672,282	408,57
672,473	418,81
672,664	308,22
672,855	314,36
673,046	402,43
673,237	443,39
673,428	332,79
673,619	449,53
673,809	357,37
674	490,49
674,191	310,27
674,382	410,62
674,573	386,04
674,764	340,99
674,954	472,06
675,145	224,25
675,336	261,12
675,527	211,96
675,717	209,92
675,908	285,69
676,099	226,3
676,289	261,12
676,48	162,81
676,671	211,96
676,861	187,39
677,052	279,55
677,243	232,44
677,433	134,14
677,624	209,92
677,814	252,92
678,005	205,82
678,195	287,74
678,386	175,1
678,576	289,79
678,767	78,85
678,957	240,64
679,148	302,08
679,338	326,65
679,529	230,4
679,719	211,96
679,909	236,54
680,1	289,79
680,29	404,47
680,481	375,8
680,671	558,07
680,861	642,04
681,052	658,42
681,242	646,13
681,432	713,72
681,622	633,85
681,813	582,65
682,003	621,56
682,193	482,3
682,383	560,12
682,573	474,1
682,764	588,79
682,954	568,31
683,144	558,07
683,334	328,7
683,524	437,24
683,714	465,91
683,904	394,23
684,094	357,37
684,284	312,32
684,474	478,2
684,664	355,32
684,854	353,27
685,044	320,51
685,234	361,47
685,424	302,08
685,614	291,84
685,804	465,91
685,994	392,19
686,184	306,17
686,374	343,03
686,564	433,15
686,753	386,04
686,943	295,93
687,133	304,12
687,323	265,21
687,513	361,47
687,702	334,84
687,892	320,51
688,082	453,63
688,272	334,84
688,461	254,97
688,651	392,19
688,841	318,46
689,03	291,84
689,22	338,94
689,41	582,65
689,599	826,36
689,789	973,81
689,979	1326,06
690,168	1489,9
690,358	1592,3
690,547	1580,01
690,737	1580,01
690,926	1549,29
691,116	1438,7
691,305	1391,59
691,495	1219,57
691,684	1000,43
691,874	930,8
692,063	977,91
692,252	891,89
692,442	799,73
692,631	746,48
692,82	564,22
693,01	515,06
693,199	435,19
693,388	429,05
693,578	386,04
693,767	392,19
693,956	377,85
694,146	261,12
694,335	240,64
694,524	240,64
694,713	441,34
694,902	236,54
695,092	171,01
695,281	308,22
695,47	269,31
695,659	187,39
695,848	316,41
696,037	220,16
696,226	349,18
696,415	252,92
696,604	369,66
696,793	502,78
696,982	250,88
697,171	396,28
697,36	214,01
697,549	222,2
697,738	121,85
697,927	197,63
698,116	183,29
698,305	257,02
698,494	343,03
698,683	304,12
698,872	334,84
699,061	326,65
699,25	263,16
699,438	297,98
699,627	226,3
699,816	443,39
700,005	154,62
700,193	240,64
700,382	289,79
700,571	367,61
700,76	340,99
700,948	379,9
701,137	340,99
701,326	314,36
701,514	187,39
701,703	308,22
701,892	275,45
702,08	431,1
702,269	236,54
702,457	140,29
702,646	224,25
702,834	209,92
703,023	302,08
703,212	295,93
703,4	238,59
703,589	238,59
703,777	132,09
703,965	175,1
704,154	189,44
704,342	154,62
704,531	224,25
704,719	308,22
704,907	326,65
705,096	203,77
705,284	259,07
705,472	328,7
705,661	283,64
705,849	291,84
706,037	394,23
706,226	332,79
706,414	367,61
706,602	214,01
706,79	322,56
706,979	109,57
707,167	244,73
707,355	130,05
707,543	277,5
707,731	295,93
707,919	228,35
708,107	171,01
708,296	89,09
708,484	199,68
708,672	252,92
708,86	279,55
709,048	179,2
709,236	105,47
709,424	261,12
709,612	269,31
709,8	111,61
709,988	166,91
710,176	297,98
710,364	240,64
710,551	119,81
710,739	244,73
710,927	160,77
711,115	162,81
711,303	261,12
711,491	293,88
711,679	140,29
711,866	181,25
712,054	191,49
712,242	220,16
712,43	287,74
712,617	214,01
712,805	234,49
712,993	209,92
713,181	76,8
713,368	244,73
713,556	117,76
713,744	199,68
713,931	297,98
714,119	306,17
714,306	191,49
714,494	183,29
714,682	224,25
714,869	175,1
715,057	199,68
715,244	142,33
715,432	211,96
715,619	181,25
715,807	197,63
715,994	140,29
716,182	199,68
716,369	214,01
716,556	259,07
716,744	27,65
716,931	44,03
717,119	181,25
717,306	130,05
717,493	144,38
717,681	132,09
717,868	189,44
718,055	187,39
718,242	152,57
718,43	140,29
718,617	277,5
718,804	132,09
718,991	246,78
719,179	187,39
719,366	181,25
719,553	175,1
719,74	220,16
719,927	222,2
720,114	265,21
720,301	191,49
720,488	66,56
720,676	93,18
720,863	338,94
721,05	410,62
721,237	336,89
721,424	564,22
721,611	920,56
721,798	1055,73
721,985	1373,16
722,172	1620,97
722,358	1813,48
722,545	1965,03
722,732	1903,59
722,919	1823,72
723,106	1592,3
723,293	1557,48
723,48	1477,61
723,667	1203,18
723,853	1328,11
724,04	1192,94
724,227	1100,78
724,414	979,95
724,6	891,89
724,787	848,88
724,974	781,3
725,161	623,61
725,347	447,48
725,534	508,92
725,72	416,76
725,907	590,84
726,094	383,99
726,28	416,76
726,467	369,66
726,653	244,73
726,84	447,48
727,027	586,74
727,213	365,56
727,4	410,62
727,586	390,14
727,773	652,28
727,959	834,55
728,145	1022,96
728,332	1211,37
728,518	1311,72
728,705	1553,38
728,891	1516,52
729,077	1346,54
729,264	1364,97
729,45	1194,99
729,636	1238
729,823	1088,5
730,009	1098,74
730,195	1004,53
730,382	1006,58
730,568	738,29
730,754	910,32
730,94	777,2
731,126	660,47
731,313	711,67
731,499	617,46
731,685	623,61
731,871	605,17
732,057	549,88
732,243	515,06
732,429	398,33
732,615	644,09
732,801	449,53
732,987	449,53
733,173	410,62
733,359	355,32
733,545	441,34
733,731	459,77
733,917	687,09
734,103	443,39
734,289	523,26
734,475	435,19
734,661	619,51
734,847	521,21
735,033	500,73
735,219	570,36
735,404	515,06
735,59	502,78
735,776	506,87
735,962	580,6
736,148	553,98
736,333	617,46
736,519	623,61
736,705	531,45
736,89	533,5
737,076	424,95
737,262	429,05
737,447	504,82
737,633	504,82
737,819	629,75
738,004	515,06
738,19	445,43
738,375	494,58
738,561	570,36
738,747	527,35
738,932	508,92
739,118	746,48
739,303	584,7
739,489	556,02
739,674	564,22
739,859	478,2
740,045	531,45
740,23	637,94
740,416	394,23
740,601	654,33
740,786	533,5
740,972	424,95
741,157	504,82
741,342	484,34
741,528	500,73
741,713	775,16
741,898	877,55
742,084	848,88
742,269	998,38
742,454	1065,97
742,639	1188,85
742,824	1086,45
743,01	1248,24
743,195	1141,74
743,38	1086,45
743,565	928,75
743,75	869,36
743,935	877,55
744,12	1037,3
744,305	740,34
744,49	949,23
744,675	754,68
744,86	738,29
745,045	824,31
745,23	693,24
745,415	625,65
745,6	812,02
745,785	648,18
745,97	762,87
746,155	695,29
746,34	803,83
746,525	777,2
746,71	822,26
746,895	629,75
747,079	666,61
747,264	633,85
747,449	826,36
747,634	883,7
747,819	1141,74
748,003	1264,62
748,188	1471,47
748,373	1872,87
748,557	2085,86
748,742	2212,83
748,927	2401,24
749,111	2440,15
749,296	2335,71
749,481	2284,51
749,665	2196,45
749,85	1942,5
750,034	1999,84
750,219	1852,39
750,404	1768,42
750,588	1698,79
750,773	1549,29
750,957	1457,13
751,141	1375,21
751,326	1371,12
751,51	1108,98
751,695	1096,69
751,879	1018,86
752,064	1143,79
752,248	871,41
752,432	1029,1
752,617	916,47
752,801	875,51
752,985	816,12
753,17	926,71
753,354	926,71
753,538	916,47
753,722	898,03
753,907	973,81
754,091	957,43
754,275	1072,11
754,459	992,24
754,643	1002,48
754,828	1209,33
755,012	1164,27
755,196	1174,51
755,38	1389,55
755,564	1350,64
755,748	1473,51
755,932	1674,21
756,116	1735,65
756,3	1956,83
756,484	2022,37
756,668	2163,68
756,852	2264,03
757,036	2624,47
757,22	2980,82
757,404	5108,66
757,588	13384,5
757,772	36499,92
757,956	63621,17
758,14	63621,17
758,323	63621,17
758,507	63621,17
758,691	63621,17
758,875	63621,17
759,059	63621,17
759,242	63621,17
759,426	63621,17
759,61	63621,17
759,794	63621,17
759,977	63621,17
760,161	63621,17
760,345	63621,17
760,528	63621,17
760,712	63621,17
760,895	63621,17
761,079	63621,17
761,263	63621,17
761,446	63621,17
761,63	63621,17
761,813	63621,17
761,997	63621,17
762,18	63621,17
762,364	63621,17
762,547	63621,17
762,731	63621,17
762,914	63621,17
763,098	63621,17
763,281	63621,17
763,464	63621,17
763,648	63621,17
763,831	63621,17
764,015	63621,17
764,198	63621,17
764,381	63621,17
764,564	63621,17
764,748	63621,17
764,931	63621,17
765,114	63621,17
765,297	63621,17
765,481	63621,17
765,664	63621,17
765,847	63621,17
766,03	63621,17
766,213	63621,17
766,397	63621,17
766,58	63621,17
766,763	63621,17
766,946	63621,17
767,129	63621,17
767,312	63621,17
767,495	63621,17
767,678	63621,17
767,861	63621,17
768,044	63621,17
768,227	63621,17
768,41	63621,17
768,593	63621,17
768,776	63621,17
768,959	63621,17
769,142	63621,17
769,324	63621,17
769,507	63621,17
769,69	63621,17
769,873	63621,17
770,056	63621,17
770,239	63621,17
770,421	63621,17
770,604	63621,17
770,787	63621,17
770,97	63621,17
771,152	63621,17
771,335	63621,17
771,518	63621,17
771,7	63621,17
771,883	63621,17
772,066	63621,17
772,248	63621,17
772,431	63621,17
772,613	63621,17
772,796	63621,17
772,978	63621,17
773,161	63621,17
773,343	63621,17
773,526	63621,17
773,708	63621,17
773,891	63621,17
774,073	63621,17
774,256	63621,17
774,438	63621,17
774,621	63621,17
774,803	63621,17
774,985	63621,17
775,168	63621,17
775,35	63621,17
775,532	63621,17
775,715	63621,17
775,897	63621,17
776,079	63621,17
776,261	63621,17
776,444	63621,17
776,626	63621,17
776,808	63621,17
776,99	63621,17
777,173	63621,17
777,355	63621,17
777,537	63621,17
777,719	63621,17
777,901	63621,17
778,083	63621,17
778,265	63621,17
778,447	63621,17
778,629	63621,17
778,811	63621,17
778,993	63621,17
779,175	63621,17
779,357	63621,17
779,539	63621,17
779,721	63621,17
779,903	63621,17
780,085	63621,17
780,267	63621,17
780,449	63621,17
780,631	63621,17
780,812	63621,17
780,994	63621,17
781,176	63621,17
781,358	63621,17
781,54	63621,17
781,721	63621,17
781,903	63621,17
782,085	63621,17
782,267	63621,17
782,448	63621,17
782,63	63621,17
782,812	63621,17
782,993	63621,17
783,175	63621,17
783,357	63621,17
783,538	63621,17
783,72	63621,17
783,901	63621,17
784,083	63621,17
784,264	63621,17
784,446	63621,17
784,627	63621,17
784,809	63621,17
784,99	63621,17
785,172	63621,17
785,353	63621,17
785,535	63621,17
785,716	63621,17
785,897	63621,17
786,079	63621,17
786,26	63621,17
786,441	63621,17
786,623	63621,17
786,804	63621,17
786,985	63621,17
787,167	63621,17
787,348	63621,17
787,529	63621,17
787,71	63621,17
787,891	63621,17
788,073	63621,17
788,254	63621,17
788,435	63621,17
788,616	26602,09
788,797	21834,42
788,978	4553,66
789,159	3414,99
789,34	2694,1
789,522	2393,05
789,703	2030,56
789,884	1762,28
790,065	1758,18
790,246	1928,16
790,427	2159,58
790,607	2694,1
790,788	3353,55
790,969	3603,4
791,15	4086,72
791,331	4455,36
791,512	4572,09
791,693	4408,25
791,874	4506,56
792,054	4555,71
792,235	4789,17
792,416	4850,61
792,597	4789,17
792,778	5006,26
792,958	4975,54
793,139	4742,07
793,32	4178,88
793,5	3793,86
793,681	3503,05
793,862	3281,87
794,042	2763,73
794,223	2556,89
794,404	2341,85
794,584	2001,89
794,765	1778,66
794,945	1653,73
795,126	1532,9
795,306	1450,99
795,487	1244,14
795,667	1133,55
795,848	1123,31
796,028	986,1
796,209	979,95
796,389	1082,35
796,57	912,37
796,75	867,31
796,93	889,84
797,111	807,92
797,291	949,23
797,471	1037,3
797,652	1047,54
797,832	1145,84
798,012	1217,52
798,192	1166,32
798,373	1233,9
798,553	1291,24
798,733	1262,57
798,913	1184,75
799,093	1074,16
799,274	1162,22
799,454	1205,23
799,634	1201,13
799,814	1205,23
799,994	1033,2
800,174	1006,58
800,354	1057,78
800,534	877,55
800,714	1016,82
800,894	934,9
801,074	953,33
801,254	961,52
801,434	1092,59
801,614	1020,91
801,794	934,9
801,974	2722,77
802,154	1031,15
802,334	1117,17
802,514	920,56
802,693	1016,82
802,873	1178,61
803,053	1235,95
803,233	1221,61
803,413	1131,5
803,592	1092,59
803,772	1205,23
803,952	1272,81
804,131	1117,17
804,311	1432,55
804,491	1739,75
804,67	2522,07
804,85	5442,48
805,03	11354,96
805,209	22567,59
805,389	35664,35
805,568	46666,04
805,748	54943,93
805,928	61102,17
806,107	63406,14
806,287	61673,55
806,466	58126,47
806,646	49971,46
806,825	43186,54
807,004	37261,77
807,184	31341,09
807,363	27017,83
807,543	23433,88
807,722	20175,56
807,901	18365,16
808,081	16427,78
808,26	15063,83
808,439	13900,59
808,619	12714,81
808,798	11713,36
808,977	11035,48
809,156	12610,37
809,336	20736,71
809,515	39549,35
809,694	63621,17
809,873	63621,17
810,052	63621,17
810,231	63621,17
810,411	63621,17
810,59	63621,17
810,769	63621,17
810,948	63621,17
811,127	63621,17
811,306	63621,17
811,485	63621,17
811,664	63621,17
811,843	63621,17
812,022	63621,17
812,201	63621,17
812,38	63621,17
812,559	63621,17
812,737	63621,17
812,916	63621,17
813,095	63621,17
813,274	63621,17
813,453	63621,17
813,632	63621,17
813,811	63621,17
813,989	63621,17
814,168	63621,17
814,347	63621,17
814,526	63621,17
814,704	63621,17
814,883	63621,17
815,062	63621,17
815,24	63621,17
815,419	63621,17
815,598	63621,17
815,776	63621,17
815,955	63621,17
816,133	63621,17
816,312	63621,17
816,49	63621,17
816,669	63621,17
816,847	63621,17
817,026	63621,17
817,204	63621,17
817,383	63621,17
817,561	63621,17
817,74	63621,17
817,918	63621,17
818,097	63621,17
818,275	63621,17
818,453	63621,17
818,632	63621,17
818,81	63621,17
818,988	63621,17
819,167	63621,17
819,345	63621,17
819,523	63621,17
819,701	63621,17
819,879	63621,17
820,058	63621,17
820,236	63621,17
820,414	63621,17
820,592	63621,17
820,77	63621,17
820,948	63621,17
821,127	63621,17
821,305	63621,17
821,483	63621,17
821,661	63621,17
821,839	63621,17
822,017	63621,17
822,195	63621,17
822,373	63621,17
822,551	63621,17
822,729	63621,17
822,907	63621,17
823,085	63621,17
823,262	63621,17
823,44	63621,17
823,618	63621,17
823,796	63621,17
823,974	63621,17
824,152	63621,17
824,329	63621,17
824,507	63621,17
824,685	63621,17
824,863	63621,17
825,04	63621,17
825,218	63621,17
825,396	63621,17
825,574	63621,17
825,751	63621,17
825,929	63621,17
826,107	63621,17
826,284	63621,17
826,462	63621,17
826,639	63621,17
826,817	63621,17
826,994	63621,17
827,172	63621,17
827,349	63621,17
827,527	63621,17
827,704	63621,17
827,882	63621,17
828,059	63621,17
828,237	63621,17
828,414	63621,17
828,591	63621,17
828,769	63621,17
828,946	63621,17
829,124	63621,17
829,301	63621,17
829,478	63621,17
829,655	63621,17
829,833	63621,17
830,01	63621,17
830,187	63621,17
830,364	63621,17
830,542	63621,17
830,719	63621,17
830,896	63621,17
831,073	63621,17
831,25	63621,17
831,427	63621,17
831,604	63621,17
831,782	63621,17
831,959	63621,17
832,136	63621,17
832,313	63621,17
832,49	63621,17
832,667	63621,17
832,844	63621,17
833,021	63621,17
833,198	63621,17
833,374	63621,17
833,551	63621,17
833,728	63621,17
833,905	63621,17
834,082	63621,17
834,259	63621,17
834,436	63621,17
834,612	63621,17
834,789	63621,17
834,966	63621,17
835,143	63621,17
835,319	63621,17
835,496	63621,17
835,673	63621,17
835,85	63621,17
836,026	63621,17
836,203	63621,17
836,38	63621,17
836,556	63621,17
836,733	63621,17
836,909	63621,17
837,086	63621,17
837,262	63621,17
837,439	63621,17
837,616	63621,17
837,792	63621,17
837,968	63621,17
838,145	63621,17
838,321	63621,17
838,498	63621,17
838,674	63621,17
838,851	63621,17
839,027	63621,17
839,203	63621,17
839,38	63621,17
839,556	63621,17
839,732	63621,17
839,909	63621,17
840,085	63621,17
840,261	63621,17
840,437	63621,17
840,614	63621,17
840,79	63621,17
840,966	63621,17
841,142	63621,17
841,318	63621,17
841,494	63621,17
841,671	63621,17
841,847	63621,17
842,023	63621,17
842,199	63621,17
842,375	63621,17
842,551	63621,17
842,727	63621,17
842,903	63621,17
843,079	63621,17
843,255	63621,17
843,431	63621,17
843,607	63621,17
843,783	63621,17
843,959	6761,37
844,134	8242,05
844,31	539,64
844,486	427
844,662	320,51
844,838	355,32
845,013	502,78
845,189	441,34
845,365	381,95
845,541	328,7
845,716	287,74
845,892	531,45
846,068	269,31
846,244	271,36
846,419	293,88
846,595	209,92
846,77	291,84
846,946	375,8
847,122	308,22
847,297	259,07
847,473	412,67
847,648	187,39
847,824	289,79
847,999	150,53
848,175	363,51
848,35	304,12
848,526	383,99
848,701	371,71
848,876	500,73
849,052	396,28
849,227	320,51
849,403	668,66
849,578	1348,59
849,753	3406,8
849,929	6939,54
850,104	12268,36
850,279	18369,26
850,454	24810,12
850,63	28793,42
850,805	31703,58
850,98	31836,7
851,155	30583,34
851,33	27066,98
851,505	23356,06
851,681	20009,68
851,856	17502,96
852,031	16059,15
852,206	14836,51
852,381	13310,77
852,556	12616,51
852,731	11690,83
852,906	10955,61
853,081	10222,44
853,256	9431,92
853,431	8631,16
853,606	8117,12
853,781	7469,97
853,956	6818,71
854,131	6562,72
854,305	5426,09
854,48	4643,77
854,655	3736,52
854,83	2792,41
855,005	1995,75
855,18	1567,72
855,354	1156,08
855,529	938,99
855,704	670,71
855,879	654,33
856,053	427
856,228	527,35
856,403	295,93
856,577	494,58
856,752	289,79
856,926	302,08
857,101	412,67
857,276	242,68
857,45	334,84
857,625	459,77
857,799	359,42
857,974	246,78
858,148	148,48
858,323	283,64
858,497	320,51
858,672	201,72
858,846	330,75
859,02	310,27
859,195	148,48
859,369	261,12
859,543	351,23
859,718	168,96
859,892	293,88
860,066	267,26
860,241	189,44
860,415	162,81
860,589	252,92
860,763	203,77
860,938	203,77
861,112	312,32
861,286	257,02
861,46	259,07
861,634	216,06
861,808	271,36
861,982	125,95
862,157	140,29
862,331	291,84
862,505	173,05
862,679	93,18
862,853	287,74
863,027	138,24
863,201	347,13
863,375	220,16
863,549	209,92
863,722	197,63
863,896	283,64
864,07	195,58
864,244	224,25
864,418	289,79
864,592	261,12
864,766	277,5
864,939	267,26
865,113	171,01
865,287	320,51
865,461	146,43
865,634	224,25
865,808	252,92
865,982	187,39
866,156	252,92
866,329	103,42
866,503	175,1
866,676	287,74
866,85	336,89
867,024	156,67
867,197	324,6
867,371	338,94
867,544	259,07
867,718	171,01
867,891	361,47
868,065	52,22
868,238	248,83
868,412	347,13
868,585	261,12
868,759	207,87
868,932	267,26
869,105	175,1
869,279	293,88
869,452	162,81
869,625	320,51
869,799	252,92
869,972	216,06
870,145	306,17
870,319	302,08
870,492	185,34
870,665	271,36
870,838	171,01
871,011	105,47
871,185	244,73
871,358	252,92
871,531	336,89
871,704	293,88
871,877	257,02
872,05	203,77
872,223	211,96
872,396	396,28
872,569	355,32
872,742	246,78
872,915	312,32
873,088	205,82
873,261	285,69
873,434	400,38
873,607	414,71
873,78	406,52
873,953	224,25
874,126	392,19
874,299	408,57
874,471	369,66
874,644	375,8
874,817	500,73
874,99	535,54
875,163	529,4
875,335	590,84
875,508	496,63
875,681	783,35
875,853	787,44
876,026	1139,69
876,199	2212,83
876,371	4133,82
876,544	8448,9
876,717	16251,66
876,889	27675,23
877,062	41009,55
877,234	53985,48
877,407	63424,57
877,579	63621,17
877,752	63621,17
877,924	63621,17
878,097	63621,17
878,269	63621,17
878,442	63621,17
878,614	63621,17
878,786	63621,17
878,959	63621,17
879,131	63621,17
879,303	63621,17
879,476	63621,17
879,648	57583,76
879,82	44403,03
879,993	40554,9
880,165	37999,04
880,337	35277,29
880,509	33546,75
880,681	31504,93
880,854	29248,07
881,026	27595,35
881,198	25080,45
881,37	22143,66
881,542	18969,31
881,714	15536,91
881,886	12161,86
882,058	9100,15
882,23	6714,27
882,402	4688,82
882,574	3474,38
882,746	2503,64
882,918	1971,17
883,09	1446,89
883,262	1076,21
883,434	924,66
883,606	639,99
883,778	699,38
883,95	824,31
884,122	470,01
884,293	566,26
884,465	492,54
884,637	619,51
884,809	416,76
884,98	416,76
885,152	488,44
885,324	490,49
885,496	318,46
885,667	449,53
885,839	324,6
886,011	461,82
886,182	361,47
886,354	457,72
886,525	375,8
886,697	351,23
886,869	232,44
887,04	328,7
887,212	343,03
887,383	418,81
887,555	351,23
887,726	267,26
887,897	232,44
888,069	269,31
888,24	383,99
888,412	396,28
888,583	277,5
888,754	306,17
888,926	97,28
889,097	201,72
889,268	175,1
889,44	351,23
889,611	201,72
889,782	181,25
889,953	259,07
890,125	433,15
890,296	214,01
890,467	375,8
890,638	300,03
890,809	328,7
890,98	310,27
891,151	459,77
891,323	842,74
891,494	1057,78
891,665	2046,94
891,836	3685,32
892,007	6933,4
892,178	11101,01
892,349	17242,87
892,52	23157,41
892,691	30282,29
892,862	35664,35
893,032	41492,87
893,203	44661,08
893,374	46979,38
893,545	47022,39
893,716	46463,29
893,887	44589,4
894,057	42957,17
894,228	40153,5
894,399	38259,13
894,57	35783,13
894,74	33946,11
894,911	31511,07
895,082	29891,13
895,253	27869,78
895,423	26520,17
895,594	24363,66
895,764	23331,48
895,935	21107,39
896,106	20677,32
896,276	19143,39
896,447	17996,53
896,617	16648,96
896,788	14701,34
896,958	12409,67
897,129	9984,87
897,299	7955,33
897,47	6269,86
897,64	4670,39
897,81	3328,97
897,981	2472,92
898,151	1833,96
898,322	1506,28
898,492	1025,01
898,662	818,16
898,832	750,58
899,003	719,86
899,173	633,85
899,343	441,34
899,513	394,23
