Data from krypton_USB4F104151__6__11-01-34-510.txt Node

Date: Wed Apr 15 11:01:34 EDT 2026
User: LaboPhy
Spectrometer: USB4F10415
Trigger mode: 4
Integration Time (sec): 1,000000E-1
Scans to average: 1
Electric dark correction enabled: true
Nonlinearity correction enabled: false
Boxcar width: 0
XAxis mode: Wavelengths
Number of Pixels in Spectrum: 3648
>>>>>Begin Spectral Data<<<<<
178,204	-510,46
178,424	-510,46
178,644	-510,46
178,864	-526,84
179,084	-457,21
179,304	32,26
179,524	34,3
179,744	11,78
179,964	44,54
180,184	-25,09
180,404	30,21
180,624	-78,33
180,844	1,54
181,064	-96,77
181,283	17,92
181,503	-29,18
181,723	56,83
181,943	-84,48
182,163	101,89
182,383	32,26
182,602	97,79
182,822	232,96
183,042	105,98
183,262	28,16
183,482	-0,51
183,701	99,84
183,921	50,69
184,141	-84,48
184,361	130,56
184,58	60,93
184,8	108,03
185,02	-10,75
185,239	91,65
185,459	103,93
185,679	132,61
185,898	-72,19
186,118	24,06
186,338	79,36
186,557	198,14
186,777	-20,99
186,997	-14,85
187,216	42,5
187,436	208,38
187,655	58,88
187,875	126,46
188,095	30,21
188,314	130,56
188,534	108,03
188,753	24,06
188,973	144,89
189,192	153,09
189,412	-10,75
189,631	24,06
189,851	73,21
190,07	185,85
190,29	-23,04
190,509	-2,56
190,729	71,17
190,948	206,33
191,168	187,9
191,387	75,26
191,607	-18,94
191,826	118,27
192,045	42,5
192,265	32,26
192,484	132,61
192,704	42,5
192,923	-94,72
193,142	226,81
193,362	83,45
193,581	265,72
193,8	148,99
194,02	73,21
194,239	17,92
194,458	146,94
194,678	85,5
194,897	-25,09
195,116	71,17
195,335	67,07
195,555	87,55
195,774	-0,51
195,993	112,13
196,212	36,35
196,432	-2,56
196,651	9,73
196,87	-55,81
197,089	263,68
197,308	32,26
197,528	77,31
197,747	5,63
197,966	13,82
198,185	165,37
198,404	13,82
198,623	144,89
198,842	175,61
199,062	50,69
199,281	19,97
199,5	118,27
199,719	116,22
199,938	126,46
200,157	52,74
200,376	142,85
200,595	189,95
200,814	44,54
201,033	-39,42
201,252	241,15
201,471	108,03
201,69	93,69
201,909	46,59
202,128	91,65
202,347	134,65
202,566	79,36
202,785	-96,77
203,004	-45,57
203,223	292,35
203,442	73,21
203,661	-61,95
203,879	65,02
204,098	122,37
204,317	30,21
204,536	175,61
204,755	124,41
204,974	118,27
205,193	-68,09
205,411	161,28
205,63	99,84
205,849	216,57
206,068	95,74
206,287	-47,62
206,505	192
206,724	73,21
206,943	5,63
207,162	-78,33
207,381	93,69
207,599	65,02
207,818	-12,8
208,037	9,73
208,255	46,59
208,474	22,02
208,693	148,99
208,911	1,54
209,13	155,13
209,349	140,8
209,567	112,13
209,786	75,26
210,005	101,89
210,223	91,65
210,442	-47,62
210,661	3,58
210,879	99,84
211,098	24,06
211,316	9,73
211,535	183,81
211,753	91,65
211,972	56,83
212,191	52,74
212,409	19,97
212,628	140,8
212,846	-68,09
213,065	71,17
213,283	81,41
213,502	15,87
213,72	101,89
213,938	13,82
214,157	-55,81
214,375	108,03
214,594	22,02
214,812	130,56
215,031	26,11
215,249	-6,66
215,467	26,11
215,686	9,73
215,904	34,3
216,122	56,83
216,341	241,15
216,559	89,6
216,778	112,13
216,996	157,18
217,214	56,83
217,432	48,64
217,651	-59,9
217,869	52,74
218,087	32,26
218,306	62,98
218,524	54,78
218,742	40,45
218,96	177,66
219,179	67,07
219,397	19,97
219,615	323,07
219,833	50,69
220,051	-31,23
220,27	126,46
220,488	179,71
220,706	77,31
220,924	22,02
221,142	-20,99
221,36	73,21
221,578	124,41
221,796	-61,95
222,015	42,5
222,233	77,31
222,451	44,54
222,669	50,69
222,887	108,03
223,105	-20,99
223,323	38,4
223,541	65,02
223,759	26,11
223,977	40,45
224,195	206,33
224,413	122,37
224,631	-6,66
224,849	71,17
225,067	247,29
225,285	11,78
225,503	17,92
225,721	-20,99
225,939	110,08
226,157	89,6
226,375	173,57
226,592	-6,66
226,81	132,61
227,028	93,69
227,246	163,33
227,464	75,26
227,682	214,52
227,9	140,8
228,117	69,12
228,335	140,8
228,553	97,79
228,771	83,45
228,989	50,69
229,206	56,83
229,424	-35,33
229,642	-47,62
229,86	-53,76
230,077	116,22
230,295	140,8
230,513	99,84
230,731	81,41
230,948	181,76
231,166	226,81
231,384	-4,61
231,601	-55,81
231,819	202,24
232,037	9,73
232,254	11,78
232,472	40,45
232,689	-12,8
232,907	87,55
233,125	101,89
233,342	5,63
233,56	99,84
233,777	50,69
233,995	60,93
234,213	112,13
234,43	79,36
234,648	22,02
234,865	-29,18
235,083	52,74
235,3	89,6
235,518	36,35
235,735	210,43
235,953	95,74
236,17	77,31
236,388	108,03
236,605	-8,7
236,822	116,22
237,04	142,85
237,257	101,89
237,475	-70,14
237,692	105,98
237,909	128,51
238,127	13,82
238,344	71,17
238,562	67,07
238,779	-70,14
238,996	-39,42
239,214	132,61
239,431	60,93
239,648	34,3
239,865	7,68
240,083	62,98
240,3	22,02
240,517	26,11
240,735	130,56
240,952	124,41
241,169	124,41
241,386	142,85
241,603	34,3
241,821	-70,14
242,038	132,61
242,255	161,28
242,472	56,83
242,689	58,88
242,907	15,87
243,124	75,26
243,341	28,16
243,558	54,78
243,775	-64
243,992	-88,57
244,209	50,69
244,426	132,61
244,643	67,07
244,86	75,26
245,078	132,61
245,295	62,98
245,512	26,11
245,729	-12,8
245,946	116,22
246,163	79,36
246,38	26,11
246,597	103,93
246,814	48,64
247,031	30,21
247,248	-64
247,464	79,36
247,681	77,31
247,898	103,93
248,115	91,65
248,332	-12,8
248,549	181,76
248,766	206,33
248,983	99,84
249,2	75,26
249,417	142,85
249,633	-2,56
249,85	97,79
250,067	79,36
250,284	-16,9
250,501	77,31
250,717	28,16
250,934	-6,66
251,151	101,89
251,368	58,88
251,585	52,74
251,801	-18,94
252,018	-94,72
252,235	83,45
252,451	-35,33
252,668	46,59
252,885	122,37
253,102	134,65
253,318	40,45
253,535	28,16
253,752	87,55
253,968	22,02
254,185	-57,86
254,401	9,73
254,618	52,74
254,835	69,12
255,051	85,5
255,268	116,22
255,484	19,97
255,701	-8,7
255,917	108,03
256,134	-53,76
256,351	42,5
256,567	3,58
256,784	50,69
257	-72,19
257,217	126,46
257,433	116,22
257,65	-8,7
257,866	210,43
258,082	-2,56
258,299	-31,23
258,515	34,3
258,732	1,54
258,948	19,97
259,165	52,74
259,381	-57,86
259,597	71,17
259,814	58,88
260,03	9,73
260,246	9,73
260,463	144,89
260,679	228,86
260,895	19,97
261,112	75,26
261,328	58,88
261,544	-14,85
261,761	148,99
261,977	7,68
262,193	5,63
262,409	118,27
262,626	26,11
262,842	67,07
263,058	-47,62
263,274	148,99
263,49	-35,33
263,707	83,45
263,923	116,22
264,139	-64
264,355	105,98
264,571	142,85
264,787	30,21
265,004	151,04
265,22	28,16
265,436	-25,09
265,652	67,07
265,868	62,98
266,084	-141,82
266,3	58,88
266,516	-23,04
266,732	124,41
266,948	28,16
267,164	50,69
267,38	181,76
267,596	148,99
267,812	183,81
268,028	30,21
268,244	19,97
268,46	67,07
268,676	83,45
268,892	65,02
269,108	11,78
269,324	11,78
269,54	-49,66
269,756	62,98
269,972	-55,81
270,188	-33,28
270,403	-80,38
270,619	9,73
270,835	132,61
271,051	56,83
271,267	-61,95
271,483	28,16
271,698	222,72
271,914	183,81
272,13	62,98
272,346	-31,23
272,562	60,93
272,777	126,46
272,993	54,78
273,209	42,5
273,425	124,41
273,64	3,58
273,856	120,32
274,072	-41,47
274,287	-8,7
274,503	118,27
274,719	116,22
274,934	56,83
275,15	-41,47
275,366	40,45
275,581	79,36
275,797	116,22
276,012	200,19
276,228	19,97
276,444	93,69
276,659	99,84
276,875	52,74
277,09	65,02
277,306	67,07
277,521	124,41
277,737	22,02
277,952	103,93
278,168	58,88
278,383	75,26
278,599	52,74
278,814	97,79
279,03	62,98
279,245	157,18
279,461	36,35
279,676	189,95
279,892	-70,14
280,107	17,92
280,322	-23,04
280,538	73,21
280,753	13,82
280,969	42,5
281,184	52,74
281,399	157,18
281,615	15,87
281,83	77,31
282,045	-35,33
282,26	26,11
282,476	97,79
282,691	69,12
282,906	118,27
283,122	34,3
283,337	-23,04
283,552	75,26
283,767	-20,99
283,983	140,8
284,198	26,11
284,413	69,12
284,628	-49,66
284,843	-6,66
285,058	112,13
285,274	40,45
285,489	-6,66
285,704	132,61
285,919	26,11
286,134	-53,76
286,349	79,36
286,564	-31,23
286,779	91,65
286,995	99,84
287,21	-92,67
287,425	93,69
287,64	28,16
287,855	44,54
288,07	-12,8
288,285	108,03
288,5	103,93
288,715	52,74
288,93	28,16
289,145	11,78
289,36	116,22
289,575	-0,51
289,79	173,57
290,004	36,35
290,219	151,04
290,434	58,88
290,649	26,11
290,864	62,98
291,079	-82,43
291,294	67,07
291,509	65,02
291,724	50,69
291,938	13,82
292,153	-14,85
292,368	-31,23
292,583	169,47
292,798	146,94
293,012	97,79
293,227	81,41
293,442	17,92
293,657	91,65
293,871	110,08
294,086	83,45
294,301	177,66
294,516	134,65
294,73	17,92
294,945	46,59
295,16	75,26
295,374	189,95
295,589	138,75
295,804	77,31
296,018	77,31
296,233	101,89
296,447	120,32
296,662	50,69
296,877	136,7
297,091	101,89
297,306	103,93
297,52	112,13
297,735	56,83
297,949	56,83
298,164	89,6
298,378	99,84
298,593	-18,94
298,807	-80,38
299,022	75,26
299,236	138,75
299,451	-2,56
299,665	58,88
299,88	108,03
300,094	91,65
300,309	99,84
300,523	93,69
300,737	-37,38
300,952	110,08
301,166	148,99
301,381	-12,8
301,595	-31,23
301,809	38,4
302,024	28,16
302,238	-37,38
302,452	67,07
302,667	126,46
302,881	243,2
303,095	120,32
303,309	132,61
303,524	62,98
303,738	28,16
303,952	60,93
304,166	134,65
304,381	-113,15
304,595	206,33
304,809	91,65
305,023	52,74
305,237	5,63
305,452	13,82
305,666	93,69
305,88	130,56
306,094	146,94
306,308	108,03
306,522	124,41
306,736	60,93
306,95	175,61
307,164	97,79
307,379	34,3
307,593	210,43
307,807	222,72
308,021	189,95
308,235	183,81
308,449	48,64
308,663	214,52
308,877	370,17
309,091	122,37
309,305	194,05
309,519	17,92
309,733	224,76
309,947	81,41
310,161	110,08
310,374	216,57
310,588	316,92
310,802	30,21
311,016	67,07
311,23	173,57
311,444	50,69
311,658	75,26
311,872	183,81
312,085	175,61
312,299	198,14
312,513	267,77
312,727	157,18
312,941	17,92
313,154	159,23
313,368	198,14
313,582	116,22
313,796	167,42
314,009	83,45
314,223	232,96
314,437	175,61
314,651	99,84
314,864	50,69
315,078	87,55
315,292	75,26
315,505	91,65
315,719	116,22
315,933	171,52
316,146	22,02
316,36	26,11
316,573	222,72
316,787	167,42
317,001	116,22
317,214	58,88
317,428	155,13
317,641	-16,9
317,855	19,97
318,068	148,99
318,282	101,89
318,495	218,62
318,709	101,89
318,922	175,61
319,136	232,96
319,349	239,1
319,563	30,21
319,776	237,05
319,99	-37,38
320,203	161,28
320,417	67,07
320,63	220,67
320,843	181,76
321,057	112,13
321,27	132,61
321,483	177,66
321,697	259,58
321,91	155,13
322,124	165,37
322,337	99,84
322,55	148,99
322,763	192
322,977	67,07
323,19	30,21
323,403	116,22
323,617	120,32
323,83	103,93
324,043	169,47
324,256	157,18
324,469	58,88
324,683	159,23
324,896	116,22
325,109	108,03
325,322	-12,8
325,535	181,76
325,748	210,43
325,962	108,03
326,175	34,3
326,388	175,61
326,601	155,13
326,814	130,56
327,027	183,81
327,24	325,12
327,453	3,58
327,666	138,75
327,879	304,64
328,092	198,14
328,305	257,53
328,518	54,78
328,731	79,36
328,944	132,61
329,157	271,87
329,37	101,89
329,583	263,68
329,796	198,14
330,009	13,82
330,222	196,09
330,435	198,14
330,648	116,22
330,861	110,08
331,073	165,37
331,286	239,1
331,499	114,17
331,712	83,45
331,925	81,41
332,138	101,89
332,35	146,94
332,563	151,04
332,776	224,76
332,989	157,18
333,202	228,86
333,414	214,52
333,627	218,62
333,84	169,47
334,053	239,1
334,265	232,96
334,478	239,1
334,691	386,55
334,903	345,59
335,116	316,92
335,329	413,18
335,541	458,23
335,754	677,37
335,966	534,01
336,179	491
336,392	534,01
336,604	482,81
336,817	476,66
337,029	366,07
337,242	431,61
337,454	394,75
337,667	386,55
337,88	462,33
338,092	372,22
338,305	321,02
338,517	235
338,729	443,9
338,942	316,92
339,154	132,61
339,367	120,32
339,579	263,68
339,792	105,98
340,004	230,91
340,217	210,43
340,429	261,63
340,641	210,43
340,854	155,13
341,066	202,24
341,278	255,48
341,491	329,21
341,703	247,29
341,915	192
342,128	235
342,34	146,94
342,552	101,89
342,764	134,65
342,977	144,89
343,189	134,65
343,401	185,85
343,613	58,88
343,826	173,57
344,038	112,13
344,25	263,68
344,462	79,36
344,674	159,23
344,886	112,13
345,099	198,14
345,311	278,01
345,523	151,04
345,735	3,58
345,947	85,5
346,159	101,89
346,371	126,46
346,583	108,03
346,795	388,6
347,007	93,69
347,219	214,52
347,431	146,94
347,643	304,64
347,855	226,81
348,067	271,87
348,279	114,17
348,491	286,2
348,703	206,33
348,915	118,27
349,127	105,98
349,339	220,67
349,551	136,7
349,763	273,92
349,975	155,13
350,187	380,41
350,399	372,22
350,61	345,59
350,822	153,09
351,034	243,2
351,246	249,34
351,458	216,57
351,669	261,63
351,881	253,44
352,093	355,83
352,305	228,86
352,517	216,57
352,728	312,83
352,94	216,57
353,152	208,38
353,363	138,75
353,575	241,15
353,787	337,4
353,999	185,85
354,21	364,03
354,422	116,22
354,633	230,91
354,845	214,52
355,057	275,96
355,268	288,25
355,48	353,79
355,692	110,08
355,903	284,16
356,115	263,68
356,326	194,05
356,538	468,47
356,749	415,23
356,961	515,58
357,172	486,9
357,384	509,43
357,595	675,32
357,807	361,98
358,018	488,95
358,23	519,67
358,441	552,44
358,653	464,38
358,864	396,79
359,075	310,78
359,287	341,5
359,498	396,79
359,709	370,17
359,921	331,26
360,132	413,18
360,344	337,4
360,555	337,4
360,766	335,35
360,977	282,11
361,189	316,92
361,4	378,36
361,611	390,65
361,823	372,22
362,034	308,73
362,245	167,42
362,456	245,24
362,667	280,06
362,879	144,89
363,09	273,92
363,301	323,07
363,512	235
363,723	185,85
363,935	200,19
364,146	280,06
364,357	169,47
364,568	353,79
364,779	136,7
364,99	359,93
365,201	222,72
365,412	476,66
365,623	282,11
365,834	378,36
366,045	443,9
366,256	574,97
366,467	497,14
366,678	534,01
366,889	505,34
367,1	574,97
367,311	568,82
367,522	519,67
367,733	673,27
367,944	574,97
368,155	478,71
368,366	558,58
368,577	599,54
368,788	529,91
368,999	366,07
369,209	333,31
369,42	439,8
369,631	464,38
369,842	429,56
370,053	212,48
370,264	421,37
370,474	204,28
370,685	312,83
370,896	175,61
371,107	247,29
371,317	347,64
371,528	306,68
371,739	419,32
371,95	257,53
372,16	267,77
372,371	161,28
372,582	302,59
372,792	230,91
373,003	222,72
373,214	347,64
373,424	312,83
373,635	222,72
373,846	396,79
374,056	241,15
374,267	273,92
374,477	271,87
374,688	198,14
374,898	364,03
375,109	239,1
375,319	312,83
375,53	333,31
375,74	441,85
375,951	247,29
376,161	370,17
376,372	355,83
376,582	255,48
376,793	409,08
377,003	353,79
377,214	312,83
377,424	357,88
377,635	419,32
377,845	357,88
378,055	423,42
378,266	372,22
378,476	361,98
378,686	421,37
378,897	452,09
379,107	542,2
379,317	527,86
379,528	427,51
379,738	525,82
379,948	427,51
380,158	536,06
380,369	548,34
380,579	642,55
380,789	484,86
380,999	591,35
381,21	538,1
381,42	691,7
381,63	603,64
381,84	568,82
382,05	648,69
382,261	568,82
382,471	701,94
382,681	617,97
382,891	738,8
383,101	722,42
383,311	640,5
383,521	773,62
383,731	914,93
383,941	1019,38
384,151	978,42
384,361	976,37
384,571	951,79
384,781	1068,53
384,991	1281,52
385,201	1334,76
385,411	1150,45
385,621	1203,69
385,831	1218,03
386,041	1265,13
386,251	1187,31
386,461	1408,49
386,671	1302
386,881	1334,76
387,091	1281,52
387,301	1383,91
387,511	1281,52
387,72	1271,28
387,93	1207,79
388,14	1093,1
388,35	1187,31
388,56	1107,44
388,769	970,23
388,979	855,54
389,189	738,8
389,399	749,04
389,609	693,75
389,818	667,13
390,028	550,39
390,238	613,88
390,447	458,23
390,657	615,93
390,867	507,38
391,076	413,18
391,286	394,75
391,496	423,42
391,705	427,51
391,915	507,38
392,125	452,09
392,334	423,42
392,544	476,66
392,753	308,73
392,963	329,21
393,172	452,09
393,382	353,79
393,591	574,97
393,801	400,89
394,01	437,75
394,22	447,99
394,429	394,75
394,639	341,5
394,848	441,85
395,058	355,83
395,267	294,4
395,477	425,47
395,686	409,08
395,895	536,06
396,105	531,96
396,314	454,14
396,524	411,13
396,733	329,21
396,942	394,75
397,152	327,16
397,361	376,31
397,57	370,17
397,78	263,68
397,989	353,79
398,198	501,24
398,407	419,32
398,617	302,59
398,826	304,64
399,035	296,44
399,244	329,21
399,453	271,87
399,663	343,55
399,872	316,92
400,081	306,68
400,29	450,04
400,499	273,92
400,708	427,51
400,917	235
401,127	357,88
401,336	183,81
401,545	325,12
401,754	407,03
401,963	339,45
402,172	357,88
402,381	165,37
402,59	290,3
402,799	366,07
403,008	452,09
403,217	402,94
403,426	384,51
403,635	247,29
403,844	339,45
404,053	382,46
404,262	325,12
404,471	568,82
404,68	384,51
404,888	314,88
405,097	364,03
405,306	421,37
405,515	443,9
405,724	396,79
405,933	505,34
406,142	435,71
406,35	439,8
406,559	325,12
406,768	288,25
406,977	480,76
407,185	335,35
407,394	312,83
407,603	329,21
407,812	478,71
408,02	501,24
408,229	411,13
408,438	413,18
408,646	292,35
408,855	366,07
409,064	437,75
409,272	364,03
409,481	486,9
409,69	304,64
409,898	288,25
410,107	435,71
410,315	441,85
410,524	298,49
410,733	417,27
410,941	364,03
411,15	425,47
411,358	370,17
411,567	439,8
411,775	423,42
411,984	361,98
412,192	466,42
412,401	357,88
412,609	484,86
412,818	452,09
413,026	419,32
413,234	404,99
413,443	308,73
413,651	353,79
413,86	392,7
414,068	534,01
414,276	613,88
414,485	353,79
414,693	540,15
414,901	574,97
415,11	468,47
415,318	407,03
415,526	368,12
415,734	525,82
415,943	353,79
416,151	511,48
416,359	306,68
416,567	308,73
416,776	392,7
416,984	517,62
417,192	560,63
417,4	361,98
417,608	372,22
417,817	335,35
418,025	513,53
418,233	548,34
418,441	349,69
418,649	402,94
418,857	501,24
419,065	548,34
419,273	439,8
419,481	511,48
419,689	445,95
419,897	441,85
420,105	421,37
420,313	501,24
420,521	550,39
420,729	484,86
420,937	411,13
421,145	368,12
421,353	404,99
421,561	527,86
421,769	421,37
421,977	327,16
422,185	488,95
422,393	437,75
422,601	509,43
422,809	388,6
423,017	357,88
423,224	437,75
423,432	495,1
423,64	378,36
423,848	431,61
424,056	232,96
424,263	423,42
424,471	435,71
424,679	568,82
424,887	523,77
425,094	853,49
425,302	1101,3
425,51	1486,31
425,718	2047,46
425,925	2526,68
426,133	3122,64
426,341	4218,3
426,548	4652,47
426,756	5467,56
426,964	5991,84
427,171	6725,02
427,379	7230,87
427,586	7136,66
427,794	7253,39
428,001	7161,23
428,209	6299,04
428,417	5445,04
428,624	4658,62
428,832	3769,8
429,039	3079,63
429,247	2471,39
429,454	2401,76
429,662	2452,95
429,869	2332,12
430,076	2923,99
430,284	3487,18
430,491	4167,1
430,699	5295,54
430,906	6227,36
431,114	6864,28
431,321	7835,02
431,528	8660,35
431,736	9850,22
431,943	10339,68
432,15	9848,17
432,358	9244,02
432,565	8803,71
432,772	7546,25
432,979	6632,86
433,187	5287,34
433,394	4056,51
433,601	3208,66
433,808	2461,15
434,016	1971,68
434,223	1553,9
434,43	1332,72
434,637	1185,26
434,844	1463,79
435,052	1500,65
435,259	1641,96
435,466	1863,14
435,673	2020,83
435,88	2412
436,087	2887,12
436,294	3284,43
436,501	3253,71
436,708	3335,63
436,915	3743,17
437,122	3794,37
437,329	3595,72
437,537	3796,42
437,743	3653,06
437,95	3554,76
438,157	3313,1
438,364	2950,61
438,571	2631,13
438,778	2192,86
438,985	1983,97
439,192	1576,42
439,399	1369,58
439,606	1220,08
439,813	1152,49
440,02	1089,01
440,227	1129,97
440,433	914,93
440,64	996,85
440,847	757,24
441,054	826,87
441,261	871,92
441,467	624,12
441,674	617,97
441,881	710,13
442,088	554,49
442,294	691,7
442,501	646,65
442,708	714,23
442,914	632,31
443,121	577,02
443,328	695,8
443,534	861,68
443,741	863,73
443,948	970,23
444,154	1365,48
444,361	1879,52
444,568	2004,45
444,774	2407,9
444,981	2643,42
445,187	3446,22
445,394	3845,57
445,6	3931,59
445,807	4451,77
446,013	4388,29
446,22	4249,02
446,426	4533,69
446,633	4175,3
446,839	3880,39
447,046	3157,46
447,252	2909,65
447,459	2289,12
447,665	1902,05
447,871	1678,82
448,078	1439,21
448,284	1275,37
448,491	1256,94
448,697	1236,46
448,903	1371,63
449,11	1494,51
449,316	1662,44
449,522	1908,19
449,728	2112,99
449,935	2223,58
450,141	2248,16
450,347	2569,69
450,553	2315,74
450,76	2190,81
450,966	2100,7
451,172	1953,25
451,378	1619,43
451,584	1439,21
451,791	1224,17
451,997	919,03
452,203	783,86
452,409	833,01
452,615	699,89
452,821	488,95
453,027	388,6
453,233	671,22
453,44	402,94
453,646	431,61
453,852	501,24
454,058	300,54
454,264	484,86
454,47	488,95
454,676	421,37
454,882	464,38
455,088	476,66
455,294	478,71
455,5	447,99
455,705	472,57
455,911	413,18
456,117	345,59
456,323	443,9
456,529	517,62
456,735	376,31
456,941	368,12
457,147	407,03
457,352	392,7
457,558	386,55
457,764	476,66
457,97	437,75
458,176	384,51
458,381	404,99
458,587	437,75
458,793	462,33
458,999	310,78
459,204	458,23
459,41	417,27
459,616	423,42
459,821	417,27
460,027	278,01
460,233	583,16
460,438	517,62
460,644	370,17
460,85	450,04
461,055	491
461,261	484,86
461,466	312,83
461,672	394,75
461,878	312,83
462,083	476,66
462,289	232,96
462,494	345,59
462,7	388,6
462,905	312,83
463,111	450,04
463,316	454,14
463,522	445,95
463,727	364,03
463,932	476,66
464,138	411,13
464,343	450,04
464,549	437,75
464,754	386,55
464,959	437,75
465,165	409,08
465,37	478,71
465,575	476,66
465,781	493,05
465,986	466,42
466,191	460,28
466,397	597,49
466,602	609,78
466,807	574,97
467,012	591,35
467,218	601,59
467,423	540,15
467,628	546,3
467,833	531,96
468,038	572,92
468,244	478,71
468,449	601,59
468,654	706,04
468,859	486,9
469,064	669,17
469,269	570,87
469,474	734,71
469,679	724,47
469,885	681,46
470,09	597,49
470,295	634,36
470,5	558,58
470,705	660,98
470,91	615,93
471,115	648,69
471,32	593,4
471,525	701,94
471,73	681,46
471,935	577,02
472,139	534,01
472,344	538,1
472,549	519,67
472,754	624,12
472,959	607,73
473,164	501,24
473,369	677,37
473,574	699,89
473,778	558,58
473,983	607,73
474,188	579,06
474,393	534,01
474,598	570,87
474,802	646,65
475,007	554,49
475,212	642,55
475,417	468,47
475,621	617,97
475,826	413,18
476,031	644,6
476,235	534,01
476,44	538,1
476,645	476,66
476,849	507,38
477,054	505,34
477,259	515,58
477,463	577,02
477,668	718,33
477,872	630,26
478,077	540,15
478,282	505,34
478,486	556,54
478,691	562,68
478,895	540,15
479,1	542,2
479,304	648,69
479,509	558,58
479,713	658,93
479,918	599,54
480,122	706,04
480,326	660,98
480,531	660,98
480,735	732,66
480,94	794,1
481,144	894,45
481,348	773,62
481,553	777,72
481,757	730,61
481,961	767,48
482,166	773,62
482,37	673,27
482,574	771,57
482,778	673,27
482,983	830,96
483,187	708,09
483,391	628,21
483,595	701,94
483,8	798,2
484,004	738,8
484,208	673,27
484,412	771,57
484,616	808,44
484,821	708,09
485,025	665,08
485,229	603,64
485,433	757,24
485,637	658,93
485,841	724,47
486,045	744,95
486,249	773,62
486,453	896,5
486,657	773,62
486,861	724,47
487,065	880,11
487,269	835,06
487,473	828,92
487,677	921,07
487,881	1129,97
488,085	894,45
488,289	882,16
488,493	882,16
488,697	1058,29
488,901	892,4
489,105	970,23
489,309	873,97
489,512	1123,82
489,716	912,88
489,92	851,44
490,124	921,07
490,328	898,55
490,531	845,3
490,735	992,75
490,939	783,86
491,143	747
491,346	714,23
491,55	804,34
491,754	749,04
491,958	681,46
492,161	689,65
492,365	667,13
492,569	757,24
492,772	796,15
492,976	755,19
493,18	667,13
493,383	747
493,587	706,04
493,79	683,51
493,994	603,64
494,197	583,16
494,401	665,08
494,605	583,16
494,808	654,84
495,012	685,56
495,215	851,44
495,419	808,44
495,622	716,28
495,825	607,73
496,029	693,75
496,232	790
496,436	767,48
496,639	837,11
496,843	779,76
497,046	685,56
497,249	886,26
497,453	806,39
497,656	775,67
497,859	716,28
498,063	736,76
498,266	814,58
498,469	577,02
498,673	671,22
498,876	738,8
499,079	595,45
499,282	683,51
499,485	937,46
499,689	703,99
499,892	783,86
500,095	648,69
500,298	708,09
500,501	605,69
500,705	714,23
500,908	556,54
501,111	605,69
501,314	796,15
501,517	767,48
501,72	609,78
501,923	585,21
502,126	583,16
502,329	648,69
502,532	667,13
502,735	783,86
502,938	701,94
503,141	689,65
503,344	558,58
503,547	853,49
503,75	644,6
503,953	706,04
504,156	771,57
504,359	790
504,562	812,53
504,765	800,24
504,968	935,41
505,17	865,78
505,373	855,54
505,576	970,23
505,779	828,92
505,982	857,59
506,185	941,55
506,387	818,68
506,59	968,18
506,793	876,02
506,996	921,07
507,198	1017,33
507,401	1132,01
507,604	1117,68
507,807	984,56
508,009	953,84
508,212	984,56
508,415	814,58
508,617	796,15
508,82	828,92
509,022	886,26
509,225	771,57
509,428	814,58
509,63	830,96
509,833	718,33
510,035	980,47
510,238	790
510,44	669,17
510,643	800,24
510,845	902,64
511,048	777,72
511,25	658,93
511,453	747
511,655	927,22
511,858	927,22
512,06	1109,49
512,262	886,26
512,465	951,79
512,667	927,22
512,87	919,03
513,072	1189,36
513,274	1158,64
513,477	1025,52
513,679	1150,45
513,881	1183,21
514,084	1043,95
514,286	1246,7
514,488	1201,65
514,69	1164,78
514,893	1117,68
515,095	1095,15
515,297	1033,71
515,499	1242,61
515,701	1119,73
515,904	1211,89
516,106	1336,81
516,308	1170,93
516,51	1123,82
516,712	1127,92
516,914	1099,25
517,116	959,99
517,318	876,02
517,52	849,4
517,722	888,31
517,925	835,06
518,127	986,61
518,329	869,87
518,531	656,89
518,733	722,42
518,935	626,17
519,136	790
519,338	673,27
519,54	724,47
519,742	675,32
519,944	673,27
520,146	568,82
520,348	656,89
520,55	714,23
520,752	519,67
520,954	654,84
521,155	640,5
521,357	607,73
521,559	744,95
521,761	843,25
521,963	779,76
522,164	755,19
522,366	796,15
522,568	796,15
522,77	726,52
522,971	871,92
523,173	656,89
523,375	837,11
523,576	665,08
523,778	691,7
523,98	763,38
524,181	847,35
524,383	853,49
524,584	734,71
524,786	740,85
524,988	790
525,189	869,87
525,391	773,62
525,592	691,7
525,794	761,33
525,995	796,15
526,197	880,11
526,398	937,46
526,6	822,77
526,801	914,93
527,003	648,69
527,204	775,67
527,406	787,96
527,607	763,38
527,808	728,56
528,01	755,19
528,211	773,62
528,412	640,5
528,614	845,3
528,815	749,04
529,016	771,57
529,218	599,54
529,419	632,31
529,62	587,26
529,822	685,56
530,023	599,54
530,224	701,94
530,425	785,91
530,626	615,93
530,828	587,26
531,029	685,56
531,23	798,2
531,431	624,12
531,632	779,76
531,833	747
532,035	673,27
532,236	755,19
532,437	896,5
532,638	812,53
532,839	683,51
533,04	943,6
533,241	992,75
533,442	867,83
533,643	845,3
533,844	861,68
534,045	763,38
534,246	964,08
534,447	886,26
534,648	824,82
534,849	1005,04
535,05	986,61
535,251	896,5
535,451	974,32
535,652	869,87
535,853	830,96
536,054	910,83
536,255	796,15
536,456	871,92
536,657	851,44
536,857	853,49
537,058	855,54
537,259	822,77
537,46	740,85
537,66	792,05
537,861	677,37
538,062	804,34
538,263	636,41
538,463	820,72
538,664	660,98
538,865	607,73
539,065	708,09
539,266	724,47
539,466	726,52
539,667	775,67
539,868	587,26
540,068	624,12
540,269	732,66
540,469	640,5
540,67	656,89
540,87	677,37
541,071	558,58
541,271	716,28
541,472	771,57
541,672	714,23
541,873	669,17
542,073	628,21
542,274	697,85
542,474	765,43
542,675	708,09
542,875	718,33
543,075	519,67
543,276	714,23
543,476	597,49
543,676	695,8
543,877	568,82
544,077	718,33
544,277	673,27
544,478	691,7
544,678	628,21
544,878	697,85
545,078	730,61
545,279	734,71
545,479	757,24
545,679	675,32
545,879	593,4
546,079	726,52
546,28	505,34
546,48	646,65
546,68	753,14
546,88	640,5
547,08	650,74
547,28	697,85
547,48	632,31
547,68	691,7
547,88	628,21
548,081	730,61
548,281	736,76
548,481	730,61
548,681	804,34
548,881	925,17
549,081	939,51
549,28	1072,62
549,48	1119,73
549,68	1097,2
549,88	1189,36
550,08	976,37
550,28	1138,16
550,48	1215,98
550,68	1160,69
550,88	1089,01
551,08	1115,63
551,279	1220,08
551,479	1033,71
551,679	1199,6
551,879	1027,57
552,079	986,61
552,278	1066,48
552,478	1019,38
552,678	990,7
552,878	1058,29
553,077	845,3
553,277	867,83
553,477	720,37
553,676	869,87
553,876	806,39
554,076	855,54
554,275	1035,76
554,475	1310,19
554,674	2110,94
554,874	3151,31
555,074	5166,51
555,273	8381,82
555,473	12823,87
555,672	18623,72
555,872	26213,49
556,071	34110,46
556,271	41040,78
556,47	45763,4
556,67	49539,85
556,869	51653,36
557,068	52368,1
557,268	50408,19
557,467	47545,13
557,667	43692,9
557,866	39943,07
558,065	34483,19
558,265	29477,95
558,464	24857,73
558,663	21159,1
558,863	17192,19
559,062	14558,5
559,261	11492,69
559,461	9274,74
559,66	7271,83
559,859	5580,2
560,058	3935,68
560,258	2815,45
560,457	2045,41
560,656	1709,54
560,855	1160,69
561,054	1119,73
561,253	914,93
561,453	843,25
561,652	853,49
561,851	919,03
562,05	671,22
562,249	615,93
562,448	767,48
562,647	542,2
562,846	779,76
563,045	785,91
563,244	765,43
563,443	959,99
563,642	949,75
563,841	1250,8
564,04	1326,57
564,239	1375,72
564,438	1512,94
564,637	1635,82
564,836	1781,22
565,035	1750,5
565,234	1748,45
565,432	1838,56
565,631	1715,69
565,83	1707,49
566,029	1603,05
566,228	1564,14
566,427	1680,87
566,625	1394,15
566,824	1648,1
567,023	1547,75
567,222	1598,95
567,42	1402,35
567,619	1496,55
567,818	1467,88
568,016	1541,61
568,215	1345
568,414	1420,78
568,612	1213,93
568,811	1086,96
569,01	1136,11
569,208	1086,96
569,407	1099,25
569,605	1150,45
569,804	1025,52
570,002	1050,1
570,201	955,89
570,4	1148,4
570,598	1009,14
570,797	970,23
570,995	871,92
571,193	964,08
571,392	972,27
571,59	841,2
571,789	978,42
571,987	988,66
572,186	955,89
572,384	841,2
572,582	888,31
572,781	861,68
572,979	716,28
573,177	695,8
573,376	742,9
573,574	863,73
573,772	722,42
573,971	681,46
574,169	652,79
574,367	663,03
574,565	656,89
574,763	675,32
574,962	693,75
575,16	708,09
575,358	615,93
575,556	726,52
575,754	615,93
575,952	667,13
576,151	687,61
576,349	673,27
576,547	509,43
576,745	617,97
576,943	773,62
577,141	570,87
577,339	542,2
577,537	615,93
577,735	658,93
577,933	669,17
578,131	476,66
578,329	796,15
578,527	587,26
578,725	583,16
578,923	509,43
579,121	671,22
579,319	329,21
579,516	605,69
579,714	796,15
579,912	583,16
580,11	562,68
580,308	697,85
580,506	480,76
580,704	570,87
580,901	630,26
581,099	790
581,297	773,62
581,495	816,63
581,692	1013,23
581,89	1129,97
582,088	1265,13
582,285	1410,54
582,483	1517,03
582,681	1650,15
582,878	1486,31
583,076	1676,77
583,274	1549,8
583,471	1750,5
583,669	1551,85
583,866	1441,26
584,064	1345
584,262	1093,1
584,459	1123,82
584,657	1142,25
584,854	1125,87
585,052	1316,33
585,249	2145,76
585,447	4279,74
585,644	8385,92
585,841	15459,6
586,039	24335,5
586,236	32871,43
586,434	41309,07
586,631	47407,92
586,828	52691,68
587,026	54409,92
587,223	54854,33
587,42	52804,31
587,618	50162,43
587,815	45814,6
588,012	41915,26
588,21	37180,36
588,407	32474,13
588,604	27835,48
588,801	23295,13
588,999	19854,55
589,196	16284,94
589,393	13616,43
589,59	11271,51
589,787	9071,99
589,984	7095,7
590,182	5301,68
590,379	3859,91
590,576	2704,85
590,773	2055,65
590,97	1541,61
591,167	1285,61
591,364	1041,9
591,561	738,8
591,758	869,87
591,955	724,47
592,152	624,12
592,349	493,05
592,546	605,69
592,743	417,27
592,94	544,25
593,137	511,48
593,334	558,58
593,531	495,1
593,727	626,17
593,924	456,19
594,121	472,57
594,318	474,62
594,515	513,53
594,712	587,26
594,908	505,34
595,105	374,27
595,302	470,52
595,499	458,23
595,696	548,34
595,892	431,61
596,089	574,97
596,286	355,83
596,482	476,66
596,679	509,43
596,876	396,79
597,072	499,19
597,269	450,04
597,466	478,71
597,662	476,66
597,859	544,25
598,055	822,77
598,252	1056,24
598,448	1353,2
598,645	1691,11
598,841	1785,32
599,038	2012,64
599,234	2149,86
599,431	2291,17
599,627	2233,82
599,824	2270,69
600,02	2258,4
600,217	2307,55
600,413	2319,84
600,609	2309,6
600,806	2606,55
601,002	2295,26
601,198	2123,23
601,395	2213,34
601,591	1969,63
601,787	1936,87
601,984	1789,41
602,18	1770,98
602,376	1467,88
602,572	1500,65
602,769	1414,63
602,965	1328,62
603,161	1361,39
603,357	1222,13
603,553	1312,24
603,75	1129,97
603,946	1134,06
604,142	1279,47
604,338	1455,59
604,534	1185,26
604,73	1502,7
604,926	1451,5
605,122	1895,91
605,318	1668,58
605,514	1920,48
605,71	1660,39
605,906	1844,71
606,102	1635,82
606,298	1715,69
606,494	1633,77
606,69	1574,38
606,886	1345
607,082	1336,81
607,278	1355,24
607,474	1531,37
607,67	1349,1
607,866	1322,48
608,062	1345
608,257	1363,44
608,453	1129,97
608,649	1205,74
608,845	980,47
609,041	910,83
609,236	892,4
609,432	896,5
609,628	810,48
609,824	806,39
610,019	644,6
610,215	656,89
610,411	714,23
610,606	689,65
610,802	523,77
610,998	583,16
611,193	599,54
611,389	488,95
611,584	593,4
611,78	460,28
611,976	548,34
612,171	706,04
612,367	574,97
612,562	486,9
612,758	574,97
612,953	306,68
613,149	421,37
613,344	507,38
613,539	450,04
613,735	517,62
613,93	554,49
614,126	599,54
614,321	497,14
614,517	609,78
614,712	697,85
614,907	652,79
615,103	654,84
615,298	654,84
615,493	478,71
615,688	531,96
615,884	652,79
616,079	585,21
616,274	675,32
616,47	441,85
616,665	421,37
616,86	452,09
617,055	534,01
617,25	392,7
617,445	493,05
617,641	478,71
617,836	312,83
618,031	323,07
618,226	376,31
618,421	474,62
618,616	316,92
618,811	347,64
619,006	361,98
619,201	382,46
619,396	251,39
619,591	239,1
619,786	378,36
619,981	398,84
620,176	333,31
620,371	273,92
620,566	302,59
620,761	464,38
620,956	425,47
621,151	394,75
621,346	425,47
621,541	372,22
621,735	587,26
621,93	513,53
622,125	423,42
622,32	456,19
622,515	491
622,709	665,08
622,904	734,71
623,099	779,76
623,294	880,11
623,488	853,49
623,683	646,65
623,878	775,67
624,072	763,38
624,267	656,89
624,462	708,09
624,656	495,1
624,851	693,75
625,046	644,6
625,24	452,09
625,435	509,43
625,629	503,29
625,824	591,35
626,018	468,47
626,213	531,96
626,407	384,51
626,602	306,68
626,796	384,51
626,991	435,71
627,185	280,06
627,38	325,12
627,574	286,2
627,768	423,42
627,963	427,51
628,157	355,83
628,352	364,03
628,546	286,2
628,74	296,44
628,935	345,59
629,129	339,45
629,323	368,12
629,517	189,95
629,712	337,4
629,906	337,4
630,1	396,79
630,294	411,13
630,489	376,31
630,683	282,11
630,877	259,58
631,071	476,66
631,265	198,14
631,459	417,27
631,653	206,33
631,848	275,96
632,042	357,88
632,236	224,76
632,43	345,59
632,624	275,96
632,818	337,4
633,012	347,64
633,206	259,58
633,4	255,48
633,594	284,16
633,788	372,22
633,982	460,28
634,176	599,54
634,369	368,12
634,563	435,71
634,757	366,07
634,951	484,86
635,145	558,58
635,339	394,75
635,533	554,49
635,726	511,48
635,92	443,9
636,114	386,55
636,308	427,51
636,501	476,66
636,695	630,26
636,889	501,24
637,083	558,58
637,276	585,21
637,47	462,33
637,664	560,63
637,857	521,72
638,051	460,28
638,244	534,01
638,438	531,96
638,632	628,21
638,825	386,55
639,019	677,37
639,212	425,47
639,406	531,96
639,599	460,28
639,793	456,19
639,986	529,91
640,18	628,21
640,373	597,49
640,567	736,76
640,76	839,16
640,954	1015,28
641,147	1172,97
641,34	1394,15
641,534	1648,1
641,727	1869,28
641,92	1902,05
642,114	1973,73
642,307	1744,36
642,5	1975,78
642,694	1758,69
642,887	1633,77
643,08	1662,44
643,273	1433,07
643,467	1277,42
643,66	1310,19
643,853	1172,97
644,046	1201,65
644,239	1183,21
644,432	1396,2
644,626	1664,49
644,819	2221,53
645,012	2549,21
645,205	2977,23
645,398	3360,2
645,591	3360,2
645,784	3210,7
645,977	3048,91
646,17	2878,93
646,363	2606,55
646,556	2442,71
646,749	2385,37
646,942	2158,05
647,135	2145,76
647,328	1689,06
647,521	1631,72
647,714	1451,5
647,907	1418,73
648,099	1218,03
648,292	1203,69
648,485	1091,06
648,678	890,35
648,871	843,25
649,064	830,96
649,256	591,35
649,449	544,25
649,642	593,4
649,835	599,54
650,027	560,63
650,22	681,46
650,413	642,55
650,605	640,5
650,798	626,17
650,991	577,02
651,183	615,93
651,376	615,93
651,568	620,02
651,761	437,75
651,954	527,86
652,146	503,29
652,339	534,01
652,531	581,11
652,724	443,9
652,916	480,76
653,109	441,85
653,301	650,74
653,494	558,58
653,686	495,1
653,879	579,06
654,071	550,39
654,263	564,73
654,456	409,08
654,648	636,41
654,84	550,39
655,033	609,78
655,225	863,73
655,417	671,22
655,61	1013,23
655,802	1089,01
655,994	1271,28
656,186	1089,01
656,379	1168,88
656,571	1056,24
656,763	1035,76
656,955	1009,14
657,148	1025,52
657,34	1017,33
657,532	888,31
657,724	894,45
657,916	837,11
658,108	882,16
658,3	744,95
658,492	724,47
658,684	585,21
658,876	656,89
659,068	390,65
659,26	419,32
659,452	411,13
659,644	505,34
659,836	548,34
660,028	456,19
660,22	351,74
660,412	343,55
660,604	318,97
660,796	361,98
660,988	478,71
661,18	374,27
661,372	396,79
661,563	353,79
661,755	226,81
661,947	300,54
662,139	308,73
662,331	314,88
662,522	288,25
662,714	204,28
662,906	271,87
663,097	368,12
663,289	259,58
663,481	132,61
663,673	314,88
663,864	292,35
664,056	417,27
664,247	316,92
664,439	574,97
664,631	636,41
664,822	738,8
665,014	552,44
665,205	650,74
665,397	644,6
665,588	687,61
665,78	560,63
665,971	599,54
666,163	640,5
666,354	658,93
666,546	478,71
666,737	380,41
666,929	439,8
667,12	388,6
667,311	435,71
667,503	439,8
667,694	400,89
667,885	323,07
668,077	390,65
668,268	222,72
668,459	376,31
668,651	337,4
668,842	478,71
669,033	581,11
669,224	554,49
669,416	796,15
669,607	747
669,798	675,32
669,989	910,83
670,18	732,66
670,371	781,81
670,563	665,08
670,754	755,19
670,945	757,24
671,136	706,04
671,327	562,68
671,518	585,21
671,709	626,17
671,9	605,69
672,091	552,44
672,282	409,08
672,473	429,56
672,664	376,31
672,855	421,37
673,046	384,51
673,237	452,09
673,428	437,75
673,619	421,37
673,809	425,47
674	476,66
674,191	454,14
674,382	378,36
674,573	411,13
674,764	413,18
674,954	423,42
675,145	349,69
675,336	347,64
675,527	294,4
675,717	296,44
675,908	280,06
676,099	251,39
676,289	341,5
676,48	146,94
676,671	239,1
676,861	310,78
677,052	239,1
677,243	243,2
677,433	253,44
677,624	409,08
677,814	308,73
678,005	265,72
678,195	347,64
678,386	237,05
678,576	306,68
678,767	132,61
678,957	210,43
679,148	345,59
679,338	386,55
679,529	304,64
679,719	259,58
679,909	345,59
680,1	333,31
680,29	376,31
680,481	388,6
680,671	597,49
680,861	697,85
681,052	695,8
681,242	558,58
681,432	742,9
681,622	650,74
681,813	560,63
682,003	642,55
682,193	523,77
682,383	634,36
682,573	564,73
682,764	523,77
682,954	558,58
683,144	624,12
683,334	466,42
683,524	462,33
683,714	478,71
683,904	529,91
684,094	370,17
684,284	454,14
684,474	456,19
684,664	464,38
684,854	441,85
685,044	361,98
685,234	392,7
685,424	343,55
685,614	237,05
685,804	425,47
685,994	325,12
686,184	378,36
686,374	392,7
686,564	372,22
686,753	431,61
686,943	288,25
687,133	372,22
687,323	288,25
687,513	357,88
687,702	251,39
687,892	323,07
688,082	417,27
688,272	370,17
688,461	343,55
688,651	499,19
688,841	396,79
689,03	214,52
689,22	284,16
689,41	570,87
689,599	792,05
689,789	925,17
689,979	1361,39
690,168	1506,79
690,358	1619,43
690,547	1652,2
690,737	1621,48
690,926	1594,86
691,116	1363,44
691,305	1437,16
691,495	1228,27
691,684	1041,9
691,874	1017,33
692,063	966,13
692,252	992,75
692,442	888,31
692,631	691,7
692,82	624,12
693,01	605,69
693,199	558,58
693,388	515,58
693,578	380,41
693,767	411,13
693,956	413,18
694,146	376,31
694,335	374,27
694,524	361,98
694,713	427,51
694,902	269,82
695,092	327,16
695,281	394,75
695,47	427,51
695,659	194,05
695,848	407,03
696,037	306,68
696,226	400,89
696,415	394,75
696,604	468,47
696,793	300,54
696,982	323,07
697,171	550,39
697,36	343,55
697,549	345,59
697,738	241,15
697,927	361,98
698,116	321,02
698,305	468,47
698,494	411,13
698,683	337,4
698,872	486,9
699,061	407,03
699,25	321,02
699,438	351,74
699,627	290,3
699,816	476,66
700,005	247,29
700,193	321,02
700,382	452,09
700,571	304,64
700,76	423,42
700,948	388,6
701,137	364,03
701,326	398,84
701,514	290,3
701,703	402,94
701,892	312,83
702,08	468,47
702,269	235
702,457	198,14
702,646	312,83
702,834	411,13
703,023	423,42
703,212	402,94
703,4	282,11
703,589	265,72
703,777	224,76
703,965	230,91
704,154	267,77
704,342	173,57
704,531	261,63
704,719	366,07
704,907	394,75
705,096	196,09
705,284	216,57
705,472	366,07
705,661	361,98
705,849	339,45
706,037	370,17
706,226	306,68
706,414	349,69
706,602	290,3
706,79	300,54
706,979	181,76
707,167	218,62
707,355	194,05
707,543	361,98
707,731	265,72
707,919	235
708,107	157,18
708,296	185,85
708,484	132,61
708,672	278,01
708,86	255,48
709,048	181,76
709,236	161,28
709,424	298,49
709,612	288,25
709,8	165,37
709,988	241,15
710,176	337,4
710,364	306,68
710,551	181,76
710,739	241,15
710,927	189,95
711,115	232,96
711,303	261,63
711,491	323,07
711,679	226,81
711,866	282,11
712,054	230,91
712,242	243,2
712,43	243,2
712,617	224,76
712,805	273,92
712,993	169,47
713,181	114,17
713,368	261,63
713,556	194,05
713,744	206,33
713,931	386,55
714,119	345,59
714,306	173,57
714,494	304,64
714,682	204,28
714,869	183,81
715,057	292,35
715,244	161,28
715,432	280,06
715,619	148,99
715,807	173,57
715,994	181,76
716,182	237,05
716,369	232,96
716,556	247,29
716,744	114,17
716,931	73,21
717,119	235
717,306	171,52
717,493	257,53
717,681	183,81
717,868	116,22
718,055	243,2
718,242	157,18
718,43	249,34
718,617	208,38
718,804	224,76
718,991	194,05
719,179	200,19
719,366	271,87
719,553	228,86
719,74	85,5
719,927	261,63
720,114	155,13
720,301	169,47
720,488	148,99
720,676	159,23
720,863	333,31
721,05	413,18
721,237	384,51
721,424	650,74
721,611	939,51
721,798	1029,62
721,985	1347,05
722,172	1730,02
722,358	1836,52
722,545	2067,94
722,732	1770,98
722,919	1887,72
723,106	1666,53
723,293	1508,84
723,48	1469,93
723,667	1289,71
723,853	1342,96
724,04	1240,56
724,227	1191,41
724,414	1005,04
724,6	1019,38
724,787	964,08
724,974	953,84
725,161	669,17
725,347	620,02
725,534	589,3
725,72	577,02
725,907	564,73
726,094	552,44
726,28	413,18
726,467	454,14
726,653	484,86
726,84	587,26
727,027	603,64
727,213	499,19
727,4	507,38
727,586	447,99
727,773	828,92
727,959	955,89
728,145	1152,49
728,332	1291,76
728,518	1349,1
728,705	1582,57
728,891	1541,61
729,077	1525,22
729,264	1338,86
729,45	1308,14
729,636	1213,93
729,823	1252,84
730,009	1238,51
730,195	1015,28
730,382	1037,81
730,568	919,03
730,754	929,27
730,94	798,2
731,126	806,39
731,313	812,53
731,499	620,02
731,685	648,69
731,871	493,05
732,057	587,26
732,243	634,36
732,429	601,59
732,615	722,42
732,801	552,44
732,987	493,05
733,173	534,01
733,359	464,38
733,545	577,02
733,731	550,39
733,917	638,45
734,103	585,21
734,289	507,38
734,475	435,71
734,661	644,6
734,847	513,53
735,033	466,42
735,219	540,15
735,404	470,52
735,59	495,1
735,776	583,16
735,962	572,92
736,148	505,34
736,333	636,41
736,519	583,16
736,705	611,83
736,89	568,82
737,076	574,97
737,262	564,73
737,447	534,01
737,633	525,82
737,819	609,78
738,004	501,24
738,19	626,17
738,375	556,54
738,561	529,91
738,747	570,87
738,932	511,48
739,118	714,23
739,303	613,88
739,489	681,46
739,674	529,91
739,859	519,67
740,045	701,94
740,23	601,59
740,416	359,93
740,601	538,1
740,786	519,67
740,972	544,25
741,157	529,91
741,342	540,15
741,528	531,96
741,713	837,11
741,898	853,49
742,084	916,98
742,269	1015,28
742,454	1162,73
742,639	1302
742,824	1103,34
743,01	1148,4
743,195	1218,03
743,38	1023,47
743,565	955,89
743,75	1070,58
743,935	1011,18
744,12	978,42
744,305	861,68
744,49	835,06
744,675	802,29
744,86	851,44
745,045	781,81
745,23	777,72
745,415	726,52
745,6	878,07
745,785	648,69
745,97	810,48
746,155	747
746,34	873,97
746,525	648,69
746,71	763,38
746,895	529,91
747,079	652,79
747,264	730,61
747,449	849,4
747,634	966,13
747,819	1213,93
748,003	1320,43
748,188	1586,66
748,373	1887,72
748,557	2199,01
748,742	2377,18
748,927	2547,16
749,111	2412
749,296	2393,56
749,481	2385,37
749,665	2219,49
749,85	1969,63
750,034	2053,6
750,219	1940,96
750,404	1775,08
750,588	1707,49
750,773	1484,27
750,957	1426,92
751,141	1312,24
751,326	1392,11
751,51	1215,98
751,695	1103,34
751,879	1074,67
752,064	1156,59
752,248	962,03
752,432	1187,31
752,617	986,61
752,801	996,85
752,985	853,49
753,17	1025,52
753,354	822,77
753,538	1021,42
753,722	935,41
753,907	968,18
754,091	890,35
754,275	1070,58
754,459	943,6
754,643	1041,9
754,828	1152,49
755,012	1291,76
755,196	1109,49
755,38	1345
755,564	1377,77
755,748	1607,14
755,932	1730,02
756,116	1770,98
756,3	1916,39
756,484	2010,59
756,668	2209,25
756,852	2280,93
757,036	2645,46
757,22	3130,83
757,404	5281,2
757,588	13690,16
757,772	37180,36
757,956	63607,35
758,14	63607,35
758,323	63607,35
758,507	63607,35
758,691	63607,35
758,875	63607,35
759,059	63607,35
759,242	63607,35
759,426	63607,35
759,61	63607,35
759,794	63607,35
759,977	63607,35
760,161	63607,35
760,345	63607,35
760,528	63607,35
760,712	63607,35
760,895	63607,35
761,079	63607,35
761,263	63607,35
761,446	63607,35
761,63	63607,35
761,813	63607,35
761,997	63607,35
762,18	63607,35
762,364	63607,35
762,547	63607,35
762,731	63607,35
762,914	63607,35
763,098	63607,35
763,281	63607,35
763,464	63607,35
763,648	63607,35
763,831	63607,35
764,015	63607,35
764,198	63607,35
764,381	63607,35
764,564	63607,35
764,748	63607,35
764,931	63607,35
765,114	63607,35
765,297	63607,35
765,481	63607,35
765,664	63607,35
765,847	63607,35
766,03	63607,35
766,213	63607,35
766,397	63607,35
766,58	63607,35
766,763	63607,35
766,946	63607,35
767,129	63607,35
767,312	63607,35
767,495	63607,35
767,678	63607,35
767,861	63607,35
768,044	63607,35
768,227	63607,35
768,41	63607,35
768,593	63607,35
768,776	63607,35
768,959	63607,35
769,142	63607,35
769,324	63607,35
769,507	63607,35
769,69	63607,35
769,873	63607,35
770,056	63607,35
770,239	63607,35
770,421	63607,35
770,604	63607,35
770,787	63607,35
770,97	63607,35
771,152	63607,35
771,335	63607,35
771,518	63607,35
771,7	63607,35
771,883	63607,35
772,066	63607,35
772,248	63607,35
772,431	63607,35
772,613	63607,35
772,796	63607,35
772,978	63607,35
773,161	63607,35
773,343	63607,35
773,526	63607,35
773,708	63607,35
773,891	63607,35
774,073	63607,35
774,256	63607,35
774,438	63607,35
774,621	63607,35
774,803	63607,35
774,985	63607,35
775,168	63607,35
775,35	63607,35
775,532	63607,35
775,715	63607,35
775,897	63607,35
776,079	63607,35
776,261	63607,35
776,444	63607,35
776,626	63607,35
776,808	63607,35
776,99	63607,35
777,173	63607,35
777,355	63607,35
777,537	63607,35
777,719	63607,35
777,901	63607,35
778,083	63607,35
778,265	63607,35
778,447	63607,35
778,629	63607,35
778,811	63607,35
778,993	63607,35
779,175	63607,35
779,357	63607,35
779,539	63607,35
779,721	63607,35
779,903	63607,35
780,085	63607,35
780,267	63607,35
780,449	63607,35
780,631	63607,35
780,812	63607,35
780,994	63607,35
781,176	63607,35
781,358	63607,35
781,54	63607,35
781,721	63607,35
781,903	63607,35
782,085	63607,35
782,267	63607,35
782,448	63607,35
782,63	63607,35
782,812	63607,35
782,993	63607,35
783,175	63607,35
783,357	63607,35
783,538	63607,35
783,72	63607,35
783,901	63607,35
784,083	63607,35
784,264	63607,35
784,446	63607,35
784,627	63607,35
784,809	63607,35
784,99	63607,35
785,172	63607,35
785,353	63607,35
785,535	63607,35
785,716	63607,35
785,897	63607,35
786,079	63607,35
786,26	63607,35
786,441	63607,35
786,623	63607,35
786,804	63607,35
786,985	63607,35
787,167	63607,35
787,348	63607,35
787,529	63607,35
787,71	63607,35
787,891	63607,35
788,073	63607,35
788,254	63607,35
788,435	63607,35
788,616	48247,58
788,797	41638,79
788,978	4699,58
789,159	3679,69
789,34	2891,22
789,522	2350,56
789,703	1986,02
789,884	1893,86
790,065	1861,09
790,246	2076,13
790,427	2061,79
790,607	2704,85
790,788	3292,62
790,969	3691,98
791,15	4218,3
791,331	4257,22
791,512	4570,55
791,693	4619,71
791,874	4304,32
792,054	4767,16
792,235	4818,36
792,416	4875,7
792,597	4881,85
792,778	5084,59
792,958	5113,27
793,139	4588,99
793,32	4251,07
793,5	3816,9
793,681	3634,63
793,862	3210,7
794,042	2883,03
794,223	2536,92
794,404	2239,97
794,584	1914,34
794,765	1766,89
794,945	1684,97
795,126	1654,25
795,306	1562,09
795,487	1265,13
795,667	1273,32
795,848	1134,06
796,028	988,66
796,209	929,27
796,389	1027,57
796,57	880,11
796,75	865,78
796,93	910,83
797,111	765,43
797,291	800,24
797,471	1041,9
797,652	1050,1
797,832	1123,82
798,012	1383,91
798,192	1246,7
798,373	1345
798,553	1328,62
798,733	1228,27
798,913	1107,44
799,093	1172,97
799,274	1254,89
799,454	1191,41
799,634	1109,49
799,814	1117,68
799,994	986,61
800,174	1107,44
800,354	968,18
800,534	953,84
800,714	1050,1
800,894	980,47
801,074	886,26
801,254	959,99
801,434	1318,38
801,614	951,79
801,794	974,32
801,974	2754,01
802,154	1046
802,334	1082,86
802,514	1062,38
802,693	1072,62
802,873	988,66
803,053	1148,4
803,233	1050,1
803,413	1127,92
803,592	1101,3
803,772	1107,44
803,952	1205,74
804,131	1134,06
804,311	1402,35
804,491	1680,87
804,67	2590,17
804,85	5266,86
805,03	11875,66
805,209	22430,89
805,389	35974,11
805,568	47002,42
805,748	55384,75
805,928	60926,56
806,107	63334,97
806,287	61614,68
806,466	58364,55
806,646	50111,24
806,825	44061,54
807,004	37411,78
807,184	31601,69
807,363	27102,31
807,543	23491,74
807,722	20257,99
807,901	18369,77
808,081	16237,83
808,26	14851,36
808,439	13722,93
808,619	13204,79
808,798	11674,96
808,977	11079
809,156	12768,57
809,336	20806,85
809,515	39369,64
809,694	63607,35
809,873	63607,35
810,052	63607,35
810,231	63607,35
810,411	63607,35
810,59	63607,35
810,769	63607,35
810,948	63607,35
811,127	63607,35
811,306	63607,35
811,485	63607,35
811,664	63607,35
811,843	63607,35
812,022	63607,35
812,201	63607,35
812,38	63607,35
812,559	63607,35
812,737	63607,35
812,916	63607,35
813,095	63607,35
813,274	63607,35
813,453	63607,35
813,632	63607,35
813,811	63607,35
813,989	63607,35
814,168	63607,35
814,347	63607,35
814,526	63607,35
814,704	63607,35
814,883	63607,35
815,062	63607,35
815,24	63607,35
815,419	63607,35
815,598	63607,35
815,776	63607,35
815,955	63607,35
816,133	63607,35
816,312	63607,35
816,49	63607,35
816,669	63607,35
816,847	63607,35
817,026	63607,35
817,204	63607,35
817,383	63607,35
817,561	63607,35
817,74	63607,35
817,918	63607,35
818,097	63607,35
818,275	63607,35
818,453	63607,35
818,632	63607,35
818,81	63607,35
818,988	63607,35
819,167	63607,35
819,345	63607,35
819,523	63607,35
819,701	63607,35
819,879	63607,35
820,058	63607,35
820,236	63607,35
820,414	63607,35
820,592	63607,35
820,77	63607,35
820,948	63607,35
821,127	63607,35
821,305	63607,35
821,483	63607,35
821,661	63607,35
821,839	63607,35
822,017	63607,35
822,195	63607,35
822,373	63607,35
822,551	63607,35
822,729	63607,35
822,907	63607,35
823,085	63607,35
823,262	63607,35
823,44	63607,35
823,618	63607,35
823,796	63607,35
823,974	63607,35
824,152	63607,35
824,329	63607,35
824,507	63607,35
824,685	63607,35
824,863	63607,35
825,04	63607,35
825,218	63607,35
825,396	63607,35
825,574	63607,35
825,751	63607,35
825,929	63607,35
826,107	63607,35
826,284	63607,35
826,462	63607,35
826,639	63607,35
826,817	63607,35
826,994	63607,35
827,172	63607,35
827,349	63607,35
827,527	63607,35
827,704	63607,35
827,882	63607,35
828,059	63607,35
828,237	63607,35
828,414	63607,35
828,591	63607,35
828,769	63607,35
828,946	63607,35
829,124	63607,35
829,301	63607,35
829,478	63607,35
829,655	63607,35
829,833	63607,35
830,01	63607,35
830,187	63607,35
830,364	63607,35
830,542	63607,35
830,719	63607,35
830,896	63607,35
831,073	63607,35
831,25	63607,35
831,427	63607,35
831,604	63607,35
831,782	63607,35
831,959	63607,35
832,136	63607,35
832,313	63607,35
832,49	63607,35
832,667	63607,35
832,844	63607,35
833,021	63607,35
833,198	63607,35
833,374	63607,35
833,551	63607,35
833,728	63607,35
833,905	63607,35
834,082	63607,35
834,259	63607,35
834,436	63607,35
834,612	63607,35
834,789	63607,35
834,966	63607,35
835,143	63607,35
835,319	63607,35
835,496	63607,35
835,673	63607,35
835,85	63607,35
836,026	63607,35
836,203	63607,35
836,38	63607,35
836,556	63607,35
836,733	63607,35
836,909	63607,35
837,086	63607,35
837,262	63607,35
837,439	63607,35
837,616	63607,35
837,792	63607,35
837,968	63607,35
838,145	63607,35
838,321	63607,35
838,498	63607,35
838,674	63607,35
838,851	63607,35
839,027	63607,35
839,203	63607,35
839,38	63607,35
839,556	63607,35
839,732	63607,35
839,909	63607,35
840,085	63607,35
840,261	63607,35
840,437	63607,35
840,614	63607,35
840,79	63607,35
840,966	63607,35
841,142	63607,35
841,318	63607,35
841,494	63607,35
841,671	63607,35
841,847	63607,35
842,023	63607,35
842,199	63607,35
842,375	63607,35
842,551	63607,35
842,727	63607,35
842,903	63607,35
843,079	63607,35
843,255	63607,35
843,431	63607,35
843,607	63607,35
843,783	63607,35
843,959	13767,98
844,134	16614,66
844,31	628,21
844,486	433,66
844,662	345,59
844,838	468,47
845,013	540,15
845,189	501,24
845,365	380,41
845,541	378,36
845,716	269,82
845,892	501,24
846,068	310,78
846,244	226,81
846,419	364,03
846,595	204,28
846,77	286,2
846,946	353,79
847,122	304,64
847,297	255,48
847,473	425,47
847,648	216,57
847,824	321,02
847,999	212,48
848,175	237,05
848,35	361,98
848,526	425,47
848,701	386,55
848,876	398,84
849,052	402,94
849,227	331,26
849,403	673,27
849,578	1486,31
849,753	3558,86
849,929	7071,12
850,104	12315,97
850,279	18611,43
850,454	24923,27
850,63	29084,74
850,805	31433,76
850,98	31884,31
851,155	30651,44
851,33	26801,26
851,505	23479,45
851,681	19967,18
851,856	17698,03
852,031	15965,45
852,206	14920,99
852,381	13602,1
852,556	12514,63
852,731	11447,63
852,906	10911,07
853,081	10089,83
853,256	9317,75
853,431	8891,77
853,606	8052,1
853,781	7357,84
853,956	6948,25
854,131	6135,2
854,305	5483,95
854,48	4543,93
854,655	3503,56
854,83	2813,4
855,005	2180,57
855,18	1443,31
855,354	1119,73
855,529	904,69
855,704	665,08
855,879	595,45
856,053	443,9
856,228	443,9
856,403	361,98
856,577	501,24
856,752	376,31
856,926	347,64
857,101	280,06
857,276	247,29
857,45	361,98
857,625	341,5
857,799	409,08
857,974	280,06
858,148	105,98
858,323	271,87
858,497	280,06
858,672	148,99
858,846	202,24
859,02	376,31
859,195	208,38
859,369	228,86
859,543	296,44
859,718	265,72
859,892	286,2
860,066	335,35
860,241	226,81
860,415	210,43
860,589	247,29
860,763	253,44
860,938	222,72
861,112	298,49
861,286	173,57
861,46	267,77
861,634	226,81
861,808	259,58
861,982	204,28
862,157	212,48
862,331	177,66
862,505	142,85
862,679	161,28
862,853	273,92
863,027	202,24
863,201	390,65
863,375	181,76
863,549	253,44
863,722	275,96
863,896	355,83
864,07	140,8
864,244	175,61
864,418	341,5
864,592	200,19
864,766	222,72
864,939	235
865,113	255,48
865,287	312,83
865,461	175,61
865,634	214,52
865,808	173,57
865,982	232,96
866,156	159,23
866,329	108,03
866,503	241,15
866,676	316,92
866,85	265,72
867,024	247,29
867,197	337,4
867,371	263,68
867,544	245,24
867,718	126,46
867,891	304,64
868,065	148,99
868,238	208,38
868,412	425,47
868,585	265,72
868,759	192
868,932	216,57
869,105	181,76
869,279	280,06
869,452	210,43
869,625	349,69
869,799	228,86
869,972	142,85
870,145	275,96
870,319	366,07
870,492	237,05
870,665	275,96
870,838	216,57
871,011	110,08
871,185	282,11
871,358	220,67
871,531	353,79
871,704	200,19
871,877	265,72
872,05	206,33
872,223	204,28
872,396	400,89
872,569	417,27
872,742	202,24
872,915	359,93
873,088	323,07
873,261	228,86
873,434	437,75
873,607	282,11
873,78	464,38
873,953	228,86
874,126	302,59
874,299	517,62
874,471	364,03
874,644	372,22
874,817	523,77
874,99	605,69
875,163	341,5
875,335	456,19
875,508	468,47
875,681	812,53
875,853	687,61
876,026	1177,07
876,199	2082,27
876,371	4042,18
876,544	8652,16
876,717	16268,55
876,889	27589,72
877,062	41272,2
877,234	53799,63
877,407	63361,59
877,579	63607,35
877,752	63607,35
877,924	63607,35
878,097	63607,35
878,269	63607,35
878,442	63607,35
878,614	63607,35
878,786	63607,35
878,959	63607,35
879,131	63607,35
879,303	63607,35
879,476	63607,35
879,648	56873,63
879,82	45224,78
879,993	40973,2
880,165	37901,25
880,337	35623,9
880,509	33137,67
880,681	31667,23
880,854	29400,13
881,026	28077,14
881,198	25257,09
881,37	22148,27
881,542	18877,66
881,714	15443,22
881,886	12084,55
882,058	8998,26
882,23	6596
882,402	4894,13
882,574	3487,18
882,746	2530,78
882,918	1926,63
883,09	1478,12
883,262	1213,93
883,434	1021,42
883,606	751,09
883,778	673,27
883,95	734,71
884,122	613,88
884,293	560,63
884,465	427,51
884,637	443,9
884,809	427,51
884,98	398,84
885,152	458,23
885,324	468,47
885,496	302,59
885,667	323,07
885,839	321,02
886,011	390,65
886,182	357,88
886,354	343,55
886,525	370,17
886,697	312,83
886,869	198,14
887,04	304,64
887,212	347,64
887,383	409,08
887,555	353,79
887,726	206,33
887,897	230,91
888,069	226,81
888,24	378,36
888,412	222,72
888,583	261,63
888,754	263,68
888,926	216,57
889,097	253,44
889,268	241,15
889,44	329,21
889,611	165,37
889,782	327,16
889,953	222,72
890,125	361,98
890,296	259,58
890,467	325,12
890,638	263,68
890,809	355,83
890,98	302,59
891,151	486,9
891,323	720,37
891,494	1099,25
891,665	2053,6
891,836	3737,03
892,007	6890,9
892,178	10997,08
892,349	16887,04
892,52	22828,2
892,691	29797,43
892,862	35367,91
893,032	41739,14
893,203	44825,43
893,374	47131,44
893,545	47364,91
893,716	46644,02
893,887	45380,43
894,057	42634,1
894,228	40211,35
894,399	38263,74
894,57	36027,35
894,74	33811,45
894,911	31366,18
895,082	29774,91
895,253	27776,09
895,423	26293,36
895,594	24769,67
895,764	23479,45
895,935	21351,61
896,106	20645,06
896,276	19035,36
896,447	18058,48
896,617	16231,69
896,788	14705,95
896,958	12299,59
897,129	10190,18
897,299	7900,55
897,47	6174,11
897,64	4658,62
897,81	3253,71
897,981	2518,49
898,151	1746,41
898,322	1304,04
898,492	1103,34
898,662	706,04
898,832	710,13
899,003	583,16
899,173	646,65
899,343	425,47
899,513	368,12
