Data from krypton_USB4F104151__0__11-01-33-910.txt Node

Date: Wed Apr 15 11:01:33 EDT 2026
User: LaboPhy
Spectrometer: USB4F10415
Trigger mode: 4
Integration Time (sec): 1,000000E-1
Scans to average: 1
Electric dark correction enabled: true
Nonlinearity correction enabled: false
Boxcar width: 0
XAxis mode: Wavelengths
Number of Pixels in Spectrum: 3648
>>>>>Begin Spectral Data<<<<<
178,204	-430,59
178,424	-430,59
178,644	-430,59
178,864	-446,97
179,084	-395,77
179,304	-20,99
179,524	1,54
179,744	-35,33
179,964	81,41
180,184	22,02
180,404	19,97
180,624	-25,09
180,844	3,58
181,064	-84,48
181,283	-2,56
181,503	-6,66
181,723	46,59
181,943	-12,8
182,163	290,3
182,383	-107,01
182,602	24,06
182,822	216,57
183,042	77,31
183,262	-51,71
183,482	-66,05
183,701	75,26
183,921	112,13
184,141	-18,94
184,361	118,27
184,58	132,61
184,8	65,02
185,02	-12,8
185,239	97,79
185,459	136,7
185,679	157,18
185,898	-123,39
186,118	110,08
186,338	89,6
186,557	159,23
186,777	-6,66
186,997	44,54
187,216	140,8
187,436	292,35
187,655	146,94
187,875	101,89
188,095	32,26
188,314	142,85
188,534	140,8
188,753	-0,51
188,973	171,52
189,192	185,85
189,412	24,06
189,631	26,11
189,851	81,41
190,07	200,19
190,29	-45,57
190,509	46,59
190,729	9,73
190,948	200,19
191,168	235
191,387	60,93
191,607	99,84
191,826	144,89
192,045	54,78
192,265	-4,61
192,484	40,45
192,704	83,45
192,923	-41,47
193,142	169,47
193,362	134,65
193,581	187,9
193,8	48,64
194,02	105,98
194,239	36,35
194,458	83,45
194,678	65,02
194,897	50,69
195,116	114,17
195,335	120,32
195,555	62,98
195,774	30,21
195,993	183,81
196,212	85,5
196,432	-8,7
196,651	24,06
196,87	28,16
197,089	208,38
197,308	81,41
197,528	97,79
197,747	-49,66
197,966	48,64
198,185	114,17
198,404	-72,19
198,623	216,57
198,842	146,94
199,062	138,75
199,281	22,02
199,5	-16,9
199,719	202,24
199,938	65,02
200,157	32,26
200,376	157,18
200,595	153,09
200,814	22,02
201,033	7,68
201,252	153,09
201,471	97,79
201,69	157,18
201,909	42,5
202,128	77,31
202,347	153,09
202,566	-45,57
202,785	-68,09
203,004	30,21
203,223	308,73
203,442	58,88
203,661	-16,9
203,879	97,79
204,098	177,66
204,317	5,63
204,536	83,45
204,755	77,31
204,974	120,32
205,193	52,74
205,411	134,65
205,63	185,85
205,849	165,37
206,068	-16,9
206,287	-20,99
206,505	161,28
206,724	85,5
206,943	93,69
207,162	-4,61
207,381	146,94
207,599	85,5
207,818	13,82
208,037	13,82
208,255	56,83
208,474	36,35
208,693	120,32
208,911	-10,75
209,13	181,76
209,349	65,02
209,567	163,33
209,786	32,26
210,005	134,65
210,223	120,32
210,442	-145,92
210,661	62,98
210,879	54,78
211,098	40,45
211,316	-10,75
211,535	-4,61
211,753	44,54
211,972	62,98
212,191	-4,61
212,409	42,5
212,628	105,98
212,846	58,88
213,065	110,08
213,283	126,46
213,502	54,78
213,72	85,5
213,938	36,35
214,157	-14,85
214,375	110,08
214,594	118,27
214,812	148,99
215,031	-16,9
215,249	50,69
215,467	62,98
215,686	93,69
215,904	52,74
216,122	24,06
216,341	263,68
216,559	99,84
216,778	132,61
216,996	110,08
217,214	77,31
217,432	46,59
217,651	-70,14
217,869	103,93
218,087	91,65
218,306	15,87
218,524	42,5
218,742	85,5
218,96	85,5
219,179	-74,24
219,397	-43,52
219,615	269,82
219,833	110,08
220,051	-0,51
220,27	118,27
220,488	175,61
220,706	89,6
220,924	-37,38
221,142	71,17
221,36	110,08
221,578	58,88
221,796	-51,71
222,015	40,45
222,233	52,74
222,451	241,15
222,669	11,78
222,887	120,32
223,105	24,06
223,323	87,55
223,541	48,64
223,759	89,6
223,977	48,64
224,195	151,04
224,413	54,78
224,631	11,78
224,849	65,02
225,067	192
225,285	19,97
225,503	-49,66
225,721	-39,42
225,939	124,41
226,157	-55,81
226,375	159,23
226,592	26,11
226,81	38,4
227,028	144,89
227,246	134,65
227,464	75,26
227,682	89,6
227,9	54,78
228,117	99,84
228,335	87,55
228,553	40,45
228,771	65,02
228,989	-12,8
229,206	126,46
229,424	32,26
229,642	54,78
229,86	11,78
230,077	79,36
230,295	73,21
230,513	142,85
230,731	79,36
230,948	237,05
231,166	216,57
231,384	67,07
231,601	-20,99
231,819	202,24
232,037	-31,23
232,254	-68,09
232,472	54,78
232,689	28,16
232,907	122,37
233,125	-4,61
233,342	-29,18
233,56	44,54
233,777	17,92
233,995	19,97
234,213	38,4
234,43	44,54
234,648	52,74
234,865	60,93
235,083	105,98
235,3	34,3
235,518	126,46
235,735	159,23
235,953	81,41
236,17	81,41
236,388	69,12
236,605	62,98
236,822	151,04
237,04	136,7
237,257	95,74
237,475	-72,19
237,692	69,12
237,909	118,27
238,127	-0,51
238,344	56,83
238,562	40,45
238,779	1,54
238,996	-39,42
239,214	67,07
239,431	87,55
239,648	15,87
239,865	108,03
240,083	81,41
240,3	-20,99
240,517	58,88
240,735	75,26
240,952	142,85
241,169	52,74
241,386	108,03
241,603	36,35
241,821	-100,86
242,038	108,03
242,255	161,28
242,472	30,21
242,689	60,93
242,907	69,12
243,124	120,32
243,341	67,07
243,558	-47,62
243,775	-2,56
243,992	3,58
244,209	101,89
244,426	200,19
244,643	19,97
244,86	-18,94
245,078	136,7
245,295	42,5
245,512	22,02
245,729	-33,28
245,946	118,27
246,163	48,64
246,38	7,68
246,597	22,02
246,814	97,79
247,031	93,69
247,248	28,16
247,464	112,13
247,681	103,93
247,898	62,98
248,115	69,12
248,332	-29,18
248,549	224,76
248,766	210,43
248,983	103,93
249,2	97,79
249,417	148,99
249,633	9,73
249,85	99,84
250,067	48,64
250,284	48,64
250,501	79,36
250,717	54,78
250,934	-16,9
251,151	71,17
251,368	-4,61
251,585	69,12
251,801	122,37
252,018	-12,8
252,235	226,81
252,451	-27,14
252,668	79,36
252,885	153,09
253,102	48,64
253,318	28,16
253,535	7,68
253,752	-20,99
253,968	38,4
254,185	-76,29
254,401	69,12
254,618	38,4
254,835	-8,7
255,051	198,14
255,268	52,74
255,484	65,02
255,701	136,7
255,917	-8,7
256,134	1,54
256,351	77,31
256,567	-31,23
256,784	-4,61
257	-49,66
257,217	126,46
257,433	85,5
257,65	36,35
257,866	214,52
258,082	34,3
258,299	-37,38
258,515	-27,14
258,732	73,21
258,948	-76,29
259,165	1,54
259,381	-37,38
259,597	83,45
259,814	38,4
260,03	-20,99
260,246	-8,7
260,463	114,17
260,679	298,49
260,895	7,68
261,112	73,21
261,328	56,83
261,544	-20,99
261,761	155,13
261,977	-33,28
262,193	-111,1
262,409	77,31
262,626	124,41
262,842	50,69
263,058	22,02
263,274	151,04
263,49	85,5
263,707	93,69
263,923	77,31
264,139	-18,94
264,355	126,46
264,571	151,04
264,787	108,03
265,004	128,51
265,22	3,58
265,436	-29,18
265,652	48,64
265,868	50,69
266,084	-39,42
266,3	110,08
266,516	-18,94
266,732	48,64
266,948	48,64
267,164	-4,61
267,38	157,18
267,596	73,21
267,812	130,56
268,028	85,5
268,244	5,63
268,46	97,79
268,676	-37,38
268,892	77,31
269,108	-16,9
269,324	-86,53
269,54	52,74
269,756	58,88
269,972	-61,95
270,188	38,4
270,403	-96,77
270,619	44,54
270,835	140,8
271,051	32,26
271,267	-27,14
271,483	26,11
271,698	62,98
271,914	36,35
272,13	22,02
272,346	19,97
272,562	22,02
272,777	171,52
272,993	15,87
273,209	-2,56
273,425	181,76
273,64	-61,95
273,856	79,36
274,072	-64
274,287	48,64
274,503	134,65
274,719	132,61
274,934	-29,18
275,15	-57,86
275,366	118,27
275,581	-66,05
275,797	99,84
276,012	89,6
276,228	22,02
276,444	89,6
276,659	85,5
276,875	13,82
277,09	30,21
277,306	48,64
277,521	103,93
277,737	11,78
277,952	75,26
278,168	169,47
278,383	30,21
278,599	122,37
278,814	93,69
279,03	9,73
279,245	171,52
279,461	62,98
279,676	155,13
279,892	-84,48
280,107	-90,62
280,322	-29,18
280,538	114,17
280,753	-12,8
280,969	169,47
281,184	71,17
281,399	235
281,615	46,59
281,83	144,89
282,045	-74,24
282,26	-27,14
282,476	-2,56
282,691	52,74
282,906	140,8
283,122	116,22
283,337	22,02
283,552	116,22
283,767	7,68
283,983	75,26
284,198	28,16
284,413	9,73
284,628	-61,95
284,843	52,74
285,058	95,74
285,274	-8,7
285,489	-16,9
285,704	114,17
285,919	-4,61
286,134	65,02
286,349	19,97
286,564	60,93
286,779	177,66
286,995	62,98
287,21	-66,05
287,425	103,93
287,64	11,78
287,855	89,6
288,07	-90,62
288,285	103,93
288,5	169,47
288,715	134,65
288,93	-12,8
289,145	44,54
289,36	130,56
289,575	54,78
289,79	171,52
290,004	44,54
290,219	69,12
290,434	-33,28
290,649	30,21
290,864	13,82
291,079	7,68
291,294	19,97
291,509	185,85
291,724	19,97
291,938	36,35
292,153	69,12
292,368	22,02
292,583	116,22
292,798	101,89
293,012	110,08
293,227	122,37
293,442	97,79
293,657	124,41
293,871	169,47
294,086	69,12
294,301	140,8
294,516	134,65
294,73	26,11
294,945	13,82
295,16	-8,7
295,374	126,46
295,589	126,46
295,804	11,78
296,018	54,78
296,233	200,19
296,447	118,27
296,662	122,37
296,877	142,85
297,091	95,74
297,306	40,45
297,52	67,07
297,735	99,84
297,949	54,78
298,164	-6,66
298,378	13,82
298,593	24,06
298,807	-20,99
299,022	22,02
299,236	163,33
299,451	36,35
299,665	-8,7
299,88	-41,47
300,094	71,17
300,309	69,12
300,523	69,12
300,737	56,83
300,952	75,26
301,166	110,08
301,381	-18,94
301,595	11,78
301,809	38,4
302,024	-10,75
302,238	83,45
302,452	169,47
302,667	79,36
302,881	175,61
303,095	118,27
303,309	36,35
303,524	34,3
303,738	-41,47
303,952	11,78
304,166	112,13
304,381	-100,86
304,595	120,32
304,809	77,31
305,023	46,59
305,237	146,94
305,452	103,93
305,666	52,74
305,88	151,04
306,094	185,85
306,308	120,32
306,522	136,7
306,736	60,93
306,95	146,94
307,164	91,65
307,379	67,07
307,593	218,62
307,807	257,53
308,021	194,05
308,235	210,43
308,449	103,93
308,663	173,57
308,877	333,31
309,091	224,76
309,305	169,47
309,519	77,31
309,733	243,2
309,947	42,5
310,161	175,61
310,374	155,13
310,588	239,1
310,802	5,63
311,016	52,74
311,23	214,52
311,444	87,55
311,658	132,61
311,872	153,09
312,085	192
312,299	208,38
312,513	257,53
312,727	216,57
312,941	19,97
313,154	151,04
313,368	146,94
313,582	48,64
313,796	144,89
314,009	93,69
314,223	245,24
314,437	110,08
314,651	146,94
314,864	116,22
315,078	101,89
315,292	7,68
315,505	138,75
315,719	163,33
315,933	56,83
316,146	130,56
316,36	52,74
316,573	136,7
316,787	206,33
317,001	93,69
317,214	11,78
317,428	155,13
317,641	32,26
317,855	134,65
318,068	30,21
318,282	99,84
318,495	323,07
318,709	87,55
318,922	9,73
319,136	206,33
319,349	247,29
319,563	85,5
319,776	132,61
319,99	-51,71
320,203	171,52
320,417	81,41
320,63	253,44
320,843	241,15
321,057	159,23
321,27	118,27
321,483	116,22
321,697	306,68
321,91	114,17
322,124	118,27
322,337	128,51
322,55	95,74
322,763	157,18
322,977	124,41
323,19	97,79
323,403	165,37
323,617	140,8
323,83	208,38
324,043	44,54
324,256	108,03
324,469	103,93
324,683	171,52
324,896	48,64
325,109	87,55
325,322	75,26
325,535	95,74
325,748	208,38
325,962	103,93
326,175	93,69
326,388	101,89
326,601	181,76
326,814	46,59
327,027	161,28
327,24	241,15
327,453	-23,04
327,666	175,61
327,879	251,39
328,092	232,96
328,305	122,37
328,518	183,81
328,731	48,64
328,944	110,08
329,157	151,04
329,37	144,89
329,583	251,39
329,796	269,82
330,009	48,64
330,222	138,75
330,435	286,2
330,648	183,81
330,861	124,41
331,073	167,42
331,286	140,8
331,499	99,84
331,712	120,32
331,925	77,31
332,138	114,17
332,35	212,48
332,563	124,41
332,776	286,2
332,989	208,38
333,202	142,85
333,414	146,94
333,627	146,94
333,84	171,52
334,053	302,59
334,265	235
334,478	253,44
334,691	296,44
334,903	333,31
335,116	378,36
335,329	364,03
335,541	503,29
335,754	603,64
335,966	437,75
336,179	488,95
336,392	511,48
336,604	452,09
336,817	628,21
337,029	447,99
337,242	396,79
337,454	460,28
337,667	388,6
337,88	511,48
338,092	269,82
338,305	314,88
338,517	335,35
338,729	308,73
338,942	380,41
339,154	257,53
339,367	128,51
339,579	251,39
339,792	198,14
340,004	249,34
340,217	237,05
340,429	179,71
340,641	83,45
340,854	134,65
341,066	198,14
341,278	355,83
341,491	253,44
341,703	226,81
341,915	144,89
342,128	224,76
342,34	224,76
342,552	110,08
342,764	206,33
342,977	232,96
343,189	224,76
343,401	142,85
343,613	103,93
343,826	210,43
344,038	58,88
344,25	173,57
344,462	110,08
344,674	175,61
344,886	83,45
345,099	112,13
345,311	138,75
345,523	128,51
345,735	1,54
345,947	79,36
346,159	212,48
346,371	103,93
346,583	159,23
346,795	306,68
347,007	204,28
347,219	249,34
347,431	196,09
347,643	306,68
347,855	105,98
348,067	284,16
348,279	69,12
348,491	177,66
348,703	232,96
348,915	245,24
349,127	181,76
349,339	208,38
349,551	177,66
349,763	247,29
349,975	177,66
350,187	316,92
350,399	382,46
350,61	218,62
350,822	216,57
351,034	198,14
351,246	228,86
351,458	300,54
351,669	286,2
351,881	308,73
352,093	314,88
352,305	290,3
352,517	278,01
352,728	361,98
352,94	257,53
353,152	212,48
353,363	138,75
353,575	323,07
353,787	361,98
353,999	273,92
354,21	337,4
354,422	103,93
354,633	235
354,845	241,15
355,057	237,05
355,268	318,97
355,48	335,35
355,692	257,53
355,903	341,5
356,115	192
356,326	192
356,538	501,24
356,749	509,43
356,961	587,26
357,172	409,08
357,384	339,45
357,595	597,49
357,807	427,51
358,018	421,37
358,23	415,23
358,441	521,72
358,653	359,93
358,864	384,51
359,075	357,88
359,287	421,37
359,498	388,6
359,709	404,99
359,921	341,5
360,132	462,33
360,344	271,87
360,555	212,48
360,766	318,97
360,977	243,2
361,189	419,32
361,4	200,19
361,611	349,69
361,823	382,46
362,034	327,16
362,245	167,42
362,456	243,2
362,667	353,79
362,879	204,28
363,09	357,88
363,301	253,44
363,512	237,05
363,723	120,32
363,935	212,48
364,146	357,88
364,357	216,57
364,568	235
364,779	177,66
364,99	382,46
365,201	269,82
365,412	396,79
365,623	296,44
365,834	441,85
366,045	466,42
366,256	419,32
366,467	544,25
366,678	503,29
366,889	572,92
367,1	534,01
367,311	587,26
367,522	519,67
367,733	609,78
367,944	626,17
368,155	581,11
368,366	585,21
368,577	585,21
368,788	536,06
368,999	402,94
369,209	546,3
369,42	546,3
369,631	495,1
369,842	380,41
370,053	447,99
370,264	300,54
370,474	214,52
370,685	284,16
370,896	253,44
371,107	310,78
371,317	232,96
371,528	218,62
371,739	353,79
371,95	337,4
372,16	296,44
372,371	81,41
372,582	224,76
372,792	275,96
373,003	298,49
373,214	308,73
373,424	351,74
373,635	224,76
373,846	364,03
374,056	349,69
374,267	232,96
374,477	306,68
374,688	185,85
374,898	306,68
375,109	251,39
375,319	321,02
375,53	376,31
375,74	361,98
375,951	316,92
376,161	347,64
376,372	427,51
376,582	349,69
376,793	472,57
377,003	267,77
377,214	304,64
377,424	511,48
377,635	429,56
377,845	245,24
378,055	400,89
378,266	359,93
378,476	388,6
378,686	478,71
378,897	323,07
379,107	478,71
379,317	540,15
379,528	458,23
379,738	572,92
379,948	472,57
380,158	624,12
380,369	558,58
380,579	519,67
380,789	531,96
380,999	628,21
381,21	642,55
381,42	773,62
381,63	439,8
381,84	523,77
382,05	568,82
382,261	726,52
382,471	636,41
382,681	560,63
382,891	841,2
383,101	796,15
383,311	628,21
383,521	720,37
383,731	890,35
383,941	1062,38
384,151	1007,09
384,361	933,36
384,571	1125,87
384,781	1111,54
384,991	1318,38
385,201	1371,63
385,411	1168,88
385,621	1277,42
385,831	1322,48
386,041	1207,79
386,251	1254,89
386,461	1289,71
386,671	1349,1
386,881	1312,24
387,091	1258,99
387,301	1353,2
387,511	1291,76
387,72	1314,28
387,93	1287,66
388,14	1043,95
388,35	1097,2
388,56	1129,97
388,769	1041,9
388,979	820,72
389,189	787,96
389,399	687,61
389,609	683,51
389,818	687,61
390,028	503,29
390,238	554,49
390,447	484,86
390,657	488,95
390,867	437,75
391,076	355,83
391,286	464,38
391,496	431,61
391,705	474,62
391,915	591,35
392,125	513,53
392,334	329,21
392,544	620,02
392,753	454,14
392,963	335,35
393,172	384,51
393,382	441,85
393,591	538,1
393,801	384,51
394,01	413,18
394,22	470,52
394,429	386,55
394,639	421,37
394,848	404,99
395,058	351,74
395,267	337,4
395,477	462,33
395,686	466,42
395,895	554,49
396,105	579,06
396,314	390,65
396,524	335,35
396,733	271,87
396,942	382,46
397,152	335,35
397,361	425,47
397,57	339,45
397,78	302,59
397,989	321,02
398,198	521,72
398,407	323,07
398,617	374,27
398,826	392,7
399,035	288,25
399,244	503,29
399,453	345,59
399,663	380,41
399,872	419,32
400,081	175,61
400,29	370,17
400,499	175,61
400,708	337,4
400,917	286,2
401,127	265,72
401,336	267,77
401,545	421,37
401,754	435,71
401,963	429,56
402,172	310,78
402,381	175,61
402,59	310,78
402,799	267,77
403,008	321,02
403,217	327,16
403,426	439,8
403,635	232,96
403,844	339,45
404,053	314,88
404,262	300,54
404,471	585,21
404,68	382,46
404,888	396,79
405,097	392,7
405,306	433,66
405,515	384,51
405,724	294,4
405,933	339,45
406,142	345,59
406,35	458,23
406,559	398,84
406,768	421,37
406,977	544,25
407,185	355,83
407,394	441,85
407,603	298,49
407,812	378,36
408,02	429,56
408,229	359,93
408,438	331,26
408,646	314,88
408,855	341,5
409,064	386,55
409,272	353,79
409,481	396,79
409,69	386,55
409,898	249,34
410,107	415,23
410,315	478,71
410,524	280,06
410,733	402,94
410,941	331,26
411,15	458,23
411,358	433,66
411,567	491
411,775	380,41
411,984	407,03
412,192	374,27
412,401	337,4
412,609	560,63
412,818	536,06
413,026	407,03
413,234	404,99
413,443	370,17
413,651	351,74
413,86	376,31
414,068	472,57
414,276	599,54
414,485	292,35
414,693	626,17
414,901	568,82
415,11	437,75
415,318	437,75
415,526	288,25
415,734	474,62
415,943	462,33
416,151	515,58
416,359	392,7
416,567	413,18
416,776	493,05
416,984	445,95
417,192	617,97
417,4	366,07
417,608	355,83
417,817	374,27
418,025	488,95
418,233	464,38
418,441	269,82
418,649	380,41
418,857	439,8
419,065	464,38
419,273	464,38
419,481	447,99
419,689	519,67
419,897	413,18
420,105	364,03
420,313	472,57
420,521	443,9
420,729	538,1
420,937	351,74
421,145	335,35
421,353	445,95
421,561	464,38
421,769	470,52
421,977	456,19
422,185	456,19
422,393	474,62
422,601	507,38
422,809	431,61
423,017	411,13
423,224	423,42
423,432	472,57
423,64	349,69
423,848	409,08
424,056	316,92
424,263	472,57
424,471	339,45
424,679	480,76
424,887	501,24
425,094	908,79
425,302	1084,91
425,51	1465,83
425,718	2006,5
425,925	2584,02
426,133	3059,15
426,341	4126,15
426,548	4677,05
426,756	5332,4
426,964	5959,08
427,171	6841,75
427,379	7361,94
427,586	7275,92
427,794	7196,05
428,001	6972,82
428,209	6632,86
428,417	5363,12
428,624	4703,67
428,832	3818,95
429,039	2997,71
429,247	2506,2
429,454	2346,46
429,662	2498,01
429,869	2280,93
430,076	2944,47
430,284	3376,59
430,491	4234,69
430,699	5270,96
430,906	6170,02
431,114	6784,41
431,321	8011,14
431,528	8578,43
431,736	9831,79
431,943	10093,93
432,15	10048,87
432,358	9373,04
432,565	8707,45
432,772	7351,7
432,979	6344,1
433,187	5141,94
433,394	4005,31
433,601	3116,5
433,808	2475,48
434,016	1893,86
434,223	1498,6
434,43	1297,9
434,637	1273,32
434,844	1463,79
435,052	1375,72
435,259	1519,08
435,466	1846,76
435,673	2057,7
435,88	2420,19
436,087	2737,62
436,294	3167,7
436,501	3165,65
436,708	3280,33
436,915	3581,39
437,122	3765,7
437,329	3595,72
437,537	3853,77
437,743	3720,65
437,95	3419,6
438,157	3343,82
438,364	3057,11
438,571	2588,12
438,778	2149,86
438,985	1891,81
439,192	1560,04
439,399	1347,05
439,606	1175,02
439,813	1172,97
440,02	1244,65
440,227	1086,96
440,433	974,32
440,64	810,48
440,847	808,44
441,054	691,7
441,261	867,83
441,467	757,24
441,674	546,3
441,881	708,09
442,088	507,38
442,294	632,31
442,501	697,85
442,708	611,83
442,914	540,15
443,121	568,82
443,328	699,89
443,534	923,12
443,741	878,07
443,948	982,51
444,154	1353,2
444,361	1889,76
444,568	2086,37
444,774	2346,46
444,981	2739,67
445,187	3349,96
445,394	3841,48
445,6	3972,55
445,807	4480,44
446,013	4390,33
446,22	4423,1
446,426	4470,2
446,633	4165,06
446,839	4011,46
447,046	3153,36
447,252	2911,7
447,459	2444,76
447,665	1846,76
447,871	1588,71
448,078	1564,14
448,284	1140,21
448,491	1396,2
448,697	1291,76
448,903	1338,86
449,11	1584,62
449,316	1715,69
449,522	1992,16
449,728	2164,19
449,935	2315,74
450,141	2325,98
450,347	2518,49
450,553	2389,47
450,76	2209,25
450,966	2141,66
451,172	1863,14
451,378	1601
451,584	1281,52
451,791	1226,22
451,997	955,89
452,203	699,89
452,409	867,83
452,615	654,84
452,821	501,24
453,027	398,84
453,233	603,64
453,44	359,93
453,646	439,8
453,852	421,37
454,058	278,01
454,264	519,67
454,47	447,99
454,676	407,03
454,882	527,86
455,088	423,42
455,294	400,89
455,5	433,66
455,705	478,71
455,911	427,51
456,117	413,18
456,323	368,12
456,529	486,9
456,735	441,85
456,941	353,79
457,147	478,71
457,352	488,95
457,558	378,36
457,764	486,9
457,97	323,07
458,176	409,08
458,381	402,94
458,587	499,19
458,793	468,47
458,999	245,24
459,204	423,42
459,41	433,66
459,616	392,7
459,821	497,14
460,027	318,97
460,233	527,86
460,438	497,14
460,644	396,79
460,85	556,54
461,055	499,19
461,261	421,37
461,466	337,4
461,672	378,36
461,878	404,99
462,083	544,25
462,289	310,78
462,494	341,5
462,7	433,66
462,905	327,16
463,111	425,47
463,316	437,75
463,522	429,56
463,727	284,16
463,932	431,61
464,138	409,08
464,343	419,32
464,549	413,18
464,754	482,81
464,959	544,25
465,165	376,31
465,37	407,03
465,575	349,69
465,781	480,76
465,986	454,14
466,191	464,38
466,397	529,91
466,602	650,74
466,807	548,34
467,012	613,88
467,218	579,06
467,423	484,86
467,628	470,52
467,833	531,96
468,038	546,3
468,244	445,95
468,449	595,45
468,654	620,02
468,859	636,41
469,064	544,25
469,269	585,21
469,474	628,21
469,679	740,85
469,885	617,97
470,09	536,06
470,295	550,39
470,5	468,47
470,705	759,28
470,91	531,96
471,115	755,19
471,32	497,14
471,525	747
471,73	667,13
471,935	513,53
472,139	605,69
472,344	534,01
472,549	482,81
472,754	568,82
472,959	587,26
473,164	550,39
473,369	536,06
473,574	626,17
473,778	626,17
473,983	595,45
474,188	587,26
474,393	482,81
474,598	529,91
474,802	515,58
475,007	509,43
475,212	648,69
475,417	593,4
475,621	564,73
475,826	351,74
476,031	495,1
476,235	552,44
476,44	552,44
476,645	568,82
476,849	437,75
477,054	534,01
477,259	585,21
477,463	642,55
477,668	708,09
477,872	650,74
478,077	599,54
478,282	519,67
478,486	564,73
478,691	472,57
478,895	519,67
479,1	675,32
479,304	630,26
479,509	542,2
479,713	708,09
479,918	720,37
480,122	540,15
480,326	605,69
480,531	675,32
480,735	697,85
480,94	654,84
481,144	886,26
481,348	726,52
481,553	863,73
481,757	781,81
481,961	701,94
482,166	865,78
482,37	656,89
482,574	798,2
482,778	677,37
482,983	779,76
483,187	724,47
483,391	691,7
483,595	650,74
483,8	744,95
484,004	706,04
484,208	677,37
484,412	779,76
484,616	712,18
484,821	732,66
485,025	669,17
485,229	628,21
485,433	822,77
485,637	646,65
485,841	740,85
486,045	771,57
486,249	847,35
486,453	843,25
486,657	759,28
486,861	710,13
487,065	841,2
487,269	896,5
487,473	896,5
487,677	925,17
487,881	1228,27
488,085	962,03
488,289	968,18
488,493	902,64
488,697	1097,2
488,901	992,75
489,105	837,11
489,309	896,5
489,512	1021,42
489,716	955,89
489,92	962,03
490,124	982,51
490,328	941,55
490,531	923,12
490,735	947,7
490,939	749,04
491,143	900,59
491,346	826,87
491,55	790
491,754	740,85
491,958	763,38
492,161	703,99
492,365	628,21
492,569	646,65
492,772	695,8
492,976	765,43
493,18	660,98
493,383	605,69
493,587	632,31
493,79	761,33
493,994	693,75
494,197	611,83
494,401	742,9
494,605	564,73
494,808	701,94
495,012	595,45
495,215	687,61
495,419	757,24
495,622	630,26
495,825	663,03
496,029	667,13
496,232	726,52
496,436	708,09
496,639	785,91
496,843	814,58
497,046	691,7
497,249	873,97
497,453	652,79
497,656	609,78
497,859	695,8
498,063	726,52
498,266	769,52
498,469	587,26
498,673	720,37
498,876	652,79
499,079	601,59
499,282	613,88
499,485	830,96
499,689	794,1
499,892	810,48
500,095	773,62
500,298	689,65
500,501	577,02
500,705	736,76
500,908	779,76
501,111	550,39
501,314	769,52
501,517	675,32
501,72	581,11
501,923	691,7
502,126	658,93
502,329	753,14
502,532	716,28
502,735	677,37
502,938	730,61
503,141	716,28
503,344	624,12
503,547	843,25
503,75	710,13
503,953	720,37
504,156	861,68
504,359	706,04
504,562	790
504,765	826,87
504,968	837,11
505,17	884,21
505,373	871,92
505,576	857,59
505,779	808,44
505,982	853,49
506,185	984,56
506,387	857,59
506,59	931,31
506,793	798,2
506,996	914,93
507,198	1002,99
507,401	1062,38
507,604	1035,76
507,807	962,03
508,009	966,13
508,212	931,31
508,415	867,83
508,617	828,92
508,82	904,69
509,022	871,92
509,225	828,92
509,428	826,87
509,63	843,25
509,833	738,8
510,035	941,55
510,238	851,44
510,44	747
510,643	765,43
510,845	839,16
511,048	767,48
511,25	726,52
511,453	871,92
511,655	933,36
511,858	1009,14
512,06	1011,18
512,262	765,43
512,465	996,85
512,667	1068,53
512,87	851,44
513,072	1220,08
513,274	1021,42
513,477	1170,93
513,679	1117,68
513,881	1013,23
514,084	1162,73
514,286	1332,72
514,488	1187,31
514,69	1095,15
514,893	1015,28
515,095	1117,68
515,297	1013,23
515,499	1222,13
515,701	1062,38
515,904	1177,07
516,106	1324,52
516,308	1109,49
516,51	1140,21
516,712	1070,58
516,914	1058,29
517,116	880,11
517,318	847,35
517,52	986,61
517,722	843,25
517,925	792,05
518,127	859,63
518,329	900,59
518,531	556,54
518,733	654,84
518,935	714,23
519,136	765,43
519,338	587,26
519,54	634,36
519,742	634,36
519,944	790
520,146	695,8
520,348	638,45
520,55	646,65
520,752	538,1
520,954	593,4
521,155	599,54
521,357	587,26
521,559	732,66
521,761	759,28
521,963	660,98
522,164	648,69
522,366	757,24
522,568	751,09
522,77	833,01
522,971	755,19
523,173	814,58
523,375	736,76
523,576	642,55
523,778	724,47
523,98	806,39
524,181	847,35
524,383	824,82
524,584	749,04
524,786	816,63
524,988	753,14
525,189	751,09
525,391	775,67
525,592	714,23
525,794	783,86
525,995	800,24
526,197	824,82
526,398	1046
526,6	859,63
526,801	865,78
527,003	732,66
527,204	873,97
527,406	943,6
527,607	857,59
527,808	703,99
528,01	873,97
528,211	804,34
528,412	650,74
528,614	847,35
528,815	734,71
529,016	759,28
529,218	740,85
529,419	663,03
529,62	579,06
529,822	734,71
530,023	658,93
530,224	761,33
530,425	673,27
530,626	642,55
530,828	640,5
531,029	572,92
531,23	751,09
531,431	644,6
531,632	777,72
531,833	763,38
532,035	790
532,236	742,9
532,437	759,28
532,638	763,38
532,839	810,48
533,04	894,45
533,241	962,03
533,442	933,36
533,643	882,16
533,844	878,07
534,045	876,02
534,246	878,07
534,447	855,54
534,648	921,07
534,849	1011,18
535,05	900,59
535,251	790
535,451	953,84
535,652	974,32
535,853	806,39
536,054	947,7
536,255	904,69
536,456	853,49
536,657	753,14
536,857	824,82
537,058	853,49
537,259	663,03
537,46	847,35
537,66	761,33
537,861	732,66
538,062	714,23
538,263	607,73
538,463	687,61
538,664	781,81
538,865	681,46
539,065	630,26
539,266	736,76
539,466	605,69
539,667	808,44
539,868	675,32
540,068	570,87
540,269	763,38
540,469	691,7
540,67	679,41
540,87	765,43
541,071	642,55
541,271	644,6
541,472	736,76
541,672	703,99
541,873	669,17
542,073	644,6
542,274	714,23
542,474	744,95
542,675	697,85
542,875	691,7
543,075	529,91
543,276	658,93
543,476	683,51
543,676	683,51
543,877	718,33
544,077	751,09
544,277	833,01
544,478	632,31
544,678	697,85
544,878	697,85
545,078	747
545,279	620,02
545,479	593,4
545,679	615,93
545,879	640,5
546,079	699,89
546,28	687,61
546,48	675,32
546,68	783,86
546,88	609,78
547,08	654,84
547,28	620,02
547,48	556,54
547,68	601,59
547,88	720,37
548,081	683,51
548,281	722,42
548,481	757,24
548,681	884,21
548,881	994,8
549,081	1054,19
549,28	1097,2
549,48	1101,3
549,68	1119,73
549,88	1156,59
550,08	1093,1
550,28	1113,58
550,48	1265,13
550,68	1062,38
550,88	1076,72
551,08	1029,62
551,279	1285,61
551,479	1080,82
551,679	1078,77
551,879	970,23
552,079	1125,87
552,278	1037,81
552,478	1117,68
552,678	957,94
552,878	945,65
553,077	867,83
553,277	783,86
553,477	810,48
553,676	947,7
553,876	888,31
554,076	871,92
554,275	1076,72
554,475	1379,82
554,674	2100,7
554,874	3057,11
555,074	5189,04
555,273	8220,03
555,473	12686,65
555,672	18818,27
555,872	25973,88
556,071	34098,17
556,271	40967,05
556,47	45759,3
556,67	49169,17
556,869	51712,75
557,068	52339,43
557,268	50664,19
557,467	47262,51
557,667	44051,3
557,866	39908,26
558,065	34761,71
558,265	29441,09
558,464	24566,92
558,663	21085,37
558,863	17272,06
559,062	14232,87
559,261	11373,91
559,461	9418,1
559,66	7167,38
559,859	5402,03
560,058	3923,4
560,258	2745,81
560,457	2172,38
560,656	1605,1
560,855	1183,21
561,054	1117,68
561,253	1000,94
561,453	796,15
561,652	816,63
561,851	859,63
562,05	699,89
562,249	654,84
562,448	857,59
562,647	650,74
562,846	794,1
563,045	863,73
563,244	865,78
563,443	880,11
563,642	1029,62
563,841	1283,56
564,04	1310,19
564,239	1545,7
564,438	1621,48
564,637	1592,81
564,836	1676,77
565,035	1701,35
565,234	1668,58
565,432	1773,03
565,631	1803,75
565,83	1670,63
566,029	1666,53
566,228	1617,38
566,427	1781,22
566,625	1545,7
566,824	1699,3
567,023	1639,91
567,222	1504,75
567,42	1496,55
567,619	1486,31
567,818	1445,35
568,016	1498,6
568,215	1318,38
568,414	1232,37
568,612	1228,27
568,811	1052,14
569,01	1154,54
569,208	992,75
569,407	1115,63
569,605	1000,94
569,804	1019,38
570,002	1117,68
570,201	957,94
570,4	1105,39
570,598	894,45
570,797	1076,72
570,995	970,23
571,193	1033,71
571,392	990,7
571,59	839,16
571,789	976,37
571,987	955,89
572,186	970,23
572,384	898,55
572,582	822,77
572,781	994,8
572,979	738,8
573,177	775,67
573,376	769,52
573,574	882,16
573,772	744,95
573,971	562,68
574,169	640,5
574,367	677,37
574,565	675,32
574,763	630,26
574,962	648,69
575,16	595,45
575,358	615,93
575,556	689,65
575,754	611,83
575,952	593,4
576,151	665,08
576,349	720,37
576,547	458,23
576,745	650,74
576,943	699,89
577,141	562,68
577,339	556,54
577,537	607,73
577,735	687,61
577,933	650,74
578,131	497,14
578,329	740,85
578,527	572,92
578,725	642,55
578,923	464,38
579,121	665,08
579,319	462,33
579,516	536,06
579,714	787,96
579,912	677,37
580,11	554,49
580,308	628,21
580,506	601,59
580,704	499,19
580,901	560,63
581,099	818,68
581,297	708,09
581,495	890,35
581,692	978,42
581,89	1222,13
582,088	1297,9
582,285	1373,68
582,483	1439,21
582,681	1564,14
582,878	1592,81
583,076	1699,3
583,274	1603,05
583,471	1750,5
583,669	1439,21
583,866	1306,09
584,064	1347,05
584,262	1201,65
584,459	1056,24
584,657	1121,77
584,854	1142,25
585,052	1349,1
585,249	2067,94
585,447	4419
585,644	8535,42
585,841	15764,75
586,039	24446,09
586,236	32900,11
586,434	40407,96
586,631	47536,94
586,828	52320,99
587,026	54250,18
587,223	54512,32
587,42	52859,61
587,618	50070,28
587,815	45833,03
588,012	41681,8
588,21	36510,67
588,407	32271,38
588,604	27282,53
588,801	23123,1
588,999	19795,15
589,196	16540,93
589,393	13520,18
589,59	10904,92
589,787	8832,38
589,984	6737,31
590,182	5336,49
590,379	3605,96
590,576	2698,71
590,773	2098,66
590,97	1537,51
591,167	1322,48
591,364	1041,9
591,561	749,04
591,758	945,65
591,955	720,37
592,152	626,17
592,349	540,15
592,546	513,53
592,743	478,71
592,94	568,82
593,137	593,4
593,334	638,45
593,531	677,37
593,727	529,91
593,924	486,9
594,121	505,34
594,318	398,84
594,515	466,42
594,712	548,34
594,908	470,52
595,105	349,69
595,302	462,33
595,499	456,19
595,696	501,24
595,892	380,41
596,089	472,57
596,286	359,93
596,482	488,95
596,679	439,8
596,876	339,45
597,072	566,78
597,269	376,31
597,466	546,3
597,662	474,62
597,859	540,15
598,055	867,83
598,252	1054,19
598,448	1342,96
598,645	1627,62
598,841	1750,5
599,038	2194,91
599,234	2282,97
599,431	2217,44
599,627	2168,29
599,824	2207,2
600,02	2242,01
600,217	2229,73
600,413	2276,83
600,609	2319,84
600,806	2592,22
601,002	2207,2
601,198	2192,86
601,395	2192,86
601,591	2151,9
601,787	1922,53
601,984	1900
602,18	1689,06
602,376	1601
602,572	1564,14
602,769	1359,34
602,965	1361,39
603,161	1308,14
603,357	1263,08
603,553	1273,32
603,75	1082,86
603,946	1084,91
604,142	1154,54
604,338	1424,87
604,534	1297,9
604,73	1496,55
604,926	1549,8
605,122	1842,66
605,318	1779,17
605,514	1910,24
605,71	1770,98
605,906	1854,95
606,102	1707,49
606,298	1656,29
606,494	1633,77
606,69	1629,67
606,886	1347,05
607,082	1431,02
607,278	1359,34
607,474	1437,16
607,67	1453,55
607,866	1228,27
608,062	1379,82
608,257	1357,29
608,453	1056,24
608,649	1123,82
608,845	1035,76
609,041	970,23
609,236	908,79
609,432	962,03
609,628	800,24
609,824	798,2
610,019	712,18
610,215	665,08
610,411	740,85
610,606	665,08
610,802	540,15
610,998	577,02
611,193	564,73
611,389	413,18
611,584	513,53
611,78	466,42
611,976	548,34
612,171	740,85
612,367	527,86
612,562	511,48
612,758	527,86
612,953	388,6
613,149	425,47
613,344	468,47
613,539	486,9
613,735	556,54
613,93	529,91
614,126	589,3
614,321	644,6
614,517	697,85
614,712	611,83
614,907	611,83
615,103	734,71
615,298	699,89
615,493	456,19
615,688	611,83
615,884	617,97
616,079	585,21
616,274	546,3
616,47	458,23
616,665	450,04
616,86	445,95
617,055	509,43
617,25	374,27
617,445	454,14
617,641	425,47
617,836	349,69
618,031	349,69
618,226	443,9
618,421	462,33
618,616	429,56
618,811	452,09
619,006	327,16
619,201	404,99
619,396	333,31
619,591	327,16
619,786	318,97
619,981	419,32
620,176	308,73
620,371	308,73
620,566	335,35
620,761	429,56
620,956	429,56
621,151	409,08
621,346	388,6
621,541	382,46
621,735	476,66
621,93	419,32
622,125	503,29
622,32	374,27
622,515	409,08
622,709	775,67
622,904	785,91
623,099	724,47
623,294	886,26
623,488	861,68
623,683	763,38
623,878	751,09
624,072	753,14
624,267	652,79
624,462	685,56
624,656	540,15
624,851	677,37
625,046	640,5
625,24	452,09
625,435	468,47
625,629	507,38
625,824	626,17
626,018	499,19
626,213	468,47
626,407	445,95
626,602	437,75
626,796	294,4
626,991	491
627,185	359,93
627,38	321,02
627,574	353,79
627,768	470,52
627,963	382,46
628,157	376,31
628,352	280,06
628,546	310,78
628,74	325,12
628,935	275,96
629,129	292,35
629,323	384,51
629,517	192
629,712	243,2
629,906	314,88
630,1	404,99
630,294	388,6
630,489	337,4
630,683	357,88
630,877	286,2
631,071	429,56
631,265	253,44
631,459	374,27
631,653	263,68
631,848	241,15
632,042	257,53
632,236	331,26
632,43	368,12
632,624	263,68
632,818	292,35
633,012	347,64
633,206	382,46
633,4	312,83
633,594	409,08
633,788	392,7
633,982	441,85
634,176	538,1
634,369	437,75
634,563	486,9
634,757	323,07
634,951	464,38
635,145	595,45
635,339	476,66
635,533	515,58
635,726	484,86
635,92	404,99
636,114	400,89
636,308	577,02
636,501	415,23
636,695	605,69
636,889	425,47
637,083	693,75
637,276	515,58
637,47	464,38
637,664	548,34
637,857	601,59
638,051	534,01
638,244	570,87
638,438	486,9
638,632	658,93
638,825	347,64
639,019	564,73
639,212	525,82
639,406	593,4
639,599	400,89
639,793	507,38
639,986	579,06
640,18	630,26
640,373	562,68
640,567	628,21
640,76	781,81
640,954	988,66
641,147	1185,26
641,34	1502,7
641,534	1670,63
641,727	1936,87
641,92	2041,31
642,114	1963,49
642,307	1891,81
642,5	1961,44
642,694	1723,88
642,887	1762,79
643,08	1644,01
643,273	1537,51
643,467	1365,48
643,66	1207,79
643,853	1175,02
644,046	1226,22
644,239	1222,13
644,432	1330,67
644,626	1732,07
644,819	2207,2
645,012	2645,46
645,205	2926,04
645,398	3345,87
645,591	3380,68
645,784	3245,52
645,977	3046,87
646,17	2837,97
646,363	2794,97
646,556	2364,89
646,749	2188,77
646,942	2055,65
647,135	1967,59
647,328	1871,33
647,521	1699,3
647,714	1365,48
647,907	1414,63
648,099	1211,89
648,292	1275,37
648,485	1002,99
648,678	888,31
648,871	783,86
649,064	798,2
649,256	663,03
649,449	593,4
649,642	613,88
649,835	613,88
650,027	579,06
650,22	660,98
650,413	556,54
650,605	685,56
650,798	562,68
650,991	570,87
651,183	591,35
651,376	572,92
651,568	564,73
651,761	503,29
651,954	634,36
652,146	509,43
652,339	560,63
652,531	577,02
652,724	447,99
652,916	488,95
653,109	392,7
653,301	597,49
653,494	597,49
653,686	609,78
653,879	640,5
654,071	570,87
654,263	478,71
654,456	427,51
654,648	671,22
654,84	593,4
655,033	620,02
655,225	921,07
655,417	685,56
655,61	984,56
655,802	1101,3
655,994	1236,46
656,186	1050,1
656,379	1162,73
656,571	945,65
656,763	1035,76
656,955	990,7
657,148	1019,38
657,34	1074,67
657,532	814,58
657,724	765,43
657,916	773,62
658,108	767,48
658,3	847,35
658,492	658,93
658,684	495,1
658,876	634,36
659,068	433,66
659,26	376,31
659,452	341,5
659,644	445,95
659,836	482,81
660,028	384,51
660,22	355,83
660,412	302,59
660,604	368,12
660,796	411,13
660,988	454,14
661,18	355,83
661,372	370,17
661,563	402,94
661,755	284,16
661,947	146,94
662,139	306,68
662,331	310,78
662,522	376,31
662,714	282,11
662,906	196,09
663,097	245,24
663,289	226,81
663,481	118,27
663,673	402,94
663,864	290,3
664,056	392,7
664,247	306,68
664,439	632,31
664,631	517,62
664,822	732,66
665,014	699,89
665,205	691,7
665,397	650,74
665,588	691,7
665,78	660,98
665,971	718,33
666,163	531,96
666,354	491
666,546	474,62
666,737	511,48
666,929	470,52
667,12	421,37
667,311	456,19
667,503	441,85
667,694	327,16
667,885	392,7
668,077	441,85
668,268	175,61
668,459	329,21
668,651	368,12
668,842	552,44
669,033	437,75
669,224	495,1
669,416	888,31
669,607	710,13
669,798	814,58
669,989	1000,94
670,18	728,56
670,371	757,24
670,563	650,74
670,754	839,16
670,945	712,18
671,136	660,98
671,327	562,68
671,518	650,74
671,709	679,41
671,9	560,63
672,091	613,88
672,282	456,19
672,473	505,34
672,664	316,92
672,855	423,42
673,046	441,85
673,237	511,48
673,428	447,99
673,619	476,66
673,809	376,31
674	480,76
674,191	398,84
674,382	351,74
674,573	404,99
674,764	353,79
674,954	396,79
675,145	333,31
675,336	343,55
675,527	275,96
675,717	349,69
675,908	282,11
676,099	210,43
676,289	306,68
676,48	153,09
676,671	306,68
676,861	265,72
677,052	306,68
677,243	257,53
677,433	241,15
677,624	298,49
677,814	267,77
678,005	183,81
678,195	396,79
678,386	218,62
678,576	222,72
678,767	216,57
678,957	278,01
679,148	335,35
679,338	316,92
679,529	286,2
679,719	245,24
679,909	329,21
680,1	437,75
680,29	390,65
680,481	359,93
680,671	660,98
680,861	671,22
681,052	644,6
681,242	751,09
681,432	810,48
681,622	681,46
681,813	534,01
682,003	603,64
682,193	538,1
682,383	632,31
682,573	529,91
682,764	501,24
682,954	572,92
683,144	626,17
683,334	423,42
683,524	439,8
683,714	456,19
683,904	437,75
684,094	445,95
684,284	372,22
684,474	454,14
684,664	474,62
684,854	427,51
685,044	409,08
685,234	304,64
685,424	402,94
685,614	243,2
685,804	622,07
685,994	368,12
686,184	488,95
686,374	419,32
686,564	450,04
686,753	400,89
686,943	351,74
687,133	341,5
687,323	462,33
687,513	398,84
687,702	278,01
687,892	386,55
688,082	374,27
688,272	331,26
688,461	282,11
688,651	482,81
688,841	343,55
689,03	323,07
689,22	298,49
689,41	574,97
689,599	878,07
689,789	990,7
689,979	1424,87
690,168	1457,64
690,358	1652,2
690,547	1613,29
690,737	1551,85
690,926	1535,46
691,116	1314,28
691,305	1359,34
691,495	1199,6
691,684	978,42
691,874	935,41
692,063	972,27
692,252	966,13
692,442	923,12
692,631	683,51
692,82	644,6
693,01	538,1
693,199	534,01
693,388	513,53
693,578	415,23
693,767	396,79
693,956	318,97
694,146	278,01
694,335	382,46
694,524	343,55
694,713	396,79
694,902	267,77
695,092	220,67
695,281	364,03
695,47	290,3
695,659	210,43
695,848	345,59
696,037	296,44
696,226	445,95
696,415	323,07
696,604	462,33
696,793	470,52
696,982	325,12
697,171	507,38
697,36	318,97
697,549	355,83
697,738	278,01
697,927	325,12
698,116	308,73
698,305	439,8
698,494	306,68
698,683	323,07
698,872	454,14
699,061	308,73
699,25	364,03
699,438	349,69
699,627	370,17
699,816	452,09
700,005	269,82
700,193	304,64
700,382	462,33
700,571	355,83
700,76	425,47
700,948	429,56
701,137	245,24
701,326	351,74
701,514	251,39
701,703	445,95
701,892	339,45
702,08	536,06
702,269	271,87
702,457	310,78
702,646	314,88
702,834	255,48
703,023	364,03
703,212	341,5
703,4	278,01
703,589	253,44
703,777	304,64
703,965	202,24
704,154	290,3
704,342	278,01
704,531	278,01
704,719	267,77
704,907	380,41
705,096	222,72
705,284	308,73
705,472	325,12
705,661	411,13
705,849	345,59
706,037	404,99
706,226	398,84
706,414	429,56
706,602	304,64
706,79	304,64
706,979	208,38
707,167	247,29
707,355	128,51
707,543	343,55
707,731	275,96
707,919	196,09
708,107	202,24
708,296	253,44
708,484	282,11
708,672	304,64
708,86	314,88
709,048	204,28
709,236	163,33
709,424	298,49
709,612	226,81
709,8	146,94
709,988	232,96
710,176	314,88
710,364	378,36
710,551	134,65
710,739	232,96
710,927	181,76
711,115	200,19
711,303	347,64
711,491	288,25
711,679	165,37
711,866	273,92
712,054	187,9
712,242	192
712,43	269,82
712,617	185,85
712,805	386,55
712,993	249,34
713,181	122,37
713,368	235
713,556	237,05
713,744	245,24
713,931	378,36
714,119	280,06
714,306	220,67
714,494	224,76
714,682	208,38
714,869	93,69
715,057	196,09
715,244	101,89
715,432	273,92
715,619	173,57
715,807	222,72
715,994	196,09
716,182	273,92
716,369	257,53
716,556	271,87
716,744	114,17
716,931	101,89
717,119	169,47
717,306	218,62
717,493	157,18
717,681	56,83
717,868	144,89
718,055	228,86
718,242	206,33
718,43	228,86
718,617	226,81
718,804	183,81
718,991	284,16
719,179	185,85
719,366	292,35
719,553	173,57
719,74	249,34
719,927	210,43
720,114	132,61
720,301	128,51
720,488	208,38
720,676	185,85
720,863	331,26
721,05	458,23
721,237	450,04
721,424	613,88
721,611	1013,23
721,798	1187,31
721,985	1469,93
722,172	1629,67
722,358	1871,33
722,545	1906,15
722,732	1863,14
722,919	1801,7
723,106	1625,58
723,293	1568,23
723,48	1404,39
723,667	1293,8
723,853	1209,84
724,04	1203,69
724,227	1242,61
724,414	1086,96
724,6	941,55
724,787	1007,09
724,974	892,4
725,161	736,76
725,347	585,21
725,534	572,92
725,72	495,1
725,907	599,54
726,094	681,46
726,28	495,1
726,467	491
726,653	349,69
726,84	574,97
727,027	638,45
727,213	493,05
727,4	419,32
727,586	595,45
727,773	679,41
727,959	882,16
728,145	1125,87
728,332	1314,28
728,518	1400,3
728,705	1557,99
728,891	1539,56
729,077	1494,51
729,264	1267,18
729,45	1254,89
729,636	1365,48
729,823	1203,69
730,009	1234,41
730,195	1035,76
730,382	1086,96
730,568	873,97
730,754	941,55
730,94	859,63
731,126	830,96
731,313	675,32
731,499	701,94
731,685	679,41
731,871	697,85
732,057	587,26
732,243	581,11
732,429	568,82
732,615	638,45
732,801	505,34
732,987	521,72
733,173	439,8
733,359	491
733,545	556,54
733,731	499,19
733,917	601,59
734,103	519,67
734,289	523,77
734,475	474,62
734,661	654,84
734,847	595,45
735,033	531,96
735,219	589,3
735,404	519,67
735,59	415,23
735,776	568,82
735,962	572,92
736,148	665,08
736,333	697,85
736,519	589,3
736,705	474,62
736,89	517,62
737,076	570,87
737,262	458,23
737,447	472,57
737,633	540,15
737,819	585,21
738,004	472,57
738,19	583,16
738,375	591,35
738,561	630,26
738,747	554,49
738,932	452,09
739,118	765,43
739,303	624,12
739,489	585,21
739,674	501,24
739,859	511,48
740,045	599,54
740,23	538,1
740,416	361,98
740,601	593,4
740,786	638,45
740,972	486,9
741,157	513,53
741,342	513,53
741,528	540,15
741,713	822,77
741,898	890,35
742,084	1037,81
742,269	1064,43
742,454	1205,74
742,639	1248,75
742,824	1291,76
743,01	1291,76
743,195	1226,22
743,38	1146,35
743,565	939,51
743,75	1039,86
743,935	1093,1
744,12	1060,34
744,305	822,77
744,49	830,96
744,675	828,92
744,86	810,48
745,045	863,73
745,23	687,61
745,415	775,67
745,6	865,78
745,785	679,41
745,97	783,86
746,155	742,9
746,34	837,11
746,525	759,28
746,71	822,77
746,895	695,8
747,079	634,36
747,264	693,75
747,449	757,24
747,634	839,16
747,819	1052,14
748,003	1291,76
748,188	1564,14
748,373	1926,63
748,557	2182,62
748,742	2299,36
748,927	2637,27
749,111	2473,43
749,296	2350,56
749,481	2475,48
749,665	2323,93
749,85	2041,31
750,034	2049,5
750,219	1830,37
750,404	1807,84
750,588	1754,6
750,773	1527,27
750,957	1508,84
751,141	1361,39
751,326	1412,59
751,51	1193,45
751,695	1183,21
751,879	1105,39
752,064	1127,92
752,248	1017,33
752,432	1025,52
752,617	1002,99
752,801	988,66
752,985	916,98
753,17	1005,04
753,354	921,07
753,538	830,96
753,722	994,8
753,907	919,03
754,091	904,69
754,275	1058,29
754,459	1052,14
754,643	1011,18
754,828	1197,55
755,012	1134,06
755,196	1252,84
755,38	1404,39
755,564	1420,78
755,748	1490,41
755,932	1879,52
756,116	1783,27
756,3	1928,67
756,484	2037,22
756,668	2315,74
756,852	2233,82
757,036	2674,14
757,22	3091,92
757,404	5289,39
757,588	13552,95
757,772	36912,08
757,956	63609,4
758,14	63609,4
758,323	63609,4
758,507	63609,4
758,691	63609,4
758,875	63609,4
759,059	63609,4
759,242	63609,4
759,426	63609,4
759,61	63609,4
759,794	63609,4
759,977	63609,4
760,161	63609,4
760,345	63609,4
760,528	63609,4
760,712	63609,4
760,895	63609,4
761,079	63609,4
761,263	63609,4
761,446	63609,4
761,63	63609,4
761,813	63609,4
761,997	63609,4
762,18	63609,4
762,364	63609,4
762,547	63609,4
762,731	63609,4
762,914	63609,4
763,098	63609,4
763,281	63609,4
763,464	63609,4
763,648	63609,4
763,831	63609,4
764,015	63609,4
764,198	63609,4
764,381	63609,4
764,564	63609,4
764,748	63609,4
764,931	63609,4
765,114	63609,4
765,297	63609,4
765,481	63609,4
765,664	63609,4
765,847	63609,4
766,03	63609,4
766,213	63609,4
766,397	63609,4
766,58	63609,4
766,763	63609,4
766,946	63609,4
767,129	63609,4
767,312	63609,4
767,495	63609,4
767,678	63609,4
767,861	63609,4
768,044	63609,4
768,227	63609,4
768,41	63609,4
768,593	63609,4
768,776	63609,4
768,959	63609,4
769,142	63609,4
769,324	63609,4
769,507	63609,4
769,69	63609,4
769,873	63609,4
770,056	63609,4
770,239	63609,4
770,421	63609,4
770,604	63609,4
770,787	63609,4
770,97	63609,4
771,152	63609,4
771,335	63609,4
771,518	63609,4
771,7	63609,4
771,883	63609,4
772,066	63609,4
772,248	63609,4
772,431	63609,4
772,613	63609,4
772,796	63609,4
772,978	63609,4
773,161	63609,4
773,343	63609,4
773,526	63609,4
773,708	63609,4
773,891	63609,4
774,073	63609,4
774,256	63609,4
774,438	63609,4
774,621	63609,4
774,803	63609,4
774,985	63609,4
775,168	63609,4
775,35	63609,4
775,532	63609,4
775,715	63609,4
775,897	63609,4
776,079	63609,4
776,261	63609,4
776,444	63609,4
776,626	63609,4
776,808	63609,4
776,99	63609,4
777,173	63609,4
777,355	63609,4
777,537	63609,4
777,719	63609,4
777,901	63609,4
778,083	63609,4
778,265	63609,4
778,447	63609,4
778,629	63609,4
778,811	63609,4
778,993	63609,4
779,175	63609,4
779,357	63609,4
779,539	63609,4
779,721	63609,4
779,903	63609,4
780,085	63609,4
780,267	63609,4
780,449	63609,4
780,631	63609,4
780,812	63609,4
780,994	63609,4
781,176	63609,4
781,358	63609,4
781,54	63609,4
781,721	63609,4
781,903	63609,4
782,085	63609,4
782,267	63609,4
782,448	63609,4
782,63	63609,4
782,812	63609,4
782,993	63609,4
783,175	63609,4
783,357	63609,4
783,538	63609,4
783,72	63609,4
783,901	63609,4
784,083	63609,4
784,264	63609,4
784,446	63609,4
784,627	63609,4
784,809	63609,4
784,99	63609,4
785,172	63609,4
785,353	63609,4
785,535	63609,4
785,716	63609,4
785,897	63609,4
786,079	63609,4
786,26	63609,4
786,441	63609,4
786,623	63609,4
786,804	63609,4
786,985	63609,4
787,167	63609,4
787,348	63609,4
787,529	63609,4
787,71	63609,4
787,891	63609,4
788,073	63609,4
788,254	63609,4
788,435	63609,4
788,616	47584,04
788,797	45728,58
788,978	4672,95
789,159	3513,8
789,34	2835,92
789,522	2285,02
789,703	1949,15
789,884	1887,72
790,065	1904,1
790,246	2072,03
790,427	2108,9
790,607	2698,71
790,788	3425,74
790,969	3702,22
791,15	4232,64
791,331	4396,48
791,512	4416,96
791,693	4388,29
791,874	4464,06
792,054	4677,05
792,235	4847,03
792,416	4844,98
792,597	4931
792,778	4982,2
792,958	4900,28
793,139	4595,13
793,32	4242,88
793,5	3759,56
793,681	3509,71
793,862	3257,81
794,042	2805,21
794,223	2547,16
794,404	2321,88
794,584	1846,76
794,765	1940,96
794,945	1654,25
795,126	1562,09
795,306	1578,47
795,487	1226,22
795,667	1191,41
795,848	1232,37
796,028	1115,63
796,209	1052,14
796,389	974,32
796,57	955,89
796,75	826,87
796,93	806,39
797,111	773,62
797,291	876,02
797,471	1054,19
797,652	1031,66
797,832	1039,86
798,012	1265,13
798,192	1306,09
798,373	1279,47
798,553	1226,22
798,733	1254,89
798,913	1224,17
799,093	1170,93
799,274	1209,84
799,454	1129,97
799,634	1154,54
799,814	1070,58
799,994	1033,71
800,174	1072,62
800,354	1109,49
800,534	933,36
800,714	1029,62
800,894	861,68
801,074	980,47
801,254	898,55
801,434	1086,96
801,614	1152,49
801,794	943,6
801,974	2723,29
802,154	937,46
802,334	1240,56
802,514	972,27
802,693	1113,58
802,873	1041,9
803,053	1252,84
803,233	1144,3
803,413	1232,37
803,592	1078,77
803,772	1234,41
803,952	1203,69
804,131	1117,68
804,311	1402,35
804,491	1689,06
804,67	2383,32
804,85	5172,66
805,03	11828,56
805,209	22320,3
805,389	36217,82
805,568	47020,85
805,748	55091,9
805,928	60998,24
806,107	63402,55
806,287	61842
806,466	58405,51
806,646	50254,59
806,825	43496,3
807,004	37063,63
807,184	31648,8
807,363	26954,85
807,543	23108,77
807,722	20208,84
807,901	18189,55
808,081	16510,21
808,26	14980,38
808,439	14089,51
808,619	12909,88
808,798	11550,03
808,977	11240,79
809,156	12817,72
809,336	20876,48
809,515	39642,02
809,694	63609,4
809,873	63609,4
810,052	63609,4
810,231	63609,4
810,411	63609,4
810,59	63609,4
810,769	63609,4
810,948	63609,4
811,127	63609,4
811,306	63609,4
811,485	63609,4
811,664	63609,4
811,843	63609,4
812,022	63609,4
812,201	63609,4
812,38	63609,4
812,559	63609,4
812,737	63609,4
812,916	63609,4
813,095	63609,4
813,274	63609,4
813,453	63609,4
813,632	63609,4
813,811	63609,4
813,989	63609,4
814,168	63609,4
814,347	63609,4
814,526	63609,4
814,704	63609,4
814,883	63609,4
815,062	63609,4
815,24	63609,4
815,419	63609,4
815,598	63609,4
815,776	63609,4
815,955	63609,4
816,133	63609,4
816,312	63609,4
816,49	63609,4
816,669	63609,4
816,847	63609,4
817,026	63609,4
817,204	63609,4
817,383	63609,4
817,561	63609,4
817,74	63609,4
817,918	63609,4
818,097	63609,4
818,275	63609,4
818,453	63609,4
818,632	63609,4
818,81	63609,4
818,988	63609,4
819,167	63609,4
819,345	63609,4
819,523	63609,4
819,701	63609,4
819,879	63609,4
820,058	63609,4
820,236	63609,4
820,414	63609,4
820,592	63609,4
820,77	63609,4
820,948	63609,4
821,127	63609,4
821,305	63609,4
821,483	63609,4
821,661	63609,4
821,839	63609,4
822,017	63609,4
822,195	63609,4
822,373	63609,4
822,551	63609,4
822,729	63609,4
822,907	63609,4
823,085	63609,4
823,262	63609,4
823,44	63609,4
823,618	63609,4
823,796	63609,4
823,974	63609,4
824,152	63609,4
824,329	63609,4
824,507	63609,4
824,685	63609,4
824,863	63609,4
825,04	63609,4
825,218	63609,4
825,396	63609,4
825,574	63609,4
825,751	63609,4
825,929	63609,4
826,107	63609,4
826,284	63609,4
826,462	63609,4
826,639	63609,4
826,817	63609,4
826,994	63609,4
827,172	63609,4
827,349	63609,4
827,527	63609,4
827,704	63609,4
827,882	63609,4
828,059	63609,4
828,237	63609,4
828,414	63609,4
828,591	63609,4
828,769	63609,4
828,946	63609,4
829,124	63609,4
829,301	63609,4
829,478	63609,4
829,655	63609,4
829,833	63609,4
830,01	63609,4
830,187	63609,4
830,364	63609,4
830,542	63609,4
830,719	63609,4
830,896	63609,4
831,073	63609,4
831,25	63609,4
831,427	63609,4
831,604	63609,4
831,782	63609,4
831,959	63609,4
832,136	63609,4
832,313	63609,4
832,49	63609,4
832,667	63609,4
832,844	63609,4
833,021	63609,4
833,198	63609,4
833,374	63609,4
833,551	63609,4
833,728	63609,4
833,905	63609,4
834,082	63609,4
834,259	63609,4
834,436	63609,4
834,612	63609,4
834,789	63609,4
834,966	63609,4
835,143	63609,4
835,319	63609,4
835,496	63609,4
835,673	63609,4
835,85	63609,4
836,026	63609,4
836,203	63609,4
836,38	63609,4
836,556	63609,4
836,733	63609,4
836,909	63609,4
837,086	63609,4
837,262	63609,4
837,439	63609,4
837,616	63609,4
837,792	63609,4
837,968	63609,4
838,145	63609,4
838,321	63609,4
838,498	63609,4
838,674	63609,4
838,851	63609,4
839,027	63609,4
839,203	63609,4
839,38	63609,4
839,556	63609,4
839,732	63609,4
839,909	63609,4
840,085	63609,4
840,261	63609,4
840,437	63609,4
840,614	63609,4
840,79	63609,4
840,966	63609,4
841,142	63609,4
841,318	63609,4
841,494	63609,4
841,671	63609,4
841,847	63609,4
842,023	63609,4
842,199	63609,4
842,375	63609,4
842,551	63609,4
842,727	63609,4
842,903	63609,4
843,079	63609,4
843,255	63609,4
843,431	63609,4
843,607	63609,4
843,783	63609,4
843,959	30600,24
844,134	29637,69
844,31	615,93
844,486	491
844,662	482,81
844,838	495,1
845,013	443,9
845,189	525,82
845,365	429,56
845,541	415,23
845,716	339,45
845,892	413,18
846,068	278,01
846,244	237,05
846,419	374,27
846,595	192
846,77	339,45
846,946	488,95
847,122	259,58
847,297	298,49
847,473	425,47
847,648	269,82
847,824	382,46
847,999	175,61
848,175	253,44
848,35	400,89
848,526	460,28
848,701	372,22
848,876	470,52
849,052	513,53
849,227	413,18
849,403	642,55
849,578	1471,98
849,753	3462,6
849,929	6915,48
850,104	12324,16
850,279	18267,37
850,454	25263,23
850,63	29422,66
850,805	31654,94
850,98	31407,14
851,155	30651,44
851,33	26793,06
851,505	23076
851,681	20096,21
851,856	17571,06
852,031	16188,68
852,206	14998,81
852,381	13438,26
852,556	12621,12
852,731	11404,63
852,906	10915,16
853,081	10120,55
853,256	9360,75
853,431	8828,28
853,606	7826,82
853,781	7433,61
853,956	6831,51
854,131	6278,56
854,305	5486
854,48	4502,97
854,655	3552,71
854,83	2633,18
855,005	2084,32
855,18	1588,71
855,354	1031,66
855,529	933,36
855,704	703,99
855,879	595,45
856,053	450,04
856,228	427,51
856,403	308,73
856,577	382,46
856,752	306,68
856,926	349,69
857,101	321,02
857,276	298,49
857,45	312,83
857,625	345,59
857,799	347,64
857,974	269,82
858,148	163,33
858,323	282,11
858,497	302,59
858,672	202,24
858,846	218,62
859,02	357,88
859,195	200,19
859,369	202,24
859,543	282,11
859,718	261,63
859,892	257,53
860,066	290,3
860,241	157,18
860,415	269,82
860,589	321,02
860,763	189,95
860,938	259,58
861,112	261,63
861,286	296,44
861,46	265,72
861,634	312,83
861,808	361,98
861,982	159,23
862,157	202,24
862,331	163,33
862,505	155,13
862,679	114,17
862,853	220,67
863,027	187,9
863,201	390,65
863,375	206,33
863,549	290,3
863,722	230,91
863,896	314,88
864,07	177,66
864,244	251,39
864,418	261,63
864,592	290,3
864,766	224,76
864,939	247,29
865,113	214,52
865,287	318,97
865,461	187,9
865,634	249,34
865,808	224,76
865,982	108,03
866,156	146,94
866,329	175,61
866,503	161,28
866,676	237,05
866,85	204,28
867,024	202,24
867,197	343,55
867,371	284,16
867,544	292,35
867,718	183,81
867,891	261,63
868,065	105,98
868,238	226,81
868,412	341,5
868,585	261,63
868,759	212,48
868,932	177,66
869,105	183,81
869,279	269,82
869,452	101,89
869,625	368,12
869,799	245,24
869,972	208,38
870,145	222,72
870,319	339,45
870,492	290,3
870,665	216,57
870,838	212,48
871,011	138,75
871,185	265,72
871,358	228,86
871,531	312,83
871,704	224,76
871,877	339,45
872,05	241,15
872,223	273,92
872,396	431,61
872,569	372,22
872,742	165,37
872,915	400,89
873,088	349,69
873,261	306,68
873,434	364,03
873,607	282,11
873,78	454,14
873,953	241,15
874,126	370,17
874,299	382,46
874,471	384,51
874,644	361,98
874,817	423,42
874,99	630,26
875,163	404,99
875,335	531,96
875,508	568,82
875,681	820,72
875,853	738,8
876,026	1175,02
876,199	2092,51
876,371	4109,76
876,544	8465,79
876,717	16428,29
876,889	27524,19
877,062	40991,63
877,234	54401,73
877,407	63208
877,579	63609,4
877,752	63609,4
877,924	63609,4
878,097	63609,4
878,269	63609,4
878,442	63609,4
878,614	63609,4
878,786	63609,4
878,959	63609,4
879,131	63609,4
879,303	63609,4
879,476	63609,4
879,648	58032,78
879,82	44534,62
879,993	41221
880,165	38081,47
880,337	35431,4
880,509	33094,66
880,681	31308,83
880,854	29307,97
881,026	27767,9
881,198	25408,64
881,37	22342,83
881,542	18623,72
881,714	15643,92
881,886	12037,45
882,058	9094,52
882,23	6651,29
882,402	4873,65
882,574	3427,79
882,746	2534,87
882,918	1818,08
883,09	1359,34
883,262	1103,34
883,434	976,37
883,606	726,52
883,778	654,84
883,95	568,82
884,122	509,43
884,293	652,79
884,465	505,34
884,637	564,73
884,809	378,36
884,98	429,56
885,152	423,42
885,324	536,06
885,496	331,26
885,667	390,65
885,839	339,45
886,011	476,66
886,182	314,88
886,354	337,4
886,525	325,12
886,697	337,4
886,869	216,57
887,04	290,3
887,212	462,33
887,383	407,03
887,555	245,24
887,726	253,44
887,897	241,15
888,069	294,4
888,24	357,88
888,412	323,07
888,583	298,49
888,754	351,74
888,926	222,72
889,097	235
889,268	243,2
889,44	404,99
889,611	157,18
889,782	269,82
889,953	187,9
890,125	445,95
890,296	294,4
890,467	273,92
890,638	275,96
890,809	302,59
890,98	361,98
891,151	544,25
891,323	765,43
891,494	1056,24
891,665	2024,93
891,836	3640,78
892,007	6884,76
892,178	11287,89
892,349	17079,55
892,52	23151,77
892,691	30014,52
892,862	36076,51
893,032	41458,57
893,203	45062,99
893,374	47532,84
893,545	47696,68
893,716	46791,48
893,887	45171,53
894,057	42879,86
894,228	40053,66
894,399	38403
894,57	36105,18
894,74	33643,52
894,911	31511,58
895,082	29826,1
895,253	27757,66
895,423	26365,04
895,594	24601,74
895,764	23295,13
895,935	21413,05
896,106	20456,65
896,276	18980,06
896,447	18107,63
896,617	16471,3
896,788	14505,25
896,958	12494,15
897,129	10276,2
897,299	8050,05
897,47	6290,85
897,64	4677,05
897,81	3354,06
897,981	2407,9
898,151	1730,02
898,322	1402,35
898,492	1086,96
898,662	863,73
898,832	718,33
899,003	642,55
899,173	550,39
899,343	466,42
899,513	364,03
