Data from krypton_USB4F104151__4__11-01-34-309.txt Node

Date: Wed Apr 15 11:01:34 EDT 2026
User: LaboPhy
Spectrometer: USB4F10415
Trigger mode: 4
Integration Time (sec): 1,000000E-1
Scans to average: 1
Electric dark correction enabled: true
Nonlinearity correction enabled: false
Boxcar width: 0
XAxis mode: Wavelengths
Number of Pixels in Spectrum: 3648
>>>>>Begin Spectral Data<<<<<
178,204	-436,39
178,424	-436,39
178,644	-436,39
178,864	-481,44
179,084	-567,46
179,304	32,6
179,524	42,84
179,744	-20,65
179,964	36,69
180,184	51,03
180,404	12,12
180,624	-73,9
180,844	-47,27
181,064	-73,9
181,283	83,8
181,503	-28,84
181,723	-14,51
181,943	-141,48
182,163	223,06
182,383	-6,31
182,602	112,47
182,822	157,52
183,042	141,14
183,262	1,88
183,482	8,02
183,701	48,98
183,921	38,74
184,141	8,02
184,361	57,17
184,58	104,28
184,8	24,4
185,02	-47,27
185,239	110,42
185,459	100,18
185,679	180,05
185,898	-41,13
186,118	16,21
186,338	116,56
186,557	132,95
186,777	24,4
186,997	34,64
187,216	-106,67
187,436	268,11
187,655	24,4
187,875	83,8
188,095	69,46
188,314	137,04
188,534	83,8
188,753	-24,75
188,973	169,81
189,192	212,82
189,412	55,12
189,631	55,12
189,851	94,04
190,07	190,29
190,29	18,26
190,509	40,79
190,729	106,32
190,948	180,05
191,168	311,12
191,387	91,99
191,607	85,84
191,826	48,98
192,045	57,17
192,265	-53,42
192,484	61,27
192,704	130,9
192,923	-106,67
193,142	155,47
193,362	143,19
193,581	214,87
193,8	32,6
194,02	149,33
194,239	53,08
194,458	67,41
194,678	28,5
194,897	65,36
195,116	1,88
195,335	83,8
195,555	63,32
195,774	-2,22
195,993	141,14
196,212	55,12
196,432	8,02
196,651	-39,08
196,87	57,17
197,089	264,02
197,308	98,13
197,528	116,56
197,747	-73,9
197,966	34,64
198,185	75,6
198,404	-57,51
198,623	163,67
198,842	106,32
199,062	98,13
199,281	112,47
199,5	30,55
199,719	65,36
199,938	87,89
200,157	159,57
200,376	182,1
200,595	110,42
200,814	89,94
201,033	-26,79
201,252	192,34
201,471	106,32
201,69	83,8
201,909	42,84
202,128	190,29
202,347	186,19
202,566	-0,17
202,785	-28,84
203,004	10,07
203,223	298,83
203,442	42,84
203,661	-80,04
203,879	73,56
204,098	89,94
204,317	10,07
204,536	81,75
204,755	149,33
204,974	153,43
205,193	-32,94
205,411	94,04
205,63	48,98
205,849	73,56
206,068	42,84
206,287	28,5
206,505	202,58
206,724	36,69
206,943	12,12
207,162	-14,51
207,381	106,32
207,599	53,08
207,818	91,99
208,037	-12,46
208,255	75,6
208,474	61,27
208,693	18,26
208,911	-16,55
209,13	77,65
209,349	87,89
209,567	102,23
209,786	137,04
210,005	155,47
210,223	28,5
210,442	-106,67
210,661	75,6
210,879	135
211,098	-18,6
211,316	16,21
211,535	114,52
211,753	-18,6
211,972	83,8
212,191	-0,17
212,409	26,45
212,628	77,65
212,846	63,32
213,065	165,71
213,283	147,28
213,502	-22,7
213,72	57,17
213,938	79,7
214,157	57,17
214,375	155,47
214,594	1,88
214,812	59,22
215,031	-12,46
215,249	73,56
215,467	40,79
215,686	42,84
215,904	57,17
216,122	106,32
216,341	214,87
216,559	53,08
216,778	94,04
216,996	151,38
217,214	30,55
217,432	-14,51
217,651	-18,6
217,869	94,04
218,087	114,52
218,306	18,26
218,524	48,98
218,742	3,93
218,96	83,8
219,179	16,21
219,397	12,12
219,615	317,26
219,833	110,42
220,051	18,26
220,27	51,03
220,488	188,24
220,706	89,94
220,924	16,21
221,142	-28,84
221,36	139,09
221,578	184,15
221,796	-65,71
222,015	51,03
222,233	104,28
222,451	198,48
222,669	-8,36
222,887	116,56
223,105	-63,66
223,323	77,65
223,541	-4,27
223,759	-4,27
223,977	24,4
224,195	237,39
224,413	104,28
224,631	18,26
224,849	83,8
225,067	268,11
225,285	-39,08
225,503	28,5
225,721	-88,23
225,939	51,03
226,157	126,8
226,375	286,54
226,592	22,36
226,81	75,6
227,028	108,37
227,246	192,34
227,464	53,08
227,682	91,99
227,9	85,84
228,117	24,4
228,335	79,7
228,553	44,88
228,771	-2,22
228,989	24,4
229,206	112,47
229,424	40,79
229,642	26,45
229,86	-12,46
230,077	169,81
230,295	81,75
230,513	108,37
230,731	69,46
230,948	180,05
231,166	192,34
231,384	16,21
231,601	8,02
231,819	253,78
232,037	-32,94
232,254	-37,03
232,472	36,69
232,689	5,97
232,907	106,32
233,125	57,17
233,342	-24,75
233,56	69,46
233,777	-26,79
233,995	16,21
234,213	124,76
234,43	106,32
234,648	24,4
234,865	87,89
235,083	81,75
235,3	81,75
235,518	126,8
235,735	73,56
235,953	96,08
236,17	59,22
236,388	-24,75
236,605	57,17
236,822	71,51
237,04	155,47
237,257	67,41
237,475	-6,31
237,692	44,88
237,909	149,33
238,127	-2,22
238,344	100,18
238,562	-2,22
238,779	79,7
238,996	-47,27
239,214	10,07
239,431	48,98
239,648	-45,23
239,865	139,09
240,083	38,74
240,3	-37,03
240,517	122,71
240,735	32,6
240,952	141,14
241,169	55,12
241,386	36,69
241,603	67,41
241,821	16,21
242,038	73,56
242,255	98,13
242,472	-22,7
242,689	69,46
242,907	98,13
243,124	122,71
243,341	34,64
243,558	-47,27
243,775	-116,9
243,992	36,69
244,209	112,47
244,426	141,14
244,643	83,8
244,86	36,69
245,078	149,33
245,295	100,18
245,512	-41,13
245,729	24,4
245,946	65,36
246,163	28,5
246,38	-14,51
246,597	100,18
246,814	110,42
247,031	110,42
247,248	24,4
247,464	126,8
247,681	114,52
247,898	22,36
248,115	81,75
248,332	1,88
248,549	130,9
248,766	198,48
248,983	30,55
249,2	151,38
249,417	202,58
249,633	-24,75
249,85	26,45
250,067	104,28
250,284	65,36
250,501	163,67
250,717	32,6
250,934	34,64
251,151	36,69
251,368	14,17
251,585	61,27
251,801	69,46
252,018	-4,27
252,235	132,95
252,451	-104,62
252,668	16,21
252,885	175,95
253,102	38,74
253,318	18,26
253,535	20,31
253,752	-73,9
253,968	67,41
254,185	-92,33
254,401	20,31
254,618	155,47
254,835	-47,27
255,051	116,56
255,268	77,65
255,484	112,47
255,701	73,56
255,917	28,5
256,134	-28,84
256,351	130,9
256,567	-39,08
256,784	67,41
257	-121
257,217	167,76
257,433	1,88
257,65	77,65
257,866	161,62
258,082	-102,57
258,299	-26,79
258,515	65,36
258,732	-24,75
258,948	42,84
259,165	61,27
259,381	-47,27
259,597	77,65
259,814	1,88
260,03	8,02
260,246	-22,7
260,463	100,18
260,679	110,42
260,895	-16,55
261,112	75,6
261,328	130,9
261,544	-65,71
261,761	208,72
261,977	-49,32
262,193	22,36
262,409	157,52
262,626	91,99
262,842	28,5
263,058	1,88
263,274	171,86
263,49	100,18
263,707	116,56
263,923	165,71
264,139	-59,56
264,355	71,51
264,571	141,14
264,787	128,85
265,004	130,9
265,22	57,17
265,436	20,31
265,652	57,17
265,868	114,52
266,084	-77,99
266,3	28,5
266,516	-16,55
266,732	69,46
266,948	104,28
267,164	1,88
267,38	163,67
267,596	94,04
267,812	139,09
268,028	79,7
268,244	-16,55
268,46	118,61
268,676	44,88
268,892	10,07
269,108	-20,65
269,324	34,64
269,54	-2,22
269,756	83,8
269,972	-37,03
270,188	-10,41
270,403	-34,99
270,619	79,7
270,835	120,66
271,051	83,8
271,267	22,36
271,483	12,12
271,698	151,38
271,914	81,75
272,13	10,07
272,346	16,21
272,562	32,6
272,777	91,99
272,993	42,84
273,209	-16,55
273,425	149,33
273,64	-22,7
273,856	20,31
274,072	-59,56
274,287	-10,41
274,503	108,37
274,719	116,56
274,934	24,4
275,15	-73,9
275,366	24,4
275,581	-47,27
275,797	65,36
276,012	110,42
276,228	-10,41
276,444	42,84
276,659	157,52
276,875	14,17
277,09	118,61
277,306	3,93
277,521	83,8
277,737	12,12
277,952	106,32
278,168	145,24
278,383	3,93
278,599	-12,46
278,814	200,53
279,03	40,79
279,245	147,28
279,461	8,02
279,676	155,47
279,892	-84,14
280,107	-106,67
280,322	-51,37
280,538	106,32
280,753	-43,18
280,969	36,69
281,184	59,22
281,399	155,47
281,615	22,36
281,83	53,08
282,045	16,21
282,26	-30,89
282,476	16,21
282,691	-24,75
282,906	163,67
283,122	114,52
283,337	12,12
283,552	112,47
283,767	12,12
283,983	204,63
284,198	36,69
284,413	81,75
284,628	-37,03
284,843	48,98
285,058	75,6
285,274	-51,37
285,489	-30,89
285,704	94,04
285,919	40,79
286,134	67,41
286,349	69,46
286,564	-41,13
286,779	165,71
286,995	53,08
287,21	-73,9
287,425	155,47
287,64	-8,36
287,855	65,36
288,07	-118,95
288,285	89,94
288,5	155,47
288,715	130,9
288,93	108,37
289,145	-49,32
289,36	36,69
289,575	89,94
289,79	194,39
290,004	-2,22
290,219	155,47
290,434	18,26
290,649	30,55
290,864	10,07
291,079	-32,94
291,294	65,36
291,509	57,17
291,724	24,4
291,938	57,17
292,153	57,17
292,368	-55,47
292,583	114,52
292,798	110,42
293,012	106,32
293,227	89,94
293,442	53,08
293,657	100,18
293,871	173,91
294,086	147,28
294,301	173,91
294,516	110,42
294,73	108,37
294,945	-0,17
295,16	83,8
295,374	190,29
295,589	69,46
295,804	-41,13
296,018	73,56
296,233	173,91
296,447	85,84
296,662	59,22
296,877	182,1
297,091	130,9
297,306	40,79
297,52	-41,13
297,735	114,52
297,949	57,17
298,164	5,97
298,378	132,95
298,593	30,55
298,807	32,6
299,022	36,69
299,236	204,63
299,451	40,79
299,665	65,36
299,88	-32,94
300,094	81,75
300,309	73,56
300,523	-0,17
300,737	57,17
300,952	147,28
301,166	149,33
301,381	8,02
301,595	-24,75
301,809	20,31
302,024	12,12
302,238	-37,03
302,452	188,24
302,667	59,22
302,881	155,47
303,095	79,7
303,309	98,13
303,524	51,03
303,738	110,42
303,952	-22,7
304,166	108,37
304,381	-137,38
304,595	206,67
304,809	28,5
305,023	112,47
305,237	24,4
305,452	98,13
305,666	100,18
305,88	137,04
306,094	155,47
306,308	132,95
306,522	221,01
306,736	108,37
306,95	171,86
307,164	126,8
307,379	79,7
307,593	276,31
307,807	247,63
308,021	98,13
308,235	157,52
308,449	59,22
308,663	120,66
308,877	337,74
309,091	235,35
309,305	239,44
309,519	-45,23
309,733	290,64
309,947	22,36
310,161	132,95
310,374	173,91
310,588	190,29
310,802	130,9
311,016	110,42
311,23	175,95
311,444	48,98
311,658	126,8
311,872	198,48
312,085	247,63
312,299	261,97
312,513	243,54
312,727	212,82
312,941	71,51
313,154	132,95
313,368	192,34
313,582	141,14
313,796	218,96
314,009	130,9
314,223	272,21
314,437	73,56
314,651	266,07
314,864	26,45
315,078	112,47
315,292	67,41
315,505	44,88
315,719	114,52
315,933	77,65
316,146	48,98
316,36	91,99
316,573	173,91
316,787	120,66
317,001	173,91
317,214	63,32
317,428	106,32
317,641	114,52
317,855	36,69
318,068	32,6
318,282	175,95
318,495	294,74
318,709	110,42
318,922	30,55
319,136	204,63
319,349	182,1
319,563	108,37
319,776	106,32
319,99	34,64
320,203	204,63
320,417	71,51
320,63	210,77
320,843	296,78
321,057	51,03
321,27	65,36
321,483	173,91
321,697	180,05
321,91	175,95
322,124	141,14
322,337	132,95
322,55	67,41
322,763	155,47
322,977	100,18
323,19	81,75
323,403	126,8
323,617	81,75
323,83	204,63
324,043	151,38
324,256	122,71
324,469	-16,55
324,683	245,59
324,896	94,04
325,109	155,47
325,322	-32,94
325,535	165,71
325,748	221,01
325,962	38,74
326,175	120,66
326,388	132,95
326,601	180,05
326,814	48,98
327,027	91,99
327,24	139,09
327,453	-37,03
327,666	202,58
327,879	221,01
328,092	163,67
328,305	157,52
328,518	81,75
328,731	18,26
328,944	118,61
329,157	253,78
329,37	253,78
329,583	302,93
329,796	261,97
330,009	40,79
330,222	182,1
330,435	253,78
330,648	110,42
330,861	143,19
331,073	155,47
331,286	206,67
331,499	118,61
331,712	51,03
331,925	122,71
332,138	98,13
332,35	157,52
332,563	145,24
332,776	237,39
332,989	116,56
333,202	165,71
333,414	237,39
333,627	237,39
333,84	239,44
334,053	304,98
334,265	298,83
334,478	261,97
334,691	421,71
334,903	300,88
335,116	407,38
335,329	395,09
335,541	450,38
335,754	634,7
335,966	411,47
336,179	409,42
336,392	505,68
336,604	479,05
336,817	505,68
337,029	444,24
337,242	370,51
337,454	442,19
337,667	313,17
337,88	464,72
338,092	343,89
338,305	288,59
338,517	190,29
338,729	345,94
338,942	352,08
339,154	155,47
339,367	175,95
339,579	327,5
339,792	214,87
340,004	319,31
340,217	182,1
340,429	251,73
340,641	28,5
340,854	196,43
341,066	194,39
341,278	347,98
341,491	329,55
341,703	231,25
341,915	161,62
342,128	223,06
342,34	204,63
342,552	141,14
342,764	149,33
342,977	184,15
343,189	206,67
343,401	206,67
343,613	44,88
343,826	241,49
344,038	161,62
344,25	132,95
344,462	147,28
344,674	124,76
344,886	118,61
345,099	155,47
345,311	155,47
345,523	34,64
345,735	32,6
345,947	106,32
346,159	169,81
346,371	175,95
346,583	102,23
346,795	251,73
347,007	126,8
347,219	173,91
347,431	157,52
347,643	290,64
347,855	190,29
348,067	274,26
348,279	96,08
348,491	122,71
348,703	245,59
348,915	218,96
349,127	94,04
349,339	204,63
349,551	196,43
349,763	229,2
349,975	288,59
350,187	327,5
350,399	376,66
350,61	261,97
350,822	286,54
351,034	237,39
351,246	237,39
351,458	231,25
351,669	243,54
351,881	280,4
352,093	294,74
352,305	384,85
352,517	208,72
352,728	292,69
352,94	253,78
353,152	251,73
353,363	130,9
353,575	278,35
353,787	368,46
353,999	257,87
354,21	362,32
354,422	102,23
354,633	245,59
354,845	171,86
355,057	206,67
355,268	208,72
355,48	329,55
355,692	194,39
355,903	233,3
356,115	323,41
356,326	151,38
356,538	507,73
356,749	401,23
356,961	520,01
357,172	501,58
357,384	376,66
357,595	649,04
357,807	421,71
358,018	384,85
358,23	474,96
358,441	565,07
358,653	436,05
358,864	378,7
359,075	311,12
359,287	429,9
359,498	458,57
359,709	466,77
359,921	261,97
360,132	323,41
360,344	266,07
360,555	261,97
360,766	325,46
360,977	343,89
361,189	368,46
361,4	290,64
361,611	409,42
361,823	382,8
362,034	227,15
362,245	165,71
362,456	239,44
362,667	331,6
362,879	180,05
363,09	212,82
363,301	253,78
363,512	247,63
363,723	159,57
363,935	206,67
364,146	257,87
364,357	247,63
364,568	292,69
364,779	249,68
364,99	464,72
365,201	272,21
365,412	343,89
365,623	225,11
365,834	425,81
366,045	419,66
366,256	556,88
366,467	585,55
366,678	526,16
366,889	626,51
367,1	608,08
367,311	692,04
367,522	520,01
367,733	692,04
367,944	661,32
368,155	526,16
368,366	622,41
368,577	569,16
368,788	530,25
368,999	423,76
369,209	405,33
369,42	524,11
369,631	550,73
369,842	343,89
370,053	214,87
370,264	358,22
370,474	288,59
370,685	333,65
370,896	261,97
371,107	409,42
371,317	276,31
371,528	259,92
371,739	386,9
371,95	329,55
372,16	290,64
372,371	194,39
372,582	255,83
372,792	321,36
373,003	401,23
373,214	298,83
373,424	274,26
373,635	212,82
373,846	382,8
374,056	286,54
374,267	311,12
374,477	231,25
374,688	255,83
374,898	298,83
375,109	280,4
375,319	235,35
375,53	323,41
375,74	300,88
375,951	311,12
376,161	423,76
376,372	401,23
376,582	294,74
376,793	429,9
377,003	278,35
377,214	311,12
377,424	425,81
377,635	397,14
377,845	337,74
378,055	466,77
378,266	315,22
378,476	372,56
378,686	425,81
378,897	454,48
379,107	560,97
379,317	577,36
379,528	421,71
379,738	573,26
379,948	444,24
380,158	610,12
380,369	534,35
380,579	507,73
380,789	565,07
380,999	655,18
381,21	673,61
381,42	667,47
381,63	497,49
381,84	589,64
382,05	612,17
382,261	624,46
382,471	671,56
382,681	522,06
382,891	751,43
383,101	773,96
383,311	722,76
383,521	708,43
383,731	851,78
383,941	974,66
384,151	972,61
384,361	919,37
384,571	1017,67
384,781	1066,82
384,991	1263,43
385,201	1290,05
385,411	1122,12
385,621	1177,41
385,831	1247,04
386,041	1234,75
386,251	1232,71
386,461	1427,26
386,671	1238,85
386,881	1294,15
387,091	1236,8
387,301	1310,53
387,511	1355,58
387,72	1187,65
387,93	1337,15
388,14	1097,54
388,35	1113,92
388,56	1015,62
388,769	966,47
388,979	864,07
389,189	663,37
389,399	728,91
389,609	659,28
389,818	692,04
390,028	700,23
390,238	552,78
390,447	415,57
390,657	434
390,867	382,8
391,076	294,74
391,286	468,81
391,496	419,66
391,705	421,71
391,915	552,78
392,125	505,68
392,334	315,22
392,544	528,21
392,753	417,61
392,963	413,52
393,172	417,61
393,382	327,5
393,591	448,33
393,801	327,5
394,01	466,77
394,22	438,09
394,429	337,74
394,639	278,35
394,848	393,04
395,058	311,12
395,267	347,98
395,477	431,95
395,686	393,04
395,895	507,73
396,105	505,68
396,314	425,81
396,524	313,17
396,733	352,08
396,942	462,67
397,152	345,94
397,361	356,18
397,57	333,65
397,78	274,26
397,989	354,13
398,198	522,06
398,407	300,88
398,617	393,04
398,826	405,33
399,035	292,69
399,244	405,33
399,453	354,13
399,663	319,31
399,872	401,23
400,081	241,49
400,29	384,85
400,499	147,28
400,708	315,22
400,917	255,83
401,127	264,02
401,336	251,73
401,545	517,97
401,754	395,09
401,963	380,75
402,172	196,43
402,381	233,3
402,59	329,55
402,799	237,39
403,008	444,24
403,217	413,52
403,426	374,61
403,635	292,69
403,844	368,46
404,053	442,19
404,262	347,98
404,471	560,97
404,68	368,46
404,888	388,94
405,097	313,17
405,306	429,9
405,515	444,24
405,724	364,37
405,933	438,09
406,142	317,26
406,35	477,01
406,559	298,83
406,768	434
406,977	507,73
407,185	401,23
407,394	335,7
407,603	397,14
407,812	384,85
408,02	513,87
408,229	235,35
408,438	370,51
408,646	278,35
408,855	368,46
409,064	403,28
409,272	386,9
409,481	429,9
409,69	399,18
409,898	216,91
410,107	352,08
410,315	460,62
410,524	327,5
410,733	393,04
410,941	319,31
411,15	438,09
411,358	448,33
411,567	509,77
411,775	444,24
411,984	413,52
412,192	356,18
412,401	347,98
412,609	487,25
412,818	421,71
413,026	368,46
413,234	401,23
413,443	309,07
413,651	319,31
413,86	360,27
414,068	470,86
414,276	606,03
414,485	331,6
414,693	493,39
414,901	474,96
415,11	458,57
415,318	376,66
415,526	450,38
415,734	489,29
415,943	386,9
416,151	477,01
416,359	374,61
416,567	401,23
416,776	454,48
416,984	481,1
417,192	556,88
417,4	315,22
417,608	399,18
417,817	272,21
418,025	513,87
418,233	565,07
418,441	393,04
418,649	356,18
418,857	462,67
419,065	517,97
419,273	419,66
419,481	438,09
419,689	405,33
419,897	327,5
420,105	327,5
420,313	556,88
420,521	477,01
420,729	511,82
420,937	458,57
421,145	372,56
421,353	534,35
421,561	577,36
421,769	495,44
421,977	419,66
422,185	397,14
422,393	395,09
422,601	448,33
422,809	294,74
423,017	399,18
423,224	360,27
423,432	483,15
423,64	335,7
423,848	460,62
424,056	296,78
424,263	419,66
424,471	401,23
424,679	548,68
424,887	395,09
425,094	907,08
425,302	1109,83
425,51	1494,85
425,718	2066,23
425,925	2541,36
426,133	3219,24
426,341	4030,23
426,548	4802,32
426,756	5433,09
426,964	6102,78
427,171	6848,24
427,379	7229,16
427,586	7298,79
427,794	7182,06
428,001	7030,51
428,209	6403,83
428,417	5416,71
428,624	4933,39
428,832	3938,07
429,039	3012,39
429,247	2342,71
429,454	2305,84
429,662	2449,2
429,869	2361,14
430,076	2965,29
430,284	3346,21
430,491	4261,65
430,699	5250,82
430,906	6233,85
431,114	6842,09
431,321	7755,49
431,528	8652,5
431,736	9709,25
431,943	10204,86
432,15	10045,12
432,358	9422,53
432,565	8838,86
432,772	7571,17
432,979	6579,95
433,187	5109,51
433,394	3999,51
433,601	3151,65
433,808	2441,01
434,016	1756,99
434,223	1496,89
434,43	1328,96
434,637	1226,56
434,844	1331,01
435,052	1445,7
435,259	1574,72
435,466	1822,52
435,673	2039,61
435,88	2492,21
436,087	2828,07
436,294	3215,14
436,501	3186,47
436,708	3450,66
436,915	3632,93
437,122	3661,6
437,329	3626,78
437,537	3684,13
437,743	3589,92
437,95	3471,14
438,157	3221,28
438,364	2858,79
438,571	2621,23
438,778	2240,31
438,985	2031,41
439,192	1738,55
439,399	1331,01
439,606	1277,76
439,813	1261,38
440,02	1193,8
440,227	1120,07
440,433	1032,01
440,64	829,26
440,847	681,8
441,054	829,26
441,261	790,35
441,467	780,11
441,674	595,79
441,881	673,61
442,088	632,65
442,294	603,98
442,501	657,23
442,708	532,3
442,914	483,15
443,121	565,07
443,328	724,81
443,534	839,5
443,741	933,7
443,948	859,98
444,154	1427,26
444,361	1818,43
444,568	2027,32
444,774	2453,3
444,981	2793,26
445,187	3434,27
445,394	3749,66
445,6	4011,8
445,807	4540,18
446,013	4382,48
446,22	4316,95
446,426	4540,18
446,633	4120,34
446,839	4003,61
447,046	3182,37
447,252	2891,56
447,459	2295,6
447,665	1761,08
447,871	1701,69
448,078	1554,24
448,284	1279,81
448,491	1292,1
448,697	1271,62
448,903	1421,12
449,11	1496,89
449,316	1597,24
449,522	1990,45
449,728	2039,61
449,935	2240,31
450,141	2383,66
450,347	2524,97
450,553	2320,18
450,76	2168,63
450,966	2154,29
451,172	1879,86
451,378	1568,57
451,584	1285,95
451,791	1257,28
451,997	935,75
452,203	728,91
452,409	804,68
452,615	663,37
452,821	571,21
453,027	411,47
453,233	628,56
453,44	460,62
453,646	458,57
453,852	427,85
454,058	327,5
454,264	460,62
454,47	503,63
454,676	460,62
454,882	505,68
455,088	479,05
455,294	468,81
455,5	444,24
455,705	470,86
455,911	417,61
456,117	364,37
456,323	474,96
456,529	393,04
456,735	372,56
456,941	466,77
457,147	423,76
457,352	407,38
457,558	354,13
457,764	522,06
457,97	321,36
458,176	491,34
458,381	511,82
458,587	595,79
458,793	462,67
458,999	339,79
459,204	411,47
459,41	354,13
459,616	425,81
459,821	446,29
460,027	347,98
460,233	585,55
460,438	436,05
460,644	515,92
460,85	540,49
461,055	497,49
461,261	530,25
461,466	368,46
461,672	466,77
461,878	347,98
462,083	499,53
462,289	274,26
462,494	237,39
462,7	376,66
462,905	302,93
463,111	393,04
463,316	470,86
463,522	395,09
463,727	384,85
463,932	397,14
464,138	378,7
464,343	374,61
464,549	540,49
464,754	526,16
464,959	509,77
465,165	431,95
465,37	384,85
465,575	341,84
465,781	474,96
465,986	477,01
466,191	474,96
466,397	591,69
466,602	593,74
466,807	509,77
467,012	634,7
467,218	616,27
467,423	597,84
467,628	569,16
467,833	540,49
468,038	575,31
468,244	505,68
468,449	565,07
468,654	581,45
468,859	528,21
469,064	532,3
469,269	556,88
469,474	630,6
469,679	726,86
469,885	614,22
470,09	597,84
470,295	636,75
470,5	423,76
470,705	610,12
470,91	606,03
471,115	630,6
471,32	593,74
471,525	687,95
471,73	755,53
471,935	575,31
472,139	431,95
472,344	507,73
472,549	526,16
472,754	577,36
472,959	667,47
473,164	532,3
473,369	610,12
473,574	747,34
473,778	507,73
473,983	601,93
474,188	575,31
474,393	450,38
474,598	591,69
474,802	554,83
475,007	448,33
475,212	601,93
475,417	573,26
475,621	651,08
475,826	403,28
476,031	575,31
476,235	624,46
476,44	589,64
476,645	515,92
476,849	491,34
477,054	462,67
477,259	442,19
477,463	661,32
477,668	708,43
477,872	710,47
478,077	556,88
478,282	532,3
478,486	532,3
478,691	540,49
478,895	565,07
479,1	548,68
479,304	581,45
479,509	515,92
479,713	638,8
479,918	679,75
480,122	608,08
480,326	558,92
480,531	687,95
480,735	616,27
480,94	663,37
481,144	814,92
481,348	730,95
481,553	757,58
481,757	708,43
481,961	765,77
482,166	728,91
482,37	706,38
482,574	847,69
482,778	712,52
482,983	851,78
483,187	616,27
483,391	704,33
483,595	646,99
483,8	737,1
484,004	814,92
484,208	692,04
484,412	755,53
484,616	714,57
484,821	669,52
485,025	681,8
485,229	663,37
485,433	806,73
485,637	608,08
485,841	667,47
486,045	796,49
486,249	841,54
486,453	757,58
486,657	771,91
486,861	714,57
487,065	851,78
487,269	870,22
487,473	771,91
487,677	888,65
487,881	1195,84
488,085	880,46
488,289	905,03
488,493	847,69
488,697	1017,67
488,901	933,7
489,105	900,94
489,309	880,46
489,512	960,33
489,716	1019,72
489,92	948,04
490,124	804,68
490,328	913,22
490,531	909,13
490,735	835,4
490,939	759,63
491,143	905,03
491,346	694,09
491,55	778,06
491,754	800,59
491,958	786,25
492,161	778,06
492,365	692,04
492,569	733
492,772	755,53
492,976	876,36
493,18	675,66
493,383	704,33
493,587	589,64
493,79	679,75
493,994	556,88
494,197	683,85
494,401	620,36
494,605	659,28
494,808	642,89
495,012	583,5
495,215	698,19
495,419	778,06
495,622	696,14
495,825	601,93
496,029	757,58
496,232	743,24
496,436	704,33
496,639	853,83
496,843	810,82
497,046	622,41
497,249	810,82
497,453	780,11
497,656	687,95
497,859	753,48
498,063	724,81
498,266	747,34
498,469	601,93
498,673	714,57
498,876	733
499,079	667,47
499,282	743,24
499,485	960,33
499,689	671,56
499,892	837,45
500,095	663,37
500,298	608,08
500,501	630,6
500,705	671,56
500,908	687,95
501,111	612,17
501,314	671,56
501,517	786,25
501,72	689,99
501,923	681,8
502,126	567,12
502,329	706,38
502,532	747,34
502,735	722,76
502,938	810,82
503,141	726,86
503,344	624,46
503,547	792,39
503,75	749,39
503,953	687,95
504,156	728,91
504,359	814,92
504,562	741,19
504,765	800,59
504,968	874,31
505,17	839,5
505,373	927,56
505,576	950,09
505,779	872,26
505,982	730,95
506,185	978,76
506,387	823,11
506,59	982,85
506,793	943,94
506,996	960,33
507,198	1077,06
507,401	1036,1
507,604	999,24
507,807	962,37
508,009	1038,15
508,212	950,09
508,415	952,13
508,617	804,68
508,82	892,74
509,022	827,21
509,225	872,26
509,428	816,97
509,63	810,82
509,833	616,27
510,035	960,33
510,238	913,22
510,44	720,71
510,643	821,06
510,845	925,51
511,048	851,78
511,25	849,74
511,453	808,78
511,655	802,63
511,858	999,24
512,06	1081,16
512,262	892,74
512,465	909,13
512,667	968,52
512,87	954,18
513,072	1173,32
513,274	1079,11
513,477	1046,34
513,679	1134,4
513,881	1099,59
514,084	1148,74
514,286	1124,16
514,488	1236,8
514,69	1228,61
514,893	1113,92
515,095	1214,27
515,297	1099,59
515,499	1148,74
515,701	1091,4
515,904	1253,19
516,106	1214,27
516,308	1183,56
516,51	1070,92
516,712	1042,25
516,914	1007,43
517,116	919,37
517,318	919,37
517,52	931,66
517,722	876,36
517,925	843,59
518,127	864,07
518,329	853,83
518,531	583,5
518,733	696,14
518,935	638,8
519,136	763,72
519,338	560,97
519,54	601,93
519,742	821,06
519,944	773,96
520,146	681,8
520,348	577,36
520,55	556,88
520,752	642,89
520,954	595,79
521,155	681,8
521,357	620,36
521,559	720,71
521,761	671,56
521,963	814,92
522,164	763,72
522,366	726,86
522,568	720,71
522,77	868,17
522,971	794,44
523,173	806,73
523,375	759,63
523,576	722,76
523,778	646,99
523,98	638,8
524,181	925,51
524,383	796,49
524,584	778,06
524,786	747,34
524,988	712,52
525,189	819,02
525,391	796,49
525,592	757,58
525,794	722,76
525,995	753,48
526,197	870,22
526,398	960,33
526,6	872,26
526,801	841,54
527,003	640,84
527,204	722,76
527,406	786,25
527,607	835,4
527,808	765,77
528,01	689,99
528,211	853,83
528,412	595,79
528,614	722,76
528,815	816,97
529,016	722,76
529,218	689,99
529,419	710,47
529,62	587,6
529,822	651,08
530,023	599,88
530,224	634,7
530,425	683,85
530,626	646,99
530,828	638,8
531,029	622,41
531,23	792,39
531,431	624,46
531,632	794,44
531,833	687,95
532,035	812,87
532,236	720,71
532,437	819,02
532,638	749,39
532,839	696,14
533,04	917,32
533,241	851,78
533,442	905,03
533,643	950,09
533,844	913,22
534,045	819,02
534,246	935,75
534,447	819,02
534,648	984,9
534,849	968,52
535,05	995,14
535,251	843,59
535,451	933,7
535,652	845,64
535,853	894,79
536,054	905,03
536,255	878,41
536,456	886,6
536,657	823,11
536,857	855,88
537,058	884,55
537,259	769,87
537,46	835,4
537,66	720,71
537,861	784,2
538,062	704,33
538,263	491,34
538,463	786,25
538,664	667,47
538,865	692,04
539,065	646,99
539,266	722,76
539,466	507,73
539,667	780,11
539,868	651,08
540,068	765,77
540,269	677,71
540,469	694,09
540,67	745,29
540,87	673,61
541,071	581,45
541,271	692,04
541,472	743,24
541,672	667,47
541,873	726,86
542,073	606,03
542,274	665,42
542,474	753,48
542,675	704,33
542,875	659,28
543,075	542,54
543,276	706,38
543,476	601,93
543,676	780,11
543,877	642,89
544,077	728,91
544,277	673,61
544,478	673,61
544,678	710,47
544,878	769,87
545,078	665,42
545,279	679,75
545,479	626,51
545,679	556,88
545,879	687,95
546,079	737,1
546,28	485,2
546,48	681,8
546,68	798,54
546,88	673,61
547,08	646,99
547,28	679,75
547,48	542,54
547,68	726,86
547,88	702,28
548,081	782,15
548,281	681,8
548,481	784,2
548,681	884,55
548,881	884,55
549,081	1075,01
549,28	1009,48
549,48	999,24
549,68	1230,66
549,88	1105,73
550,08	1105,73
550,28	1109,83
550,48	1322,82
550,68	1161,03
550,88	1154,88
551,08	1077,06
551,279	1115,97
551,479	1001,29
551,679	1206,08
551,879	954,18
552,079	1050,44
552,278	1130,31
552,478	1085,25
552,678	1042,25
552,878	974,66
553,077	819,02
553,277	831,3
553,477	767,82
553,676	907,08
553,876	716,62
554,076	786,25
554,275	1001,29
554,475	1378,11
554,674	2090,81
554,874	3211,04
555,074	5166,85
555,273	8396,5
555,473	12975,76
555,672	18890,29
555,872	26158,53
556,071	33926,48
556,271	41067,75
556,47	46298,26
556,67	50103,38
556,869	51491,91
557,068	52139,07
557,268	50838,61
557,467	48045,18
557,667	44102,84
557,866	39943,41
558,065	35130,69
558,265	29623,7
558,464	24839,64
558,663	21153,3
558,863	17122,9
559,062	14438,01
559,261	11292,33
559,461	9440,97
559,66	7259,88
559,859	5463,81
560,058	3950,36
560,258	2744,11
560,457	2019,13
560,656	1720,12
560,855	1169,22
561,054	1021,77
561,253	935,75
561,453	745,29
561,652	814,92
561,851	843,59
562,05	671,56
562,249	550,73
562,448	702,28
562,647	583,5
562,846	700,23
563,045	749,39
563,244	747,34
563,443	859,98
563,642	1072,96
563,841	1140,55
564,04	1310,53
564,239	1515,33
564,438	1642,3
564,637	1582,91
564,836	1740,6
565,035	1746,75
565,234	1681,21
565,432	1656,64
565,631	1845,05
565,83	1699,64
566,029	1630,01
566,228	1609,53
566,427	1683,26
566,625	1337,15
566,824	1548,09
567,023	1468,22
567,222	1558,33
567,42	1488,7
567,619	1460,03
567,818	1339,2
568,016	1558,33
568,215	1253,19
568,414	1343,3
568,612	1179,46
568,811	1118,02
569,01	1089,35
569,208	1044,29
569,407	1191,75
569,605	1009,48
569,804	1054,53
570,002	1077,06
570,201	943,94
570,4	1105,73
570,598	978,76
570,797	986,95
570,995	982,85
571,193	1060,68
571,392	982,85
571,59	974,66
571,789	989
571,987	1056,58
572,186	991,05
572,384	851,78
572,582	892,74
572,781	857,93
572,979	737,1
573,177	814,92
573,376	798,54
573,574	878,41
573,772	696,14
573,971	638,8
574,169	657,23
574,367	771,91
574,565	673,61
574,763	636,75
574,962	593,74
575,16	710,47
575,358	597,84
575,556	622,41
575,754	630,6
575,952	649,04
576,151	597,84
576,349	681,8
576,547	581,45
576,745	626,51
576,943	595,79
577,141	626,51
577,339	382,8
577,537	581,45
577,735	663,37
577,933	708,43
578,131	538,45
578,329	718,67
578,527	628,56
578,725	681,8
578,923	499,53
579,121	587,6
579,319	483,15
579,516	515,92
579,714	829,26
579,912	538,45
580,11	542,54
580,308	597,84
580,506	739,15
580,704	524,11
580,901	608,08
581,099	757,58
581,297	700,23
581,495	864,07
581,692	968,52
581,89	1195,84
582,088	1261,38
582,285	1474,37
582,483	1488,7
582,681	1566,53
582,878	1677,12
583,076	1724,22
583,274	1697,6
583,471	1787,71
583,669	1513,28
583,866	1367,87
584,064	1304,39
584,262	1097,54
584,459	1130,31
584,657	1187,65
584,854	1238,85
585,052	1242,95
585,249	2053,94
585,447	4298,52
585,644	8476,37
585,841	15494,76
586,039	24315,36
586,236	33183,07
586,434	41225,44
586,631	47764,6
586,828	52939,82
587,026	54455,32
587,223	54653,97
587,42	53115,95
587,618	50377,81
587,815	46439,57
588,012	41923,8
588,21	37057,82
588,407	32738,66
588,604	27545,01
588,801	23406,06
588,999	20000,29
589,196	16506,46
589,393	13473,42
589,59	11132,59
589,787	8851,15
589,984	7028,46
590,182	5140,23
590,379	3718,94
590,576	2791,21
590,773	2023,22
590,97	1486,65
591,167	1294,15
591,364	1046,34
591,561	884,55
591,758	909,13
591,955	771,91
592,152	638,8
592,349	593,74
592,546	474,96
592,743	499,53
592,94	442,19
593,137	489,29
593,334	524,11
593,531	522,06
593,727	536,4
593,924	491,34
594,121	474,96
594,318	485,2
594,515	491,34
594,712	556,88
594,908	499,53
595,105	307,02
595,302	460,62
595,499	456,53
595,696	575,31
595,892	347,98
596,089	534,35
596,286	386,9
596,482	485,2
596,679	470,86
596,876	415,57
597,072	466,77
597,269	390,99
597,466	477,01
597,662	491,34
597,859	479,05
598,055	804,68
598,252	1095,49
598,448	1443,65
598,645	1623,87
598,841	1744,7
599,038	2015,03
599,234	2256,69
599,431	2246,45
599,627	2178,87
599,824	2234,16
600,02	2232,12
600,217	2211,64
600,413	2322,23
600,609	2316,08
600,806	2678,57
601,002	2367,28
601,198	2211,64
601,395	2144,05
601,591	2023,22
601,787	1781,56
601,984	1875,77
602,18	1693,5
602,376	1625,92
602,572	1414,98
602,769	1564,48
602,965	1386,3
603,161	1355,58
603,357	1310,53
603,553	1351,49
603,75	1218,37
603,946	1343,3
604,142	1193,8
604,338	1410,88
604,534	1402,69
604,73	1460,03
604,926	1595,2
605,122	1816,38
605,318	1793,85
605,514	1888,06
605,71	1777,47
605,906	1834,81
606,102	1621,82
606,298	1707,84
606,494	1533,76
606,69	1576,77
606,886	1410,88
607,082	1410,88
607,278	1328,96
607,474	1394,5
607,67	1324,87
607,866	1234,75
608,062	1500,99
608,257	1439,55
608,453	1152,84
608,649	1242,95
608,845	984,9
609,041	1029,96
609,236	853,83
609,432	974,66
609,628	792,39
609,824	810,82
610,019	583,5
610,215	735,05
610,411	657,23
610,606	759,63
610,802	591,69
610,998	579,4
611,193	558,92
611,389	493,39
611,584	593,74
611,78	386,9
611,976	472,91
612,171	679,75
612,367	483,15
612,562	524,11
612,758	509,77
612,953	483,15
613,149	450,38
613,344	565,07
613,539	425,81
613,735	511,82
613,93	583,5
614,126	517,97
614,321	528,21
614,517	720,71
614,712	644,94
614,907	773,96
615,103	735,05
615,298	544,59
615,493	548,68
615,688	436,05
615,884	673,61
616,079	601,93
616,274	585,55
616,47	411,47
616,665	485,2
616,86	587,6
617,055	497,49
617,25	411,47
617,445	489,29
617,641	450,38
617,836	403,28
618,031	286,54
618,226	352,08
618,421	534,35
618,616	309,07
618,811	362,32
619,006	266,07
619,201	456,53
619,396	282,45
619,591	241,49
619,786	395,09
619,981	446,29
620,176	397,14
620,371	319,31
620,566	339,79
620,761	333,65
620,956	362,32
621,151	376,66
621,346	491,34
621,541	417,61
621,735	577,36
621,93	425,81
622,125	419,66
622,32	450,38
622,515	479,05
622,709	589,64
622,904	769,87
623,099	733
623,294	966,47
623,488	874,31
623,683	825,16
623,878	839,5
624,072	802,63
624,267	603,98
624,462	663,37
624,656	540,49
624,851	685,9
625,046	579,4
625,24	528,21
625,435	563,02
625,629	470,86
625,824	630,6
626,018	479,05
626,213	485,2
626,407	409,42
626,602	454,48
626,796	409,42
626,991	421,71
627,185	321,36
627,38	374,61
627,574	429,9
627,768	429,9
627,963	268,11
628,157	345,94
628,352	366,42
628,546	239,44
628,74	313,17
628,935	370,51
629,129	337,74
629,323	335,7
629,517	208,72
629,712	253,78
629,906	261,97
630,1	317,26
630,294	366,42
630,489	356,18
630,683	257,87
630,877	257,87
631,071	380,75
631,265	231,25
631,459	337,74
631,653	380,75
631,848	354,13
632,042	315,22
632,236	221,01
632,43	325,46
632,624	350,03
632,818	380,75
633,012	319,31
633,206	325,46
633,4	253,78
633,594	386,9
633,788	438,09
633,982	454,48
634,176	524,11
634,369	425,81
634,563	468,81
634,757	343,89
634,951	587,6
635,145	581,45
635,339	413,52
635,533	493,39
635,726	556,88
635,92	352,08
636,114	317,26
636,308	532,3
636,501	558,92
636,695	630,6
636,889	616,27
637,083	642,89
637,276	546,64
637,47	495,44
637,664	546,64
637,857	571,21
638,051	524,11
638,244	614,22
638,438	454,48
638,632	649,04
638,825	352,08
639,019	640,84
639,212	497,49
639,406	522,06
639,599	431,95
639,793	565,07
639,986	509,77
640,18	679,75
640,373	608,08
640,567	581,45
640,76	724,81
640,954	956,23
641,147	1210,18
641,34	1517,37
641,534	1740,6
641,727	1963,83
641,92	1916,73
642,114	2131,76
642,307	2055,99
642,5	1929,02
642,694	1722,17
642,887	1695,55
643,08	1673,02
643,273	1572,67
643,467	1343,3
643,66	1322,82
643,853	1130,31
644,046	1171,27
644,239	1197,89
644,432	1421,12
644,626	1818,43
644,819	2232,12
645,012	2658,09
645,205	3069,73
645,398	3270,44
645,591	3295,01
645,784	3127,08
645,977	3098,41
646,17	2780,97
646,363	2678,57
646,556	2586,41
646,749	2357,04
646,942	2197,3
647,135	2137,91
647,328	1756,99
647,521	1752,89
647,714	1482,56
647,907	1433,41
648,099	1097,54
648,292	1165,12
648,485	1007,43
648,678	958,28
648,871	837,45
649,064	769,87
649,256	601,93
649,449	638,8
649,642	597,84
649,835	606,03
650,027	612,17
650,22	702,28
650,413	567,12
650,605	649,04
650,798	431,95
650,991	546,64
651,183	524,11
651,376	626,51
651,568	620,36
651,761	501,58
651,954	599,88
652,146	524,11
652,339	569,16
652,531	649,04
652,724	403,28
652,916	331,6
653,109	405,33
653,301	634,7
653,494	626,51
653,686	556,88
653,879	612,17
654,071	503,63
654,263	487,25
654,456	466,77
654,648	636,75
654,84	681,8
655,033	544,59
655,225	784,2
655,417	661,32
655,61	982,85
655,802	1081,16
655,994	1195,84
656,186	1081,16
656,379	1187,65
656,571	1083,2
656,763	1103,68
656,955	962,37
657,148	919,37
657,34	1083,2
657,532	896,84
657,724	870,22
657,916	806,73
658,108	878,41
658,3	733
658,492	687,95
658,684	575,31
658,876	608,08
659,068	429,9
659,26	354,13
659,452	425,81
659,644	438,09
659,836	501,58
660,028	436,05
660,22	335,7
660,412	368,46
660,604	366,42
660,796	417,61
660,988	431,95
661,18	290,64
661,372	368,46
661,563	317,26
661,755	302,93
661,947	253,78
662,139	266,07
662,331	264,02
662,522	253,78
662,714	235,35
662,906	270,16
663,097	245,59
663,289	204,63
663,481	223,06
663,673	247,63
663,864	319,31
664,056	413,52
664,247	307,02
664,439	472,91
664,631	612,17
664,822	747,34
665,014	651,08
665,205	677,71
665,397	692,04
665,588	630,6
665,78	616,27
665,971	692,04
666,163	620,36
666,354	565,07
666,546	507,73
666,737	423,76
666,929	378,7
667,12	331,6
667,311	438,09
667,503	368,46
667,694	378,7
667,885	415,57
668,077	382,8
668,268	231,25
668,459	298,83
668,651	378,7
668,842	454,48
669,033	421,71
669,224	499,53
669,416	911,18
669,607	794,44
669,798	808,78
669,989	835,4
670,18	794,44
670,371	755,53
670,563	626,51
670,754	765,77
670,945	630,6
671,136	749,39
671,327	558,92
671,518	640,84
671,709	696,14
671,9	579,4
672,091	548,68
672,282	472,91
672,473	497,49
672,664	360,27
672,855	405,33
673,046	472,91
673,237	511,82
673,428	444,24
673,619	552,78
673,809	352,08
674	573,26
674,191	489,29
674,382	333,65
674,573	415,57
674,764	352,08
674,954	452,43
675,145	266,07
675,336	261,97
675,527	247,63
675,717	239,44
675,908	311,12
676,099	284,5
676,289	319,31
676,48	165,71
676,671	233,3
676,861	286,54
677,052	339,79
677,243	261,97
677,433	229,2
677,624	241,49
677,814	337,74
678,005	216,91
678,195	343,89
678,386	155,47
678,576	237,39
678,767	157,52
678,957	294,74
679,148	300,88
679,338	374,61
679,529	325,46
679,719	167,76
679,909	403,28
680,1	341,84
680,29	442,19
680,481	276,31
680,671	601,93
680,861	655,18
681,052	610,12
681,242	595,79
681,432	718,67
681,622	708,43
681,813	599,88
682,003	679,75
682,193	538,45
682,383	630,6
682,573	493,39
682,764	524,11
682,954	569,16
683,144	511,82
683,334	434
683,524	454,48
683,714	479,05
683,904	460,62
684,094	399,18
684,284	417,61
684,474	524,11
684,664	425,81
684,854	345,94
685,044	323,41
685,234	376,66
685,424	393,04
685,614	339,79
685,804	513,87
685,994	378,7
686,184	401,23
686,374	380,75
686,564	477,01
686,753	337,74
686,943	393,04
687,133	370,51
687,323	286,54
687,513	413,52
687,702	317,26
687,892	292,69
688,082	434
688,272	366,42
688,461	257,87
688,651	427,85
688,841	352,08
689,03	270,16
689,22	403,28
689,41	618,32
689,599	835,4
689,789	941,89
689,979	1384,26
690,168	1441,6
690,358	1718,08
690,547	1584,96
690,737	1601,34
690,926	1496,89
691,116	1335,1
691,305	1376,06
691,495	1281,86
691,684	1083,2
691,874	1083,2
692,063	941,89
692,252	952,13
692,442	962,37
692,631	761,67
692,82	536,4
693,01	669,52
693,199	546,64
693,388	597,84
693,578	407,38
693,767	493,39
693,956	479,05
694,146	425,81
694,335	311,12
694,524	272,21
694,713	386,9
694,902	272,21
695,092	288,59
695,281	286,54
695,47	245,59
695,659	229,2
695,848	436,05
696,037	257,87
696,226	483,15
696,415	352,08
696,604	485,2
696,793	434
696,982	341,84
697,171	495,44
697,36	304,98
697,549	317,26
697,738	200,53
697,927	329,55
698,116	272,21
698,305	366,42
698,494	376,66
698,683	370,51
698,872	569,16
699,061	343,89
699,25	261,97
699,438	339,79
699,627	300,88
699,816	491,34
700,005	294,74
700,193	253,78
700,382	438,09
700,571	292,69
700,76	337,74
700,948	370,51
701,137	468,81
701,326	307,02
701,514	245,59
701,703	378,7
701,892	321,36
702,08	550,73
702,269	329,55
702,457	245,59
702,646	335,7
702,834	286,54
703,023	315,22
703,212	403,28
703,4	302,93
703,589	212,82
703,777	266,07
703,965	245,59
704,154	247,63
704,342	155,47
704,531	257,87
704,719	243,54
704,907	329,55
705,096	247,63
705,284	231,25
705,472	339,79
705,661	460,62
705,849	362,32
706,037	352,08
706,226	382,8
706,414	298,83
706,602	225,11
706,79	317,26
706,979	221,01
707,167	270,16
707,355	114,52
707,543	251,73
707,731	313,17
707,919	272,21
708,107	233,3
708,296	198,48
708,484	180,05
708,672	286,54
708,86	354,13
709,048	270,16
709,236	198,48
709,424	296,78
709,612	237,39
709,8	57,17
709,988	192,34
710,176	225,11
710,364	266,07
710,551	233,3
710,739	198,48
710,927	188,24
711,115	218,96
711,303	261,97
711,491	307,02
711,679	145,24
711,866	237,39
712,054	155,47
712,242	221,01
712,43	311,12
712,617	165,71
712,805	261,97
712,993	247,63
713,181	126,8
713,368	313,17
713,556	178
713,744	261,97
713,931	429,9
714,119	239,44
714,306	227,15
714,494	245,59
714,682	257,87
714,869	167,76
715,057	231,25
715,244	57,17
715,432	223,06
715,619	175,95
715,807	194,39
715,994	253,78
716,182	270,16
716,369	257,87
716,556	257,87
716,744	167,76
716,931	128,85
717,119	223,06
717,306	83,8
717,493	300,88
717,681	104,28
717,868	73,56
718,055	247,63
718,242	171,86
718,43	196,43
718,617	272,21
718,804	159,57
718,991	270,16
719,179	231,25
719,366	343,89
719,553	186,19
719,74	241,49
719,927	255,83
720,114	155,47
720,301	132,95
720,488	184,15
720,676	108,37
720,863	347,98
721,05	468,81
721,237	401,23
721,424	651,08
721,611	886,6
721,798	1068,87
721,985	1378,11
722,172	1720,12
722,358	1802,04
722,545	2058,04
722,732	1926,97
722,919	1861,43
723,106	1640,25
723,293	1601,34
723,48	1449,79
723,667	1306,43
723,853	1269,57
724,04	1247,04
724,227	1187,65
724,414	1056,58
724,6	993,09
724,787	909,13
724,974	872,26
725,161	773,96
725,347	583,5
725,534	573,26
725,72	593,74
725,907	610,12
726,094	517,97
726,28	421,71
726,467	481,1
726,653	444,24
726,84	608,08
727,027	657,23
727,213	425,81
727,4	491,34
727,586	577,36
727,773	728,91
727,959	911,18
728,145	1189,7
728,332	1281,86
728,518	1402,69
728,705	1722,17
728,891	1607,48
729,077	1503,04
729,264	1285,95
729,45	1269,57
729,636	1345,34
729,823	1148,74
730,009	1214,27
730,195	1163,08
730,382	1097,54
730,568	870,22
730,754	890,7
730,94	837,45
731,126	720,71
731,313	728,91
731,499	597,84
731,685	730,95
731,871	630,6
732,057	528,21
732,243	558,92
732,429	495,44
732,615	651,08
732,801	532,3
732,987	552,78
733,173	477,01
733,359	438,09
733,545	573,26
733,731	513,87
733,917	696,14
734,103	466,77
734,289	599,88
734,475	427,85
734,661	644,94
734,847	550,73
735,033	515,92
735,219	601,93
735,404	448,33
735,59	567,12
735,776	460,62
735,962	587,6
736,148	565,07
736,333	671,56
736,519	616,27
736,705	601,93
736,89	585,55
737,076	583,5
737,262	515,92
737,447	554,83
737,633	493,39
737,819	696,14
738,004	481,1
738,19	593,74
738,375	538,45
738,561	608,08
738,747	505,68
738,932	446,29
739,118	728,91
739,303	632,65
739,489	542,54
739,674	524,11
739,859	499,53
740,045	630,6
740,23	524,11
740,416	407,38
740,601	589,64
740,786	515,92
740,972	536,4
741,157	468,81
741,342	438,09
741,528	581,45
741,713	819,02
741,898	853,83
742,084	978,76
742,269	993,09
742,454	1156,93
742,639	1247,04
742,824	1247,04
743,01	1269,57
743,195	1242,95
743,38	1011,53
743,565	915,27
743,75	933,7
743,935	999,24
744,12	1009,48
744,305	763,72
744,49	876,36
744,675	757,58
744,86	868,17
745,045	870,22
745,23	819,02
745,415	810,82
745,6	821,06
745,785	663,37
745,97	800,59
746,155	700,23
746,34	773,96
746,525	700,23
746,71	833,35
746,895	618,32
747,079	685,9
747,264	708,43
747,449	782,15
747,634	1017,67
747,819	1120,07
748,003	1378,11
748,188	1560,38
748,373	1933,11
748,557	2154,29
748,742	2326,32
748,927	2502,45
749,111	2430,77
749,296	2295,6
749,481	2305,84
749,665	2254,64
749,85	2064,18
750,034	1986,36
750,219	1902,39
750,404	1781,56
750,588	1728,31
750,773	1675,07
750,957	1621,82
751,141	1548,09
751,326	1361,73
751,51	1126,21
751,695	1191,75
751,879	1001,29
752,064	1187,65
752,248	941,89
752,432	1056,58
752,617	999,24
752,801	1146,69
752,985	937,8
753,17	1015,62
753,354	991,05
753,538	995,14
753,722	960,33
753,907	984,9
754,091	933,7
754,275	1138,5
754,459	976,71
754,643	999,24
754,828	1146,69
755,012	1285,95
755,196	1236,8
755,38	1392,45
755,564	1369,92
755,748	1484,61
755,932	1691,45
756,116	1822,52
756,3	1791,8
756,484	2019,13
756,668	2215,73
756,852	2297,65
757,036	2596,65
757,22	3053,35
757,404	5314,31
757,588	13762,18
757,772	37414,17
757,956	63605,64
758,14	63605,64
758,323	63605,64
758,507	63605,64
758,691	63605,64
758,875	63605,64
759,059	63605,64
759,242	63605,64
759,426	63605,64
759,61	63605,64
759,794	63605,64
759,977	63605,64
760,161	63605,64
760,345	63605,64
760,528	63605,64
760,712	63605,64
760,895	63605,64
761,079	63605,64
761,263	63605,64
761,446	63605,64
761,63	63605,64
761,813	63605,64
761,997	63605,64
762,18	63605,64
762,364	63605,64
762,547	63605,64
762,731	63605,64
762,914	63605,64
763,098	63605,64
763,281	63605,64
763,464	63605,64
763,648	63605,64
763,831	63605,64
764,015	63605,64
764,198	63605,64
764,381	63605,64
764,564	63605,64
764,748	63605,64
764,931	63605,64
765,114	63605,64
765,297	63605,64
765,481	63605,64
765,664	63605,64
765,847	63605,64
766,03	63605,64
766,213	63605,64
766,397	63605,64
766,58	63605,64
766,763	63605,64
766,946	63605,64
767,129	63605,64
767,312	63605,64
767,495	63605,64
767,678	63605,64
767,861	63605,64
768,044	63605,64
768,227	63605,64
768,41	63605,64
768,593	63605,64
768,776	63605,64
768,959	63605,64
769,142	63605,64
769,324	63605,64
769,507	63605,64
769,69	63605,64
769,873	63605,64
770,056	63605,64
770,239	63605,64
770,421	63605,64
770,604	63605,64
770,787	63605,64
770,97	63605,64
771,152	63605,64
771,335	63605,64
771,518	63605,64
771,7	63605,64
771,883	63605,64
772,066	63605,64
772,248	63605,64
772,431	63605,64
772,613	63605,64
772,796	63605,64
772,978	63605,64
773,161	63605,64
773,343	63605,64
773,526	63605,64
773,708	63605,64
773,891	63605,64
774,073	63605,64
774,256	63605,64
774,438	63605,64
774,621	63605,64
774,803	63605,64
774,985	63605,64
775,168	63605,64
775,35	63605,64
775,532	63605,64
775,715	63605,64
775,897	63605,64
776,079	63605,64
776,261	63605,64
776,444	63605,64
776,626	63605,64
776,808	63605,64
776,99	63605,64
777,173	63605,64
777,355	63605,64
777,537	63605,64
777,719	63605,64
777,901	63605,64
778,083	63605,64
778,265	63605,64
778,447	63605,64
778,629	63605,64
778,811	63605,64
778,993	63605,64
779,175	63605,64
779,357	63605,64
779,539	63605,64
779,721	63605,64
779,903	63605,64
780,085	63605,64
780,267	63605,64
780,449	63605,64
780,631	63605,64
780,812	63605,64
780,994	63605,64
781,176	63605,64
781,358	63605,64
781,54	63605,64
781,721	63605,64
781,903	63605,64
782,085	63605,64
782,267	63605,64
782,448	63605,64
782,63	63605,64
782,812	63605,64
782,993	63605,64
783,175	63605,64
783,357	63605,64
783,538	63605,64
783,72	63605,64
783,901	63605,64
784,083	63605,64
784,264	63605,64
784,446	63605,64
784,627	63605,64
784,809	63605,64
784,99	63605,64
785,172	63605,64
785,353	63605,64
785,535	63605,64
785,716	63605,64
785,897	63605,64
786,079	63605,64
786,26	63605,64
786,441	63605,64
786,623	63605,64
786,804	63605,64
786,985	63605,64
787,167	63605,64
787,348	63605,64
787,529	63605,64
787,71	63605,64
787,891	63605,64
788,073	63605,64
788,254	63605,64
788,435	63605,64
788,616	63605,64
788,797	59771,85
788,978	4867,85
789,159	3532,58
789,34	3082,02
789,522	2254,64
789,703	2051,89
789,884	1986,36
790,065	1804,09
790,246	2021,17
790,427	2205,49
790,607	2803,5
790,788	3317,54
790,969	3639,07
791,15	4210,45
791,331	4509,46
791,512	4550,42
791,693	4615,95
791,874	4538,13
792,054	4843,28
792,235	4945,67
792,416	4927,24
792,597	4830,99
792,778	4923,15
792,958	4865,8
793,139	4687,63
793,32	4210,45
793,5	3776,28
793,681	3720,99
793,862	3170,08
794,042	2899,75
794,223	2547,5
794,404	2299,7
794,584	1916,73
794,765	1793,85
794,945	1810,23
795,126	1589,05
795,306	1544
795,487	1410,88
795,667	1161,03
795,848	1130,31
796,028	902,98
796,209	1023,81
796,389	956,23
796,57	925,51
796,75	792,39
796,93	753,48
797,111	898,89
797,291	919,37
797,471	1089,35
797,652	1023,81
797,832	1228,61
798,012	1322,82
798,192	1226,56
798,373	1214,27
798,553	1269,57
798,733	1183,56
798,913	1212,23
799,093	1103,68
799,274	1193,8
799,454	1257,28
799,634	1093,44
799,814	1146,69
799,994	1081,16
800,174	1134,4
800,354	1019,72
800,534	853,83
800,714	1163,08
800,894	950,09
801,074	898,89
801,254	896,84
801,434	1148,74
801,614	1023,81
801,794	876,36
801,974	2780,97
802,154	1017,67
802,334	1150,79
802,514	1093,44
802,693	1140,55
802,873	1111,88
803,053	1238,85
803,233	1281,86
803,413	1146,69
803,592	1185,6
803,772	1132,36
803,952	1183,56
804,131	1253,19
804,311	1435,46
804,491	1705,79
804,67	2332,47
804,85	5353,22
805,03	11904,67
805,209	22287,87
805,389	36287,79
805,568	46953,61
805,748	55063,57
805,928	61008,82
806,107	63605,64
806,287	62018,47
806,466	58659,8
806,646	49632,35
806,825	43742,39
807,004	37135,65
807,184	31612,27
807,363	26977,72
807,543	23397,87
807,722	20493,85
807,901	18294,33
808,081	16649,82
808,26	14941,81
808,439	13936,26
808,619	12758,67
808,798	11554,47
808,977	10919,6
809,156	12787,35
809,336	21186,07
809,515	39460,09
809,694	63605,64
809,873	63605,64
810,052	63605,64
810,231	63605,64
810,411	63605,64
810,59	63605,64
810,769	63605,64
810,948	63605,64
811,127	63605,64
811,306	63605,64
811,485	63605,64
811,664	63605,64
811,843	63605,64
812,022	63605,64
812,201	63605,64
812,38	63605,64
812,559	63605,64
812,737	63605,64
812,916	63605,64
813,095	63605,64
813,274	63605,64
813,453	63605,64
813,632	63605,64
813,811	63605,64
813,989	63605,64
814,168	63605,64
814,347	63605,64
814,526	63605,64
814,704	63605,64
814,883	63605,64
815,062	63605,64
815,24	63605,64
815,419	63605,64
815,598	63605,64
815,776	63605,64
815,955	63605,64
816,133	63605,64
816,312	63605,64
816,49	63605,64
816,669	63605,64
816,847	63605,64
817,026	63605,64
817,204	63605,64
817,383	63605,64
817,561	63605,64
817,74	63605,64
817,918	63605,64
818,097	63605,64
818,275	63605,64
818,453	63605,64
818,632	63605,64
818,81	63605,64
818,988	63605,64
819,167	63605,64
819,345	63605,64
819,523	63605,64
819,701	63605,64
819,879	63605,64
820,058	63605,64
820,236	63605,64
820,414	63605,64
820,592	63605,64
820,77	63605,64
820,948	63605,64
821,127	63605,64
821,305	63605,64
821,483	63605,64
821,661	63605,64
821,839	63605,64
822,017	63605,64
822,195	63605,64
822,373	63605,64
822,551	63605,64
822,729	63605,64
822,907	63605,64
823,085	63605,64
823,262	63605,64
823,44	63605,64
823,618	63605,64
823,796	63605,64
823,974	63605,64
824,152	63605,64
824,329	63605,64
824,507	63605,64
824,685	63605,64
824,863	63605,64
825,04	63605,64
825,218	63605,64
825,396	63605,64
825,574	63605,64
825,751	63605,64
825,929	63605,64
826,107	63605,64
826,284	63605,64
826,462	63605,64
826,639	63605,64
826,817	63605,64
826,994	63605,64
827,172	63605,64
827,349	63605,64
827,527	63605,64
827,704	63605,64
827,882	63605,64
828,059	63605,64
828,237	63605,64
828,414	63605,64
828,591	63605,64
828,769	63605,64
828,946	63605,64
829,124	63605,64
829,301	63605,64
829,478	63605,64
829,655	63605,64
829,833	63605,64
830,01	63605,64
830,187	63605,64
830,364	63605,64
830,542	63605,64
830,719	63605,64
830,896	63605,64
831,073	63605,64
831,25	63605,64
831,427	63605,64
831,604	63605,64
831,782	63605,64
831,959	63605,64
832,136	63605,64
832,313	63605,64
832,49	63605,64
832,667	63605,64
832,844	63605,64
833,021	63605,64
833,198	63605,64
833,374	63605,64
833,551	63605,64
833,728	63605,64
833,905	63605,64
834,082	63605,64
834,259	63605,64
834,436	63605,64
834,612	63605,64
834,789	63605,64
834,966	63605,64
835,143	63605,64
835,319	63605,64
835,496	63605,64
835,673	63605,64
835,85	63605,64
836,026	63605,64
836,203	63605,64
836,38	63605,64
836,556	63605,64
836,733	63605,64
836,909	63605,64
837,086	63605,64
837,262	63605,64
837,439	63605,64
837,616	63605,64
837,792	63605,64
837,968	63605,64
838,145	63605,64
838,321	63605,64
838,498	63605,64
838,674	63605,64
838,851	63605,64
839,027	63605,64
839,203	63605,64
839,38	63605,64
839,556	63605,64
839,732	63605,64
839,909	63605,64
840,085	63605,64
840,261	63605,64
840,437	63605,64
840,614	63605,64
840,79	63605,64
840,966	63605,64
841,142	63605,64
841,318	63605,64
841,494	63605,64
841,671	63605,64
841,847	63605,64
842,023	63605,64
842,199	63605,64
842,375	63605,64
842,551	63605,64
842,727	63605,64
842,903	63605,64
843,079	63605,64
843,255	63605,64
843,431	63605,64
843,607	63605,64
843,783	63605,64
843,959	34532,68
844,134	34868,55
844,31	677,71
844,486	558,92
844,662	456,53
844,838	376,66
845,013	395,09
845,189	423,76
845,365	450,38
845,541	427,85
845,716	360,27
845,892	347,98
846,068	268,11
846,244	304,98
846,419	413,52
846,595	212,82
846,77	249,68
846,946	384,85
847,122	366,42
847,297	352,08
847,473	515,92
847,648	204,63
847,824	288,59
847,999	229,2
848,175	415,57
848,35	333,65
848,526	438,09
848,701	321,36
848,876	452,43
849,052	452,43
849,227	386,9
849,403	606,03
849,578	1441,6
849,753	3417,89
849,929	6993,64
850,104	12258,97
850,279	18333,25
850,454	25284,05
850,63	29293,97
850,805	31622,51
850,98	31847,79
851,155	30571,91
851,33	27102,65
851,505	22963,7
851,681	20092,45
851,856	17722,95
852,031	16119,39
852,206	14796,4
852,381	13657,73
852,556	12713,62
852,731	11699,87
852,906	11007,66
853,081	10213,05
853,256	9469,64
853,431	8746,7
853,606	8206,04
853,781	7306,98
853,956	6995,69
854,131	6338,29
854,305	5408,51
854,48	4595,47
854,655	3575,58
854,83	2725,68
855,005	2015,03
855,18	1527,61
855,354	1062,73
855,529	925,51
855,704	653,13
855,879	671,56
856,053	446,29
856,228	440,14
856,403	278,35
856,577	425,81
856,752	266,07
856,926	378,7
857,101	356,18
857,276	249,68
857,45	319,31
857,625	345,94
857,799	378,7
857,974	290,64
858,148	149,33
858,323	372,56
858,497	245,59
858,672	253,78
858,846	323,41
859,02	266,07
859,195	225,11
859,369	282,45
859,543	270,16
859,718	253,78
859,892	227,15
860,066	352,08
860,241	221,01
860,415	167,76
860,589	362,32
860,763	343,89
860,938	229,2
861,112	276,31
861,286	186,19
861,46	255,83
861,634	247,63
861,808	364,37
861,982	122,71
862,157	231,25
862,331	173,91
862,505	143,19
862,679	130,9
862,853	171,86
863,027	253,78
863,201	321,36
863,375	247,63
863,549	249,68
863,722	261,97
863,896	325,46
864,07	233,3
864,244	272,21
864,418	337,74
864,592	253,78
864,766	253,78
864,939	294,74
865,113	149,33
865,287	329,55
865,461	225,11
865,634	288,59
865,808	214,87
865,982	190,29
866,156	143,19
866,329	48,98
866,503	259,92
866,676	331,6
866,85	294,74
867,024	221,01
867,197	356,18
867,371	239,44
867,544	245,59
867,718	139,09
867,891	339,79
868,065	122,71
868,238	227,15
868,412	362,32
868,585	286,54
868,759	180,05
868,932	163,67
869,105	147,28
869,279	270,16
869,452	180,05
869,625	300,88
869,799	253,78
869,972	141,14
870,145	264,02
870,319	333,65
870,492	216,91
870,665	304,98
870,838	286,54
871,011	100,18
871,185	329,55
871,358	237,39
871,531	356,18
871,704	198,48
871,877	325,46
872,05	243,54
872,223	180,05
872,396	345,94
872,569	325,46
872,742	300,88
872,915	409,42
873,088	264,02
873,261	257,87
873,434	440,14
873,607	321,36
873,78	352,08
873,953	266,07
874,126	294,74
874,299	448,33
874,471	329,55
874,644	345,94
874,817	425,81
874,99	673,61
875,163	493,39
875,335	565,07
875,508	591,69
875,681	726,86
875,853	843,59
876,026	1142,6
876,199	2230,07
876,371	4192,02
876,544	8476,37
876,717	16408,15
876,889	27690,41
877,062	40803,56
877,234	54174,75
877,407	63411,09
877,579	63605,64
877,752	63605,64
877,924	63605,64
878,097	63605,64
878,269	63605,64
878,442	63605,64
878,614	63605,64
878,786	63605,64
878,959	63605,64
879,131	63605,64
879,303	63605,64
879,476	63605,64
879,648	58278,88
879,82	45155,49
879,993	40846,57
880,165	38284,56
880,337	35640,63
880,509	33748,31
880,681	31673,71
880,854	29494,68
881,026	27841,96
881,198	25355,73
881,37	22328,83
881,542	19086,9
881,714	15255,15
881,886	12222,11
882,058	9164,49
882,23	6743,79
882,402	4777,74
882,574	3497,76
882,746	2557,74
882,918	1933,11
883,09	1382,21
883,262	1109,83
883,434	980,81
883,606	698,19
883,778	769,87
883,95	771,91
884,122	450,38
884,293	591,69
884,465	415,57
884,637	671,56
884,809	360,27
884,98	434
885,152	444,24
885,324	477,01
885,496	325,46
885,667	407,38
885,839	370,51
886,011	464,72
886,182	364,37
886,354	415,57
886,525	360,27
886,697	339,79
886,869	229,2
887,04	327,5
887,212	337,74
887,383	440,14
887,555	362,32
887,726	182,1
887,897	255,83
888,069	243,54
888,24	339,79
888,412	296,78
888,583	323,41
888,754	294,74
888,926	139,09
889,097	182,1
889,268	196,43
889,44	327,5
889,611	192,34
889,782	241,49
889,953	149,33
890,125	354,13
890,296	294,74
890,467	259,92
890,638	266,07
890,809	311,12
890,98	268,11
891,151	468,81
891,323	753,48
891,494	1011,53
891,665	2043,7
891,836	3690,27
892,007	6874,86
892,178	11132,59
892,349	16963,15
892,52	23203,32
892,691	30221,7
892,862	35738,93
893,032	41381,09
893,203	44893,35
893,374	47238,28
893,545	47332,48
893,716	46558,35
893,887	45261,99
894,057	42814,66
894,228	40420,59
894,399	38677,77
894,57	36371,75
894,74	33772,88
894,911	31210,87
895,082	29777,29
895,253	27555,25
895,423	26301,89
895,594	24675,8
895,764	23311,86
895,935	21323,28
896,106	20633,11
896,276	19047,99
896,447	18011,71
896,617	16359
896,788	14612,09
896,958	12336,79
897,129	10247,86
897,299	7870,17
897,47	6313,72
897,64	4861,71
897,81	3362,59
897,981	2430,77
898,151	1675,07
898,322	1361,73
898,492	1124,16
898,662	843,59
898,832	675,66
899,003	632,65
899,173	606,03
899,343	409,42
899,513	347,98
