Data from krypton_USB4F104151__7__11-01-34-610.txt Node

Date: Wed Apr 15 11:01:34 EDT 2026
User: LaboPhy
Spectrometer: USB4F10415
Trigger mode: 4
Integration Time (sec): 1,000000E-1
Scans to average: 1
Electric dark correction enabled: true
Nonlinearity correction enabled: false
Boxcar width: 0
XAxis mode: Wavelengths
Number of Pixels in Spectrum: 3648
>>>>>Begin Spectral Data<<<<<
178,204	-468,81
178,424	-468,81
178,644	-468,81
178,864	-448,33
179,084	-429,9
179,304	-32,6
179,524	-53,08
179,744	-28,5
179,964	20,65
180,184	61,61
180,404	-16,21
180,624	34,99
180,844	-10,07
181,064	-32,6
181,283	55,47
181,503	-46,93
181,723	47,27
181,943	-100,18
182,163	280,74
182,383	-67,41
182,602	37,03
182,822	227,5
183,042	100,52
183,262	-42,84
183,482	30,89
183,701	133,29
183,921	34,99
184,141	-51,03
184,361	88,23
184,58	118,95
184,8	96,43
185,02	57,51
185,239	32,94
185,459	34,99
185,679	166,06
185,898	-67,41
186,118	41,13
186,338	102,57
186,557	129,19
186,777	-73,56
186,997	-18,26
187,216	53,42
187,436	149,67
187,655	139,43
187,875	153,77
188,095	-40,79
188,314	131,24
188,534	137,38
188,753	-87,89
188,973	204,97
189,192	247,97
189,412	-28,5
189,631	2,22
189,851	84,14
190,07	186,54
190,29	-26,45
190,509	-63,32
190,729	65,71
190,948	215,21
191,168	215,21
191,387	129,19
191,607	71,85
191,826	73,9
192,045	34,99
192,265	47,27
192,484	102,57
192,704	75,95
192,923	18,6
193,142	157,86
193,362	104,62
193,581	84,14
193,8	100,52
194,02	80,04
194,239	82,09
194,458	84,14
194,678	18,6
194,897	2,22
195,116	92,33
195,335	100,52
195,555	90,28
195,774	-73,56
195,993	182,44
196,212	8,36
196,432	8,36
196,651	-32,6
196,87	51,37
197,089	258,21
197,308	114,86
197,528	57,51
197,747	-38,74
197,966	129,19
198,185	237,74
198,404	-28,5
198,623	133,29
198,842	192,68
199,062	98,47
199,281	45,23
199,5	80,04
199,719	168,1
199,938	147,62
200,157	155,82
200,376	94,38
200,595	231,59
200,814	65,71
201,033	-22,36
201,252	231,59
201,471	69,8
201,69	104,62
201,909	106,67
202,128	100,52
202,347	137,38
202,566	-5,97
202,785	-112,47
203,004	4,27
203,223	354,47
203,442	49,32
203,661	-28,5
203,879	145,58
204,098	159,91
204,317	20,65
204,536	104,62
204,755	84,14
204,974	121
205,193	63,66
205,411	159,91
205,63	188,58
205,849	77,99
206,068	49,32
206,287	-28,5
206,505	159,91
206,724	139,43
206,943	-40,79
207,162	39,08
207,381	127,14
207,599	141,48
207,818	43,18
208,037	-3,93
208,255	104,62
208,474	65,71
208,693	116,9
208,911	26,79
209,13	110,76
209,349	94,38
209,567	118,95
209,786	96,43
210,005	149,67
210,223	75,95
210,442	-167,76
210,661	-3,93
210,879	125,1
211,098	86,19
211,316	32,94
211,535	106,67
211,753	100,52
211,972	94,38
212,191	26,79
212,409	88,23
212,628	47,27
212,846	-14,17
213,065	133,29
213,283	110,76
213,502	63,66
213,72	37,03
213,938	32,94
214,157	10,41
214,375	151,72
214,594	-12,12
214,812	207,02
215,031	59,56
215,249	153,77
215,467	110,76
215,686	45,23
215,904	110,76
216,122	112,81
216,341	157,86
216,559	77,99
216,778	137,38
216,996	184,49
217,214	-20,31
217,432	59,56
217,651	-28,5
217,869	43,18
218,087	-5,97
218,306	32,94
218,524	92,33
218,742	67,75
218,96	71,85
219,179	14,51
219,397	75,95
219,615	256,17
219,833	110,76
220,051	28,84
220,27	61,61
220,488	135,34
220,706	-20,31
220,924	18,6
221,142	28,84
221,36	127,14
221,578	108,71
221,796	2,22
222,015	51,37
222,233	94,38
222,451	243,88
222,669	-12,12
222,887	141,48
223,105	75,95
223,323	96,43
223,541	-5,97
223,759	63,66
223,977	8,36
224,195	272,55
224,413	102,57
224,631	12,46
224,849	69,8
225,067	264,36
225,285	28,84
225,503	86,19
225,721	-59,22
225,939	77,99
226,157	77,99
226,375	207,02
226,592	-63,32
226,81	82,09
227,028	94,38
227,246	141,48
227,464	121
227,682	166,06
227,9	116,9
228,117	39,08
228,335	166,06
228,553	24,75
228,771	51,37
228,989	47,27
229,206	151,72
229,424	65,71
229,642	-32,6
229,86	26,79
230,077	194,73
230,295	114,86
230,513	143,53
230,731	45,23
230,948	276,65
231,166	135,34
231,384	-14,17
231,601	30,89
231,819	174,25
232,037	-91,99
232,254	-28,5
232,472	55,47
232,689	-10,07
232,907	159,91
233,125	-8,02
233,342	-22,36
233,56	-3,93
233,777	43,18
233,995	-8,02
234,213	114,86
234,43	157,86
234,648	-14,17
234,865	77,99
235,083	53,42
235,3	98,47
235,518	153,77
235,735	178,34
235,953	100,52
236,17	129,19
236,388	90,28
236,605	59,56
236,822	100,52
237,04	92,33
237,257	69,8
237,475	-10,07
237,692	-53,08
237,909	141,48
238,127	51,37
238,344	100,52
238,562	57,51
238,779	-73,56
238,996	-36,69
239,214	-38,74
239,431	100,52
239,648	65,71
239,865	118,95
240,083	112,81
240,3	30,89
240,517	6,31
240,735	24,75
240,952	172,2
241,169	63,66
241,386	100,52
241,603	61,61
241,821	-18,26
242,038	157,86
242,255	184,49
242,472	-44,88
242,689	94,38
242,907	82,09
243,124	4,27
243,341	28,84
243,558	16,55
243,775	10,41
243,992	-67,41
244,209	125,1
244,426	188,58
244,643	32,94
244,86	14,51
245,078	92,33
245,295	92,33
245,512	53,42
245,729	-1,88
245,946	116,9
246,163	28,84
246,38	-32,6
246,597	141,48
246,814	28,84
247,031	80,04
247,248	53,42
247,464	221,35
247,681	116,9
247,898	102,57
248,115	65,71
248,332	-10,07
248,549	176,3
248,766	143,53
248,983	80,04
249,2	80,04
249,417	94,38
249,633	-20,31
249,85	86,19
250,067	30,89
250,284	71,85
250,501	118,95
250,717	82,09
250,934	-34,64
251,151	86,19
251,368	53,42
251,585	59,56
251,801	53,42
252,018	34,99
252,235	116,9
252,451	-69,46
252,668	-18,26
252,885	202,92
253,102	51,37
253,318	43,18
253,535	77,99
253,752	47,27
253,968	-10,07
254,185	-59,22
254,401	114,86
254,618	2,22
254,835	61,61
255,051	118,95
255,268	141,48
255,484	30,89
255,701	-67,41
255,917	125,1
256,134	4,27
256,351	69,8
256,567	-18,26
256,784	55,47
257	-26,45
257,217	131,24
257,433	135,34
257,65	47,27
257,866	207,02
258,082	2,22
258,299	2,22
258,515	-1,88
258,732	94,38
258,948	-24,4
259,165	96,43
259,381	-30,55
259,597	121
259,814	41,13
260,03	88,23
260,246	16,55
260,463	172,2
260,679	209,06
260,895	86,19
261,112	88,23
261,328	133,29
261,544	-63,32
261,761	153,77
261,977	-12,12
262,193	14,51
262,409	168,1
262,626	69,8
262,842	34,99
263,058	49,32
263,274	137,38
263,49	88,23
263,707	94,38
263,923	143,53
264,139	-104,28
264,355	63,66
264,571	149,67
264,787	104,62
265,004	108,71
265,22	-5,97
265,436	4,27
265,652	22,7
265,868	110,76
266,084	-87,89
266,3	34,99
266,516	4,27
266,732	166,06
266,948	71,85
267,164	4,27
267,38	100,52
267,596	63,66
267,812	192,68
268,028	26,79
268,244	151,72
268,46	168,1
268,676	37,03
268,892	104,62
269,108	-5,97
269,324	26,79
269,54	28,84
269,756	207,02
269,972	-38,74
270,188	71,85
270,403	-108,37
270,619	98,47
270,835	123,05
271,051	30,89
271,267	110,76
271,483	6,31
271,698	127,14
271,914	84,14
272,13	37,03
272,346	139,43
272,562	100,52
272,777	213,16
272,993	20,65
273,209	118,95
273,425	153,77
273,64	-53,08
273,856	84,14
274,072	43,18
274,287	10,41
274,503	190,63
274,719	100,52
274,934	24,75
275,15	-71,51
275,366	53,42
275,581	28,84
275,797	102,57
276,012	28,84
276,228	84,14
276,444	47,27
276,659	157,86
276,875	-10,07
277,09	16,55
277,306	65,71
277,521	94,38
277,737	18,6
277,952	188,58
278,168	90,28
278,383	80,04
278,599	59,56
278,814	65,71
279,03	88,23
279,245	141,48
279,461	12,46
279,676	174,25
279,892	-67,41
280,107	-44,88
280,322	-24,4
280,538	164,01
280,753	-1,88
280,969	63,66
281,184	108,71
281,399	168,1
281,615	47,27
281,83	114,86
282,045	-5,97
282,26	14,51
282,476	133,29
282,691	102,57
282,906	26,79
283,122	53,42
283,337	6,31
283,552	225,45
283,767	-30,55
283,983	116,9
284,198	88,23
284,413	104,62
284,628	-14,17
284,843	114,86
285,058	77,99
285,274	67,75
285,489	59,56
285,704	110,76
285,919	39,08
286,134	43,18
286,349	26,79
286,564	94,38
286,779	88,23
286,995	53,42
287,21	-3,93
287,425	108,71
287,64	18,6
287,855	65,71
288,07	-42,84
288,285	143,53
288,5	184,49
288,715	100,52
288,93	32,94
289,145	77,99
289,36	127,14
289,575	14,51
289,79	176,3
290,004	-22,36
290,219	96,43
290,434	-8,02
290,649	6,31
290,864	65,71
291,079	-22,36
291,294	55,47
291,509	43,18
291,724	30,89
291,938	-3,93
292,153	137,38
292,368	32,94
292,583	114,86
292,798	157,86
293,012	127,14
293,227	127,14
293,442	-67,41
293,657	94,38
293,871	143,53
294,086	82,09
294,301	202,92
294,516	82,09
294,73	118,95
294,945	14,51
295,16	51,37
295,374	241,83
295,589	157,86
295,804	0,17
296,018	108,71
296,233	151,72
296,447	67,75
296,662	12,46
296,877	135,34
297,091	100,52
297,306	82,09
297,52	61,61
297,735	39,08
297,949	116,9
298,164	51,37
298,378	32,94
298,593	-71,51
298,807	16,55
299,022	102,57
299,236	223,4
299,451	26,79
299,665	-57,17
299,88	63,66
300,094	51,37
300,309	-16,21
300,523	51,37
300,737	-18,26
300,952	131,24
301,166	32,94
301,381	4,27
301,595	-63,32
301,809	61,61
302,024	26,79
302,238	-30,55
302,452	106,67
302,667	32,94
302,881	139,43
303,095	127,14
303,309	92,33
303,524	51,37
303,738	30,89
303,952	63,66
304,166	129,19
304,381	-46,93
304,595	170,15
304,809	-36,69
305,023	73,9
305,237	80,04
305,452	28,84
305,666	145,58
305,88	104,62
306,094	184,49
306,308	116,9
306,522	174,25
306,736	143,53
306,95	159,91
307,164	77,99
307,379	129,19
307,593	264,36
307,807	209,06
308,021	290,98
308,235	239,78
308,449	32,94
308,663	121
308,877	305,32
309,091	227,5
309,305	211,11
309,519	-30,55
309,733	325,8
309,947	30,89
310,161	266,41
310,374	239,78
310,588	219,3
310,802	43,18
311,016	67,75
311,23	207,02
311,444	116,9
311,658	202,92
311,872	213,16
312,085	272,55
312,299	260,26
312,513	227,5
312,727	223,4
312,941	129,19
313,154	118,95
313,368	125,1
313,582	108,71
313,796	200,87
314,009	125,1
314,223	221,35
314,437	112,81
314,651	172,2
314,864	61,61
315,078	112,81
315,292	65,71
315,505	106,67
315,719	223,4
315,933	116,9
316,146	125,1
316,36	24,75
316,573	221,35
316,787	139,43
317,001	51,37
317,214	84,14
317,428	211,11
317,641	45,23
317,855	53,42
318,068	100,52
318,282	159,91
318,495	174,25
318,709	129,19
318,922	92,33
319,136	276,65
319,349	215,21
319,563	143,53
319,776	180,39
319,99	108,71
320,203	166,06
320,417	112,81
320,63	221,35
320,843	282,79
321,057	108,71
321,27	127,14
321,483	260,26
321,697	235,69
321,91	141,48
322,124	133,29
322,337	129,19
322,55	43,18
322,763	108,71
322,977	53,42
323,19	34,99
323,403	202,92
323,617	139,43
323,83	233,64
324,043	127,14
324,256	174,25
324,469	34,99
324,683	143,53
324,896	112,81
325,109	106,67
325,322	-42,84
325,535	196,78
325,748	194,73
325,962	127,14
326,175	106,67
326,388	141,48
326,601	209,06
326,814	108,71
327,027	176,3
327,24	200,87
327,453	-5,97
327,666	143,53
327,879	252,07
328,092	192,68
328,305	110,76
328,518	127,14
328,731	141,48
328,944	133,29
329,157	239,78
329,37	143,53
329,583	307,37
329,796	309,41
330,009	92,33
330,222	198,82
330,435	268,45
330,648	186,54
330,861	141,48
331,073	53,42
331,286	215,21
331,499	104,62
331,712	80,04
331,925	145,58
332,138	192,68
332,35	194,73
332,563	51,37
332,776	221,35
332,989	192,68
333,202	141,48
333,414	198,82
333,627	157,86
333,84	202,92
334,053	256,17
334,265	315,56
334,478	346,28
334,691	366,76
334,903	342,18
335,116	366,76
335,329	460,96
335,541	491,68
335,754	686,24
335,966	538,79
336,179	551,07
336,392	542,88
336,604	424,1
336,817	503,97
337,029	538,79
337,242	456,87
337,454	454,82
337,667	362,66
337,88	399,52
338,092	346,28
338,305	381,09
338,517	209,06
338,729	379,04
338,942	352,42
339,154	192,68
339,367	217,26
339,579	315,56
339,792	143,53
340,004	215,21
340,217	225,45
340,429	274,6
340,641	174,25
340,854	194,73
341,066	139,43
341,278	202,92
341,491	391,33
341,703	223,4
341,915	69,8
342,128	301,22
342,34	207,02
342,552	94,38
342,764	262,31
342,977	170,15
343,189	143,53
343,401	272,55
343,613	77,99
343,826	92,33
344,038	80,04
344,25	149,67
344,462	34,99
344,674	184,49
344,886	139,43
345,099	168,1
345,311	186,54
345,523	90,28
345,735	18,6
345,947	202,92
346,159	282,79
346,371	159,91
346,583	104,62
346,795	301,22
347,007	186,54
347,219	247,97
347,431	118,95
347,643	385,19
347,855	125,1
348,067	338,09
348,279	53,42
348,491	280,74
348,703	301,22
348,915	207,02
349,127	127,14
349,339	209,06
349,551	151,72
349,763	280,74
349,975	288,93
350,187	247,97
350,399	321,7
350,61	219,3
350,822	219,3
351,034	213,16
351,246	323,75
351,458	299,17
351,669	225,45
351,881	327,85
352,093	295,08
352,305	233,64
352,517	241,83
352,728	336,04
352,94	233,64
353,152	231,59
353,363	223,4
353,575	270,5
353,787	362,66
353,999	250,02
354,21	405,67
354,422	204,97
354,633	170,15
354,845	200,87
355,057	323,75
355,268	235,69
355,48	370,85
355,692	184,49
355,903	305,32
356,115	290,98
356,326	245,93
356,538	460,96
356,749	401,57
356,961	438,44
357,172	399,52
357,384	383,14
357,595	594,08
357,807	450,72
358,018	448,68
358,23	424,1
358,441	536,74
358,653	469,16
358,864	463,01
359,075	364,71
359,287	374,95
359,498	422,05
359,709	432,29
359,921	288,93
360,132	311,46
360,344	247,97
360,555	293,03
360,766	340,13
360,977	309,41
361,189	307,37
361,4	338,09
361,611	477,35
361,823	385,19
362,034	303,27
362,245	112,81
362,456	268,45
362,667	299,17
362,879	143,53
363,09	313,51
363,301	258,21
363,512	276,65
363,723	180,39
363,935	252,07
364,146	252,07
364,357	331,94
364,568	370,85
364,779	141,48
364,99	405,67
365,201	227,5
365,412	362,66
365,623	288,93
365,834	473,25
366,045	450,72
366,256	555,17
366,467	602,27
366,678	549,03
366,889	635,04
367,1	481,44
367,311	694,43
367,522	460,96
367,733	493,73
367,944	579,75
368,155	538,79
368,366	600,23
368,577	571,55
368,788	528,55
368,999	342,18
369,209	342,18
369,42	526,5
369,631	579,75
369,842	381,09
370,053	233,64
370,264	323,75
370,474	293,03
370,685	245,93
370,896	260,26
371,107	342,18
371,317	333,99
371,528	272,55
371,739	387,24
371,95	293,03
372,16	299,17
372,371	121
372,582	157,86
372,792	225,45
373,003	321,7
373,214	305,32
373,424	393,38
373,635	168,1
373,846	368,81
374,056	321,7
374,267	297,13
374,477	393,38
374,688	286,89
374,898	348,33
375,109	311,46
375,319	288,93
375,53	403,62
375,74	362,66
375,951	252,07
376,161	329,89
376,372	399,52
376,582	288,93
376,793	395,43
377,003	250,02
377,214	327,85
377,424	436,39
377,635	405,67
377,845	362,66
378,055	583,84
378,266	389,28
378,476	514,21
378,686	458,92
378,897	403,62
379,107	487,59
379,317	483,49
379,528	379,04
379,738	637,09
379,948	317,61
380,158	587,94
380,369	581,79
380,579	575,65
380,789	569,51
380,999	616,61
381,21	618,66
381,42	755,87
381,63	600,23
381,84	624,8
382,05	551,07
382,261	643,23
382,471	729,25
382,681	577,7
382,891	870,56
383,101	688,29
383,311	780,45
383,521	782,49
383,731	872,61
383,941	956,57
384,151	874,65
384,361	993,44
384,571	1136,79
384,781	1054,87
384,991	1329,3
385,201	1325,21
385,411	1218,71
385,621	1161,37
385,831	1314,97
386,041	1312,92
386,251	1327,25
386,461	1411,22
386,671	1331,35
386,881	1347,73
387,091	1349,78
387,301	1398,93
387,511	1231
387,72	1337,49
387,93	1253,53
388,14	1032,35
388,35	1169,56
388,56	1097,88
388,769	1030,3
388,979	858,27
389,189	759,97
389,399	692,38
389,609	782,49
389,818	596,13
390,028	659,62
390,238	567,46
390,447	434,34
390,657	530,59
390,867	411,81
391,076	299,17
391,286	479,4
391,496	442,53
391,705	432,29
391,915	544,93
392,125	499,88
392,334	358,57
392,544	510,11
392,753	389,28
392,963	370,85
393,172	372,9
393,382	377
393,591	563,36
393,801	405,67
394,01	569,51
394,22	493,73
394,429	420
394,639	440,48
394,848	428,2
395,058	422,05
395,267	411,81
395,477	448,68
395,686	350,37
395,895	579,75
396,105	495,78
396,314	364,71
396,524	381,09
396,733	288,93
396,942	501,92
397,152	379,04
397,361	424,1
397,57	358,57
397,78	272,55
397,989	438,44
398,198	487,59
398,407	368,81
398,617	305,32
398,826	379,04
399,035	348,33
399,244	460,96
399,453	290,98
399,663	379,04
399,872	356,52
400,081	207,02
400,29	399,52
400,499	207,02
400,708	387,24
400,917	235,69
401,127	209,06
401,336	200,87
401,545	454,82
401,754	440,48
401,963	370,85
402,172	379,04
402,381	182,44
402,59	299,17
402,799	356,52
403,008	397,48
403,217	327,85
403,426	467,11
403,635	274,6
403,844	354,47
404,053	295,08
404,262	450,72
404,471	653,47
404,68	485,54
404,888	356,52
405,097	336,04
405,306	438,44
405,515	422,05
405,724	348,33
405,933	356,52
406,142	411,81
406,35	469,16
406,559	321,7
406,768	354,47
406,977	446,63
407,185	387,24
407,394	383,14
407,603	319,65
407,812	424,1
408,02	503,97
408,229	338,09
408,438	411,81
408,646	293,03
408,855	352,42
409,064	415,91
409,272	389,28
409,481	397,48
409,69	374,95
409,898	254,12
410,107	370,85
410,315	456,87
410,524	364,71
410,733	290,98
410,941	395,43
411,15	512,16
411,358	432,29
411,567	465,06
411,775	438,44
411,984	395,43
412,192	491,68
412,401	350,37
412,609	516,26
412,818	536,74
413,026	436,39
413,234	370,85
413,443	409,76
413,651	325,8
413,86	407,72
414,068	553,12
414,276	528,55
414,485	354,47
414,693	577,7
414,901	567,46
415,11	489,64
415,318	417,96
415,526	420
415,734	524,45
415,943	460,96
416,151	544,93
416,359	336,04
416,567	346,28
416,776	493,73
416,984	487,59
417,192	546,98
417,4	385,19
417,608	395,43
417,817	401,57
418,025	463,01
418,233	510,11
418,441	350,37
418,649	377
418,857	403,62
419,065	573,6
419,273	397,48
419,481	446,63
419,689	469,16
419,897	411,81
420,105	366,76
420,313	532,64
420,521	610,47
420,729	524,45
420,937	454,82
421,145	329,89
421,353	485,54
421,561	551,07
421,769	434,34
421,977	454,82
422,185	546,98
422,393	411,81
422,601	510,11
422,809	405,67
423,017	385,19
423,224	329,89
423,432	518,31
423,64	434,34
423,848	422,05
424,056	264,36
424,263	446,63
424,471	313,51
424,679	583,84
424,887	508,07
425,094	925,85
425,302	1208,47
425,51	1478,8
425,718	2125,96
425,925	2560,13
426,133	3010,68
426,341	4159,6
426,548	4798,56
426,756	5412,95
426,964	6074,45
427,171	6637,64
427,379	7544,89
427,586	7323,71
427,794	7350,33
428,001	7194,68
428,209	6563,91
428,417	5371,99
428,624	4714,59
428,832	3852,4
429,039	2955,39
429,247	2451,59
429,454	2353,29
429,662	2353,29
429,869	2547,84
430,076	2945,15
430,284	3465,33
430,491	4223,08
430,699	5236,83
430,906	6383,69
431,114	7010,37
431,321	7770,16
431,528	8886,31
431,736	9768,98
431,943	10459,15
432,15	9791,51
432,358	9445,4
432,565	9035,81
432,772	7548,98
432,979	6727,75
433,187	5091,42
433,394	4077,68
433,601	3158,14
433,808	2435,21
434,016	1976,46
434,223	1503,38
434,43	1321,11
434,637	1245,34
434,844	1417,37
435,052	1364,12
435,259	1626,26
435,466	1966,22
435,673	2150,54
435,88	2398,34
436,087	2873,47
436,294	3057,79
436,501	3369,08
436,708	3418,23
436,915	3584,12
437,122	3838,06
437,329	3645,56
437,537	3762,29
437,743	3778,67
437,95	3645,56
438,157	3258,49
438,364	3068,03
438,571	2556,04
438,778	2250,89
438,985	1984,65
439,192	1706,13
439,399	1376,41
439,606	1276,06
439,813	1282,2
440,02	1153,18
440,227	1161,37
440,433	1003,68
440,64	782,49
440,847	848,03
441,054	854,17
441,261	807,07
441,467	694,43
441,674	741,54
441,881	737,44
442,088	579,75
442,294	610,47
442,501	620,71
442,708	577,7
442,914	589,99
443,121	534,69
443,328	708,77
443,534	907,42
443,741	886,94
443,948	942,24
444,154	1378,45
444,361	1908,88
444,568	1986,7
444,774	2433,16
444,981	2744,45
445,187	3358,84
445,394	3813,49
445,6	4063,34
445,807	4403,3
446,013	4421,74
446,22	4261,99
446,426	4499,56
446,633	4180,07
446,839	3973,23
447,046	3135,61
447,252	2984,06
447,459	2406,53
447,665	1820,81
447,871	1669,27
448,078	1464,47
448,284	1325,21
448,491	1194,14
448,697	1351,83
448,903	1355,93
449,11	1558,67
449,316	1775,76
449,522	2017,42
449,728	2072,72
449,935	2271,37
450,141	2320,52
450,347	2502,79
450,553	2236,55
450,76	2195,59
450,966	2183,31
451,172	1865,87
451,378	1593,49
451,584	1286,3
451,791	1267,86
451,997	1030,3
452,203	757,92
452,409	827,55
452,615	753,82
452,821	473,25
453,027	411,81
453,233	643,23
453,44	381,09
453,646	454,82
453,852	487,59
454,058	395,43
454,264	477,35
454,47	471,2
454,676	391,33
454,882	510,11
455,088	483,49
455,294	463,01
455,5	497,83
455,705	506,02
455,911	368,81
456,117	381,09
456,323	420
456,529	469,16
456,735	387,24
456,941	475,3
457,147	409,76
457,352	428,2
457,558	348,33
457,764	473,25
457,97	387,24
458,176	493,73
458,381	456,87
458,587	477,35
458,793	477,35
458,999	327,85
459,204	473,25
459,41	452,77
459,616	465,06
459,821	551,07
460,027	295,08
460,233	495,78
460,438	690,34
460,644	424,1
460,85	536,74
461,055	469,16
461,261	526,5
461,466	405,67
461,672	417,96
461,878	448,68
462,083	444,58
462,289	272,55
462,494	295,08
462,7	436,39
462,905	342,18
463,111	428,2
463,316	534,69
463,522	493,73
463,727	503,97
463,932	372,9
464,138	313,51
464,343	467,11
464,549	417,96
464,754	485,54
464,959	501,92
465,165	450,72
465,37	452,77
465,575	426,15
465,781	485,54
465,986	446,63
466,191	520,35
466,397	563,36
466,602	596,13
466,807	551,07
467,012	604,32
467,218	614,56
467,423	520,35
467,628	596,13
467,833	530,59
468,038	530,59
468,244	563,36
468,449	635,04
468,654	622,75
468,859	536,74
469,064	592,03
469,269	602,27
469,474	569,51
469,679	772,25
469,885	641,18
470,09	579,75
470,295	637,09
470,5	602,27
470,705	694,43
470,91	549,03
471,115	757,92
471,32	546,98
471,525	667,81
471,73	667,81
471,935	526,5
472,139	444,58
472,344	522,4
472,549	532,64
472,754	622,75
472,959	598,18
473,164	471,2
473,369	710,82
473,574	628,9
473,778	592,03
473,983	661,66
474,188	575,65
474,393	491,68
474,598	573,6
474,802	538,79
475,007	610,47
475,212	618,66
475,417	501,92
475,621	635,04
475,826	444,58
476,031	518,31
476,235	534,69
476,44	487,59
476,645	555,17
476,849	489,64
477,054	403,62
477,259	467,11
477,463	647,33
477,668	788,64
477,872	592,03
478,077	485,54
478,282	503,97
478,486	563,36
478,691	542,88
478,895	530,59
479,1	645,28
479,304	686,24
479,509	641,18
479,713	676
479,918	665,76
480,122	575,65
480,326	647,33
480,531	682,14
480,735	735,39
480,94	669,86
481,144	862,37
481,348	723,1
481,553	809,12
481,757	680,1
481,961	739,49
482,166	770,21
482,37	725,15
482,574	710,82
482,778	690,34
482,983	823,45
483,187	805,02
483,391	704,67
483,595	766,11
483,8	686,24
484,004	809,12
484,208	655,52
484,412	764,06
484,616	886,94
484,821	635,04
485,025	669,86
485,229	585,89
485,433	729,25
485,637	735,39
485,841	805,02
486,045	770,21
486,249	895,13
486,453	841,89
486,657	716,96
486,861	772,25
487,065	905,37
487,269	886,94
487,473	819,36
487,677	989,34
487,881	1185,94
488,085	884,89
488,289	919,71
488,493	880,8
488,697	1046,68
488,901	921,76
489,105	911,52
489,309	921,76
489,512	1071,26
489,716	966,81
489,92	854,17
490,124	1009,82
490,328	999,58
490,531	784,54
490,735	985,24
490,939	809,12
491,143	805,02
491,346	766,11
491,55	788,64
491,754	790,69
491,958	714,91
492,161	757,92
492,365	702,62
492,569	645,28
492,772	755,87
492,976	772,25
493,18	628,9
493,383	673,95
493,587	714,91
493,79	735,39
493,994	524,45
494,197	712,86
494,401	665,76
494,605	622,75
494,808	632,99
495,012	690,34
495,215	759,97
495,419	809,12
495,622	743,58
495,825	661,66
496,029	712,86
496,232	723,1
496,436	725,15
496,639	790,69
496,843	659,62
497,046	647,33
497,249	917,66
497,453	755,87
497,656	696,48
497,859	698,53
498,063	798,88
498,266	798,88
498,469	608,42
498,673	725,15
498,876	647,33
499,079	645,28
499,282	567,46
499,485	1005,72
499,689	626,85
499,892	876,7
500,095	737,44
500,298	690,34
500,501	626,85
500,705	643,23
500,908	706,72
501,111	585,89
501,314	790,69
501,517	784,54
501,72	700,58
501,923	659,62
502,126	569,51
502,329	762,02
502,532	680,1
502,735	682,14
502,938	755,87
503,141	782,49
503,344	553,12
503,547	815,26
503,75	667,81
503,953	755,87
504,156	819,36
504,359	749,73
504,562	766,11
504,765	807,07
504,968	913,56
505,17	944,28
505,373	888,99
505,576	993,44
505,779	1013,92
505,982	821,41
506,185	848,03
506,387	858,27
506,59	1003,68
506,793	827,55
506,996	1036,44
507,198	1058,97
507,401	981,15
507,604	1110,17
507,807	932
508,009	1024,16
508,212	1001,63
508,415	870,56
508,617	895,13
508,82	903,32
509,022	899,23
509,225	911,52
509,428	764,06
509,63	895,13
509,833	813,21
510,035	972,96
510,238	886,94
510,44	710,82
510,643	805,02
510,845	878,75
511,048	915,61
511,25	766,11
511,453	868,51
511,655	856,22
511,858	962,72
512,06	1013,92
512,262	837,79
512,465	1015,96
512,667	952,48
512,87	919,71
513,072	1206,42
513,274	1167,51
513,477	1099,93
513,679	1097,88
513,881	1282,2
514,084	1171,61
514,286	1216,66
514,488	1253,53
514,69	1237,14
514,893	1151,13
515,095	1249,43
515,297	1128,6
515,499	1114,27
515,701	995,48
515,904	1185,94
516,106	1360,02
516,308	1163,42
516,51	1108,12
516,712	1153,18
516,914	1046,68
517,116	970,91
517,318	1030,3
517,52	848,03
517,722	858,27
517,925	856,22
518,127	858,27
518,329	903,32
518,531	692,38
518,733	690,34
518,935	688,29
519,136	794,78
519,338	645,28
519,54	692,38
519,742	688,29
519,944	751,78
520,146	645,28
520,348	661,66
520,55	639,14
520,752	493,73
520,954	641,18
521,155	651,42
521,357	622,75
521,559	774,3
521,761	702,62
521,963	747,68
522,164	809,12
522,366	805,02
522,568	774,3
522,77	774,3
522,971	786,59
523,173	616,61
523,375	837,79
523,576	727,2
523,778	719,01
523,98	678,05
524,181	796,83
524,383	841,89
524,584	747,68
524,786	809,12
524,988	702,62
525,189	829,6
525,391	940,19
525,592	757,92
525,794	696,48
525,995	788,64
526,197	790,69
526,398	975
526,6	848,03
526,801	850,08
527,003	712,86
527,204	749,73
527,406	790,69
527,607	891,04
527,808	772,25
528,01	788,64
528,211	762,02
528,412	757,92
528,614	772,25
528,815	772,25
529,016	729,25
529,218	729,25
529,419	673,95
529,62	698,53
529,822	698,53
530,023	614,56
530,224	663,71
530,425	792,73
530,626	614,56
530,828	661,66
531,029	600,23
531,23	716,96
531,431	630,95
531,632	798,88
531,833	686,24
532,035	788,64
532,236	727,2
532,437	776,35
532,638	811,17
532,839	686,24
533,04	856,22
533,241	954,52
533,442	888,99
533,643	921,76
533,844	905,37
534,045	886,94
534,246	880,8
534,447	766,11
534,648	944,28
534,849	972,96
535,05	907,42
535,251	901,28
535,451	925,85
535,652	841,89
535,853	878,75
536,054	925,85
536,255	802,97
536,456	884,89
536,657	821,41
536,857	778,4
537,058	917,66
537,259	747,68
537,46	825,5
537,66	739,49
537,861	712,86
538,062	778,4
538,263	620,71
538,463	841,89
538,664	700,58
538,865	565,41
539,065	700,58
539,266	667,81
539,466	569,51
539,667	727,2
539,868	575,65
540,068	632,99
540,269	684,19
540,469	645,28
540,67	764,06
540,87	790,69
541,071	622,75
541,271	706,72
541,472	788,64
541,672	731,3
541,873	723,1
542,073	676
542,274	602,27
542,474	823,45
542,675	766,11
542,875	667,81
543,075	649,38
543,276	714,91
543,476	751,78
543,676	719,01
543,877	659,62
544,077	733,34
544,277	712,86
544,478	698,53
544,678	698,53
544,878	690,34
545,078	657,57
545,279	676
545,479	708,77
545,679	671,9
545,879	690,34
546,079	839,84
546,28	624,8
546,48	700,58
546,68	731,3
546,88	653,47
547,08	657,57
547,28	739,49
547,48	549,03
547,68	731,3
547,88	719,01
548,081	757,92
548,281	667,81
548,481	735,39
548,681	1007,77
548,881	856,22
549,081	1015,96
549,28	972,96
549,48	1046,68
549,68	1132,7
549,88	1142,94
550,08	1163,42
550,28	1054,87
550,48	1245,34
550,68	1120,41
550,88	1071,26
551,08	1101,98
551,279	1237,14
551,479	1065,11
551,679	1183,9
551,879	1128,6
552,079	1040,54
552,278	972,96
552,478	1157,27
552,678	1005,72
552,878	927,9
553,077	794,78
553,277	776,35
553,477	837,79
553,676	821,41
553,876	886,94
554,076	780,45
554,275	1024,16
554,475	1304,73
554,674	2197,64
554,874	3135,61
555,074	5085,28
555,273	8460,33
555,473	13058,02
555,672	19040,14
555,872	26484,5
556,071	33959,59
556,271	40930,87
556,47	46427,62
556,67	49581,49
556,869	51817,88
557,068	52157,84
557,268	50810,28
557,467	47650,26
557,667	44273,16
557,866	39528,02
558,065	34789,02
558,265	29517,54
558,464	24540,98
558,663	21022,57
558,863	17250,21
559,062	14512,08
559,261	11554,81
559,461	9332,76
559,66	7346,23
559,859	5601,37
560,058	4124,78
560,258	2789,5
560,457	2134,15
560,656	1667,22
560,855	1192,09
561,054	1165,46
561,253	874,65
561,453	850,08
561,652	888,99
561,851	882,85
562,05	710,82
562,249	696,48
562,448	782,49
562,647	667,81
562,846	792,73
563,045	854,17
563,244	917,66
563,443	1058,97
563,642	952,48
563,841	1179,8
564,04	1312,92
564,239	1458,32
564,438	1706,13
564,637	1585,3
564,836	1675,41
565,035	1765,52
565,234	1790,1
565,432	1624,21
565,631	1753,23
565,83	1677,46
566,029	1548,44
566,228	1624,21
566,427	1671,31
566,625	1476,76
566,824	1673,36
567,023	1558,67
567,222	1525,91
567,42	1499,28
567,619	1544,34
567,818	1411,22
568,016	1603,73
568,215	1294,49
568,414	1290,39
568,612	1116,31
568,811	1085,59
569,01	1175,7
569,208	1022,11
569,407	1159,32
569,605	1165,46
569,804	985,24
570,002	1132,7
570,201	1038,49
570,4	1077,4
570,598	981,15
570,797	1001,63
570,995	960,67
571,193	1013,92
571,392	993,44
571,59	936,09
571,789	1022,11
571,987	954,52
572,186	1001,63
572,384	934,04
572,582	893,09
572,781	1065,11
572,979	901,28
573,177	741,54
573,376	776,35
573,574	839,84
573,772	733,34
573,971	612,51
574,169	583,84
574,367	639,14
574,565	608,42
574,763	575,65
574,962	751,78
575,16	678,05
575,358	559,27
575,556	739,49
575,754	745,63
575,952	657,57
576,151	657,57
576,349	706,72
576,547	450,72
576,745	659,62
576,943	655,52
577,141	604,32
577,339	487,59
577,537	647,33
577,735	620,71
577,933	741,54
578,131	485,54
578,329	825,5
578,527	764,06
578,725	694,43
578,923	438,44
579,121	663,71
579,319	522,4
579,516	579,75
579,714	878,75
579,912	645,28
580,11	585,89
580,308	575,65
580,506	540,83
580,704	438,44
580,901	518,31
581,099	774,3
581,297	862,37
581,495	880,8
581,692	1018,01
581,89	1259,67
582,088	1263,77
582,285	1331,35
582,483	1460,37
582,681	1544,34
582,878	1616,02
583,076	1714,32
583,274	1568,91
583,471	1734,8
583,669	1566,87
583,866	1362,07
584,064	1390,74
584,262	1104,03
584,459	1003,68
584,657	1099,93
584,854	1253,53
585,052	1355,93
585,249	2027,66
585,447	4403,3
585,644	8366,12
585,841	15128,52
586,039	24262,46
586,236	33146,54
586,434	41289,27
586,631	48139,72
586,828	52471,18
587,026	54697,32
587,223	54711,66
587,42	53122,43
587,618	50666,92
587,815	46290,41
588,012	42073,64
588,21	36771,45
588,407	32372,41
588,604	27764,48
588,801	23357,25
588,999	19683,2
589,196	16707,5
589,393	13578,2
589,59	10967,04
589,787	8945,7
589,984	7002,18
590,182	5197,92
590,379	3919,98
590,576	2703,49
590,773	1951,88
590,97	1489,04
591,167	1317,01
591,364	1042,59
591,561	905,37
591,758	975
591,955	743,58
592,152	700,58
592,349	577,7
592,546	563,36
592,743	501,92
592,94	485,54
593,137	561,31
593,334	514,21
593,531	544,93
593,727	532,64
593,924	512,16
594,121	403,62
594,318	415,91
594,515	512,16
594,712	641,18
594,908	542,88
595,105	309,41
595,302	411,81
595,499	510,11
595,696	577,7
595,892	364,71
596,089	438,44
596,286	389,28
596,482	551,07
596,679	485,54
596,876	346,28
597,072	557,22
597,269	348,33
597,466	546,98
597,662	520,35
597,859	618,66
598,055	784,54
598,252	1069,21
598,448	1378,45
598,645	1654,93
598,841	1929,36
599,038	2072,72
599,234	2250,89
599,431	2216,07
599,627	2148,49
599,824	2257,03
600,02	2238,6
600,217	2347,14
600,413	2353,29
600,609	2384,01
600,806	2629,76
601,002	2377,86
601,198	2121,87
601,395	2152,59
601,591	1941,65
601,787	1992,84
601,984	1882,25
602,18	1714,32
602,376	1495,19
602,572	1495,19
602,769	1495,19
602,965	1329,3
603,161	1360,02
603,357	1276,06
603,553	1306,77
603,75	1200,28
603,946	1200,28
604,142	1321,11
604,338	1427,6
604,534	1292,44
604,73	1448,08
604,926	1558,67
605,122	1968,27
605,318	1673,36
605,514	2001,04
605,71	1808,53
605,906	1845,39
606,102	1640,59
606,298	1697,94
606,494	1644,69
606,69	1630,35
606,886	1525,91
607,082	1431,7
607,278	1319,06
607,474	1370,26
607,67	1413,27
607,866	1310,87
608,062	1382,55
608,257	1419,41
608,453	1183,9
608,649	1255,58
608,845	983,2
609,041	958,62
609,236	923,8
609,432	837,79
609,628	956,57
609,824	825,5
610,019	684,19
610,215	635,04
610,411	796,83
610,606	733,34
610,802	510,11
610,998	585,89
611,193	649,38
611,389	510,11
611,584	602,27
611,78	395,43
611,976	497,83
612,171	669,86
612,367	536,74
612,562	555,17
612,758	555,17
612,953	481,44
613,149	420
613,344	522,4
613,539	508,07
613,735	551,07
613,93	506,02
614,126	516,26
614,321	676
614,517	663,71
614,712	747,68
614,907	739,49
615,103	690,34
615,298	649,38
615,493	438,44
615,688	583,84
615,884	626,85
616,079	602,27
616,274	600,23
616,47	526,5
616,665	551,07
616,86	589,99
617,055	536,74
617,25	372,9
617,445	467,11
617,641	444,58
617,836	362,66
618,031	377
618,226	473,25
618,421	407,72
618,616	348,33
618,811	432,29
619,006	223,4
619,201	524,45
619,396	393,38
619,591	280,74
619,786	383,14
619,981	456,87
620,176	311,46
620,371	354,47
620,566	338,09
620,761	391,33
620,956	420
621,151	327,85
621,346	526,5
621,541	463,01
621,735	501,92
621,93	544,93
622,125	438,44
622,32	460,96
622,515	540,83
622,709	841,89
622,904	753,82
623,099	753,82
623,294	886,94
623,488	784,54
623,683	837,79
623,878	788,64
624,072	923,8
624,267	731,3
624,462	833,69
624,656	522,4
624,851	600,23
625,046	553,12
625,24	520,35
625,435	563,36
625,629	546,98
625,824	661,66
626,018	594,08
626,213	481,44
626,407	356,52
626,602	420
626,796	362,66
626,991	454,82
627,185	364,71
627,38	336,04
627,574	493,73
627,768	473,25
627,963	325,8
628,157	329,89
628,352	325,8
628,546	307,37
628,74	340,13
628,935	288,93
629,129	395,43
629,323	319,65
629,517	211,11
629,712	290,98
629,906	290,98
630,1	370,85
630,294	383,14
630,489	297,13
630,683	262,31
630,877	284,84
631,071	391,33
631,265	297,13
631,459	336,04
631,653	307,37
631,848	305,32
632,042	340,13
632,236	260,26
632,43	415,91
632,624	354,47
632,818	268,45
633,012	336,04
633,206	276,65
633,4	329,89
633,594	315,56
633,788	342,18
633,982	485,54
634,176	604,32
634,369	477,35
634,563	454,82
634,757	342,18
634,951	530,59
635,145	635,04
635,339	362,66
635,533	516,26
635,726	448,68
635,92	495,78
636,114	530,59
636,308	446,63
636,501	456,87
636,695	604,32
636,889	473,25
637,083	657,57
637,276	579,75
637,47	487,59
637,664	624,8
637,857	559,27
638,051	528,55
638,244	702,62
638,438	481,44
638,632	635,04
638,825	424,1
639,019	526,5
639,212	495,78
639,406	579,75
639,599	520,35
639,793	403,62
639,986	481,44
640,18	604,32
640,373	514,21
640,567	651,42
640,76	710,82
640,954	1034,39
641,147	1261,72
641,34	1468,56
641,534	1652,88
641,727	1933,45
641,92	2087,05
642,114	2003,08
642,307	2035,85
642,5	1951,88
642,694	1650,83
642,887	1722,51
643,08	1650,83
643,273	1493,14
643,467	1308,82
643,66	1202,33
643,853	1142,94
644,046	1190,04
644,239	1183,9
644,432	1345,69
644,626	1757,33
644,819	2226,31
645,012	2590,85
645,205	3141,75
645,398	3412,09
645,591	3250,3
645,784	3141,75
645,977	3117,18
646,17	2945,15
646,363	2750,59
646,556	2580,61
646,749	2316,42
646,942	2203,79
647,135	2101,39
647,328	1839,25
647,521	1663,12
647,714	1491,09
647,907	1468,56
648,099	1157,27
648,292	1251,48
648,485	1136,79
648,678	907,42
648,871	757,92
649,064	895,13
649,256	565,41
649,449	614,56
649,642	551,07
649,835	616,61
650,027	594,08
650,22	782,49
650,413	612,51
650,605	626,85
650,798	553,12
650,991	608,42
651,183	526,5
651,376	618,66
651,568	610,47
651,761	516,26
651,954	520,35
652,146	458,92
652,339	579,75
652,531	583,84
652,724	514,21
652,916	532,64
653,109	276,65
653,301	659,62
653,494	528,55
653,686	600,23
653,879	567,46
654,071	583,84
654,263	434,34
654,456	497,83
654,648	608,42
654,84	559,27
655,033	604,32
655,225	870,56
655,417	749,73
655,61	1030,3
655,802	1114,27
655,994	1276,06
656,186	995,48
656,379	1259,67
656,571	1177,75
656,763	1001,63
656,955	1091,74
657,148	1024,16
657,34	1151,13
657,532	921,76
657,724	821,41
657,916	823,45
658,108	766,11
658,3	878,75
658,492	747,68
658,684	594,08
658,876	624,8
659,068	389,28
659,26	444,58
659,452	450,72
659,644	448,68
659,836	616,61
660,028	549,03
660,22	346,28
660,412	454,82
660,604	395,43
660,796	397,48
660,988	465,06
661,18	333,99
661,372	362,66
661,563	321,7
661,755	374,95
661,947	233,64
662,139	225,45
662,331	333,99
662,522	227,5
662,714	223,4
662,906	282,79
663,097	299,17
663,289	348,33
663,481	217,26
663,673	274,6
663,864	297,13
664,056	358,57
664,247	387,24
664,439	637,09
664,631	561,31
664,822	708,77
665,014	700,58
665,205	657,57
665,397	575,65
665,588	604,32
665,78	598,18
665,971	688,29
666,163	546,98
666,354	563,36
666,546	428,2
666,737	508,07
666,929	426,15
667,12	405,67
667,311	405,67
667,503	368,81
667,694	315,56
667,885	440,48
668,077	389,28
668,268	157,86
668,459	348,33
668,651	428,2
668,842	491,68
669,033	467,11
669,224	546,98
669,416	837,79
669,607	688,29
669,798	821,41
669,989	891,04
670,18	766,11
670,371	907,42
670,563	639,14
670,754	792,73
670,945	688,29
671,136	688,29
671,327	469,16
671,518	698,53
671,709	733,34
671,9	518,31
672,091	557,22
672,282	465,06
672,473	415,91
672,664	399,52
672,855	391,33
673,046	383,14
673,237	469,16
673,428	514,21
673,619	407,72
673,809	440,48
674	565,41
674,191	469,16
674,382	366,76
674,573	456,87
674,764	311,46
674,954	520,35
675,145	352,42
675,336	252,07
675,527	227,5
675,717	338,09
675,908	297,13
676,099	299,17
676,289	338,09
676,48	88,23
676,671	266,41
676,861	264,36
677,052	311,46
677,243	297,13
677,433	241,83
677,624	264,36
677,814	286,89
678,005	284,84
678,195	383,14
678,386	88,23
678,576	284,84
678,767	245,93
678,957	344,23
679,148	301,22
679,338	377
679,529	329,89
679,719	243,88
679,909	356,52
680,1	379,04
680,29	368,81
680,481	331,94
680,671	579,75
680,861	643,23
681,052	686,24
681,242	647,33
681,432	757,92
681,622	688,29
681,813	520,35
682,003	686,24
682,193	487,59
682,383	503,97
682,573	506,02
682,764	479,4
682,954	587,94
683,144	594,08
683,334	460,96
683,524	444,58
683,714	524,45
683,904	374,95
684,094	465,06
684,284	381,09
684,474	512,16
684,664	469,16
684,854	438,44
685,044	346,28
685,234	385,19
685,424	440,48
685,614	356,52
685,804	471,2
685,994	387,24
686,184	436,39
686,374	456,87
686,564	471,2
686,753	432,29
686,943	364,71
687,133	379,04
687,323	395,43
687,513	432,29
687,702	356,52
687,892	260,26
688,082	434,34
688,272	465,06
688,461	422,05
688,651	385,19
688,841	325,8
689,03	180,39
689,22	438,44
689,41	589,99
689,599	776,35
689,789	1018,01
689,979	1458,32
690,168	1398,93
690,358	1679,51
690,547	1706,13
690,737	1659,03
690,926	1519,76
691,116	1468,56
691,305	1353,88
691,495	1226,9
691,684	1022,11
691,874	948,38
692,063	989,34
692,252	987,29
692,442	854,17
692,631	714,91
692,82	702,62
693,01	616,61
693,199	551,07
693,388	518,31
693,578	374,95
693,767	460,96
693,956	377
694,146	309,41
694,335	354,47
694,524	280,74
694,713	428,2
694,902	327,85
695,092	282,79
695,281	389,28
695,47	293,03
695,659	336,04
695,848	301,22
696,037	284,84
696,226	422,05
696,415	465,06
696,604	391,33
696,793	428,2
696,982	315,56
697,171	489,64
697,36	317,61
697,549	409,76
697,738	280,74
697,927	286,89
698,116	370,85
698,305	358,57
698,494	315,56
698,683	323,75
698,872	501,92
699,061	321,7
699,25	393,38
699,438	391,33
699,627	362,66
699,816	489,64
700,005	198,82
700,193	344,23
700,382	387,24
700,571	372,9
700,76	409,76
700,948	440,48
701,137	362,66
701,326	366,76
701,514	288,93
701,703	319,65
701,892	360,61
702,08	514,21
702,269	327,85
702,457	256,17
702,646	372,9
702,834	297,13
703,023	417,96
703,212	446,63
703,4	284,84
703,589	338,09
703,777	372,9
703,965	192,68
704,154	309,41
704,342	280,74
704,531	297,13
704,719	227,5
704,907	397,48
705,096	184,49
705,284	166,06
705,472	379,04
705,661	331,94
705,849	354,47
706,037	383,14
706,226	344,23
706,414	297,13
706,602	317,61
706,79	282,79
706,979	258,21
707,167	235,69
707,355	176,3
707,543	225,45
707,731	401,57
707,919	299,17
708,107	256,17
708,296	133,29
708,484	145,58
708,672	303,27
708,86	258,21
709,048	286,89
709,236	192,68
709,424	258,21
709,612	329,89
709,8	153,77
709,988	252,07
710,176	327,85
710,364	338,09
710,551	192,68
710,739	225,45
710,927	168,1
711,115	225,45
711,303	262,31
711,491	260,26
711,679	223,4
711,866	235,69
712,054	202,92
712,242	288,93
712,43	321,7
712,617	258,21
712,805	272,55
712,993	247,97
713,181	34,99
713,368	278,69
713,556	325,8
713,744	215,21
713,931	460,96
714,119	284,84
714,306	164,01
714,494	168,1
714,682	252,07
714,869	252,07
715,057	215,21
715,244	157,86
715,432	258,21
715,619	198,82
715,807	188,58
715,994	245,93
716,182	221,35
716,369	262,31
716,556	323,75
716,744	39,08
716,931	157,86
717,119	223,4
717,306	225,45
717,493	303,27
717,681	147,62
717,868	176,3
718,055	280,74
718,242	215,21
718,43	258,21
718,617	297,13
718,804	153,77
718,991	311,46
719,179	198,82
719,366	219,3
719,553	252,07
719,74	168,1
719,927	198,82
720,114	288,93
720,301	151,72
720,488	182,44
720,676	141,48
720,863	348,33
721,05	333,99
721,237	383,14
721,424	604,32
721,611	956,57
721,798	1112,22
721,985	1325,21
722,172	1728,66
722,358	1765,52
722,545	2150,54
722,732	1861,77
722,919	1867,92
723,106	1530
723,293	1601,68
723,48	1468,56
723,667	1300,63
723,853	1382,55
724,04	1306,77
724,227	1231
724,414	1042,59
724,6	1026,2
724,787	970,91
724,974	960,67
725,161	708,77
725,347	520,35
725,534	727,2
725,72	598,18
725,907	676
726,094	518,31
726,28	450,72
726,467	506,02
726,653	360,61
726,84	596,13
727,027	585,89
727,213	438,44
727,4	499,88
727,586	551,07
727,773	745,63
727,959	934,04
728,145	1108,12
728,332	1394,84
728,518	1538,2
728,705	1712,27
728,891	1585,3
729,077	1636,5
729,264	1312,92
729,45	1398,93
729,636	1433,75
729,823	1181,85
730,009	1222,81
730,195	1110,17
730,382	1056,92
730,568	983,2
730,754	981,15
730,94	874,65
731,126	780,45
731,313	790,69
731,499	694,43
731,685	727,2
731,871	669,86
732,057	577,7
732,243	661,66
732,429	561,31
732,615	692,38
732,801	444,58
732,987	497,83
733,173	641,18
733,359	491,68
733,545	540,83
733,731	454,82
733,917	651,42
734,103	538,79
734,289	561,31
734,475	460,96
734,661	719,01
734,847	561,31
735,033	514,21
735,219	493,73
735,404	602,27
735,59	536,74
735,776	465,06
735,962	612,51
736,148	585,89
736,333	630,95
736,519	546,98
736,705	526,5
736,89	563,36
737,076	542,88
737,262	563,36
737,447	618,66
737,633	561,31
737,819	553,12
738,004	559,27
738,19	520,35
738,375	583,84
738,561	608,42
738,747	618,66
738,932	499,88
739,118	792,73
739,303	618,66
739,489	639,14
739,674	506,02
739,859	475,3
740,045	581,79
740,23	581,79
740,416	411,81
740,601	518,31
740,786	528,55
740,972	469,16
741,157	618,66
741,342	546,98
741,528	481,44
741,713	831,65
741,898	905,37
742,084	862,37
742,269	979,1
742,454	1149,08
742,639	1251,48
742,824	1026,2
743,01	1247,38
743,195	1124,51
743,38	1085,59
743,565	1020,06
743,75	1024,16
743,935	1058,97
744,12	1124,51
744,305	684,19
744,49	845,98
744,675	749,73
744,86	770,21
745,045	923,8
745,23	817,31
745,415	727,2
745,6	856,22
745,785	743,58
745,97	839,84
746,155	782,49
746,34	788,64
746,525	745,63
746,71	805,02
746,895	671,9
747,079	643,23
747,264	661,66
747,449	878,75
747,634	944,28
747,819	1124,51
748,003	1394,84
748,188	1626,26
748,373	1849,49
748,557	2189,45
748,742	2377,86
748,927	2422,92
749,111	2390,15
749,296	2322,57
749,481	2361,48
749,665	2291,85
749,85	2189,45
750,034	1994,89
750,219	1829,01
750,404	1888,4
750,588	1775,76
750,773	1570,96
750,957	1636,5
751,141	1427,6
751,326	1329,3
751,51	1216,66
751,695	1233,05
751,879	1040,54
752,064	1151,13
752,248	977,05
752,432	1005,72
752,617	981,15
752,801	1009,82
752,985	858,27
753,17	985,24
753,354	1024,16
753,538	864,41
753,722	1001,63
753,907	1036,44
754,091	891,04
754,275	1058,97
754,459	1028,25
754,643	1108,12
754,828	1310,87
755,012	1286,3
755,196	1259,67
755,38	1450,13
755,564	1407,13
755,748	1544,34
755,932	1628,31
756,116	1847,44
756,3	1966,22
756,484	1886,35
756,668	2300,04
756,852	2283,66
757,036	2582,66
757,22	3086,46
757,404	5396,57
757,588	13582,3
757,772	37168,76
757,956	63616,22
758,14	63616,22
758,323	63616,22
758,507	63616,22
758,691	63616,22
758,875	63616,22
759,059	63616,22
759,242	63616,22
759,426	63616,22
759,61	63616,22
759,794	63616,22
759,977	63616,22
760,161	63616,22
760,345	63616,22
760,528	63616,22
760,712	63616,22
760,895	63616,22
761,079	63616,22
761,263	63616,22
761,446	63616,22
761,63	63616,22
761,813	63616,22
761,997	63616,22
762,18	63616,22
762,364	63616,22
762,547	63616,22
762,731	63616,22
762,914	63616,22
763,098	63616,22
763,281	63616,22
763,464	63616,22
763,648	63616,22
763,831	63616,22
764,015	63616,22
764,198	63616,22
764,381	63616,22
764,564	63616,22
764,748	63616,22
764,931	63616,22
765,114	63616,22
765,297	63616,22
765,481	63616,22
765,664	63616,22
765,847	63616,22
766,03	63616,22
766,213	63616,22
766,397	63616,22
766,58	63616,22
766,763	63616,22
766,946	63616,22
767,129	63616,22
767,312	63616,22
767,495	63616,22
767,678	63616,22
767,861	63616,22
768,044	63616,22
768,227	63616,22
768,41	63616,22
768,593	63616,22
768,776	63616,22
768,959	63616,22
769,142	63616,22
769,324	63616,22
769,507	63616,22
769,69	63616,22
769,873	63616,22
770,056	63616,22
770,239	63616,22
770,421	63616,22
770,604	63616,22
770,787	63616,22
770,97	63616,22
771,152	63616,22
771,335	63616,22
771,518	63616,22
771,7	63616,22
771,883	63616,22
772,066	63616,22
772,248	63616,22
772,431	63616,22
772,613	63616,22
772,796	63616,22
772,978	63616,22
773,161	63616,22
773,343	63616,22
773,526	63616,22
773,708	63616,22
773,891	63616,22
774,073	63616,22
774,256	63616,22
774,438	63616,22
774,621	63616,22
774,803	63616,22
774,985	63616,22
775,168	63616,22
775,35	63616,22
775,532	63616,22
775,715	63616,22
775,897	63616,22
776,079	63616,22
776,261	63616,22
776,444	63616,22
776,626	63616,22
776,808	63616,22
776,99	63616,22
777,173	63616,22
777,355	63616,22
777,537	63616,22
777,719	63616,22
777,901	63616,22
778,083	63616,22
778,265	63616,22
778,447	63616,22
778,629	63616,22
778,811	63616,22
778,993	63616,22
779,175	63616,22
779,357	63616,22
779,539	63616,22
779,721	63616,22
779,903	63616,22
780,085	63616,22
780,267	63616,22
780,449	63616,22
780,631	63616,22
780,812	63616,22
780,994	63616,22
781,176	63616,22
781,358	63616,22
781,54	63616,22
781,721	63616,22
781,903	63616,22
782,085	63616,22
782,267	63616,22
782,448	63616,22
782,63	63616,22
782,812	63616,22
782,993	63616,22
783,175	63616,22
783,357	63616,22
783,538	63616,22
783,72	63616,22
783,901	63616,22
784,083	63616,22
784,264	63616,22
784,446	63616,22
784,627	63616,22
784,809	63616,22
784,99	63616,22
785,172	63616,22
785,353	63616,22
785,535	63616,22
785,716	63616,22
785,897	63616,22
786,079	63616,22
786,26	63616,22
786,441	63616,22
786,623	63616,22
786,804	63616,22
786,985	63616,22
787,167	63616,22
787,348	63616,22
787,529	63616,22
787,71	63616,22
787,891	63616,22
788,073	63616,22
788,254	63616,22
788,435	63616,22
788,616	63616,22
788,797	60058,9
788,978	4870,24
789,159	3606,64
789,34	2887,81
789,522	2357,38
789,703	2025,61
789,884	1829,01
790,065	1826,96
790,246	2001,04
790,427	2158,73
790,607	2789,5
790,788	3338,36
790,969	3668,08
791,15	4204,65
791,331	4479,08
791,512	4663,4
791,693	4520,04
791,874	4509,8
792,054	4960,35
792,235	4943,97
792,416	5154,91
792,597	4866,14
792,778	5124,19
792,958	4907,1
793,139	4618,34
793,32	4384,87
793,5	3870,83
793,681	3663,99
793,862	3111,04
794,042	2893,95
794,223	2590,85
794,404	2207,88
794,584	1939,6
794,765	1779,86
794,945	1677,46
795,126	1650,83
795,306	1396,89
795,487	1405,08
795,667	1231
795,848	1149,08
796,028	1065,11
796,209	1116,31
796,389	999,58
796,57	858,27
796,75	790,69
796,93	878,75
797,111	901,28
797,291	880,8
797,471	1101,98
797,652	975
797,832	1216,66
798,012	1304,73
798,192	1134,75
798,373	1239,19
798,553	1341,59
798,733	1376,41
798,913	1165,46
799,093	1286,3
799,274	1177,75
799,454	1181,85
799,634	1122,46
799,814	1192,09
799,994	1026,2
800,174	1052,83
800,354	1042,59
800,534	977,05
800,714	1038,49
800,894	950,43
801,074	948,38
801,254	975
801,434	1157,27
801,614	1020,06
801,794	942,24
801,974	2893,95
802,154	1087,64
802,334	1239,19
802,514	1058,97
802,693	1108,12
802,873	1101,98
803,053	1241,24
803,233	1136,79
803,413	1208,47
803,592	1144,99
803,772	1134,75
803,952	1265,82
804,131	1304,73
804,311	1433,75
804,491	1718,42
804,67	2357,38
804,85	5384,28
805,03	11708,41
805,209	22583,12
805,389	36214,4
805,568	47228,38
805,748	55704,92
805,928	61390,08
806,107	63550,69
806,287	62184,69
806,466	58457,39
806,646	50150,83
806,825	43386,39
807,004	37412,46
807,184	31674,06
807,363	27213,58
807,543	23426,89
807,722	20309,88
807,901	18276,24
808,081	16500,65
808,26	15157,19
808,439	14022,61
808,619	12783,59
808,798	11759,61
808,977	10919,94
809,156	12767,21
809,336	21016,43
809,515	39654,99
809,694	63616,22
809,873	63616,22
810,052	63616,22
810,231	63616,22
810,411	63616,22
810,59	63616,22
810,769	63616,22
810,948	63616,22
811,127	63616,22
811,306	63616,22
811,485	63616,22
811,664	63616,22
811,843	63616,22
812,022	63616,22
812,201	63616,22
812,38	63616,22
812,559	63616,22
812,737	63616,22
812,916	63616,22
813,095	63616,22
813,274	63616,22
813,453	63616,22
813,632	63616,22
813,811	63616,22
813,989	63616,22
814,168	63616,22
814,347	63616,22
814,526	63616,22
814,704	63616,22
814,883	63616,22
815,062	63616,22
815,24	63616,22
815,419	63616,22
815,598	63616,22
815,776	63616,22
815,955	63616,22
816,133	63616,22
816,312	63616,22
816,49	63616,22
816,669	63616,22
816,847	63616,22
817,026	63616,22
817,204	63616,22
817,383	63616,22
817,561	63616,22
817,74	63616,22
817,918	63616,22
818,097	63616,22
818,275	63616,22
818,453	63616,22
818,632	63616,22
818,81	63616,22
818,988	63616,22
819,167	63616,22
819,345	63616,22
819,523	63616,22
819,701	63616,22
819,879	63616,22
820,058	63616,22
820,236	63616,22
820,414	63616,22
820,592	63616,22
820,77	63616,22
820,948	63616,22
821,127	63616,22
821,305	63616,22
821,483	63616,22
821,661	63616,22
821,839	63616,22
822,017	63616,22
822,195	63616,22
822,373	63616,22
822,551	63616,22
822,729	63616,22
822,907	63616,22
823,085	63616,22
823,262	63616,22
823,44	63616,22
823,618	63616,22
823,796	63616,22
823,974	63616,22
824,152	63616,22
824,329	63616,22
824,507	63616,22
824,685	63616,22
824,863	63616,22
825,04	63616,22
825,218	63616,22
825,396	63616,22
825,574	63616,22
825,751	63616,22
825,929	63616,22
826,107	63616,22
826,284	63616,22
826,462	63616,22
826,639	63616,22
826,817	63616,22
826,994	63616,22
827,172	63616,22
827,349	63616,22
827,527	63616,22
827,704	63616,22
827,882	63616,22
828,059	63616,22
828,237	63616,22
828,414	63616,22
828,591	63616,22
828,769	63616,22
828,946	63616,22
829,124	63616,22
829,301	63616,22
829,478	63616,22
829,655	63616,22
829,833	63616,22
830,01	63616,22
830,187	63616,22
830,364	63616,22
830,542	63616,22
830,719	63616,22
830,896	63616,22
831,073	63616,22
831,25	63616,22
831,427	63616,22
831,604	63616,22
831,782	63616,22
831,959	63616,22
832,136	63616,22
832,313	63616,22
832,49	63616,22
832,667	63616,22
832,844	63616,22
833,021	63616,22
833,198	63616,22
833,374	63616,22
833,551	63616,22
833,728	63616,22
833,905	63616,22
834,082	63616,22
834,259	63616,22
834,436	63616,22
834,612	63616,22
834,789	63616,22
834,966	63616,22
835,143	63616,22
835,319	63616,22
835,496	63616,22
835,673	63616,22
835,85	63616,22
836,026	63616,22
836,203	63616,22
836,38	63616,22
836,556	63616,22
836,733	63616,22
836,909	63616,22
837,086	63616,22
837,262	63616,22
837,439	63616,22
837,616	63616,22
837,792	63616,22
837,968	63616,22
838,145	63616,22
838,321	63616,22
838,498	63616,22
838,674	63616,22
838,851	63616,22
839,027	63616,22
839,203	63616,22
839,38	63616,22
839,556	63616,22
839,732	63616,22
839,909	63616,22
840,085	63616,22
840,261	63616,22
840,437	63616,22
840,614	63616,22
840,79	63616,22
840,966	63616,22
841,142	63616,22
841,318	63616,22
841,494	63616,22
841,671	63616,22
841,847	63616,22
842,023	63616,22
842,199	63616,22
842,375	63616,22
842,551	63616,22
842,727	63616,22
842,903	63616,22
843,079	63616,22
843,255	63616,22
843,431	63616,22
843,607	63616,22
843,783	63616,22
843,959	34244,26
844,134	37557,87
844,31	723,1
844,486	489,64
844,662	381,09
844,838	463,01
845,013	444,58
845,189	542,88
845,365	428,2
845,541	397,48
845,716	329,89
845,892	413,86
846,068	215,21
846,244	313,51
846,419	374,95
846,595	280,74
846,77	237,74
846,946	438,44
847,122	274,6
847,297	270,5
847,473	481,44
847,648	215,21
847,824	358,57
847,999	217,26
848,175	315,56
848,35	350,37
848,526	420
848,701	430,24
848,876	315,56
849,052	387,24
849,227	379,04
849,403	657,57
849,578	1544,34
849,753	3410,04
849,929	7227,45
850,104	12339,18
850,279	18849,68
850,454	24930,09
850,63	29445,87
850,805	31977,15
850,98	31700,68
851,155	30502,62
851,33	26822,42
851,505	23578,43
851,681	20209,53
851,856	17813,4
852,031	16248,75
852,206	15042,5
852,381	13455,33
852,556	12941,29
852,731	11978,74
852,906	11008
853,081	10186,77
853,256	9340,96
853,431	8527,91
853,606	7931,95
853,781	7446,59
853,956	6965,31
854,131	6301,77
854,305	5646,42
854,48	4513,89
854,655	3471,48
854,83	2754,69
855,005	1949,84
855,18	1515,67
855,354	1091,74
855,529	999,58
855,704	678,05
855,879	702,62
856,053	415,91
856,228	518,31
856,403	309,41
856,577	432,29
856,752	317,61
856,926	370,85
857,101	340,13
857,276	252,07
857,45	315,56
857,625	420
857,799	280,74
857,974	264,36
858,148	174,25
858,323	241,83
858,497	297,13
858,672	266,41
858,846	233,64
859,02	290,98
859,195	215,21
859,369	241,83
859,543	364,71
859,718	313,51
859,892	209,06
860,066	317,61
860,241	272,55
860,415	192,68
860,589	284,84
860,763	266,41
860,938	239,78
861,112	192,68
861,286	207,02
861,46	272,55
861,634	276,65
861,808	321,7
861,982	174,25
862,157	264,36
862,331	247,97
862,505	166,06
862,679	233,64
862,853	198,82
863,027	239,78
863,201	420
863,375	190,63
863,549	309,41
863,722	315,56
863,896	256,17
864,07	198,82
864,244	176,3
864,418	340,13
864,592	264,36
864,766	231,59
864,939	221,35
865,113	276,65
865,287	303,27
865,461	176,3
865,634	239,78
865,808	243,88
865,982	215,21
866,156	211,11
866,329	209,06
866,503	295,08
866,676	350,37
866,85	233,64
867,024	139,43
867,197	360,61
867,371	329,89
867,544	280,74
867,718	168,1
867,891	342,18
868,065	121
868,238	272,55
868,412	364,71
868,585	284,84
868,759	262,31
868,932	151,72
869,105	127,14
869,279	250,02
869,452	159,91
869,625	297,13
869,799	268,45
869,972	217,26
870,145	198,82
870,319	379,04
870,492	290,98
870,665	325,8
870,838	247,97
871,011	137,38
871,185	233,64
871,358	262,31
871,531	358,57
871,704	200,87
871,877	329,89
872,05	241,83
872,223	247,97
872,396	420
872,569	356,52
872,742	295,08
872,915	360,61
873,088	217,26
873,261	327,85
873,434	401,57
873,607	370,85
873,78	536,74
873,953	268,45
874,126	360,61
874,299	391,33
874,471	458,92
874,644	327,85
874,817	477,35
874,99	628,9
875,163	469,16
875,335	559,27
875,508	544,93
875,681	821,41
875,853	764,06
876,026	1177,75
876,199	2093,19
876,371	4241,51
876,544	8714,28
876,717	16488,37
876,889	27612,93
877,062	41109,05
877,234	54007,15
877,407	63433,95
877,579	63616,22
877,752	63616,22
877,924	63616,22
878,097	63616,22
878,269	63616,22
878,442	63616,22
878,614	63616,22
878,786	63616,22
878,959	63616,22
879,131	63616,22
879,303	63616,22
879,476	63616,22
879,648	58125,62
879,82	46149,1
879,993	41098,81
880,165	38299,23
880,337	35538,57
880,509	33457,84
880,681	31686,34
880,854	29495,02
881,026	27909,89
881,198	25386,79
881,37	22093,66
881,542	18997,13
881,714	15441,86
881,886	12152,82
882,058	9025,57
882,23	6776,9
882,402	4747,36
882,574	3469,43
882,746	2599,04
882,918	1915,02
883,09	1439,89
883,262	1173,66
883,434	932
883,606	706,72
883,778	696,48
883,95	796,83
884,122	503,97
884,293	653,47
884,465	561,31
884,637	469,16
884,809	395,43
884,98	477,35
885,152	528,55
885,324	516,26
885,496	323,75
885,667	370,85
885,839	354,47
886,011	479,4
886,182	405,67
886,354	440,48
886,525	420
886,697	409,76
886,869	293,03
887,04	340,13
887,212	446,63
887,383	401,57
887,555	282,79
887,726	297,13
887,897	215,21
888,069	227,5
888,24	358,57
888,412	323,75
888,583	264,36
888,754	284,84
888,926	143,53
889,097	262,31
889,268	219,3
889,44	360,61
889,611	305,32
889,782	182,44
889,953	333,99
890,125	411,81
890,296	252,07
890,467	313,51
890,638	262,31
890,809	372,9
890,98	399,52
891,151	440,48
891,323	764,06
891,494	1065,11
891,665	2156,68
891,836	3805,3
892,007	6948,93
892,178	11356,16
892,349	17055,65
892,52	23242,57
892,691	30267,1
892,862	35993,22
893,032	41451,06
893,203	45096,44
893,374	47181,27
893,545	47441,37
893,716	46609,89
893,887	45137,4
894,057	43101,72
894,228	40541,76
894,399	38332
894,57	36329,09
894,74	33965,73
894,911	31581,9
895,082	30250,72
895,253	28104,45
895,423	26570,52
895,594	24702,77
895,764	23465,8
895,935	21620,58
896,106	20735,85
896,276	19322,76
896,447	18012,06
896,617	16517,04
896,788	14530,51
896,958	12457,96
897,129	10119,18
897,299	7948,34
897,47	6215,76
897,64	4618,34
897,81	3199,1
897,981	2525,32
898,151	1763,47
898,322	1413,27
898,492	1118,36
898,662	897,18
898,832	694,43
899,003	626,85
899,173	575,65
899,343	526,5
899,513	440,48
