Data from krypton_USB4F104151__1__11-01-34-010.txt Node

Date: Wed Apr 15 11:01:34 EDT 2026
User: LaboPhy
Spectrometer: USB4F10415
Trigger mode: 4
Integration Time (sec): 1,000000E-1
Scans to average: 1
Electric dark correction enabled: true
Nonlinearity correction enabled: false
Boxcar width: 0
XAxis mode: Wavelengths
Number of Pixels in Spectrum: 3648
>>>>>Begin Spectral Data<<<<<
178,204	-382,63
178,424	-382,63
178,644	-382,63
178,864	-474,79
179,084	-452,26
179,304	-32,43
179,524	-61,1
179,744	-24,23
179,964	51,54
180,184	39,25
180,404	61,78
180,624	10,58
180,844	53,59
181,064	-67,24
181,283	47,44
181,503	-114,34
181,723	35,16
181,943	-110,25
182,163	285,01
182,383	33,11
182,602	158,03
182,822	215,38
183,042	155,99
183,262	10,58
183,482	39,25
183,701	74,07
183,921	108,88
184,141	-9,9
184,361	121,17
184,58	133,46
184,8	129,36
185,02	55,64
185,239	176,47
185,459	194,9
185,679	104,79
185,898	2,39
186,118	82,26
186,338	121,17
186,557	203,09
186,777	41,3
186,997	108,88
187,216	104,79
187,436	229,71
187,655	74,07
187,875	127,32
188,095	155,99
188,314	233,81
188,534	166,23
188,753	88,4
188,973	180,56
189,192	215,38
189,412	26,96
189,631	63,83
189,851	248,15
190,07	225,62
190,29	-7,85
190,509	53,59
190,729	108,88
190,948	221,52
191,168	289,1
191,387	117,08
191,607	67,92
191,826	88,4
192,045	121,17
192,265	45,4
192,484	164,18
192,704	110,93
192,923	-24,23
193,142	168,27
193,362	147,8
193,581	192,85
193,8	155,99
194,02	186,71
194,239	96,6
194,458	133,46
194,678	84,31
194,897	2,39
195,116	158,03
195,335	162,13
195,555	162,13
195,774	18,77
195,993	192,85
196,212	164,18
196,432	49,49
196,651	65,88
196,87	65,88
197,089	303,44
197,308	98,64
197,528	76,12
197,747	-32,43
197,966	170,32
198,185	145,75
198,404	-36,52
198,623	135,51
198,842	254,29
199,062	207,19
199,281	227,67
199,5	10,58
199,719	117,08
199,938	65,88
200,157	104,79
200,376	184,66
200,595	242
200,814	112,98
201,033	55,64
201,252	219,47
201,471	137,56
201,69	162,13
201,909	172,37
202,128	141,65
202,347	145,75
202,566	51,54
202,785	-52,91
203,004	47,44
203,223	385,36
203,442	119,12
203,661	-26,28
203,879	182,61
204,098	203,09
204,317	-46,76
204,536	160,08
204,755	153,94
204,974	141,65
205,193	82,26
205,411	194,9
205,63	162,13
205,849	59,73
206,068	16,73
206,287	-1,71
206,505	248,15
206,724	69,97
206,943	31,06
207,162	53,59
207,381	121,17
207,599	106,84
207,818	74,07
208,037	31,06
208,255	59,73
208,474	123,22
208,693	59,73
208,911	80,21
209,13	76,12
209,349	137,56
209,567	188,75
209,786	94,55
210,005	63,83
210,223	63,83
210,442	-7,85
210,661	37,2
210,879	55,64
211,098	67,92
211,316	18,77
211,535	147,8
211,753	96,6
211,972	96,6
212,191	-1,71
212,409	115,03
212,628	147,8
212,846	80,21
213,065	22,87
213,283	145,75
213,502	47,44
213,72	102,74
213,938	106,84
214,157	123,22
214,375	166,23
214,594	26,96
214,812	119,12
215,031	55,64
215,249	82,26
215,467	92,5
215,686	80,21
215,904	172,37
216,122	45,4
216,341	248,15
216,559	104,79
216,778	145,75
216,996	215,38
217,214	-22,19
217,432	24,92
217,651	78,16
217,869	84,31
218,087	74,07
218,306	45,4
218,524	129,36
218,742	117,08
218,96	188,75
219,179	41,3
219,397	33,11
219,615	272,72
219,833	217,43
220,051	29,01
220,27	145,75
220,488	180,56
220,706	123,22
220,924	47,44
221,142	16,73
221,36	151,89
221,578	139,6
221,796	63,83
222,015	39,25
222,233	135,51
222,451	178,51
222,669	61,78
222,887	184,66
223,105	49,49
223,323	129,36
223,541	29,01
223,759	112,98
223,977	125,27
224,195	170,32
224,413	74,07
224,631	84,31
224,849	162,13
225,067	325,97
225,285	-9,9
225,503	10,58
225,721	-81,58
225,939	72,02
226,157	76,12
226,375	254,29
226,592	-1,71
226,81	47,44
227,028	158,03
227,246	170,32
227,464	47,44
227,682	174,42
227,9	153,94
228,117	80,21
228,335	145,75
228,553	65,88
228,771	47,44
228,989	94,55
229,206	155,99
229,424	43,35
229,642	61,78
229,86	-54,95
230,077	153,94
230,295	108,88
230,513	207,19
230,731	82,26
230,948	285,01
231,166	211,28
231,384	117,08
231,601	43,35
231,819	270,67
232,037	47,44
232,254	47,44
232,472	92,5
232,689	106,84
232,907	139,6
233,125	24,92
233,342	67,92
233,56	72,02
233,777	119,12
233,995	16,73
234,213	137,56
234,43	166,23
234,648	153,94
234,865	80,21
235,083	76,12
235,3	106,84
235,518	151,89
235,735	131,41
235,953	65,88
236,17	98,64
236,388	57,68
236,605	90,45
236,822	176,47
237,04	196,95
237,257	96,6
237,475	41,3
237,692	106,84
237,909	162,13
238,127	78,16
238,344	160,08
238,562	26,96
238,779	82,26
238,996	88,4
239,214	86,36
239,431	162,13
239,648	108,88
239,865	90,45
240,083	149,84
240,3	92,5
240,517	49,49
240,735	67,92
240,952	215,38
241,169	14,68
241,386	139,6
241,603	115,03
241,821	-34,47
242,038	143,7
242,255	182,61
242,472	151,89
242,689	133,46
242,907	151,89
243,124	117,08
243,341	55,64
243,558	35,16
243,775	84,31
243,992	6,49
244,209	102,74
244,426	184,66
244,643	125,27
244,86	72,02
245,078	172,37
245,295	153,94
245,512	33,11
245,729	55,64
245,946	207,19
246,163	129,36
246,38	72,02
246,597	98,64
246,814	117,08
247,031	41,3
247,248	94,55
247,464	221,52
247,681	67,92
247,898	112,98
248,115	88,4
248,332	-28,33
248,549	289,1
248,766	129,36
248,983	100,69
249,2	125,27
249,417	186,71
249,633	98,64
249,85	153,94
250,067	74,07
250,284	121,17
250,501	100,69
250,717	137,56
250,934	0,34
251,151	-1,71
251,368	22,87
251,585	186,71
251,801	145,75
252,018	39,25
252,235	176,47
252,451	-1,71
252,668	117,08
252,885	117,08
253,102	49,49
253,318	22,87
253,535	82,26
253,752	16,73
253,968	76,12
254,185	-7,85
254,401	82,26
254,618	100,69
254,835	72,02
255,051	188,75
255,268	170,32
255,484	65,88
255,701	22,87
255,917	194,9
256,134	45,4
256,351	172,37
256,567	-11,95
256,784	63,83
257	18,77
257,217	178,51
257,433	174,42
257,65	51,54
257,866	194,9
258,082	65,88
258,299	0,34
258,515	98,64
258,732	0,34
258,948	10,58
259,165	106,84
259,381	-38,57
259,597	203,09
259,814	155,99
260,03	82,26
260,246	112,98
260,463	178,51
260,679	205,14
260,895	-18,09
261,112	123,22
261,328	145,75
261,544	43,35
261,761	209,23
261,977	-16,04
262,193	72,02
262,409	145,75
262,626	106,84
262,842	59,73
263,058	8,53
263,274	219,47
263,49	88,4
263,707	145,75
263,923	170,32
264,139	24,92
264,355	112,98
264,571	123,22
264,787	57,68
265,004	244,05
265,22	63,83
265,436	-30,38
265,652	26,96
265,868	123,22
266,084	26,96
266,3	35,16
266,516	26,96
266,732	176,47
266,948	8,53
267,164	61,78
267,38	172,37
267,596	72,02
267,812	215,38
268,028	55,64
268,244	104,79
268,46	147,8
268,676	82,26
268,892	104,79
269,108	14,68
269,324	63,83
269,54	-32,43
269,756	96,6
269,972	-59,05
270,188	80,21
270,403	-42,67
270,619	104,79
270,835	92,5
271,051	106,84
271,267	104,79
271,483	53,59
271,698	84,31
271,914	55,64
272,13	84,31
272,346	96,6
272,562	115,03
272,777	242
272,993	108,88
273,209	59,73
273,425	147,8
273,64	-36,52
273,856	72,02
274,072	10,58
274,287	72,02
274,503	237,91
274,719	110,93
274,934	14,68
275,15	-48,81
275,366	57,68
275,581	69,97
275,797	115,03
276,012	121,17
276,228	-18,09
276,444	121,17
276,659	166,23
276,875	-9,9
277,09	145,75
277,306	84,31
277,521	123,22
277,737	131,41
277,952	211,28
278,168	84,31
278,383	112,98
278,599	123,22
278,814	110,93
279,03	57,68
279,245	215,38
279,461	106,84
279,676	194,9
279,892	43,35
280,107	-1,71
280,322	127,32
280,538	82,26
280,753	4,44
280,969	69,97
281,184	145,75
281,399	248,15
281,615	80,21
281,83	129,36
282,045	-28,33
282,26	12,63
282,476	61,78
282,691	162,13
282,906	119,12
283,122	170,32
283,337	47,44
283,552	178,51
283,767	90,45
283,983	137,56
284,198	88,4
284,413	24,92
284,628	-32,43
284,843	6,49
285,058	182,61
285,274	16,73
285,489	4,44
285,704	133,46
285,919	96,6
286,134	106,84
286,349	10,58
286,564	31,06
286,779	172,37
286,995	61,78
287,21	12,63
287,425	147,8
287,64	67,92
287,855	31,06
288,07	-9,9
288,285	162,13
288,5	182,61
288,715	137,56
288,93	74,07
289,145	41,3
289,36	160,08
289,575	-30,38
289,79	211,28
290,004	10,58
290,219	198,99
290,434	96,6
290,649	-48,81
290,864	55,64
291,079	57,68
291,294	121,17
291,509	155,99
291,724	88,4
291,938	45,4
292,153	76,12
292,368	51,54
292,583	160,08
292,798	133,46
293,012	72,02
293,227	198,99
293,442	121,17
293,657	119,12
293,871	112,98
294,086	129,36
294,301	276,82
294,516	192,85
294,73	131,41
294,945	-40,62
295,16	102,74
295,374	213,33
295,589	153,94
295,804	33,11
296,018	106,84
296,233	178,51
296,447	129,36
296,662	127,32
296,877	145,75
297,091	153,94
297,306	178,51
297,52	82,26
297,735	180,56
297,949	123,22
298,164	74,07
298,378	102,74
298,593	88,4
298,807	14,68
299,022	104,79
299,236	227,67
299,451	49,49
299,665	59,73
299,88	102,74
300,094	129,36
300,309	84,31
300,523	41,3
300,737	41,3
300,952	112,98
301,166	123,22
301,381	43,35
301,595	39,25
301,809	139,6
302,024	117,08
302,238	33,11
302,452	129,36
302,667	121,17
302,881	213,33
303,095	155,99
303,309	72,02
303,524	65,88
303,738	139,6
303,952	61,78
304,166	112,98
304,381	-40,62
304,595	246,1
304,809	53,59
305,023	112,98
305,237	112,98
305,452	133,46
305,666	231,76
305,88	121,17
306,094	168,27
306,308	164,18
306,522	123,22
306,736	192,85
306,95	256,34
307,164	155,99
307,379	158,03
307,593	203,09
307,807	280,91
308,021	223,57
308,235	158,03
308,449	35,16
308,663	215,38
308,877	377,17
309,091	158,03
309,305	250,19
309,519	12,63
309,733	235,86
309,947	135,51
310,161	176,47
310,374	170,32
310,588	315,73
310,802	8,53
311,016	180,56
311,23	186,71
311,444	145,75
311,658	133,46
311,872	295,25
312,085	280,91
312,299	297,3
312,513	258,39
312,727	219,47
312,941	104,79
313,154	227,67
313,368	158,03
313,582	182,61
313,796	258,39
314,009	172,37
314,223	287,06
314,437	258,39
314,651	190,8
314,864	115,03
315,078	76,12
315,292	153,94
315,505	112,98
315,719	186,71
315,933	125,27
316,146	143,7
316,36	117,08
316,573	172,37
316,787	280,91
317,001	160,08
317,214	110,93
317,428	115,03
317,641	31,06
317,855	102,74
318,068	145,75
318,282	137,56
318,495	252,24
318,709	178,51
318,922	139,6
319,136	264,53
319,349	250,19
319,563	63,83
319,776	198,99
319,99	-1,71
320,203	231,76
320,417	92,5
320,63	237,91
320,843	280,91
321,057	164,18
321,27	143,7
321,483	182,61
321,697	260,43
321,91	149,84
322,124	127,32
322,337	166,23
322,55	176,47
322,763	147,8
322,977	104,79
323,19	158,03
323,403	131,41
323,617	219,47
323,83	285,01
324,043	90,45
324,256	229,71
324,469	72,02
324,683	231,76
324,896	88,4
325,109	153,94
325,322	22,87
325,535	190,8
325,748	227,67
325,962	137,56
326,175	145,75
326,388	182,61
326,601	225,62
326,814	121,17
327,027	172,37
327,24	282,96
327,453	8,53
327,666	178,51
327,879	301,39
328,092	233,81
328,305	225,62
328,518	153,94
328,731	145,75
328,944	133,46
329,157	252,24
329,37	90,45
329,583	307,54
329,796	325,97
330,009	121,17
330,222	268,63
330,435	250,19
330,648	94,55
330,861	170,32
331,073	198,99
331,286	201,04
331,499	186,71
331,712	125,27
331,925	162,13
332,138	153,94
332,35	235,86
332,563	174,42
332,776	352,59
332,989	127,32
333,202	198,99
333,414	213,33
333,627	149,84
333,84	198,99
334,053	244,05
334,265	282,96
334,478	360,78
334,691	368,98
334,903	424,27
335,116	385,36
335,329	473,42
335,541	528,72
335,754	565,58
335,966	446,8
336,179	532,81
336,392	573,77
336,604	555,34
336,817	577,87
337,029	520,53
337,242	422,22
337,454	459,09
337,667	411,98
337,88	383,31
338,092	315,73
338,305	377,17
338,517	213,33
338,729	383,31
338,942	434,51
339,154	151,89
339,367	137,56
339,579	328,02
339,792	266,58
340,004	278,87
340,217	221,52
340,429	268,63
340,641	186,71
340,854	235,86
341,066	268,63
341,278	401,74
341,491	414,03
341,703	244,05
341,915	127,32
342,128	268,63
342,34	297,3
342,552	94,55
342,764	162,13
342,977	155,99
343,189	246,1
343,401	219,47
343,613	145,75
343,826	233,81
344,038	112,98
344,25	211,28
344,462	172,37
344,674	196,95
344,886	219,47
345,099	184,66
345,311	276,82
345,523	100,69
345,735	67,92
345,947	166,23
346,159	309,58
346,371	170,32
346,583	127,32
346,795	389,46
347,007	170,32
347,219	198,99
347,431	260,43
347,643	254,29
347,855	235,86
348,067	321,87
348,279	123,22
348,491	194,9
348,703	287,06
348,915	235,86
349,127	215,38
349,339	211,28
349,551	231,76
349,763	328,02
349,975	272,72
350,187	352,59
350,399	352,59
350,61	334,16
350,822	244,05
351,034	323,92
351,246	280,91
351,458	203,09
351,669	315,73
351,881	285,01
352,093	358,74
352,305	348,5
352,517	285,01
352,728	309,58
352,94	303,44
353,152	291,15
353,363	164,18
353,575	293,2
353,787	354,64
353,999	227,67
354,21	401,74
354,422	176,47
354,633	211,28
354,845	248,15
355,057	280,91
355,268	276,82
355,48	387,41
355,692	268,63
355,903	211,28
356,115	309,58
356,326	223,57
356,538	459,09
356,749	489,81
356,961	567,63
357,172	522,57
357,384	502,09
357,595	698,7
357,807	366,93
358,018	500,05
358,23	526,67
358,441	575,82
358,653	549,2
358,864	407,89
359,075	350,54
359,287	418,13
359,498	465,23
359,709	379,22
359,921	383,31
360,132	311,63
360,344	354,64
360,555	348,5
360,766	350,54
360,977	330,06
361,189	407,89
361,4	332,11
361,611	379,22
361,823	319,82
362,034	368,98
362,245	258,39
362,456	252,24
362,667	321,87
362,879	250,19
363,09	342,35
363,301	311,63
363,512	219,47
363,723	129,36
363,935	270,67
364,146	379,22
364,357	301,39
364,568	285,01
364,779	174,42
364,99	436,56
365,201	301,39
365,412	448,85
365,623	336,21
365,834	461,13
366,045	450,89
366,256	567,63
366,467	665,93
366,678	604,49
366,889	452,94
367,1	592,2
367,311	663,88
367,522	608,59
367,733	731,47
367,944	592,2
368,155	500,05
368,366	637,26
368,577	598,35
368,788	514,38
368,999	411,98
369,209	440,65
369,42	551,24
369,631	514,38
369,842	381,26
370,053	344,4
370,264	346,45
370,474	237,91
370,685	317,78
370,896	264,53
371,107	393,55
371,317	332,11
371,528	285,01
371,739	461,13
371,95	276,82
372,16	287,06
372,371	239,95
372,582	221,52
372,792	368,98
373,003	354,64
373,214	358,74
373,424	321,87
373,635	246,1
373,846	366,93
374,056	266,58
374,267	373,07
374,477	356,69
374,688	242
374,898	391,5
375,109	309,58
375,319	420,17
375,53	418,13
375,74	336,21
375,951	336,21
376,161	348,5
376,372	514,38
376,582	364,88
376,793	444,75
377,003	330,06
377,214	276,82
377,424	407,89
377,635	432,46
377,845	330,06
378,055	563,53
378,266	368,98
378,476	407,89
378,686	452,94
378,897	395,6
379,107	561,48
379,317	485,71
379,528	551,24
379,738	622,92
379,948	532,81
380,158	684,36
380,369	555,34
380,579	620,88
380,789	616,78
380,999	567,63
381,21	647,5
381,42	706,89
381,63	604,49
381,84	618,83
382,05	549,2
382,261	680,27
382,471	694,6
382,681	657,74
382,891	782,67
383,101	760,14
383,311	649,55
383,521	852,3
383,731	985,41
383,941	1053
384,151	1014,09
384,361	958,79
384,571	1124,68
384,781	1112,39
384,991	1278,27
385,201	1239,36
385,411	1214,79
385,621	1272,13
385,831	1202,5
386,041	1292,61
386,251	1290,56
386,461	1407,3
386,671	1429,82
386,881	1347,9
387,091	1276,23
387,301	1413,44
387,511	1290,56
387,72	1364,29
387,93	1229,12
388,14	1059,14
388,35	1216,83
388,56	1220,93
388,769	928,07
388,979	973,13
389,189	801,1
389,399	778,57
389,609	684,36
389,818	678,22
390,028	672,08
390,238	604,49
390,447	520,53
390,657	530,77
390,867	428,37
391,076	405,84
391,286	549,2
391,496	461,13
391,705	573,77
391,915	643,4
392,125	504,14
392,334	414,03
392,544	563,53
392,753	383,31
392,963	432,46
393,172	477,52
393,382	416,08
393,591	563,53
393,801	420,17
394,01	498
394,22	450,89
394,429	330,06
394,639	358,74
394,848	473,42
395,058	391,5
395,267	366,93
395,477	489,81
395,686	416,08
395,895	573,77
396,105	563,53
396,314	358,74
396,524	383,31
396,733	391,5
396,942	481,61
397,152	407,89
397,361	325,97
397,57	354,64
397,78	354,64
397,989	385,36
398,198	555,34
398,407	342,35
398,617	375,12
398,826	317,78
399,035	325,97
399,244	397,65
399,453	397,65
399,663	334,16
399,872	393,55
400,081	311,63
400,29	500,05
400,499	237,91
400,708	317,78
400,917	239,95
401,127	280,91
401,336	293,2
401,545	436,56
401,754	424,27
401,963	424,27
402,172	307,54
402,381	297,3
402,59	280,91
402,799	311,63
403,008	530,77
403,217	440,65
403,426	475,47
403,635	334,16
403,844	383,31
404,053	385,36
404,262	399,7
404,471	581,96
404,68	444,75
404,888	434,51
405,097	483,66
405,306	450,89
405,515	416,08
405,724	432,46
405,933	416,08
406,142	438,61
406,35	516,43
406,559	393,55
406,768	440,65
406,977	475,47
407,185	403,79
407,394	461,13
407,603	295,25
407,812	397,65
408,02	498
408,229	471,37
408,438	379,22
408,646	348,5
408,855	366,93
409,064	307,54
409,272	334,16
409,481	467,28
409,69	332,11
409,898	287,06
410,107	481,61
410,315	469,33
410,524	336,21
410,733	454,99
410,941	350,54
411,15	424,27
411,358	547,15
411,567	442,7
411,775	461,13
411,984	426,32
412,192	498
412,401	356,69
412,609	555,34
412,818	485,71
413,026	428,37
413,234	401,74
413,443	436,56
413,651	375,12
413,86	362,83
414,068	475,47
414,276	598,35
414,485	465,23
414,693	631,12
414,901	575,82
415,11	469,33
415,318	493,9
415,526	502,09
415,734	459,09
415,943	520,53
416,151	538,96
416,359	416,08
416,567	483,66
416,776	434,51
416,984	504,14
417,192	579,92
417,4	500,05
417,608	366,93
417,817	360,78
418,025	516,43
418,233	604,49
418,441	418,13
418,649	424,27
418,857	530,77
419,065	563,53
419,273	416,08
419,481	487,76
419,689	467,28
419,897	416,08
420,105	426,32
420,313	559,44
420,521	577,87
420,729	616,78
420,937	393,55
421,145	450,89
421,353	520,53
421,561	598,35
421,769	463,18
421,977	434,51
422,185	446,8
422,393	450,89
422,601	514,38
422,809	389,46
423,017	389,46
423,224	481,61
423,432	541,01
423,64	395,6
423,848	483,66
424,056	309,58
424,263	547,15
424,471	428,37
424,679	563,53
424,887	489,81
425,094	885,06
425,302	1147,2
425,51	1470,78
425,718	2115,89
425,925	2607,41
426,133	3107,11
426,341	4210,97
426,548	4682
426,756	5476,61
426,964	6080,76
427,171	6768,88
427,379	7379,17
427,586	7346,41
427,794	7192,81
428,001	7096,55
428,209	6422,77
428,417	5384,45
428,624	4743,44
428,832	3791,13
429,039	3072,29
429,247	2388,27
429,454	2302,26
429,662	2416,94
429,869	2443,57
430,076	2912,55
430,284	3373,35
430,491	4188,44
430,699	5257,48
430,906	6297,85
431,114	6938,86
431,321	7809,25
431,528	8579,28
431,736	9695,43
431,943	10426,55
432,15	9861,31
432,358	9390,28
432,565	9097,42
432,772	7635,17
432,979	6652,14
433,187	5298,44
433,394	3995,93
433,601	3103,01
433,808	2466,1
434,016	1882,42
434,223	1558,85
434,43	1335,62
434,637	1239,36
434,844	1368,38
435,052	1415,49
435,259	1642,81
435,466	1851,71
435,673	2083,13
435,88	2464,05
436,087	2879,79
436,294	3160,36
436,501	3342,63
436,708	3442,98
436,915	3651,87
437,122	3744,03
437,329	3621,15
437,537	3856,67
437,743	3825,95
437,95	3455,26
438,157	3238,18
438,364	3049,77
438,571	2609,45
438,778	2226,48
438,985	2040,12
439,192	1610,04
439,399	1552,7
439,606	1270,08
439,813	1179,97
440,02	1263,94
440,227	1112,39
440,433	958,79
440,64	899,4
440,847	776,52
441,054	899,4
441,261	919,88
441,467	706,89
441,674	653,64
441,881	762,19
442,088	575,82
442,294	792,91
442,501	696,65
442,708	637,26
442,914	600,4
443,121	758,09
443,328	614,73
443,534	889,16
443,741	936,26
443,948	1005,89
444,154	1395,01
444,361	1909,05
444,568	2093,37
444,774	2486,58
444,981	2771,24
445,187	3393,83
445,394	3832,09
445,6	3961,11
445,807	4514,06
446,013	4323,6
446,22	4374,8
446,426	4595,98
446,633	4204,82
446,839	3942,68
447,046	3193,12
447,252	3051,81
447,459	2328,88
447,665	1823,03
447,871	1638,72
448,078	1620,28
448,284	1270,08
448,491	1317,19
448,697	1259,84
448,903	1362,24
449,11	1581,37
449,316	1694,01
449,522	1968,44
449,728	2119,99
449,935	2375,99
450,141	2367,79
450,347	2543,92
450,553	2416,94
450,76	2318,64
450,966	2294,07
451,172	1863,99
451,378	1640,76
451,584	1417,54
451,791	1268,03
451,997	975,17
452,203	772,43
452,409	770,38
452,615	704,84
452,821	526,67
453,027	442,7
453,233	639,31
453,44	477,52
453,646	383,31
453,852	442,7
454,058	364,88
454,264	385,36
454,47	530,77
454,676	350,54
454,882	498
455,088	538,96
455,294	432,46
455,5	526,67
455,705	543,05
455,911	487,76
456,117	428,37
456,323	489,81
456,529	461,13
456,735	436,56
456,941	401,74
457,147	555,34
457,352	532,81
457,558	387,41
457,764	514,38
457,97	401,74
458,176	416,08
458,381	461,13
458,587	604,49
458,793	508,24
458,999	371,02
459,204	399,7
459,41	454,99
459,616	446,8
459,821	604,49
460,027	432,46
460,233	614,73
460,438	522,57
460,644	436,56
460,85	600,4
461,055	475,47
461,261	477,52
461,466	411,98
461,672	414,03
461,878	414,03
462,083	563,53
462,289	321,87
462,494	330,06
462,7	463,18
462,905	379,22
463,111	424,27
463,316	471,37
463,522	459,09
463,727	420,17
463,932	401,74
464,138	403,79
464,343	508,24
464,549	469,33
464,754	469,33
464,959	555,34
465,165	416,08
465,37	481,61
465,575	469,33
465,781	500,05
465,986	508,24
466,191	506,19
466,397	553,29
466,602	528,72
466,807	581,96
467,012	612,68
467,218	563,53
467,423	588,11
467,628	571,72
467,833	510,29
468,038	612,68
468,244	530,77
468,449	637,26
468,654	667,98
468,859	534,86
469,064	543,05
469,269	622,92
469,474	809,29
469,679	762,19
469,885	561,48
470,09	518,48
470,295	614,73
470,5	541,01
470,705	633,16
470,91	620,88
471,115	674,12
471,32	639,31
471,525	751,95
471,73	731,47
471,935	612,68
472,139	493,9
472,344	551,24
472,549	485,71
472,754	581,96
472,959	688,46
473,164	661,84
473,369	584,01
473,574	608,59
473,778	590,16
473,983	612,68
474,188	600,4
474,393	475,47
474,598	547,15
474,802	596,3
475,007	573,77
475,212	672,08
475,417	483,66
475,621	694,6
475,826	504,14
476,031	516,43
476,235	592,2
476,44	563,53
476,645	692,55
476,849	465,23
477,054	504,14
477,259	553,29
477,463	633,16
477,668	813,38
477,872	645,45
478,077	516,43
478,282	469,33
478,486	667,98
478,691	512,33
478,895	608,59
479,1	663,88
479,304	637,26
479,509	606,54
479,713	725,32
479,918	706,89
480,122	727,37
480,326	825,67
480,531	676,17
480,735	756,04
480,94	645,45
481,144	930,12
481,348	776,52
481,553	821,58
481,757	737,61
481,961	813,38
482,166	801,1
482,37	715,08
482,574	760,14
482,778	747,85
482,983	854,34
483,187	815,43
483,391	786,76
483,595	792,91
483,8	778,57
484,004	856,39
484,208	762,19
484,412	766,28
484,616	827,72
484,821	735,56
485,025	794,95
485,229	727,37
485,433	794,95
485,637	717,13
485,841	778,57
486,045	829,77
486,249	862,54
486,453	825,67
486,657	799,05
486,861	821,58
487,065	926,02
487,269	858,44
487,473	840,01
487,677	944,45
487,881	1198,4
488,085	936,26
488,289	944,45
488,493	919,88
488,697	1087,81
488,901	948,55
489,105	940,36
489,309	995,65
489,512	1061,19
489,716	880,97
489,92	876,87
490,124	1001,8
490,328	934,22
490,531	840,01
490,735	966,98
490,939	719,18
491,143	833,86
491,346	817,48
491,55	803,15
491,754	735,56
491,958	723,27
492,161	735,56
492,365	706,89
492,569	696,65
492,772	848,2
492,976	719,18
493,18	739,66
493,383	680,27
493,587	727,37
493,79	727,37
493,994	538,96
494,197	651,6
494,401	735,56
494,605	702,79
494,808	657,74
495,012	688,46
495,215	797
495,419	868,68
495,622	620,88
495,825	696,65
496,029	723,27
496,232	801,1
496,436	661,84
496,639	817,48
496,843	702,79
497,046	596,3
497,249	905,54
497,453	784,71
497,656	745,8
497,859	719,18
498,063	919,88
498,266	801,1
498,469	696,65
498,673	696,65
498,876	692,55
499,079	682,31
499,282	729,42
499,485	944,45
499,689	784,71
499,892	756,04
500,095	692,55
500,298	739,66
500,501	647,5
500,705	579,92
500,908	717,13
501,111	653,64
501,314	780,62
501,517	842,06
501,72	725,32
501,923	680,27
502,126	653,64
502,329	805,19
502,532	696,65
502,735	635,21
502,938	837,96
503,141	776,52
503,344	727,37
503,547	805,19
503,75	713,03
503,953	819,53
504,156	876,87
504,359	776,52
504,562	774,47
504,765	825,67
504,968	917,83
505,17	907,59
505,373	1020,23
505,576	958,79
505,779	801,1
505,982	821,58
506,185	964,93
506,387	956,74
506,59	1077,57
506,793	997,7
506,996	891,21
507,198	1046,85
507,401	1073,48
507,604	1007,94
507,807	928,07
508,009	891,21
508,212	1024,33
508,415	909,64
508,617	948,55
508,82	891,21
509,022	891,21
509,225	971,08
509,428	938,31
509,63	942,41
509,833	821,58
510,035	983,37
510,238	903,5
510,44	747,85
510,643	739,66
510,845	850,25
511,048	874,82
511,25	797
511,453	870,73
511,655	942,41
511,858	977,22
512,06	1110,34
512,262	954,69
512,465	985,41
512,667	1018,18
512,87	1085,76
513,072	1190,21
513,274	1126,72
513,477	1007,94
513,679	1298,75
513,881	1206,59
514,084	1165,64
514,286	1308,99
514,488	1247,55
514,69	1210,69
514,893	1102,15
515,095	1110,34
515,297	1100,1
515,499	1218,88
515,701	1145,16
515,904	1163,59
516,106	1227,07
516,308	1151,3
516,51	1116,48
516,712	1089,86
516,914	1030,47
517,116	975,17
517,318	958,79
517,52	977,22
517,722	852,3
517,925	825,67
518,127	825,67
518,329	1003,85
518,531	641,36
518,733	842,06
518,935	708,94
519,136	842,06
519,338	661,84
519,54	751,95
519,742	680,27
519,944	840,01
520,146	696,65
520,348	670,03
520,55	694,6
520,752	606,54
520,954	571,72
521,155	674,12
521,357	688,46
521,559	751,95
521,761	762,19
521,963	747,85
522,164	743,75
522,366	844,1
522,568	768,33
522,77	919,88
522,971	768,33
523,173	700,75
523,375	782,67
523,576	751,95
523,778	741,71
523,98	688,46
524,181	803,15
524,383	887,11
524,584	760,14
524,786	860,49
524,988	663,88
525,189	846,15
525,391	854,34
525,592	821,58
525,794	801,1
525,995	797
526,197	856,39
526,398	973,13
526,6	934,22
526,801	823,62
527,003	665,93
527,204	799,05
527,406	872,78
527,607	794,95
527,808	805,19
528,01	858,44
528,211	813,38
528,412	620,88
528,614	823,62
528,815	702,79
529,016	811,34
529,218	727,37
529,419	678,22
529,62	581,96
529,822	747,85
530,023	719,18
530,224	741,71
530,425	721,23
530,626	735,56
530,828	690,51
531,029	680,27
531,23	805,19
531,431	741,71
531,632	817,48
531,833	653,64
532,035	790,86
532,236	725,32
532,437	825,67
532,638	780,62
532,839	817,48
533,04	1005,89
533,241	1030,47
533,442	942,41
533,643	866,63
533,844	821,58
534,045	926,02
534,246	889,16
534,447	903,5
534,648	948,55
534,849	1048,9
535,05	960,84
535,251	887,11
535,451	995,65
535,652	876,87
535,853	866,63
536,054	883,02
536,255	979,27
536,456	903,5
536,657	770,38
536,857	866,63
537,058	864,58
537,259	696,65
537,46	862,54
537,66	803,15
537,861	719,18
538,062	784,71
538,263	678,22
538,463	852,3
538,664	766,28
538,865	674,12
539,065	706,89
539,266	745,8
539,466	627,02
539,667	764,23
539,868	768,33
540,068	710,99
540,269	799,05
540,469	674,12
540,67	825,67
540,87	745,8
541,071	557,39
541,271	698,7
541,472	715,08
541,672	811,34
541,873	649,55
542,073	739,66
542,274	735,56
542,474	780,62
542,675	737,61
542,875	809,29
543,075	686,41
543,276	713,03
543,476	719,18
543,676	733,51
543,877	706,89
544,077	883,02
544,277	778,57
544,478	743,75
544,678	706,89
544,878	663,88
545,078	659,79
545,279	772,43
545,479	721,23
545,679	743,75
545,879	756,04
546,079	811,34
546,28	612,68
546,48	756,04
546,68	780,62
546,88	731,47
547,08	682,31
547,28	721,23
547,48	639,31
547,68	766,28
547,88	670,03
548,081	846,15
548,281	645,45
548,481	858,44
548,681	971,08
548,881	915,78
549,081	1020,23
549,28	1034,57
549,48	1153,35
549,68	1194,31
549,88	1231,17
550,08	1091,91
550,28	1186,12
550,48	1263,94
550,68	1136,96
550,88	1100,1
551,08	1110,34
551,279	1239,36
551,479	1136,96
551,679	1294,66
551,879	1083,72
552,079	1073,48
552,278	1190,21
552,478	1079,62
552,678	973,13
552,878	977,22
553,077	928,07
553,277	852,3
553,477	905,54
553,676	928,07
553,876	780,62
554,076	766,28
554,275	1118,53
554,475	1511,74
554,674	2152,76
554,874	3170,6
555,074	5142,79
555,273	8372,44
555,473	12538,01
555,672	18776,12
555,872	26320,84
556,071	33818,45
556,271	40974,05
556,47	45362,85
556,67	49215,08
556,869	51084,87
557,068	51772,99
557,268	50224,73
557,467	47502,98
557,667	44078,77
557,866	39376,64
558,065	34465,61
558,265	29337,49
558,464	24629,21
558,663	21145,62
558,863	17385,55
559,062	14579,83
559,261	11333,8
559,461	9480,39
559,66	7313,64
559,859	5458,18
560,058	4124,95
560,258	2795,82
560,457	2185,52
560,656	1843,51
560,855	1134,92
561,054	1225,03
561,253	950,6
561,453	923,98
561,652	860,49
561,851	733,51
562,05	768,33
562,249	594,25
562,448	815,43
562,647	680,27
562,846	721,23
563,045	887,11
563,244	817,48
563,443	1001,8
563,642	1093,96
563,841	1157,44
564,04	1368,38
564,239	1509,69
564,438	1689,92
564,637	1710,4
564,836	1696,06
565,035	1794,36
565,234	1784,12
565,432	1792,31
565,631	1739,07
565,83	1720,64
566,029	1687,87
566,228	1720,64
566,427	1759,55
566,625	1562,94
566,824	1698,11
567,023	1661,24
567,222	1562,94
567,42	1497,41
567,619	1493,31
567,818	1466,69
568,016	1554,75
568,215	1311,04
568,414	1337,66
568,612	1237,31
568,811	1186,12
569,01	1114,44
569,208	952,65
569,407	1118,53
569,605	1128,77
569,804	1120,58
570,002	1173,83
570,201	989,51
570,4	1116,48
570,598	1065,29
570,797	930,12
570,995	926,02
571,193	977,22
571,392	1067,33
571,59	872,78
571,789	1053
571,987	1157,44
572,186	1118,53
572,384	934,22
572,582	905,54
572,781	944,45
572,979	788,81
573,177	762,19
573,376	753,99
573,574	846,15
573,772	805,19
573,971	751,95
574,169	596,3
574,367	815,43
574,565	657,74
574,763	665,93
574,962	731,47
575,16	770,38
575,358	676,17
575,556	670,03
575,754	719,18
575,952	708,94
576,151	713,03
576,349	768,33
576,547	553,29
576,745	600,4
576,943	696,65
577,141	604,49
577,339	575,82
577,537	665,93
577,735	723,27
577,933	706,89
578,131	594,25
578,329	819,53
578,527	620,88
578,725	719,18
578,923	581,96
579,121	737,61
579,319	500,05
579,516	643,4
579,714	840,01
579,912	641,36
580,11	487,76
580,308	610,64
580,506	592,2
580,704	522,57
580,901	631,12
581,099	903,5
581,297	747,85
581,495	858,44
581,692	956,74
581,89	1329,47
582,088	1259,84
582,285	1405,25
582,483	1614,14
582,681	1560,89
582,878	1640,76
583,076	1737,02
583,274	1751,35
583,471	1763,64
583,669	1595,71
583,866	1302,85
584,064	1382,72
584,262	1216,83
584,459	1046,85
584,657	1194,31
584,854	1165,64
585,052	1294,66
585,249	2079,03
585,447	4323,6
585,644	8259,8
585,841	15554,66
586,039	24031,21
586,236	32802,66
586,434	41031,4
586,631	47353,47
586,828	52315,7
587,026	54564,37
587,223	54251,03
587,42	52317,75
587,618	50488,91
587,815	45747,87
588,012	41840,34
588,21	36753,19
588,407	31772,53
588,604	27432,88
588,801	23332,85
588,999	19449,9
589,196	16703,57
589,393	13486,22
589,59	11002,03
589,787	8816,85
589,984	7067,88
590,182	5306,63
590,379	3754,27
590,576	2853,16
590,773	2091,32
590,97	1567,04
591,167	1327,43
591,364	1079,62
591,561	936,26
591,758	819,53
591,955	794,95
592,152	713,03
592,349	647,5
592,546	516,43
592,743	575,82
592,94	545,1
593,137	608,59
593,334	637,26
593,531	538,96
593,727	541,01
593,924	573,77
594,121	596,3
594,318	459,09
594,515	588,11
594,712	641,36
594,908	598,35
595,105	328,02
595,302	467,28
595,499	477,52
595,696	643,4
595,892	395,6
596,089	518,48
596,286	457,04
596,482	588,11
596,679	543,05
596,876	452,94
597,072	559,44
597,269	495,95
597,466	563,53
597,662	530,77
597,859	713,03
598,055	784,71
598,252	1040,71
598,448	1407,3
598,645	1608
598,841	1806,65
599,038	2177,33
599,234	2275,63
599,431	2324,79
599,627	2107,7
599,824	2359,6
600,02	2294,07
600,217	2312,5
600,413	2308,4
600,609	2367,79
600,806	2586,93
601,002	2425,14
601,198	2335,03
601,395	2265,39
601,591	2050,36
601,787	1945,91
601,984	1878,33
602,18	1700,16
602,376	1636,67
602,572	1552,7
602,769	1431,87
602,965	1343,81
603,161	1392,96
603,357	1331,52
603,553	1417,54
603,75	1208,64
603,946	1212,74
604,142	1337,66
604,338	1464,64
604,534	1423,68
604,73	1483,07
604,926	1661,24
605,122	1870,14
605,318	1784,12
605,514	1870,14
605,71	1784,12
605,906	1950,01
606,102	1644,86
606,298	1802,55
606,494	1595,71
606,69	1710,4
606,886	1423,68
607,082	1403,2
607,278	1401,15
607,474	1532,22
607,67	1493,31
607,866	1255,75
608,062	1444,16
608,257	1331,52
608,453	1153,35
608,649	1200,45
608,845	1014,09
609,041	899,4
609,236	997,7
609,432	956,74
609,628	868,68
609,824	807,24
610,019	594,25
610,215	733,51
610,411	733,51
610,606	813,38
610,802	481,61
610,998	596,3
611,193	637,26
611,389	416,08
611,584	600,4
611,78	518,48
611,976	549,2
612,171	627,02
612,367	594,25
612,562	608,59
612,758	608,59
612,953	432,46
613,149	516,43
613,344	555,34
613,539	436,56
613,735	624,97
613,93	577,87
614,126	530,77
614,321	604,49
614,517	780,62
614,712	762,19
614,907	749,9
615,103	641,36
615,298	674,12
615,493	512,33
615,688	680,27
615,884	731,47
616,079	631,12
616,274	758,09
616,47	528,72
616,665	506,19
616,86	547,15
617,055	409,94
617,25	416,08
617,445	434,51
617,641	504,14
617,836	330,06
618,031	352,59
618,226	434,51
618,421	444,75
618,616	403,79
618,811	401,74
619,006	330,06
619,201	457,04
619,396	387,41
619,591	325,97
619,786	409,94
619,981	403,79
620,176	426,32
620,371	338,26
620,566	307,54
620,761	493,9
620,956	330,06
621,151	358,74
621,346	481,61
621,541	438,61
621,735	604,49
621,93	498
622,125	520,53
622,32	489,81
622,515	461,13
622,709	713,03
622,904	876,87
623,099	758,09
623,294	897,35
623,488	901,45
623,683	885,06
623,878	876,87
624,072	907,59
624,267	678,22
624,462	684,36
624,656	555,34
624,851	723,27
625,046	588,11
625,24	579,92
625,435	469,33
625,629	508,24
625,824	612,68
626,018	571,72
626,213	479,57
626,407	500,05
626,602	459,09
626,796	432,46
626,991	463,18
627,185	289,1
627,38	407,89
627,574	498
627,768	436,56
627,963	401,74
628,157	467,28
628,352	346,45
628,546	323,92
628,74	414,03
628,935	440,65
629,129	393,55
629,323	411,98
629,517	244,05
629,712	276,82
629,906	360,78
630,1	498
630,294	379,22
630,489	397,65
630,683	328,02
630,877	311,63
631,071	389,46
631,265	358,74
631,459	311,63
631,653	272,72
631,848	303,44
632,042	360,78
632,236	164,18
632,43	371,02
632,624	346,45
632,818	317,78
633,012	436,56
633,206	368,98
633,4	342,35
633,594	383,31
633,788	409,94
633,982	454,99
634,176	616,78
634,369	481,61
634,563	465,23
634,757	344,4
634,951	522,57
635,145	627,02
635,339	420,17
635,533	584,01
635,726	514,38
635,92	444,75
636,114	401,74
636,308	510,29
636,501	498
636,695	637,26
636,889	485,71
637,083	676,17
637,276	657,74
637,47	498
637,664	614,73
637,857	581,96
638,051	549,2
638,244	620,88
638,438	543,05
638,632	612,68
638,825	424,27
639,019	629,07
639,212	459,09
639,406	616,78
639,599	543,05
639,793	514,38
639,986	571,72
640,18	620,88
640,373	713,03
640,567	731,47
640,76	811,34
640,954	1034,57
641,147	1147,2
641,34	1493,31
641,534	1726,78
641,727	1884,47
641,92	2054,45
642,114	2052,41
642,307	2029,88
642,5	2054,45
642,694	1640,76
642,887	1726,78
643,08	1685,82
643,273	1585,47
643,467	1433,92
643,66	1284,42
643,853	1145,16
644,046	1327,43
644,239	1272,13
644,432	1317,19
644,626	1706,3
644,819	2199,86
645,012	2642,22
645,205	3107,11
645,398	3211,56
645,591	3381,54
645,784	3066,15
645,977	3100,97
646,17	2892,07
646,363	2664,75
646,556	2482,48
646,749	2382,13
646,942	2152,76
647,135	1997,11
647,328	2009,4
647,521	1753,4
647,714	1431,87
647,907	1483,07
648,099	1227,07
648,292	1239,36
648,485	1085,76
648,678	932,17
648,871	805,19
649,064	854,34
649,256	674,12
649,449	690,51
649,642	610,64
649,835	663,88
650,027	629,07
650,22	790,86
650,413	631,12
650,605	717,13
650,798	618,83
650,991	637,26
651,183	571,72
651,376	647,5
651,568	643,4
651,761	530,77
651,954	649,55
652,146	559,44
652,339	594,25
652,531	592,2
652,724	450,89
652,916	538,96
653,109	442,7
653,301	663,88
653,494	561,48
653,686	528,72
653,879	670,03
654,071	682,31
654,263	545,1
654,456	555,34
654,648	647,5
654,84	606,54
655,033	610,64
655,225	844,1
655,417	708,94
655,61	1005,89
655,802	1096
655,994	1235,27
656,186	1186,12
656,379	1292,61
656,571	1026,37
656,763	1055,05
656,955	964,93
657,148	1071,43
657,34	1128,77
657,532	907,59
657,724	891,21
657,916	780,62
658,108	905,54
658,3	817,48
658,492	751,95
658,684	596,3
658,876	670,03
659,068	506,19
659,26	506,19
659,452	379,22
659,644	483,66
659,836	565,58
660,028	465,23
660,22	401,74
660,412	418,13
660,604	389,46
660,796	411,98
660,988	489,81
661,18	434,51
661,372	368,98
661,563	350,54
661,755	442,7
661,947	342,35
662,139	305,49
662,331	260,43
662,522	285,01
662,714	242
662,906	260,43
663,097	285,01
663,289	242
663,481	227,67
663,673	368,98
663,864	377,17
664,056	434,51
664,247	446,8
664,439	612,68
664,631	670,03
664,822	768,33
665,014	655,69
665,205	588,11
665,397	696,65
665,588	719,18
665,78	575,82
665,971	661,84
666,163	624,97
666,354	645,45
666,546	465,23
666,737	575,82
666,929	532,81
667,12	366,93
667,311	452,94
667,503	385,36
667,694	479,57
667,885	424,27
668,077	407,89
668,268	229,71
668,459	352,59
668,651	481,61
668,842	491,85
669,033	463,18
669,224	604,49
669,416	893,26
669,607	817,48
669,798	766,28
669,989	1018,18
670,18	837,96
670,371	790,86
670,563	747,85
670,754	837,96
670,945	688,46
671,136	702,79
671,327	538,96
671,518	684,36
671,709	710,99
671,9	602,44
672,091	622,92
672,282	495,95
672,473	491,85
672,664	434,51
672,855	440,65
673,046	534,86
673,237	461,13
673,428	442,7
673,619	565,58
673,809	440,65
674	471,37
674,191	577,87
674,382	461,13
674,573	416,08
674,764	442,7
674,954	504,14
675,145	313,68
675,336	364,88
675,527	252,24
675,717	264,53
675,908	307,54
676,099	268,63
676,289	235,86
676,48	219,47
676,671	309,58
676,861	235,86
677,052	301,39
677,243	287,06
677,433	272,72
677,624	301,39
677,814	270,67
678,005	248,15
678,195	432,46
678,386	190,8
678,576	248,15
678,767	172,37
678,957	328,02
679,148	264,53
679,338	465,23
679,529	377,17
679,719	305,49
679,909	399,7
680,1	352,59
680,29	473,42
680,481	409,94
680,671	678,22
680,861	719,18
681,052	631,12
681,242	639,31
681,432	807,24
681,622	729,42
681,813	592,2
682,003	684,36
682,193	557,39
682,383	670,03
682,573	612,68
682,764	541,01
682,954	485,71
683,144	606,54
683,334	471,37
683,524	459,09
683,714	465,23
683,904	586,06
684,094	411,98
684,284	399,7
684,474	534,86
684,664	454,99
684,854	461,13
685,044	366,93
685,234	469,33
685,424	328,02
685,614	293,2
685,804	573,77
685,994	448,85
686,184	385,36
686,374	541,01
686,564	409,94
686,753	377,17
686,943	307,54
687,133	430,41
687,323	481,61
687,513	493,9
687,702	524,62
687,892	256,34
688,082	477,52
688,272	416,08
688,461	313,68
688,651	524,62
688,841	411,98
689,03	328,02
689,22	403,79
689,41	694,6
689,599	960,84
689,789	1034,57
689,979	1456,45
690,168	1509,69
690,358	1661,24
690,547	1636,67
690,737	1571,13
690,926	1538,37
691,116	1450,3
691,305	1392,96
691,495	1321,28
691,684	1130,82
691,874	999,75
692,063	1016,13
692,252	997,7
692,442	866,63
692,631	749,9
692,82	602,44
693,01	639,31
693,199	498
693,388	530,77
693,578	399,7
693,767	545,1
693,956	483,66
694,146	354,64
694,335	405,84
694,524	340,3
694,713	428,37
694,902	274,77
695,092	334,16
695,281	401,74
695,47	328,02
695,659	409,94
695,848	409,94
696,037	285,01
696,226	522,57
696,415	352,59
696,604	561,48
696,793	457,04
696,982	416,08
697,171	551,24
697,36	221,52
697,549	375,12
697,738	244,05
697,927	317,78
698,116	334,16
698,305	397,65
698,494	407,89
698,683	375,12
698,872	584,01
699,061	366,93
699,25	346,45
699,438	381,26
699,627	285,01
699,816	536,91
700,005	285,01
700,193	436,56
700,382	457,04
700,571	428,37
700,76	442,7
700,948	463,18
701,137	387,41
701,326	442,7
701,514	360,78
701,703	430,41
701,892	407,89
702,08	598,35
702,269	360,78
702,457	287,06
702,646	334,16
702,834	319,82
703,023	371,02
703,212	377,17
703,4	342,35
703,589	336,21
703,777	262,48
703,965	272,72
704,154	295,25
704,342	278,87
704,531	334,16
704,719	344,4
704,907	395,6
705,096	239,95
705,284	233,81
705,472	403,79
705,661	383,31
705,849	401,74
706,037	403,79
706,226	366,93
706,414	309,58
706,602	153,94
706,79	420,17
706,979	250,19
707,167	291,15
707,355	203,09
707,543	334,16
707,731	334,16
707,919	231,76
708,107	299,34
708,296	254,29
708,484	182,61
708,672	348,5
708,86	295,25
709,048	319,82
709,236	219,47
709,424	319,82
709,612	307,54
709,8	125,27
709,988	336,21
710,176	381,26
710,364	407,89
710,551	256,34
710,739	244,05
710,927	211,28
711,115	282,96
711,303	289,1
711,491	330,06
711,679	215,38
711,866	325,97
712,054	237,91
712,242	315,73
712,43	307,54
712,617	182,61
712,805	278,87
712,993	194,9
713,181	135,51
713,368	356,69
713,556	244,05
713,744	227,67
713,931	454,99
714,119	344,4
714,306	254,29
714,494	237,91
714,682	203,09
714,869	213,33
715,057	299,34
715,244	178,51
715,432	287,06
715,619	207,19
715,807	221,52
715,994	205,14
716,182	190,8
716,369	235,86
716,556	323,92
716,744	158,03
716,931	145,75
717,119	297,3
717,306	289,1
717,493	219,47
717,681	325,97
717,868	139,6
718,055	282,96
718,242	244,05
718,43	237,91
718,617	254,29
718,804	155,99
718,991	315,73
719,179	227,67
719,366	358,74
719,553	246,1
719,74	244,05
719,927	205,14
720,114	194,9
720,301	203,09
720,488	227,67
720,676	164,18
720,863	358,74
721,05	514,38
721,237	416,08
721,424	584,01
721,611	885,06
721,798	1071,43
721,985	1468,73
722,172	1720,64
722,358	1888,57
722,545	2003,25
722,732	1792,31
722,919	1947,96
723,106	1720,64
723,293	1581,37
723,48	1497,41
723,667	1337,66
723,853	1444,16
724,04	1237,31
724,227	1128,77
724,414	993,61
724,6	1104,2
724,787	1024,33
724,974	948,55
725,161	710,99
725,347	614,73
725,534	602,44
725,72	653,64
725,907	616,78
726,094	549,2
726,28	454,99
726,467	557,39
726,653	377,17
726,84	581,96
727,027	629,07
727,213	522,57
727,4	612,68
727,586	579,92
727,773	758,09
727,959	926,02
728,145	1149,25
728,332	1345,86
728,518	1485,12
728,705	1538,37
728,891	1589,57
729,077	1612,09
729,264	1347,9
729,45	1319,23
729,636	1362,24
729,823	1190,21
730,009	1194,31
730,195	1218,88
730,382	1165,64
730,568	858,44
730,754	956,74
730,94	827,72
731,126	850,25
731,313	786,76
731,499	661,84
731,685	749,9
731,871	784,71
732,057	694,6
732,243	639,31
732,429	581,96
732,615	696,65
732,801	614,73
732,987	522,57
733,173	573,77
733,359	538,96
733,545	493,9
733,731	520,53
733,917	645,45
734,103	565,58
734,289	498
734,475	477,52
734,661	715,08
734,847	555,34
735,033	541,01
735,219	565,58
735,404	510,29
735,59	547,15
735,776	616,78
735,962	571,72
736,148	719,18
736,333	682,31
736,519	622,92
736,705	563,53
736,89	661,84
737,076	647,5
737,262	518,48
737,447	500,05
737,633	637,26
737,819	725,32
738,004	553,29
738,19	637,26
738,375	586,06
738,561	643,4
738,747	614,73
738,932	534,86
739,118	713,03
739,303	686,41
739,489	612,68
739,674	483,66
739,859	461,13
740,045	614,73
740,23	657,74
740,416	498
740,601	565,58
740,786	557,39
740,972	502,09
741,157	549,2
741,342	541,01
741,528	536,91
741,713	940,36
741,898	868,68
742,084	1009,99
742,269	1083,72
742,454	1126,72
742,639	1229,12
742,824	1202,5
743,01	1311,04
743,195	1270,08
743,38	1096
743,565	1014,09
743,75	1048,9
743,935	1089,86
744,12	1120,58
744,305	948,55
744,49	907,59
744,675	899,4
744,86	860,49
745,045	856,39
745,23	897,35
745,415	762,19
745,6	876,87
745,785	629,07
745,97	805,19
746,155	719,18
746,34	817,48
746,525	631,12
746,71	870,73
746,895	641,36
747,079	694,6
747,264	692,55
747,449	893,26
747,634	901,45
747,819	1202,5
748,003	1427,78
748,188	1489,21
748,373	1993,01
748,557	2173,24
748,742	2455,86
748,927	2443,57
749,111	2451,76
749,296	2365,75
749,481	2359,6
749,665	2365,75
749,85	2126,13
750,034	2091,32
750,219	1915,19
750,404	1874,23
750,588	1737,02
750,773	1624,38
750,957	1528,13
751,141	1579,33
751,326	1458,5
751,51	1239,36
751,695	1079,62
751,879	1063,24
752,064	1243,46
752,248	1003,85
752,432	1073,48
752,617	1055,05
752,801	985,41
752,985	872,78
753,17	1026,37
753,354	1014,09
753,538	1048,9
753,722	835,91
753,907	952,65
754,091	923,98
754,275	1091,91
754,459	1085,76
754,643	1153,35
754,828	1241,41
755,012	1343,81
755,196	1294,66
755,38	1395,01
755,564	1489,21
755,748	1562,94
755,932	1743,16
756,116	1876,28
756,3	1980,73
756,484	2156,85
756,668	2328,88
756,852	2361,65
757,036	2572,59
757,22	3225,89
757,404	5357,83
757,588	13514,89
757,772	36683,56
757,956	63645,07
758,14	63645,07
758,323	63645,07
758,507	63645,07
758,691	63645,07
758,875	63645,07
759,059	63645,07
759,242	63645,07
759,426	63645,07
759,61	63645,07
759,794	63645,07
759,977	63645,07
760,161	63645,07
760,345	63645,07
760,528	63645,07
760,712	63645,07
760,895	63645,07
761,079	63645,07
761,263	63645,07
761,446	63645,07
761,63	63645,07
761,813	63645,07
761,997	63645,07
762,18	63645,07
762,364	63645,07
762,547	63645,07
762,731	63645,07
762,914	63645,07
763,098	63645,07
763,281	63645,07
763,464	63645,07
763,648	63645,07
763,831	63645,07
764,015	63645,07
764,198	63645,07
764,381	63645,07
764,564	63645,07
764,748	63645,07
764,931	63645,07
765,114	63645,07
765,297	63645,07
765,481	63645,07
765,664	63645,07
765,847	63645,07
766,03	63645,07
766,213	63645,07
766,397	63645,07
766,58	63645,07
766,763	63645,07
766,946	63645,07
767,129	63645,07
767,312	63645,07
767,495	63645,07
767,678	63645,07
767,861	63645,07
768,044	63645,07
768,227	63645,07
768,41	63645,07
768,593	63645,07
768,776	63645,07
768,959	63645,07
769,142	63645,07
769,324	63645,07
769,507	63645,07
769,69	63645,07
769,873	63645,07
770,056	63645,07
770,239	63645,07
770,421	63645,07
770,604	63645,07
770,787	63645,07
770,97	63645,07
771,152	63645,07
771,335	63645,07
771,518	63645,07
771,7	63645,07
771,883	63645,07
772,066	63645,07
772,248	63645,07
772,431	63645,07
772,613	63645,07
772,796	63645,07
772,978	63645,07
773,161	63645,07
773,343	63645,07
773,526	63645,07
773,708	63645,07
773,891	63645,07
774,073	63645,07
774,256	63645,07
774,438	63645,07
774,621	63645,07
774,803	63645,07
774,985	63645,07
775,168	63645,07
775,35	63645,07
775,532	63645,07
775,715	63645,07
775,897	63645,07
776,079	63645,07
776,261	63645,07
776,444	63645,07
776,626	63645,07
776,808	63645,07
776,99	63645,07
777,173	63645,07
777,355	63645,07
777,537	63645,07
777,719	63645,07
777,901	63645,07
778,083	63645,07
778,265	63645,07
778,447	63645,07
778,629	63645,07
778,811	63645,07
778,993	63645,07
779,175	63645,07
779,357	63645,07
779,539	63645,07
779,721	63645,07
779,903	63645,07
780,085	63645,07
780,267	63645,07
780,449	63645,07
780,631	63645,07
780,812	63645,07
780,994	63645,07
781,176	63645,07
781,358	63645,07
781,54	63645,07
781,721	63645,07
781,903	63645,07
782,085	63645,07
782,267	63645,07
782,448	63645,07
782,63	63645,07
782,812	63645,07
782,993	63645,07
783,175	63645,07
783,357	63645,07
783,538	63645,07
783,72	63645,07
783,901	63645,07
784,083	63645,07
784,264	63645,07
784,446	63645,07
784,627	63645,07
784,809	63645,07
784,99	63645,07
785,172	63645,07
785,353	63645,07
785,535	63645,07
785,716	63645,07
785,897	63645,07
786,079	63645,07
786,26	63645,07
786,441	63645,07
786,623	63645,07
786,804	63645,07
786,985	63645,07
787,167	63645,07
787,348	63645,07
787,529	63645,07
787,71	63645,07
787,891	63645,07
788,073	63645,07
788,254	63645,07
788,435	63645,07
788,616	41719,51
788,797	38430,47
788,978	4835,6
789,159	3588,38
789,34	2912,55
789,522	2332,98
789,703	2021,69
789,884	1894,71
790,065	1843,51
790,246	2023,73
790,427	2230,58
790,607	2758,96
790,788	3375,39
790,969	3586,33
791,15	4088,09
791,331	4552,98
791,512	4559,12
791,693	4432,15
791,874	4434,19
792,054	4825,36
792,235	4890,89
792,416	4972,81
792,597	4913,42
792,778	5052,68
792,958	4741,39
793,139	4714,77
793,32	4143,38
793,5	3660,06
793,681	3703,07
793,862	3168,55
794,042	3029,29
794,223	2558,25
794,404	2283,83
794,584	1945,91
794,765	1886,52
794,945	1771,83
795,126	1556,8
795,306	1485,12
795,487	1384,77
795,667	1212,74
795,848	1126,72
796,028	1155,4
796,209	1022,28
796,389	975,17
796,57	944,45
796,75	969,03
796,93	946,5
797,111	833,86
797,291	977,22
797,471	1128,77
797,652	1141,06
797,832	1194,31
798,012	1308,99
798,192	1231,17
798,373	1294,66
798,553	1321,28
798,733	1415,49
798,913	1308,99
799,093	1196,36
799,274	1290,56
799,454	1206,59
799,634	1163,59
799,814	1104,2
799,994	1145,16
800,174	1237,31
800,354	1083,72
800,534	983,37
800,714	1100,1
800,894	876,87
801,074	971,08
801,254	1038,66
801,434	1227,07
801,614	981,32
801,794	1030,47
801,974	2789,67
802,154	1016,13
802,334	1151,3
802,514	1071,43
802,693	1165,64
802,873	1030,47
803,053	1331,52
803,233	1210,69
803,413	1173,83
803,592	1116,48
803,772	1204,55
803,952	1329,47
804,131	1096
804,311	1397,06
804,491	1806,65
804,67	2500,91
804,85	5284,1
805,03	11675,81
805,209	22351,87
805,389	36065,07
805,568	47099,53
805,748	55565,83
805,928	61253,04
806,107	63315,34
806,287	61830,57
806,466	58158,56
806,646	49460,83
806,825	43579,07
807,004	36974,37
807,184	31850,35
807,363	27152,31
807,543	23230,45
807,722	20127,78
807,901	18151,49
808,081	16545,88
808,26	15235,18
808,439	13944,96
808,619	13033,61
808,798	11978,91
808,977	11083,95
809,156	12658,84
809,336	20731,93
809,515	39505,66
809,694	63645,07
809,873	63645,07
810,052	63645,07
810,231	63645,07
810,411	63645,07
810,59	63645,07
810,769	63645,07
810,948	63645,07
811,127	63645,07
811,306	63645,07
811,485	63645,07
811,664	63645,07
811,843	63645,07
812,022	63645,07
812,201	63645,07
812,38	63645,07
812,559	63645,07
812,737	63645,07
812,916	63645,07
813,095	63645,07
813,274	63645,07
813,453	63645,07
813,632	63645,07
813,811	63645,07
813,989	63645,07
814,168	63645,07
814,347	63645,07
814,526	63645,07
814,704	63645,07
814,883	63645,07
815,062	63645,07
815,24	63645,07
815,419	63645,07
815,598	63645,07
815,776	63645,07
815,955	63645,07
816,133	63645,07
816,312	63645,07
816,49	63645,07
816,669	63645,07
816,847	63645,07
817,026	63645,07
817,204	63645,07
817,383	63645,07
817,561	63645,07
817,74	63645,07
817,918	63645,07
818,097	63645,07
818,275	63645,07
818,453	63645,07
818,632	63645,07
818,81	63645,07
818,988	63645,07
819,167	63645,07
819,345	63645,07
819,523	63645,07
819,701	63645,07
819,879	63645,07
820,058	63645,07
820,236	63645,07
820,414	63645,07
820,592	63645,07
820,77	63645,07
820,948	63645,07
821,127	63645,07
821,305	63645,07
821,483	63645,07
821,661	63645,07
821,839	63645,07
822,017	63645,07
822,195	63645,07
822,373	63645,07
822,551	63645,07
822,729	63645,07
822,907	63645,07
823,085	63645,07
823,262	63645,07
823,44	63645,07
823,618	63645,07
823,796	63645,07
823,974	63645,07
824,152	63645,07
824,329	63645,07
824,507	63645,07
824,685	63645,07
824,863	63645,07
825,04	63645,07
825,218	63645,07
825,396	63645,07
825,574	63645,07
825,751	63645,07
825,929	63645,07
826,107	63645,07
826,284	63645,07
826,462	63645,07
826,639	63645,07
826,817	63645,07
826,994	63645,07
827,172	63645,07
827,349	63645,07
827,527	63645,07
827,704	63645,07
827,882	63645,07
828,059	63645,07
828,237	63645,07
828,414	63645,07
828,591	63645,07
828,769	63645,07
828,946	63645,07
829,124	63645,07
829,301	63645,07
829,478	63645,07
829,655	63645,07
829,833	63645,07
830,01	63645,07
830,187	63645,07
830,364	63645,07
830,542	63645,07
830,719	63645,07
830,896	63645,07
831,073	63645,07
831,25	63645,07
831,427	63645,07
831,604	63645,07
831,782	63645,07
831,959	63645,07
832,136	63645,07
832,313	63645,07
832,49	63645,07
832,667	63645,07
832,844	63645,07
833,021	63645,07
833,198	63645,07
833,374	63645,07
833,551	63645,07
833,728	63645,07
833,905	63645,07
834,082	63645,07
834,259	63645,07
834,436	63645,07
834,612	63645,07
834,789	63645,07
834,966	63645,07
835,143	63645,07
835,319	63645,07
835,496	63645,07
835,673	63645,07
835,85	63645,07
836,026	63645,07
836,203	63645,07
836,38	63645,07
836,556	63645,07
836,733	63645,07
836,909	63645,07
837,086	63645,07
837,262	63645,07
837,439	63645,07
837,616	63645,07
837,792	63645,07
837,968	63645,07
838,145	63645,07
838,321	63645,07
838,498	63645,07
838,674	63645,07
838,851	63645,07
839,027	63645,07
839,203	63645,07
839,38	63645,07
839,556	63645,07
839,732	63645,07
839,909	63645,07
840,085	63645,07
840,261	63645,07
840,437	63645,07
840,614	63645,07
840,79	63645,07
840,966	63645,07
841,142	63645,07
841,318	63645,07
841,494	63645,07
841,671	63645,07
841,847	63645,07
842,023	63645,07
842,199	63645,07
842,375	63645,07
842,551	63645,07
842,727	63645,07
842,903	63645,07
843,079	63645,07
843,255	63645,07
843,431	63645,07
843,607	63645,07
843,783	63645,07
843,959	17694,79
844,134	16074,85
844,31	641,36
844,486	528,72
844,662	471,37
844,838	491,85
845,013	522,57
845,189	495,95
845,365	414,03
845,541	450,89
845,716	321,87
845,892	409,94
846,068	366,93
846,244	336,21
846,419	368,98
846,595	287,06
846,77	285,01
846,946	346,45
847,122	340,3
847,297	373,07
847,473	424,27
847,648	205,14
847,824	362,83
847,999	213,33
848,175	307,54
848,35	377,17
848,526	444,75
848,701	467,28
848,876	430,41
849,052	604,49
849,227	395,6
849,403	627,02
849,578	1356,1
849,753	3457,31
849,929	7031,02
850,104	12239
850,279	18622,52
850,454	25022,42
850,63	28979,1
850,805	31666,03
850,98	32010,09
851,155	30691,2
851,33	26863,55
851,505	23257,07
851,681	20127,78
851,856	17672,26
852,031	16066,66
852,206	14970,99
852,381	13518,98
852,556	12650,64
852,731	11872,42
852,906	10930,35
853,081	10098,88
853,256	9273,54
853,431	8863,95
853,606	8003,8
853,781	7506,15
853,956	6963,44
854,131	6303,99
854,305	5437,7
854,48	4530,45
854,655	3535,14
854,83	2849,07
855,005	2058,55
855,18	1538,37
855,354	1153,35
855,529	989,51
855,704	706,89
855,879	721,23
856,053	461,13
856,228	506,19
856,403	375,12
856,577	459,09
856,752	301,39
856,926	411,98
857,101	368,98
857,276	293,2
857,45	340,3
857,625	448,85
857,799	334,16
857,974	317,78
858,148	209,23
858,323	401,74
858,497	342,35
858,672	215,38
858,846	237,91
859,02	342,35
859,195	229,71
859,369	217,43
859,543	276,82
859,718	323,92
859,892	258,39
860,066	340,3
860,241	268,63
860,415	297,3
860,589	313,68
860,763	270,67
860,938	237,91
861,112	342,35
861,286	280,91
861,46	285,01
861,634	250,19
861,808	293,2
861,982	289,1
862,157	80,21
862,331	211,28
862,505	209,23
862,679	219,47
862,853	235,86
863,027	262,48
863,201	465,23
863,375	207,19
863,549	362,83
863,722	260,43
863,896	358,74
864,07	180,56
864,244	166,23
864,418	401,74
864,592	319,82
864,766	375,12
864,939	319,82
865,113	223,57
865,287	414,03
865,461	303,44
865,634	276,82
865,808	319,82
865,982	203,09
866,156	215,38
866,329	160,08
866,503	237,91
866,676	399,7
866,85	328,02
867,024	221,52
867,197	397,65
867,371	344,4
867,544	280,91
867,718	231,76
867,891	342,35
868,065	217,43
868,238	303,44
868,412	323,92
868,585	321,87
868,759	192,85
868,932	264,53
869,105	186,71
869,279	317,78
869,452	235,86
869,625	319,82
869,799	317,78
869,972	237,91
870,145	362,83
870,319	375,12
870,492	246,1
870,665	348,5
870,838	211,28
871,011	139,6
871,185	299,34
871,358	268,63
871,531	420,17
871,704	293,2
871,877	301,39
872,05	352,59
872,223	350,54
872,396	414,03
872,569	461,13
872,742	242
872,915	475,47
873,088	336,21
873,261	276,82
873,434	440,65
873,607	395,6
873,78	452,94
873,953	293,2
874,126	383,31
874,299	475,47
874,471	444,75
874,644	366,93
874,817	565,58
874,99	614,73
875,163	518,48
875,335	530,77
875,508	635,21
875,681	817,48
875,853	778,57
876,026	1194,31
876,199	2179,38
876,371	4143,38
876,544	8714,45
876,717	16261,21
876,889	27348,92
877,062	41348,83
877,234	54373,91
877,407	63483,28
877,579	63645,07
877,752	63645,07
877,924	63645,07
878,097	63645,07
878,269	63645,07
878,442	63645,07
878,614	63645,07
878,786	63645,07
878,959	63645,07
879,131	63645,07
879,303	63645,07
879,476	63645,07
879,648	56688,12
879,82	44115,64
879,993	41090,79
880,165	37902,1
880,337	35491,64
880,509	33095,52
880,681	31481,72
880,854	29573,01
881,026	28133,29
881,198	25255,89
881,37	22435,84
881,542	19122,23
881,714	15370,35
881,886	11942,05
882,058	9078,99
882,23	6635,76
882,402	4675,85
882,574	3522,85
882,746	2607,41
882,918	1990,97
883,09	1552,7
883,262	1167,68
883,434	956,74
883,606	674,12
883,778	774,47
883,95	774,47
884,122	596,3
884,293	649,55
884,465	563,53
884,637	614,73
884,809	440,65
884,98	475,47
885,152	463,18
885,324	454,99
885,496	371,02
885,667	405,84
885,839	426,32
886,011	469,33
886,182	371,02
886,354	454,99
886,525	309,58
886,697	364,88
886,869	297,3
887,04	348,5
887,212	360,78
887,383	444,75
887,555	330,06
887,726	280,91
887,897	254,29
888,069	315,73
888,24	403,79
888,412	319,82
888,583	291,15
888,754	295,25
888,926	276,82
889,097	278,87
889,268	242
889,44	309,58
889,611	211,28
889,782	262,48
889,953	272,72
890,125	448,85
890,296	282,96
890,467	330,06
890,638	325,97
890,809	461,13
890,98	407,89
891,151	508,24
891,323	819,53
891,494	1198,4
891,665	2087,22
891,836	3885,34
892,007	6852,84
892,178	11202,73
892,349	17064,02
892,52	23240,69
892,691	30291,85
892,862	35807,03
893,032	41752,28
893,203	44861,1
893,374	46976,65
893,545	47783,55
893,716	46755,47
893,887	44854,95
894,057	42684,11
894,228	40445,68
894,399	38493,96
894,57	35741,49
894,74	33902,42
894,911	31584,12
895,082	29972,36
895,253	27787,18
895,423	26566,59
895,594	24532,96
895,764	23367,66
895,935	21305,36
896,106	20856,86
896,276	18995,25
896,447	18001,99
896,617	16291,93
896,788	14614,65
896,958	12339,35
897,129	10094,78
897,299	7854,3
897,47	6295,8
897,64	4665,61
897,81	3348,77
897,981	2494,77
898,151	1665,34
898,322	1407,3
898,492	1085,76
898,662	868,68
898,832	729,42
899,003	643,4
899,173	680,27
899,343	563,53
899,513	469,33
