Data from krypton_USB4F104151__8__11-01-34-709.txt Node

Date: Wed Apr 15 11:01:34 EDT 2026
User: LaboPhy
Spectrometer: USB4F10415
Trigger mode: 4
Integration Time (sec): 1,000000E-1
Scans to average: 1
Electric dark correction enabled: true
Nonlinearity correction enabled: false
Boxcar width: 0
XAxis mode: Wavelengths
Number of Pixels in Spectrum: 3648
>>>>>Begin Spectral Data<<<<<
178,204	-459,26
178,424	-459,26
178,644	-459,26
178,864	-397,82
179,084	-406,01
179,304	9,73
179,524	40,45
179,744	-43,52
179,964	3,58
180,184	22,02
180,404	56,83
180,624	-43,52
180,844	-31,23
181,064	-31,23
181,283	85,5
181,503	-61,95
181,723	-6,66
181,943	11,78
182,163	267,77
182,383	-53,76
182,602	48,64
182,822	245,24
183,042	204,28
183,262	32,26
183,482	-25,09
183,701	60,93
183,921	89,6
184,141	73,21
184,361	95,74
184,58	218,62
184,8	75,26
185,02	40,45
185,239	124,41
185,459	122,37
185,679	163,33
185,898	24,06
186,118	87,55
186,338	54,78
186,557	181,76
186,777	-39,42
186,997	26,11
187,216	77,31
187,436	202,24
187,655	128,51
187,875	122,37
188,095	99,84
188,314	161,28
188,534	146,94
188,753	26,11
188,973	230,91
189,192	261,63
189,412	58,88
189,631	91,65
189,851	144,89
190,07	204,28
190,29	-20,99
190,509	17,92
190,729	19,97
190,948	228,86
191,168	247,29
191,387	73,21
191,607	30,21
191,826	87,55
192,045	56,83
192,265	28,16
192,484	105,98
192,704	157,18
192,923	-14,85
193,142	169,47
193,362	194,05
193,581	171,52
193,8	44,54
194,02	118,27
194,239	116,22
194,458	91,65
194,678	28,16
194,897	15,87
195,116	99,84
195,335	138,75
195,555	71,17
195,774	26,11
195,993	122,37
196,212	110,08
196,432	11,78
196,651	-16,9
196,87	146,94
197,089	325,12
197,308	130,56
197,528	83,45
197,747	58,88
197,966	114,17
198,185	189,95
198,404	17,92
198,623	212,48
198,842	171,52
199,062	146,94
199,281	126,46
199,5	128,51
199,719	136,7
199,938	130,56
200,157	34,3
200,376	146,94
200,595	208,38
200,814	56,83
201,033	40,45
201,252	226,81
201,471	167,42
201,69	81,41
201,909	165,37
202,128	128,51
202,347	202,24
202,566	83,45
202,785	-8,7
203,004	13,82
203,223	312,83
203,442	17,92
203,661	-23,04
203,879	36,35
204,098	165,37
204,317	13,82
204,536	169,47
204,755	167,42
204,974	155,13
205,193	-10,75
205,411	120,32
205,63	77,31
205,849	177,66
206,068	73,21
206,287	60,93
206,505	294,4
206,724	28,16
206,943	48,64
207,162	44,54
207,381	138,75
207,599	50,69
207,818	73,21
208,037	83,45
208,255	48,64
208,474	138,75
208,693	97,79
208,911	46,59
209,13	134,65
209,349	97,79
209,567	171,52
209,786	138,75
210,005	206,33
210,223	83,45
210,442	-0,51
210,661	38,4
210,879	89,6
211,098	73,21
211,316	132,61
211,535	122,37
211,753	93,69
211,972	103,93
212,191	13,82
212,409	95,74
212,628	161,28
212,846	30,21
213,065	146,94
213,283	151,04
213,502	89,6
213,72	87,55
213,938	114,17
214,157	-23,04
214,375	220,67
214,594	71,17
214,812	151,04
215,031	40,45
215,249	71,17
215,467	124,41
215,686	44,54
215,904	77,31
216,122	103,93
216,341	271,87
216,559	171,52
216,778	146,94
216,996	187,9
217,214	69,12
217,432	65,02
217,651	9,73
217,869	159,23
218,087	132,61
218,306	30,21
218,524	108,03
218,742	13,82
218,96	173,57
219,179	148,99
219,397	32,26
219,615	237,05
219,833	89,6
220,051	91,65
220,27	128,51
220,488	101,89
220,706	110,08
220,924	7,68
221,142	46,59
221,36	126,46
221,578	136,7
221,796	50,69
222,015	40,45
222,233	75,26
222,451	198,14
222,669	1,54
222,887	95,74
223,105	38,4
223,323	73,21
223,541	15,87
223,759	108,03
223,977	177,66
224,195	142,85
224,413	122,37
224,631	89,6
224,849	142,85
225,067	323,07
225,285	50,69
225,503	7,68
225,721	-16,9
225,939	46,59
226,157	95,74
226,375	243,2
226,592	-0,51
226,81	56,83
227,028	161,28
227,246	95,74
227,464	89,6
227,682	167,42
227,9	108,03
228,117	99,84
228,335	93,69
228,553	40,45
228,771	38,4
228,989	58,88
229,206	151,04
229,424	93,69
229,642	101,89
229,86	-18,94
230,077	206,33
230,295	52,74
230,513	118,27
230,731	99,84
230,948	249,34
231,166	212,48
231,384	22,02
231,601	-12,8
231,819	278,01
232,037	-49,66
232,254	-35,33
232,472	97,79
232,689	42,5
232,907	204,28
233,125	11,78
233,342	-31,23
233,56	9,73
233,777	103,93
233,995	134,65
234,213	163,33
234,43	151,04
234,648	83,45
234,865	-4,61
235,083	124,41
235,3	89,6
235,518	196,09
235,735	155,13
235,953	134,65
236,17	108,03
236,388	60,93
236,605	52,74
236,822	198,14
237,04	138,75
237,257	118,27
237,475	7,68
237,692	71,17
237,909	122,37
238,127	108,03
238,344	128,51
238,562	103,93
238,779	-41,47
238,996	9,73
239,214	89,6
239,431	99,84
239,648	50,69
239,865	89,6
240,083	167,42
240,3	-0,51
240,517	44,54
240,735	71,17
240,952	163,33
241,169	175,61
241,386	155,13
241,603	11,78
241,821	-53,76
242,038	112,13
242,255	241,15
242,472	38,4
242,689	99,84
242,907	60,93
243,124	134,65
243,341	93,69
243,558	52,74
243,775	110,08
243,992	-27,14
244,209	173,57
244,426	192
244,643	105,98
244,86	132,61
245,078	122,37
245,295	187,9
245,512	87,55
245,729	110,08
245,946	91,65
246,163	34,3
246,38	38,4
246,597	136,7
246,814	65,02
247,031	142,85
247,248	48,64
247,464	97,79
247,681	99,84
247,898	153,09
248,115	151,04
248,332	1,54
248,549	224,76
248,766	212,48
248,983	128,51
249,2	187,9
249,417	148,99
249,633	89,6
249,85	105,98
250,067	91,65
250,284	73,21
250,501	99,84
250,717	60,93
250,934	71,17
251,151	126,46
251,368	40,45
251,585	79,36
251,801	151,04
252,018	36,35
252,235	208,38
252,451	-66,05
252,668	5,63
252,885	249,34
253,102	163,33
253,318	32,26
253,535	99,84
253,752	-4,61
253,968	32,26
254,185	11,78
254,401	146,94
254,618	159,23
254,835	-8,7
255,051	134,65
255,268	208,38
255,484	89,6
255,701	36,35
255,917	75,26
256,134	15,87
256,351	81,41
256,567	13,82
256,784	50,69
257	3,58
257,217	167,42
257,433	146,94
257,65	169,47
257,866	255,48
258,082	36,35
258,299	9,73
258,515	97,79
258,732	30,21
258,948	32,26
259,165	153,09
259,381	32,26
259,597	130,56
259,814	67,07
260,03	15,87
260,246	50,69
260,463	204,28
260,679	163,33
260,895	101,89
261,112	114,17
261,328	-4,61
261,544	40,45
261,761	210,43
261,977	56,83
262,193	-43,52
262,409	130,56
262,626	122,37
262,842	126,46
263,058	50,69
263,274	77,31
263,49	69,12
263,707	161,28
263,923	136,7
264,139	-29,18
264,355	65,02
264,571	181,76
264,787	91,65
265,004	138,75
265,22	60,93
265,436	56,83
265,652	26,11
265,868	118,27
266,084	7,68
266,3	95,74
266,516	9,73
266,732	126,46
266,948	44,54
267,164	54,78
267,38	148,99
267,596	175,61
267,812	132,61
268,028	52,74
268,244	19,97
268,46	124,41
268,676	101,89
268,892	103,93
269,108	-20,99
269,324	48,64
269,54	38,4
269,756	126,46
269,972	17,92
270,188	91,65
270,403	40,45
270,619	-35,33
270,835	138,75
271,051	148,99
271,267	-35,33
271,483	97,79
271,698	134,65
271,914	179,71
272,13	130,56
272,346	60,93
272,562	32,26
272,777	169,47
272,993	26,11
273,209	32,26
273,425	124,41
273,64	-49,66
273,856	122,37
274,072	-14,85
274,287	-23,04
274,503	142,85
274,719	144,89
274,934	46,59
275,15	-10,75
275,366	24,06
275,581	15,87
275,797	40,45
276,012	52,74
276,228	56,83
276,444	19,97
276,659	185,85
276,875	36,35
277,09	112,13
277,306	71,17
277,521	122,37
277,737	34,3
277,952	165,37
278,168	108,03
278,383	69,12
278,599	69,12
278,814	163,33
279,03	48,64
279,245	142,85
279,461	101,89
279,676	214,52
279,892	56,83
280,107	7,68
280,322	114,17
280,538	175,61
280,753	-8,7
280,969	142,85
281,184	155,13
281,399	218,62
281,615	114,17
281,83	183,81
282,045	60,93
282,26	30,21
282,476	101,89
282,691	171,52
282,906	210,43
283,122	65,02
283,337	36,35
283,552	146,94
283,767	101,89
283,983	136,7
284,198	77,31
284,413	93,69
284,628	-16,9
284,843	105,98
285,058	73,21
285,274	112,13
285,489	52,74
285,704	142,85
285,919	-39,42
286,134	28,16
286,349	146,94
286,564	110,08
286,779	198,14
286,995	112,13
287,21	34,3
287,425	210,43
287,64	9,73
287,855	99,84
288,07	-45,57
288,285	148,99
288,5	130,56
288,715	173,57
288,93	17,92
289,145	60,93
289,36	161,28
289,575	108,03
289,79	126,46
290,004	62,98
290,219	222,72
290,434	-10,75
290,649	97,79
290,864	101,89
291,079	38,4
291,294	105,98
291,509	140,8
291,724	9,73
291,938	46,59
292,153	105,98
292,368	65,02
292,583	83,45
292,798	224,76
293,012	146,94
293,227	151,04
293,442	75,26
293,657	179,71
293,871	185,85
294,086	122,37
294,301	249,34
294,516	163,33
294,73	91,65
294,945	34,3
295,16	71,17
295,374	183,81
295,589	159,23
295,804	28,16
296,018	99,84
296,233	130,56
296,447	114,17
296,662	-0,51
296,877	155,13
297,091	230,91
297,306	89,6
297,52	42,5
297,735	148,99
297,949	136,7
298,164	105,98
298,378	112,13
298,593	24,06
298,807	30,21
299,022	22,02
299,236	251,39
299,451	81,41
299,665	34,3
299,88	114,17
300,094	97,79
300,309	122,37
300,523	77,31
300,737	85,5
300,952	187,9
301,166	60,93
301,381	-12,8
301,595	60,93
301,809	91,65
302,024	110,08
302,238	48,64
302,452	196,09
302,667	85,5
302,881	146,94
303,095	159,23
303,309	91,65
303,524	22,02
303,738	124,41
303,952	38,4
304,166	175,61
304,381	-82,43
304,595	214,52
304,809	58,88
305,023	83,45
305,237	142,85
305,452	124,41
305,666	81,41
305,88	181,76
306,094	171,52
306,308	167,42
306,522	179,71
306,736	206,33
306,95	241,15
307,164	75,26
307,379	146,94
307,593	273,92
307,807	290,3
308,021	187,9
308,235	124,41
308,449	42,5
308,663	105,98
308,877	425,47
309,091	239,1
309,305	230,91
309,519	40,45
309,733	275,96
309,947	60,93
310,161	230,91
310,374	253,44
310,588	304,64
310,802	56,83
311,016	83,45
311,23	198,14
311,444	124,41
311,658	179,71
311,872	243,2
312,085	228,86
312,299	302,59
312,513	257,53
312,727	206,33
312,941	146,94
313,154	202,24
313,368	138,75
313,582	183,81
313,796	214,52
314,009	146,94
314,223	253,44
314,437	103,93
314,651	269,82
314,864	56,83
315,078	128,51
315,292	89,6
315,505	187,9
315,719	146,94
315,933	173,57
316,146	75,26
316,36	65,02
316,573	312,83
316,787	245,24
317,001	187,9
317,214	50,69
317,428	228,86
317,641	128,51
317,855	69,12
318,068	224,76
318,282	114,17
318,495	329,21
318,709	189,95
318,922	101,89
319,136	269,82
319,349	218,62
319,563	132,61
319,776	253,44
319,99	15,87
320,203	259,58
320,417	130,56
320,63	310,78
320,843	265,72
321,057	175,61
321,27	89,6
321,483	140,8
321,697	243,2
321,91	218,62
322,124	196,09
322,337	183,81
322,55	89,6
322,763	130,56
322,977	179,71
323,19	130,56
323,403	97,79
323,617	155,13
323,83	179,71
324,043	173,57
324,256	146,94
324,469	28,16
324,683	269,82
324,896	161,28
325,109	101,89
325,322	-35,33
325,535	298,49
325,748	280,06
325,962	173,57
326,175	114,17
326,388	165,37
326,601	230,91
326,814	146,94
327,027	155,13
327,24	194,05
327,453	-20,99
327,666	120,32
327,879	298,49
328,092	204,28
328,305	275,96
328,518	136,7
328,731	165,37
328,944	187,9
329,157	263,68
329,37	132,61
329,583	294,4
329,796	282,11
330,009	224,76
330,222	210,43
330,435	259,58
330,648	179,71
330,861	157,18
331,073	89,6
331,286	187,9
331,499	167,42
331,712	108,03
331,925	208,38
332,138	140,8
332,35	198,14
332,563	75,26
332,776	249,34
332,989	142,85
333,202	224,76
333,414	249,34
333,627	253,44
333,84	265,72
334,053	302,59
334,265	239,1
334,478	321,02
334,691	370,17
334,903	425,47
335,116	386,55
335,329	468,47
335,541	548,34
335,754	593,4
335,966	392,7
336,179	542,2
336,392	523,77
336,604	468,47
336,817	574,97
337,029	534,01
337,242	454,14
337,454	409,08
337,667	447,99
337,88	466,42
338,092	343,55
338,305	327,16
338,517	263,68
338,729	404,99
338,942	390,65
339,154	169,47
339,367	157,18
339,579	302,59
339,792	269,82
340,004	302,59
340,217	239,1
340,429	269,82
340,641	177,66
340,854	192
341,066	153,09
341,278	372,22
341,491	312,83
341,703	235
341,915	177,66
342,128	351,74
342,34	298,49
342,552	48,64
342,764	192
342,977	179,71
343,189	222,72
343,401	214,52
343,613	44,54
343,826	218,62
344,038	58,88
344,25	183,81
344,462	175,61
344,674	280,06
344,886	165,37
345,099	208,38
345,311	286,2
345,523	175,61
345,735	85,5
345,947	257,53
346,159	206,33
346,371	179,71
346,583	165,37
346,795	359,93
347,007	171,52
347,219	249,34
347,431	157,18
347,643	404,99
347,855	163,33
348,067	327,16
348,279	185,85
348,491	247,29
348,703	243,2
348,915	202,24
349,127	136,7
349,339	230,91
349,551	144,89
349,763	321,02
349,975	218,62
350,187	288,25
350,399	329,21
350,61	296,44
350,822	230,91
351,034	282,11
351,246	286,2
351,458	302,59
351,669	257,53
351,881	318,97
352,093	366,07
352,305	364,03
352,517	265,72
352,728	368,12
352,94	298,49
353,152	341,5
353,363	212,48
353,575	278,01
353,787	355,83
353,999	278,01
354,21	390,65
354,422	202,24
354,633	288,25
354,845	214,52
355,057	224,76
355,268	327,16
355,48	491
355,692	286,2
355,903	321,02
356,115	333,31
356,326	226,81
356,538	515,58
356,749	394,75
356,961	548,34
357,172	441,85
357,384	335,35
357,595	617,97
357,807	421,37
358,018	452,09
358,23	523,77
358,441	572,92
358,653	474,62
358,864	380,41
359,075	333,31
359,287	433,66
359,498	441,85
359,709	278,01
359,921	341,5
360,132	366,07
360,344	269,82
360,555	230,91
360,766	300,54
360,977	333,31
361,189	318,97
361,4	269,82
361,611	355,83
361,823	341,5
362,034	347,64
362,245	214,52
362,456	325,12
362,667	333,31
362,879	187,9
363,09	310,78
363,301	261,63
363,512	257,53
363,723	187,9
363,935	148,99
364,146	347,64
364,357	214,52
364,568	292,35
364,779	249,34
364,99	425,47
365,201	278,01
365,412	474,62
365,623	312,83
365,834	495,1
366,045	546,3
366,256	515,58
366,467	681,46
366,678	634,36
366,889	564,73
367,1	552,44
367,311	679,41
367,522	534,01
367,733	650,74
367,944	603,64
368,155	589,3
368,366	546,3
368,577	644,6
368,788	646,65
368,999	400,89
369,209	388,6
369,42	517,62
369,631	574,97
369,842	374,27
370,053	290,3
370,264	396,79
370,474	261,63
370,685	357,88
370,896	298,49
371,107	359,93
371,317	335,35
371,528	261,63
371,739	396,79
371,95	341,5
372,16	265,72
372,371	144,89
372,582	216,57
372,792	288,25
373,003	323,07
373,214	216,57
373,424	329,21
373,635	286,2
373,846	380,41
374,056	294,4
374,267	318,97
374,477	275,96
374,688	232,96
374,898	378,36
375,109	329,21
375,319	327,16
375,53	388,6
375,74	400,89
375,951	331,26
376,161	333,31
376,372	456,19
376,582	368,12
376,793	411,13
377,003	296,44
377,214	374,27
377,424	572,92
377,635	427,51
377,845	339,45
378,055	486,9
378,266	429,56
378,476	478,71
378,686	499,19
378,897	495,1
379,107	634,36
379,317	499,19
379,528	462,33
379,738	515,58
379,948	480,76
380,158	693,75
380,369	546,3
380,579	660,98
380,789	507,38
380,999	605,69
381,21	597,49
381,42	814,58
381,63	540,15
381,84	679,41
382,05	679,41
382,261	699,89
382,471	765,43
382,681	658,93
382,891	790
383,101	738,8
383,311	703,99
383,521	828,92
383,731	939,51
383,941	1027,57
384,151	1050,1
384,361	1015,28
384,571	1101,3
384,781	1058,29
384,991	1256,94
385,201	1340,91
385,411	1228,27
385,621	1207,79
385,831	1318,38
386,041	1308,14
386,251	1248,75
386,461	1383,91
386,671	1295,85
386,881	1318,38
387,091	1308,14
387,301	1404,39
387,511	1269,23
387,72	1332,72
387,93	1244,65
388,14	1089,01
388,35	1054,19
388,56	1146,35
388,769	1168,88
388,979	1009,14
389,189	673,27
389,399	697,85
389,609	736,76
389,818	626,17
390,028	669,17
390,238	630,26
390,447	499,19
390,657	556,54
390,867	525,82
391,076	345,59
391,286	454,14
391,496	378,36
391,705	452,09
391,915	626,17
392,125	513,53
392,334	368,12
392,544	605,69
392,753	437,75
392,963	347,64
393,172	503,29
393,382	404,99
393,591	538,1
393,801	351,74
394,01	474,62
394,22	470,52
394,429	468,47
394,639	417,27
394,848	484,86
395,058	427,51
395,267	335,35
395,477	503,29
395,686	478,71
395,895	560,63
396,105	607,73
396,314	407,03
396,524	400,89
396,733	359,93
396,942	429,56
397,152	388,6
397,361	421,37
397,57	333,31
397,78	396,79
397,989	441,85
398,198	617,97
398,407	359,93
398,617	361,98
398,826	396,79
399,035	409,08
399,244	384,51
399,453	337,4
399,663	310,78
399,872	396,79
400,081	245,24
400,29	345,59
400,499	196,09
400,708	409,08
400,917	345,59
401,127	349,69
401,336	257,53
401,545	452,09
401,754	407,03
401,963	394,75
402,172	298,49
402,381	355,83
402,59	390,65
402,799	409,08
403,008	474,62
403,217	443,9
403,426	388,6
403,635	306,68
403,844	435,71
404,053	411,13
404,262	323,07
404,471	550,39
404,68	388,6
404,888	454,14
405,097	423,42
405,306	359,93
405,515	359,93
405,724	411,13
405,933	484,86
406,142	474,62
406,35	431,61
406,559	376,31
406,768	372,22
406,977	519,67
407,185	421,37
407,394	355,83
407,603	290,3
407,812	417,27
408,02	595,45
408,229	306,68
408,438	374,27
408,646	302,59
408,855	398,84
409,064	411,13
409,272	355,83
409,481	491
409,69	376,31
409,898	294,4
410,107	464,38
410,315	425,47
410,524	298,49
410,733	462,33
410,941	351,74
411,15	515,58
411,358	499,19
411,567	523,77
411,775	384,51
411,984	435,71
412,192	454,14
412,401	458,23
412,609	443,9
412,818	484,86
413,026	529,91
413,234	488,95
413,443	380,41
413,651	421,37
413,86	386,55
414,068	501,24
414,276	564,73
414,485	439,8
414,693	542,2
414,901	656,89
415,11	519,67
415,318	458,23
415,526	439,8
415,734	540,15
415,943	503,29
416,151	474,62
416,359	364,03
416,567	450,04
416,776	421,37
416,984	523,77
417,192	638,45
417,4	425,47
417,608	366,07
417,817	345,59
418,025	597,49
418,233	642,55
418,441	361,98
418,649	433,66
418,857	499,19
419,065	474,62
419,273	450,04
419,481	476,66
419,689	413,18
419,897	460,28
420,105	433,66
420,313	579,06
420,521	572,92
420,729	570,87
420,937	351,74
421,145	423,42
421,353	552,44
421,561	548,34
421,769	515,58
421,977	394,75
422,185	378,36
422,393	493,05
422,601	491
422,809	507,38
423,017	359,93
423,224	441,85
423,432	421,37
423,64	372,22
423,848	499,19
424,056	368,12
424,263	525,82
424,471	374,27
424,679	548,34
424,887	531,96
425,094	845,3
425,302	1134,06
425,51	1531,37
425,718	2031,07
425,925	2475,48
426,133	3038,67
426,341	4087,23
426,548	4660,66
426,756	5408,17
426,964	6069,67
427,171	6874,52
427,379	7488,91
427,586	7232,91
427,794	7218,58
428,001	6938,01
428,209	6337,95
428,417	5363,12
428,624	4791,73
428,832	3962,31
429,039	2956,75
429,247	2475,48
429,454	2252,25
429,662	2448,86
429,869	2401,76
430,076	2964,95
430,284	3300,81
430,491	4328,89
430,699	5234,1
430,906	6409,63
431,114	6718,87
431,321	7830,92
431,528	8652,16
431,736	9735,53
431,943	10308,96
432,15	9882,99
432,358	9379,18
432,565	8865,14
432,772	7429,52
432,979	6522,27
433,187	5086,64
433,394	4117,95
433,601	3268,05
433,808	2512,35
434,016	1920,48
434,223	1525,22
434,43	1424,87
434,637	1275,37
434,844	1412,59
435,052	1351,15
435,259	1639,91
435,466	1867,24
435,673	2026,98
435,88	2522,59
436,087	2776,53
436,294	3145,17
436,501	3259,85
436,708	3403,21
436,915	3569,1
437,122	3816,9
437,329	3716,55
437,537	3829,19
437,743	3714,5
437,95	3663,3
438,157	3327,44
438,364	2983,38
438,571	2461,15
438,778	2139,62
438,985	2045,41
439,192	1656,29
439,399	1400,3
439,606	1306,09
439,813	1203,69
440,02	1179,12
440,227	1203,69
440,433	880,11
440,64	947,7
440,847	843,25
441,054	900,59
441,261	892,4
441,467	685,56
441,674	677,37
441,881	753,14
442,088	605,69
442,294	654,84
442,501	656,89
442,708	632,31
442,914	648,69
443,121	671,22
443,328	779,76
443,534	816,63
443,741	880,11
443,948	992,75
444,154	1402,35
444,361	1910,24
444,568	2000,35
444,774	2354,65
444,981	2622,94
445,187	3362,25
445,394	3773,89
445,6	3927,49
445,807	4482,49
446,013	4212,16
446,22	4304,32
446,426	4423,1
446,633	4013,51
446,839	4058,56
447,046	3186,13
447,252	2897,36
447,459	2399,71
447,665	1887,72
447,871	1781,22
448,078	1549,8
448,284	1336,81
448,491	1256,94
448,697	1291,76
448,903	1357,29
449,11	1469,93
449,316	1566,18
449,522	1969,63
449,728	2168,29
449,935	2317,79
450,141	2366,94
450,347	2659,8
450,553	2422,24
450,76	2264,54
450,966	2078,18
451,172	1926,63
451,378	1590,76
451,584	1308,14
451,791	1263,08
451,997	978,42
452,203	812,53
452,409	790
452,615	763,38
452,821	564,73
453,027	458,23
453,233	597,49
453,44	368,12
453,646	404,99
453,852	402,94
454,058	419,32
454,264	517,62
454,47	558,58
454,676	386,55
454,882	460,28
455,088	521,72
455,294	431,61
455,5	482,81
455,705	478,71
455,911	409,08
456,117	398,84
456,323	425,47
456,529	456,19
456,735	419,32
456,941	435,71
457,147	468,47
457,352	441,85
457,558	310,78
457,764	445,95
457,97	394,75
458,176	396,79
458,381	443,9
458,587	544,25
458,793	468,47
458,999	415,23
459,204	499,19
459,41	400,89
459,616	476,66
459,821	542,2
460,027	400,89
460,233	554,49
460,438	495,1
460,644	454,14
460,85	574,97
461,055	515,58
461,261	517,62
461,466	384,51
461,672	402,94
461,878	368,12
462,083	460,28
462,289	296,44
462,494	407,03
462,7	534,01
462,905	384,51
463,111	503,29
463,316	540,15
463,522	441,85
463,727	394,75
463,932	343,55
464,138	472,57
464,343	511,48
464,549	501,24
464,754	628,21
464,959	484,86
465,165	452,09
465,37	523,77
465,575	462,33
465,781	495,1
465,986	431,61
466,191	507,38
466,397	507,38
466,602	665,08
466,807	529,91
467,012	642,55
467,218	544,25
467,423	574,97
467,628	667,13
467,833	593,4
468,038	646,65
468,244	589,3
468,449	640,5
468,654	720,37
468,859	605,69
469,064	642,55
469,269	552,44
469,474	701,94
469,679	783,86
469,885	570,87
470,09	650,74
470,295	597,49
470,5	615,93
470,705	597,49
470,91	624,12
471,115	650,74
471,32	511,48
471,525	783,86
471,73	728,56
471,935	607,73
472,139	538,1
472,344	624,12
472,549	656,89
472,754	597,49
472,959	685,56
473,164	531,96
473,369	564,73
473,574	706,04
473,778	628,21
473,983	531,96
474,188	736,76
474,393	595,45
474,598	579,06
474,802	609,78
475,007	556,54
475,212	654,84
475,417	570,87
475,621	630,26
475,826	550,39
476,031	556,54
476,235	609,78
476,44	527,86
476,645	562,68
476,849	527,86
477,054	509,43
477,259	605,69
477,463	626,17
477,668	683,51
477,872	683,51
478,077	669,17
478,282	429,56
478,486	601,59
478,691	579,06
478,895	482,81
479,1	695,8
479,304	671,22
479,509	636,41
479,713	816,63
479,918	730,61
480,122	636,41
480,326	624,12
480,531	663,03
480,735	740,85
480,94	701,94
481,144	822,77
481,348	757,24
481,553	943,6
481,757	671,22
481,961	624,12
482,166	818,68
482,37	720,37
482,574	763,38
482,778	816,63
482,983	826,87
483,187	708,09
483,391	738,8
483,595	759,28
483,8	835,06
484,004	847,35
484,208	730,61
484,412	765,43
484,616	892,4
484,821	673,27
485,025	710,13
485,229	769,52
485,433	763,38
485,637	716,28
485,841	712,18
486,045	787,96
486,249	945,65
486,453	830,96
486,657	734,71
486,861	732,66
487,065	826,87
487,269	925,17
487,473	818,68
487,677	953,84
487,881	1150,45
488,085	955,89
488,289	966,13
488,493	988,66
488,697	1115,63
488,901	1043,95
489,105	923,12
489,309	962,03
489,512	1072,62
489,716	867,83
489,92	861,68
490,124	1013,23
490,328	955,89
490,531	882,16
490,735	902,64
490,939	783,86
491,143	910,83
491,346	859,63
491,55	828,92
491,754	685,56
491,958	785,91
492,161	777,72
492,365	804,34
492,569	771,57
492,772	806,39
492,976	720,37
493,18	665,08
493,383	648,69
493,587	759,28
493,79	773,62
493,994	673,27
494,197	599,54
494,401	701,94
494,605	656,89
494,808	675,32
495,012	617,97
495,215	804,34
495,419	826,87
495,622	708,09
495,825	714,23
496,029	771,57
496,232	744,95
496,436	689,65
496,639	884,21
496,843	810,48
497,046	663,03
497,249	1015,28
497,453	833,01
497,656	699,89
497,859	683,51
498,063	779,76
498,266	785,91
498,469	630,26
498,673	701,94
498,876	669,17
499,079	646,65
499,282	708,09
499,485	970,23
499,689	697,85
499,892	871,92
500,095	720,37
500,298	734,71
500,501	687,61
500,705	714,23
500,908	769,52
501,111	642,55
501,314	822,77
501,517	798,2
501,72	638,45
501,923	728,56
502,126	538,1
502,329	763,38
502,532	792,05
502,735	730,61
502,938	804,34
503,141	794,1
503,344	628,21
503,547	884,21
503,75	701,94
503,953	681,46
504,156	859,63
504,359	794,1
504,562	773,62
504,765	687,61
504,968	835,06
505,17	890,35
505,373	919,03
505,576	894,45
505,779	900,59
505,982	880,11
506,185	921,07
506,387	900,59
506,59	1052,14
506,793	964,08
506,996	1023,47
507,198	988,66
507,401	1113,58
507,604	1072,62
507,807	1062,38
508,009	980,47
508,212	992,75
508,415	849,4
508,617	800,24
508,82	980,47
509,022	878,07
509,225	988,66
509,428	867,83
509,63	884,21
509,833	843,25
510,035	949,75
510,238	869,87
510,44	812,53
510,643	878,07
510,845	978,42
511,048	863,73
511,25	798,2
511,453	859,63
511,655	929,27
511,858	1064,43
512,06	1068,53
512,262	939,51
512,465	1015,28
512,667	1023,47
512,87	955,89
513,072	1222,13
513,274	1121,77
513,477	1072,62
513,679	1228,27
513,881	1195,5
514,084	1226,22
514,286	1291,76
514,488	1361,39
514,69	1187,31
514,893	1228,27
515,095	1281,52
515,297	1195,5
515,499	1224,17
515,701	1107,44
515,904	1232,37
516,106	1312,24
516,308	1258,99
516,51	1134,06
516,712	1054,19
516,914	1058,29
517,116	998,9
517,318	904,69
517,52	904,69
517,722	898,55
517,925	833,01
518,127	898,55
518,329	929,27
518,531	701,94
518,733	796,15
518,935	740,85
519,136	855,54
519,338	583,16
519,54	724,47
519,742	671,22
519,944	744,95
520,146	726,52
520,348	730,61
520,55	683,51
520,752	519,67
520,954	624,12
521,155	683,51
521,357	660,98
521,559	706,04
521,761	744,95
521,963	765,43
522,164	757,24
522,366	818,68
522,568	828,92
522,77	890,35
522,971	851,44
523,173	722,42
523,375	738,8
523,576	716,28
523,778	747
523,98	775,67
524,181	910,83
524,383	818,68
524,584	790
524,786	785,91
524,988	804,34
525,189	919,03
525,391	865,78
525,592	783,86
525,794	644,6
525,995	742,9
526,197	900,59
526,398	1027,57
526,6	865,78
526,801	837,11
527,003	693,75
527,204	800,24
527,406	865,78
527,607	835,06
527,808	691,7
528,01	716,28
528,211	808,44
528,412	693,75
528,614	851,44
528,815	716,28
529,016	753,14
529,218	699,89
529,419	701,94
529,62	597,49
529,822	695,8
530,023	740,85
530,224	775,67
530,425	730,61
530,626	660,98
530,828	695,8
531,029	597,49
531,23	847,35
531,431	615,93
531,632	853,49
531,833	765,43
532,035	779,76
532,236	716,28
532,437	876,02
532,638	798,2
532,839	755,19
533,04	962,03
533,241	957,94
533,442	904,69
533,643	980,47
533,844	794,1
534,045	929,27
534,246	933,36
534,447	970,23
534,648	896,5
534,849	1050,1
535,05	943,6
535,251	966,13
535,451	990,7
535,652	904,69
535,853	828,92
536,054	937,46
536,255	878,07
536,456	876,02
536,657	765,43
536,857	847,35
537,058	869,87
537,259	878,07
537,46	880,11
537,66	810,48
537,861	671,22
538,062	755,19
538,263	579,06
538,463	777,72
538,664	790
538,865	642,55
539,065	675,32
539,266	742,9
539,466	654,84
539,667	755,19
539,868	663,03
540,068	605,69
540,269	695,8
540,469	753,14
540,67	771,57
540,87	765,43
541,071	620,02
541,271	736,76
541,472	777,72
541,672	814,58
541,873	738,8
542,073	706,04
542,274	761,33
542,474	722,42
542,675	779,76
542,875	777,72
543,075	620,02
543,276	693,75
543,476	767,48
543,676	847,35
543,877	626,17
544,077	736,76
544,277	826,87
544,478	769,52
544,678	648,69
544,878	767,48
545,078	679,41
545,279	667,13
545,479	675,32
545,679	570,87
545,879	738,8
546,079	753,14
546,28	546,3
546,48	665,08
546,68	763,38
546,88	779,76
547,08	640,5
547,28	732,66
547,48	601,59
547,68	732,66
547,88	802,29
548,081	701,94
548,281	703,99
548,481	699,89
548,681	916,98
548,881	1011,18
549,081	1068,53
549,28	1052,14
549,48	1146,35
549,68	1166,83
549,88	1084,91
550,08	1048,05
550,28	1166,83
550,48	1320,43
550,68	1123,82
550,88	1068,53
551,08	1158,64
551,279	1209,84
551,479	1039,86
551,679	1207,79
551,879	947,7
552,079	1097,2
552,278	1091,06
552,478	1101,3
552,678	955,89
552,878	1029,62
553,077	904,69
553,277	876,02
553,477	779,76
553,676	853,49
553,876	888,31
554,076	892,4
554,275	1064,43
554,475	1353,2
554,674	2035,17
554,874	3194,32
555,074	5076,4
555,273	8217,99
555,473	12756,29
555,672	18736,35
555,872	26285,17
556,071	33635,33
556,271	40749,97
556,47	45671,24
556,67	49226,51
556,869	51290,87
557,068	51917,54
557,268	50101
557,467	47371,05
557,667	43815,78
557,866	39519,14
558,065	34464,75
558,265	29441,09
558,464	24411,28
558,663	20966,59
558,863	17181,95
559,062	14411,04
559,261	11511,12
559,461	9364,85
559,66	7200,15
559,859	5569,96
560,058	4101,57
560,258	2833,88
560,457	2100,7
560,656	1811,94
560,855	1195,5
561,054	1154,54
561,253	1007,09
561,453	810,48
561,652	773,62
561,851	830,96
562,05	802,29
562,249	658,93
562,448	826,87
562,647	732,66
562,846	783,86
563,045	898,55
563,244	706,04
563,443	1002,99
563,642	925,17
563,841	1152,49
564,04	1402,35
564,239	1572,33
564,438	1644,01
564,637	1539,56
564,836	1803,75
565,035	1801,7
565,234	1885,67
565,432	1785,32
565,631	1654,25
565,83	1844,71
566,029	1762,79
566,228	1607,14
566,427	1760,74
566,625	1519,08
566,824	1660,39
567,023	1588,71
567,222	1549,8
567,42	1539,56
567,619	1564,14
567,818	1445,35
568,016	1467,88
568,215	1392,11
568,414	1342,96
568,612	1080,82
568,811	1191,41
569,01	1029,62
569,208	1062,38
569,407	1113,58
569,605	1172,97
569,804	1084,91
570,002	1144,3
570,201	998,9
570,4	1175,02
570,598	984,56
570,797	1060,34
570,995	886,26
571,193	912,88
571,392	980,47
571,59	912,88
571,789	1080,82
571,987	1007,09
572,186	1043,95
572,384	898,55
572,582	847,35
572,781	992,75
572,979	761,33
573,177	861,68
573,376	927,22
573,574	822,77
573,772	871,92
573,971	593,4
574,169	613,88
574,367	691,7
574,565	759,28
574,763	693,75
574,962	736,76
575,16	675,32
575,358	603,64
575,556	695,8
575,754	671,22
575,952	638,45
576,151	814,58
576,349	667,13
576,547	556,54
576,745	689,65
576,943	689,65
577,141	474,62
577,339	542,2
577,537	673,27
577,735	712,18
577,933	697,85
578,131	574,97
578,329	777,72
578,527	695,8
578,725	787,96
578,923	460,28
579,121	790
579,319	517,62
579,516	517,62
579,714	728,56
579,912	636,41
580,11	501,24
580,308	605,69
580,506	552,44
580,704	515,58
580,901	611,83
581,099	796,15
581,297	775,67
581,495	980,47
581,692	1031,66
581,89	1320,43
582,088	1271,28
582,285	1476,07
582,483	1498,6
582,681	1732,07
582,878	1652,2
583,076	1639,91
583,274	1736,17
583,471	1736,17
583,669	1588,71
583,866	1254,89
584,064	1299,95
584,262	1148,4
584,459	1023,47
584,657	1148,4
584,854	1230,32
585,052	1336,81
585,249	2102,75
585,447	4267,45
585,644	8553,85
585,841	15621,39
586,039	24263,82
586,236	32840,71
586,434	40827,79
586,631	47209,26
586,828	52595,42
587,026	54205,12
587,223	54336,19
587,42	52806,36
587,618	49685,26
587,815	46060,35
588,012	41577,35
588,21	36813,77
588,407	32377,87
588,604	27503,71
588,801	23006,37
588,999	19795,15
589,196	16487,68
589,393	13329,72
589,59	11003,22
589,787	9137,52
589,984	6983,06
590,182	5266,86
590,379	3665,35
590,576	2723,29
590,773	2006,5
590,97	1504,75
591,167	1322,48
591,364	1164,78
591,561	923,12
591,758	923,12
591,955	833,01
592,152	677,37
592,349	591,35
592,546	663,03
592,743	548,34
592,94	605,69
593,137	593,4
593,334	572,92
593,531	480,76
593,727	552,44
593,924	495,1
594,121	538,1
594,318	390,65
594,515	458,23
594,712	671,22
594,908	595,45
595,105	370,17
595,302	472,57
595,499	429,56
595,696	574,97
595,892	335,35
596,089	417,27
596,286	409,08
596,482	507,38
596,679	411,13
596,876	470,52
597,072	548,34
597,269	417,27
597,466	484,86
597,662	599,54
597,859	546,3
598,055	863,73
598,252	1154,54
598,448	1435,11
598,645	1652,2
598,841	1867,24
599,038	2037,22
599,234	2252,25
599,431	2203,1
599,627	2203,1
599,824	2321,88
600,02	2108,9
600,217	2293,21
600,413	2375,13
600,609	2457,05
600,806	2629,08
601,002	2412
601,198	2172,38
601,395	2244,06
601,591	2053,6
601,787	1947,11
601,984	1809,89
602,18	1719,78
602,376	1609,19
602,572	1514,98
602,769	1508,84
602,965	1328,62
603,161	1328,62
603,357	1285,61
603,553	1375,72
603,75	1177,07
603,946	1252,84
604,142	1226,22
604,338	1449,45
604,534	1361,39
604,73	1484,27
604,926	1498,6
605,122	1992,16
605,318	1818,08
605,514	1924,58
605,71	1865,19
605,906	1871,33
606,102	1598,95
606,298	1646,05
606,494	1672,68
606,69	1629,67
606,886	1404,39
607,082	1381,87
607,278	1312,24
607,474	1418,73
607,67	1416,68
607,866	1226,22
608,062	1482,22
608,257	1400,3
608,453	1123,82
608,649	1201,65
608,845	1068,53
609,041	1074,67
609,236	943,6
609,432	929,27
609,628	859,63
609,824	869,87
610,019	663,03
610,215	638,45
610,411	837,11
610,606	767,48
610,802	566,78
610,998	593,4
611,193	615,93
611,389	515,58
611,584	566,78
611,78	431,61
611,976	517,62
612,171	777,72
612,367	548,34
612,562	464,38
612,758	548,34
612,953	355,83
613,149	484,86
613,344	542,2
613,539	472,57
613,735	648,69
613,93	542,2
614,126	538,1
614,321	607,73
614,517	761,33
614,712	667,13
614,907	656,89
615,103	671,22
615,298	599,54
615,493	589,3
615,688	558,58
615,884	656,89
616,079	548,34
616,274	642,55
616,47	552,44
616,665	476,66
616,86	585,21
617,055	564,73
617,25	402,94
617,445	443,9
617,641	542,2
617,836	417,27
618,031	439,8
618,226	460,28
618,421	499,19
618,616	368,12
618,811	325,12
619,006	316,92
619,201	411,13
619,396	409,08
619,591	368,12
619,786	419,32
619,981	486,9
620,176	425,47
620,371	253,44
620,566	353,79
620,761	474,62
620,956	515,58
621,151	425,47
621,346	523,77
621,541	454,14
621,735	562,68
621,93	550,39
622,125	519,67
622,32	482,81
622,515	534,01
622,709	687,61
622,904	820,72
623,099	722,42
623,294	898,55
623,488	765,43
623,683	736,76
623,878	787,96
624,072	867,83
624,267	691,7
624,462	757,24
624,656	589,3
624,851	679,41
625,046	636,41
625,24	505,34
625,435	466,42
625,629	507,38
625,824	605,69
626,018	482,81
626,213	507,38
626,407	404,99
626,602	484,86
626,796	359,93
626,991	427,51
627,185	314,88
627,38	460,28
627,574	396,79
627,768	411,13
627,963	370,17
628,157	304,64
628,352	394,75
628,546	296,44
628,74	433,66
628,935	318,97
629,129	415,23
629,323	433,66
629,517	329,21
629,712	331,26
629,906	306,68
630,1	423,42
630,294	380,41
630,489	429,56
630,683	269,82
630,877	345,59
631,071	400,89
631,265	374,27
631,459	370,17
631,653	304,64
631,848	355,83
632,042	335,35
632,236	257,53
632,43	491
632,624	314,88
632,818	364,03
633,012	325,12
633,206	333,31
633,4	378,36
633,594	392,7
633,788	441,85
633,982	499,19
634,176	550,39
634,369	400,89
634,563	484,86
634,757	347,64
634,951	646,65
635,145	529,91
635,339	468,47
635,533	507,38
635,726	556,54
635,92	493,05
636,114	386,55
636,308	519,67
636,501	497,14
636,695	650,74
636,889	552,44
637,083	572,92
637,276	656,89
637,47	491
637,664	560,63
637,857	566,78
638,051	552,44
638,244	644,6
638,438	431,61
638,632	673,27
638,825	402,94
639,019	620,02
639,212	501,24
639,406	546,3
639,599	460,28
639,793	507,38
639,986	609,78
640,18	673,27
640,373	509,43
640,567	636,41
640,76	790
640,954	1134,06
641,147	1148,4
641,34	1465,83
641,534	1785,32
641,727	2000,35
641,92	2041,31
642,114	2000,35
642,307	1924,58
642,5	1908,19
642,694	1711,59
642,887	1658,34
643,08	1615,34
643,273	1533,42
643,467	1367,53
643,66	1150,45
643,853	1168,88
644,046	1299,95
644,239	1254,89
644,432	1482,22
644,626	1705,45
644,819	2203,1
645,012	2559,45
645,205	2983,38
645,398	3286,48
645,591	3374,54
645,784	3204,56
645,977	3005,91
646,17	2966,99
646,363	2629,08
646,556	2657,75
646,749	2285,02
646,942	2112,99
647,135	1994,21
647,328	1801,7
647,521	1721,83
647,714	1504,75
647,907	1392,11
648,099	1209,84
648,292	1226,22
648,485	990,7
648,678	990,7
648,871	796,15
649,064	779,76
649,256	607,73
649,449	626,17
649,642	495,1
649,835	765,43
650,027	607,73
650,22	794,1
650,413	679,41
650,605	708,09
650,798	554,49
650,991	630,26
651,183	626,17
651,376	605,69
651,568	626,17
651,761	538,1
651,954	597,49
652,146	523,77
652,339	636,41
652,531	689,65
652,724	558,58
652,916	513,53
653,109	411,13
653,301	697,85
653,494	671,22
653,686	585,21
653,879	663,03
654,071	658,93
654,263	556,54
654,456	581,11
654,648	650,74
654,84	585,21
655,033	548,34
655,225	853,49
655,417	744,95
655,61	1054,19
655,802	1064,43
655,994	1203,69
656,186	1103,34
656,379	1256,94
656,571	1070,58
656,763	1111,54
656,955	1068,53
657,148	984,56
657,34	1095,15
657,532	951,79
657,724	896,5
657,916	853,49
658,108	847,35
658,3	841,2
658,492	736,76
658,684	558,58
658,876	802,29
659,068	439,8
659,26	433,66
659,452	443,9
659,644	464,38
659,836	515,58
660,028	429,56
660,22	337,4
660,412	347,64
660,604	400,89
660,796	351,74
660,988	454,14
661,18	347,64
661,372	456,19
661,563	318,97
661,755	308,73
661,947	251,39
662,139	327,16
662,331	331,26
662,522	323,07
662,714	329,21
662,906	241,15
663,097	263,68
663,289	339,45
663,481	224,76
663,673	392,7
663,864	347,64
664,056	421,37
664,247	368,12
664,439	634,36
664,631	663,03
664,822	753,14
665,014	742,9
665,205	747
665,397	697,85
665,588	757,24
665,78	642,55
665,971	689,65
666,163	536,06
666,354	660,98
666,546	577,02
666,737	572,92
666,929	495,1
667,12	468,47
667,311	495,1
667,503	415,23
667,694	458,23
667,885	404,99
668,077	435,71
668,268	224,76
668,459	345,59
668,651	339,45
668,842	439,8
669,033	495,1
669,224	523,77
669,416	876,02
669,607	787,96
669,798	783,86
669,989	1064,43
670,18	804,34
670,371	783,86
670,563	706,04
670,754	853,49
670,945	681,46
671,136	656,89
671,327	638,45
671,518	744,95
671,709	720,37
671,9	642,55
672,091	620,02
672,282	466,42
672,473	464,38
672,664	366,07
672,855	368,12
673,046	517,62
673,237	466,42
673,428	476,66
673,619	519,67
673,809	456,19
674	577,02
674,191	474,62
674,382	409,08
674,573	458,23
674,764	370,17
674,954	450,04
675,145	345,59
675,336	368,12
675,527	302,59
675,717	357,88
675,908	294,4
676,099	249,34
676,289	343,55
676,48	210,43
676,671	298,49
676,861	298,49
677,052	314,88
677,243	220,67
677,433	167,42
677,624	353,79
677,814	257,53
678,005	148,99
678,195	388,6
678,386	171,52
678,576	335,35
678,767	239,1
678,957	261,63
679,148	292,35
679,338	450,04
679,529	345,59
679,719	312,83
679,909	343,55
680,1	304,64
680,29	413,18
680,481	409,08
680,671	570,87
680,861	638,45
681,052	714,23
681,242	671,22
681,432	697,85
681,622	712,18
681,813	613,88
682,003	675,32
682,193	548,34
682,383	622,07
682,573	540,15
682,764	568,82
682,954	581,11
683,144	611,83
683,334	409,08
683,524	415,23
683,714	472,57
683,904	468,47
684,094	409,08
684,284	413,18
684,474	572,92
684,664	421,37
684,854	468,47
685,044	413,18
685,234	409,08
685,424	355,83
685,614	271,87
685,804	466,42
685,994	454,14
686,184	280,06
686,374	507,38
686,564	386,55
686,753	407,03
686,943	308,73
687,133	468,47
687,323	353,79
687,513	404,99
687,702	409,08
687,892	314,88
688,082	433,66
688,272	425,47
688,461	361,98
688,651	474,62
688,841	429,56
689,03	265,72
689,22	335,35
689,41	646,65
689,599	855,54
689,789	1089,01
689,979	1322,48
690,168	1394,15
690,358	1725,93
690,547	1660,39
690,737	1629,67
690,926	1557,99
691,116	1482,22
691,305	1342,96
691,495	1195,5
691,684	1150,45
691,874	988,66
692,063	982,51
692,252	966,13
692,442	921,07
692,631	744,95
692,82	624,12
693,01	601,59
693,199	503,29
693,388	450,04
693,578	364,03
693,767	482,81
693,956	462,33
694,146	323,07
694,335	413,18
694,524	351,74
694,713	402,94
694,902	282,11
695,092	275,96
695,281	402,94
695,47	261,63
695,659	302,59
695,848	335,35
696,037	292,35
696,226	523,77
696,415	355,83
696,604	552,44
696,793	415,23
696,982	384,51
697,171	519,67
697,36	355,83
697,549	400,89
697,738	288,25
697,927	349,69
698,116	292,35
698,305	433,66
698,494	394,75
698,683	345,59
698,872	534,01
699,061	394,75
699,25	376,31
699,438	345,59
699,627	253,44
699,816	548,34
700,005	292,35
700,193	443,9
700,382	452,09
700,571	409,08
700,76	296,44
700,948	450,04
701,137	460,28
701,326	407,03
701,514	353,79
701,703	402,94
701,892	339,45
702,08	605,69
702,269	298,49
702,457	304,64
702,646	345,59
702,834	337,4
703,023	441,85
703,212	329,21
703,4	402,94
703,589	321,02
703,777	306,68
703,965	296,44
704,154	355,83
704,342	232,96
704,531	288,25
704,719	345,59
704,907	417,27
705,096	222,72
705,284	282,11
705,472	372,22
705,661	364,03
705,849	376,31
706,037	435,71
706,226	333,31
706,414	384,51
706,602	247,29
706,79	384,51
706,979	290,3
707,167	343,55
707,355	196,09
707,543	245,24
707,731	304,64
707,919	265,72
708,107	263,68
708,296	216,57
708,484	261,63
708,672	304,64
708,86	355,83
709,048	247,29
709,236	220,67
709,424	318,97
709,612	298,49
709,8	124,41
709,988	255,48
710,176	273,92
710,364	304,64
710,551	220,67
710,739	171,52
710,927	294,4
711,115	318,97
711,303	310,78
711,491	353,79
711,679	237,05
711,866	323,07
712,054	173,57
712,242	353,79
712,43	339,45
712,617	294,4
712,805	378,36
712,993	198,14
713,181	153,09
713,368	228,86
713,556	253,44
713,744	321,02
713,931	398,84
714,119	327,16
714,306	187,9
714,494	237,05
714,682	245,24
714,869	220,67
715,057	230,91
715,244	200,19
715,432	376,31
715,619	286,2
715,807	232,96
715,994	179,71
716,182	290,3
716,369	261,63
716,556	269,82
716,744	237,05
716,931	134,65
717,119	278,01
717,306	161,28
717,493	302,59
717,681	220,67
717,868	214,52
718,055	263,68
718,242	220,67
718,43	187,9
718,617	282,11
718,804	140,8
718,991	370,17
719,179	202,24
719,366	175,61
719,553	282,11
719,74	269,82
719,927	259,58
720,114	343,55
720,301	110,08
720,488	196,09
720,676	175,61
720,863	306,68
721,05	509,43
721,237	409,08
721,424	669,17
721,611	914,93
721,798	1089,01
721,985	1412,59
722,172	1670,63
722,358	1848,8
722,545	2076,13
722,732	1969,63
722,919	1904,1
723,106	1736,17
723,293	1521,13
723,48	1523,18
723,667	1246,7
723,853	1443,31
724,04	1248,75
724,227	1289,71
724,414	1086,96
724,6	921,07
724,787	1093,1
724,974	996,85
725,161	744,95
725,347	570,87
725,534	683,51
725,72	699,89
725,907	560,63
726,094	650,74
726,28	507,38
726,467	503,29
726,653	466,42
726,84	531,96
727,027	630,26
727,213	501,24
727,4	593,4
727,586	564,73
727,773	742,9
727,959	919,03
728,145	1263,08
728,332	1367,53
728,518	1539,56
728,705	1740,26
728,891	1617,38
729,077	1656,29
729,264	1433,07
729,45	1361,39
729,636	1373,68
729,823	1273,32
730,009	1316,33
730,195	1121,77
730,382	1142,25
730,568	919,03
730,754	1002,99
730,94	824,82
731,126	761,33
731,313	769,52
731,499	644,6
731,685	730,61
731,871	617,97
732,057	579,06
732,243	679,41
732,429	493,05
732,615	663,03
732,801	556,54
732,987	554,49
733,173	534,01
733,359	507,38
733,545	628,21
733,731	562,68
733,917	691,7
734,103	640,5
734,289	622,07
734,475	415,23
734,661	722,42
734,847	499,19
735,033	581,11
735,219	654,84
735,404	517,62
735,59	529,91
735,776	564,73
735,962	583,16
736,148	622,07
736,333	667,13
736,519	638,45
736,705	579,06
736,89	597,49
737,076	609,78
737,262	531,96
737,447	564,73
737,633	527,86
737,819	646,65
738,004	673,27
738,19	511,48
738,375	638,45
738,561	693,75
738,747	591,35
738,932	556,54
739,118	722,42
739,303	577,02
739,489	675,32
739,674	497,14
739,859	515,58
740,045	550,39
740,23	609,78
740,416	394,75
740,601	564,73
740,786	605,69
740,972	542,2
741,157	632,31
741,342	611,83
741,528	523,77
741,713	904,69
741,898	908,79
742,084	933,36
742,269	970,23
742,454	1365,48
742,639	1254,89
742,824	1234,41
743,01	1312,24
743,195	1220,08
743,38	1021,42
743,565	923,12
743,75	1027,57
743,935	1082,86
744,12	1035,76
744,305	839,16
744,49	886,26
744,675	908,79
744,86	787,96
745,045	751,09
745,23	857,59
745,415	753,14
745,6	921,07
745,785	753,14
745,97	835,06
746,155	810,48
746,34	798,2
746,525	667,13
746,71	794,1
746,895	673,27
747,079	691,7
747,264	759,28
747,449	835,06
747,634	974,32
747,819	1160,69
748,003	1322,48
748,188	1539,56
748,373	2022,88
748,557	2149,86
748,742	2477,53
748,927	2569,69
749,111	2477,53
749,296	2438,62
749,481	2366,94
749,665	2229,73
749,85	2047,46
750,034	2084,32
750,219	1852,9
750,404	1793,51
750,588	1785,32
750,773	1521,13
750,957	1658,34
751,141	1400,3
751,326	1576,42
751,51	1250,8
751,695	1250,8
751,879	1107,44
752,064	1146,35
752,248	970,23
752,432	1086,96
752,617	978,42
752,801	984,56
752,985	839,16
753,17	964,08
753,354	1041,9
753,538	1101,3
753,722	837,11
753,907	1095,15
754,091	976,37
754,275	962,03
754,459	1076,72
754,643	990,7
754,828	1207,79
755,012	1277,42
755,196	1306,09
755,38	1437,16
755,564	1529,32
755,748	1517,03
755,932	1684,97
756,116	1713,64
756,3	1986,02
756,484	1990,11
756,668	2274,78
756,852	2362,84
757,036	2483,67
757,22	3143,12
757,404	5361,07
757,588	13714,73
757,772	36672,46
757,956	63638,07
758,14	63638,07
758,323	63638,07
758,507	63638,07
758,691	63638,07
758,875	63638,07
759,059	63638,07
759,242	63638,07
759,426	63638,07
759,61	63638,07
759,794	63638,07
759,977	63638,07
760,161	63638,07
760,345	63638,07
760,528	63638,07
760,712	63638,07
760,895	63638,07
761,079	63638,07
761,263	63638,07
761,446	63638,07
761,63	63638,07
761,813	63638,07
761,997	63638,07
762,18	63638,07
762,364	63638,07
762,547	63638,07
762,731	63638,07
762,914	63638,07
763,098	63638,07
763,281	63638,07
763,464	63638,07
763,648	63638,07
763,831	63638,07
764,015	63638,07
764,198	63638,07
764,381	63638,07
764,564	63638,07
764,748	63638,07
764,931	63638,07
765,114	63638,07
765,297	63638,07
765,481	63638,07
765,664	63638,07
765,847	63638,07
766,03	63638,07
766,213	63638,07
766,397	63638,07
766,58	63638,07
766,763	63638,07
766,946	63638,07
767,129	63638,07
767,312	63638,07
767,495	63638,07
767,678	63638,07
767,861	63638,07
768,044	63638,07
768,227	63638,07
768,41	63638,07
768,593	63638,07
768,776	63638,07
768,959	63638,07
769,142	63638,07
769,324	63638,07
769,507	63638,07
769,69	63638,07
769,873	63638,07
770,056	63638,07
770,239	63638,07
770,421	63638,07
770,604	63638,07
770,787	63638,07
770,97	63638,07
771,152	63638,07
771,335	63638,07
771,518	63638,07
771,7	63638,07
771,883	63638,07
772,066	63638,07
772,248	63638,07
772,431	63638,07
772,613	63638,07
772,796	63638,07
772,978	63638,07
773,161	63638,07
773,343	63638,07
773,526	63638,07
773,708	63638,07
773,891	63638,07
774,073	63638,07
774,256	63638,07
774,438	63638,07
774,621	63638,07
774,803	63638,07
774,985	63638,07
775,168	63638,07
775,35	63638,07
775,532	63638,07
775,715	63638,07
775,897	63638,07
776,079	63638,07
776,261	63638,07
776,444	63638,07
776,626	63638,07
776,808	63638,07
776,99	63638,07
777,173	63638,07
777,355	63638,07
777,537	63638,07
777,719	63638,07
777,901	63638,07
778,083	63638,07
778,265	63638,07
778,447	63638,07
778,629	63638,07
778,811	63638,07
778,993	63638,07
779,175	63638,07
779,357	63638,07
779,539	63638,07
779,721	63638,07
779,903	63638,07
780,085	63638,07
780,267	63638,07
780,449	63638,07
780,631	63638,07
780,812	63638,07
780,994	63638,07
781,176	63638,07
781,358	63638,07
781,54	63638,07
781,721	63638,07
781,903	63638,07
782,085	63638,07
782,267	63638,07
782,448	63638,07
782,63	63638,07
782,812	63638,07
782,993	63638,07
783,175	63638,07
783,357	63638,07
783,538	63638,07
783,72	63638,07
783,901	63638,07
784,083	63638,07
784,264	63638,07
784,446	63638,07
784,627	63638,07
784,809	63638,07
784,99	63638,07
785,172	63638,07
785,353	63638,07
785,535	63638,07
785,716	63638,07
785,897	63638,07
786,079	63638,07
786,26	63638,07
786,441	63638,07
786,623	63638,07
786,804	63638,07
786,985	63638,07
787,167	63638,07
787,348	63638,07
787,529	63638,07
787,71	63638,07
787,891	63638,07
788,073	63638,07
788,254	63638,07
788,435	63638,07
788,616	25355,39
788,797	23444,63
788,978	4629,95
789,159	3485,13
789,34	2827,73
789,522	2356,7
789,703	2055,65
789,884	1940,96
790,065	1850,85
790,246	2024,93
790,427	2219,49
790,607	2727,38
790,788	3374,54
790,969	3630,54
791,15	4199,87
791,331	4484,54
791,512	4625,85
791,693	4431,29
791,874	4425,15
792,054	4746,68
792,235	4965,81
792,416	4890,04
792,597	4916,66
792,778	5000,63
792,958	4873,65
793,139	4648,38
793,32	4199,87
793,5	3616,2
793,681	3601,87
793,862	3243,47
794,042	2899,41
794,223	2506,2
794,404	2278,88
794,584	1897,96
794,765	1850,85
794,945	1660,39
795,126	1611,24
795,306	1539,56
795,487	1220,08
795,667	1218,03
795,848	1170,93
796,028	1037,81
796,209	1048,05
796,389	949,75
796,57	935,41
796,75	818,68
796,93	890,35
797,111	818,68
797,291	863,73
797,471	1082,86
797,652	1123,82
797,832	1084,91
798,012	1304,04
798,192	1263,08
798,373	1353,2
798,553	1318,38
798,733	1392,11
798,913	1256,94
799,093	1187,31
799,274	1203,69
799,454	1117,68
799,634	1236,46
799,814	1240,56
799,994	1201,65
800,174	1041,9
800,354	1037,81
800,534	982,51
800,714	1107,44
800,894	921,07
801,074	974,32
801,254	929,27
801,434	1150,45
801,614	951,79
801,794	1078,77
801,974	2780,63
802,154	951,79
802,334	1129,97
802,514	1023,47
802,693	1048,05
802,873	1091,06
803,053	1129,97
803,233	1142,25
803,413	1197,55
803,592	1162,73
803,772	1230,32
803,952	1273,32
804,131	1195,5
804,311	1381,87
804,491	1646,05
804,67	2440,67
804,85	5195,18
805,03	11701,58
805,209	22510,76
805,389	36000,73
805,568	47139,63
805,748	55513,78
805,928	61217,37
806,107	63400,5
806,287	61911,63
806,466	58210,95
806,646	49660,68
806,825	43404,14
807,004	37448,64
807,184	31247,4
807,363	26659,95
807,543	23069,86
807,722	19854,55
807,901	18246,89
808,081	16444,68
808,26	14902,56
808,439	13749,55
808,619	12756,29
808,798	11713,87
808,977	10896,73
809,156	12578,11
809,336	20569,29
809,515	39254,95
809,694	63638,07
809,873	63638,07
810,052	63638,07
810,231	63638,07
810,411	63638,07
810,59	63638,07
810,769	63638,07
810,948	63638,07
811,127	63638,07
811,306	63638,07
811,485	63638,07
811,664	63638,07
811,843	63638,07
812,022	63638,07
812,201	63638,07
812,38	63638,07
812,559	63638,07
812,737	63638,07
812,916	63638,07
813,095	63638,07
813,274	63638,07
813,453	63638,07
813,632	63638,07
813,811	63638,07
813,989	63638,07
814,168	63638,07
814,347	63638,07
814,526	63638,07
814,704	63638,07
814,883	63638,07
815,062	63638,07
815,24	63638,07
815,419	63638,07
815,598	63638,07
815,776	63638,07
815,955	63638,07
816,133	63638,07
816,312	63638,07
816,49	63638,07
816,669	63638,07
816,847	63638,07
817,026	63638,07
817,204	63638,07
817,383	63638,07
817,561	63638,07
817,74	63638,07
817,918	63638,07
818,097	63638,07
818,275	63638,07
818,453	63638,07
818,632	63638,07
818,81	63638,07
818,988	63638,07
819,167	63638,07
819,345	63638,07
819,523	63638,07
819,701	63638,07
819,879	63638,07
820,058	63638,07
820,236	63638,07
820,414	63638,07
820,592	63638,07
820,77	63638,07
820,948	63638,07
821,127	63638,07
821,305	63638,07
821,483	63638,07
821,661	63638,07
821,839	63638,07
822,017	63638,07
822,195	63638,07
822,373	63638,07
822,551	63638,07
822,729	63638,07
822,907	63638,07
823,085	63638,07
823,262	63638,07
823,44	63638,07
823,618	63638,07
823,796	63638,07
823,974	63638,07
824,152	63638,07
824,329	63638,07
824,507	63638,07
824,685	63638,07
824,863	63638,07
825,04	63638,07
825,218	63638,07
825,396	63638,07
825,574	63638,07
825,751	63638,07
825,929	63638,07
826,107	63638,07
826,284	63638,07
826,462	63638,07
826,639	63638,07
826,817	63638,07
826,994	63638,07
827,172	63638,07
827,349	63638,07
827,527	63638,07
827,704	63638,07
827,882	63638,07
828,059	63638,07
828,237	63638,07
828,414	63638,07
828,591	63638,07
828,769	63638,07
828,946	63638,07
829,124	63638,07
829,301	63638,07
829,478	63638,07
829,655	63638,07
829,833	63638,07
830,01	63638,07
830,187	63638,07
830,364	63638,07
830,542	63638,07
830,719	63638,07
830,896	63638,07
831,073	63638,07
831,25	63638,07
831,427	63638,07
831,604	63638,07
831,782	63638,07
831,959	63638,07
832,136	63638,07
832,313	63638,07
832,49	63638,07
832,667	63638,07
832,844	63638,07
833,021	63638,07
833,198	63638,07
833,374	63638,07
833,551	63638,07
833,728	63638,07
833,905	63638,07
834,082	63638,07
834,259	63638,07
834,436	63638,07
834,612	63638,07
834,789	63638,07
834,966	63638,07
835,143	63638,07
835,319	63638,07
835,496	63638,07
835,673	63638,07
835,85	63638,07
836,026	63638,07
836,203	63638,07
836,38	63638,07
836,556	63638,07
836,733	63638,07
836,909	63638,07
837,086	63638,07
837,262	63638,07
837,439	63638,07
837,616	63638,07
837,792	63638,07
837,968	63638,07
838,145	63638,07
838,321	63638,07
838,498	63638,07
838,674	63638,07
838,851	63638,07
839,027	63638,07
839,203	63638,07
839,38	63638,07
839,556	63638,07
839,732	63638,07
839,909	63638,07
840,085	63638,07
840,261	63638,07
840,437	63638,07
840,614	63638,07
840,79	63638,07
840,966	63638,07
841,142	63638,07
841,318	63638,07
841,494	63638,07
841,671	63638,07
841,847	63638,07
842,023	63638,07
842,199	63638,07
842,375	63638,07
842,551	63638,07
842,727	63638,07
842,903	63638,07
843,079	63638,07
843,255	63638,07
843,431	63638,07
843,607	63638,07
843,783	63638,07
843,959	843,25
844,134	775,67
844,31	624,12
844,486	509,43
844,662	554,49
844,838	388,6
845,013	468,47
845,189	421,37
845,365	396,79
845,541	404,99
845,716	419,32
845,892	396,79
846,068	312,83
846,244	224,76
846,419	368,12
846,595	288,25
846,77	261,63
846,946	417,27
847,122	294,4
847,297	333,31
847,473	425,47
847,648	212,48
847,824	347,64
847,999	218,62
848,175	341,5
848,35	450,04
848,526	425,47
848,701	376,31
848,876	525,82
849,052	476,66
849,227	476,66
849,403	673,27
849,578	1412,59
849,753	3415,5
849,929	7034,26
850,104	12291,4
850,279	18408,68
850,454	24679,56
850,63	29398,08
850,805	31091,75
850,98	31382,56
851,155	30061,62
851,33	26922,09
851,505	23377,05
851,681	19864,78
851,856	17816,82
852,031	16207,11
852,206	14843,17
852,381	13454,64
852,556	12789,05
852,731	11912,52
852,906	10814,81
853,081	10038,63
853,256	9567,6
853,431	8637,82
853,606	8039,81
853,781	7388,56
853,956	6950,29
854,131	6038,95
854,305	5416,37
854,48	4570,55
854,655	3497,42
854,83	2846,16
855,005	2010,59
855,18	1721,83
855,354	1218,03
855,529	1021,42
855,704	718,33
855,879	689,65
856,053	441,85
856,228	562,68
856,403	390,65
856,577	376,31
856,752	327,16
856,926	392,7
857,101	366,07
857,276	214,52
857,45	368,12
857,625	392,7
857,799	380,41
857,974	378,36
858,148	146,94
858,323	316,92
858,497	290,3
858,672	136,7
858,846	187,9
859,02	425,47
859,195	241,15
859,369	218,62
859,543	275,96
859,718	325,12
859,892	364,03
860,066	368,12
860,241	278,01
860,415	226,81
860,589	298,49
860,763	265,72
860,938	302,59
861,112	298,49
861,286	280,06
861,46	308,73
861,634	214,52
861,808	423,42
861,982	196,09
862,157	222,72
862,331	310,78
862,505	67,07
862,679	228,86
862,853	271,87
863,027	294,4
863,201	384,51
863,375	138,75
863,549	361,98
863,722	175,61
863,896	355,83
864,07	214,52
864,244	204,28
864,418	323,07
864,592	261,63
864,766	290,3
864,939	257,53
865,113	206,33
865,287	286,2
865,461	175,61
865,634	312,83
865,808	261,63
865,982	224,76
866,156	245,24
866,329	177,66
866,503	278,01
866,676	335,35
866,85	314,88
867,024	243,2
867,197	302,59
867,371	335,35
867,544	321,02
867,718	218,62
867,891	349,69
868,065	161,28
868,238	261,63
868,412	392,7
868,585	247,29
868,759	269,82
868,932	257,53
869,105	284,16
869,279	312,83
869,452	294,4
869,625	368,12
869,799	355,83
869,972	318,97
870,145	235
870,319	460,28
870,492	288,25
870,665	239,1
870,838	253,44
871,011	179,71
871,185	294,4
871,358	286,2
871,531	349,69
871,704	255,48
871,877	331,26
872,05	359,93
872,223	251,39
872,396	482,81
872,569	437,75
872,742	241,15
872,915	507,38
873,088	353,79
873,261	220,67
873,434	431,61
873,607	368,12
873,78	529,91
873,953	245,24
874,126	462,33
874,299	468,47
874,471	345,59
874,644	349,69
874,817	531,96
874,99	617,97
875,163	409,08
875,335	550,39
875,508	695,8
875,681	826,87
875,853	804,34
876,026	1281,52
876,199	2227,68
876,371	4253,12
876,544	8529,28
876,717	16213,26
876,889	27382,88
877,062	40516,5
877,234	53787,34
877,407	63244,86
877,579	63638,07
877,752	63638,07
877,924	63638,07
878,097	63638,07
878,269	63638,07
878,442	63638,07
878,614	63638,07
878,786	63638,07
878,959	63638,07
879,131	63638,07
879,303	63638,07
879,476	63638,07
879,648	54766,27
879,82	43813,73
879,993	40713,11
880,165	37891,01
880,337	35449,83
880,509	33266,69
880,681	31155,24
880,854	29111,36
881,026	27604,06
881,198	25359,49
881,37	22324,4
881,542	18791,65
881,714	15629,59
881,886	12006,73
882,058	9160,05
882,23	6634,91
882,402	4818,36
882,574	3456,46
882,746	2610,65
882,918	2014,69
883,09	1453,55
883,262	1121,77
883,434	904,69
883,606	660,98
883,778	744,95
883,95	785,91
884,122	568,82
884,293	593,4
884,465	525,82
884,637	687,61
884,809	376,31
884,98	491
885,152	464,38
885,324	415,23
885,496	310,78
885,667	333,31
885,839	384,51
886,011	460,28
886,182	413,18
886,354	400,89
886,525	450,04
886,697	284,16
886,869	269,82
887,04	271,87
887,212	427,51
887,383	427,51
887,555	370,17
887,726	302,59
887,897	292,35
888,069	351,74
888,24	294,4
888,412	343,55
888,583	284,16
888,754	337,4
888,926	251,39
889,097	220,67
889,268	212,48
889,44	335,35
889,611	302,59
889,782	220,67
889,953	247,29
890,125	433,66
890,296	263,68
890,467	355,83
890,638	290,3
890,809	345,59
890,98	318,97
891,151	550,39
891,323	794,1
891,494	1109,49
891,665	2141,66
891,836	3671,5
892,007	6823,32
892,178	11115,86
892,349	16907,52
892,52	23102,62
892,691	30039,09
892,862	35484,64
893,032	41360,26
893,203	44770,13
893,374	46721,85
893,545	47141,68
893,716	46777,14
893,887	45165,39
894,057	42974,06
894,228	40385,43
894,399	38257,59
894,57	35996,63
894,74	33899,51
894,911	31431,71
895,082	30069,81
895,253	27571,29
895,423	26301,55
895,594	24769,67
895,764	23436,44
895,935	21667
896,106	20352,2
896,276	19193,05
896,447	17820,91
896,617	16291,08
896,788	14644,51
896,958	12229,96
897,129	10118,5
897,299	7914,89
897,47	6303,14
897,64	4693,43
897,81	3374,54
897,981	2465,24
898,151	1781,22
898,322	1437,16
898,492	1232,37
898,662	863,73
898,832	781,81
899,003	624,12
899,173	679,41
899,343	503,29
899,513	497,14
