Data from krypton_USB4F104151__3__11-01-34-210.txt Node

Date: Wed Apr 15 11:01:34 EDT 2026
User: LaboPhy
Spectrometer: USB4F10415
Trigger mode: 4
Integration Time (sec): 1,000000E-1
Scans to average: 1
Electric dark correction enabled: true
Nonlinearity correction enabled: false
Boxcar width: 0
XAxis mode: Wavelengths
Number of Pixels in Spectrum: 3648
>>>>>Begin Spectral Data<<<<<
178,204	-492,2
178,424	-492,2
178,644	-492,2
178,864	-457,38
179,084	-424,61
179,304	13,65
179,524	-15,02
179,744	17,75
179,964	-2,73
180,184	42,32
180,404	60,76
180,624	-101,03
180,844	1,37
181,064	-119,46
181,283	64,85
181,503	-27,31
181,723	64,85
181,943	-156,33
182,163	212,31
182,383	-2,73
182,602	44,37
182,822	230,74
183,042	103,76
183,262	25,94
183,482	15,7
183,701	27,99
183,921	103,76
184,141	25,94
184,361	89,43
184,58	52,56
184,8	44,37
185,02	-15,02
185,239	130,39
185,459	87,38
185,679	181,59
185,898	-47,79
186,118	46,42
186,338	83,28
186,557	138,58
186,777	-70,31
186,997	17,75
187,216	71
187,436	202,07
187,655	83,28
187,875	132,44
188,095	85,33
188,314	148,82
188,534	142,68
188,753	-41,64
188,973	75,09
189,192	197,97
189,412	64,85
189,631	-8,87
189,851	157,01
190,07	222,55
190,29	-43,69
190,509	3,41
190,729	38,23
190,948	167,25
191,168	214,35
191,387	128,34
191,607	21,85
191,826	48,47
192,045	-2,73
192,265	-12,97
192,484	97,62
192,704	60,76
192,923	-103,08
193,142	214,35
193,362	152,91
193,581	185,68
193,8	95,57
194,02	111,96
194,239	93,52
194,458	109,91
194,678	17,75
194,897	62,8
195,116	81,24
195,335	44,37
195,555	38,23
195,774	-2,73
195,993	122,2
196,212	136,53
196,432	-49,83
196,651	-23,21
196,87	109,91
197,089	310,61
197,308	62,8
197,528	93,52
197,747	3,41
197,966	81,24
198,185	183,63
198,404	-66,22
198,623	138,58
198,842	193,87
199,062	107,86
199,281	95,57
199,5	120,15
199,719	48,47
199,938	46,42
200,157	83,28
200,376	101,72
200,595	173,39
200,814	-17,07
201,033	-88,75
201,252	222,55
201,471	128,34
201,69	116,05
201,909	40,28
202,128	132,44
202,347	132,44
202,566	27,99
202,785	-64,17
203,004	-6,83
203,223	367,95
203,442	81,24
203,661	-27,31
203,879	169,3
204,098	93,52
204,317	3,41
204,536	111,96
204,755	200,02
204,974	191,83
205,193	27,99
205,411	105,81
205,63	175,44
205,849	146,77
206,068	9,56
206,287	7,51
206,505	116,05
206,724	56,66
206,943	-66,22
207,162	7,51
207,381	85,33
207,599	81,24
207,818	50,52
208,037	-86,7
208,255	62,8
208,474	89,43
208,693	-19,11
208,911	9,56
209,13	54,61
209,349	97,62
209,567	120,15
209,786	77,14
210,005	130,39
210,223	68,95
210,442	-96,94
210,661	44,37
210,879	87,38
211,098	204,11
211,316	36,18
211,535	99,67
211,753	23,89
211,972	103,76
212,191	46,42
212,409	34,13
212,628	73,04
212,846	23,89
213,065	68,95
213,283	93,52
213,502	68,95
213,72	73,04
213,938	17,75
214,157	5,46
214,375	136,53
214,594	50,52
214,812	83,28
215,031	7,51
215,249	71
215,467	79,19
215,686	23,89
215,904	25,94
216,122	87,38
216,341	210,26
216,559	79,19
216,778	128,34
216,996	136,53
217,214	38,23
217,432	79,19
217,651	-25,26
217,869	83,28
218,087	142,68
218,306	-35,5
218,524	48,47
218,742	83,28
218,96	185,68
219,179	30,04
219,397	-10,92
219,615	326,99
219,833	66,9
220,051	7,51
220,27	101,72
220,488	165,2
220,706	101,72
220,924	7,51
221,142	-17,07
221,36	42,32
221,578	107,86
221,796	95,57
222,015	30,04
222,233	54,61
222,451	197,97
222,669	42,32
222,887	79,19
223,105	42,32
223,323	23,89
223,541	-21,16
223,759	83,28
223,977	73,04
224,195	152,91
224,413	13,65
224,631	-17,07
224,849	56,66
225,067	220,5
225,285	-41,64
225,503	50,52
225,721	-129,7
225,939	79,19
226,157	83,28
226,375	224,59
226,592	-45,74
226,81	111,96
227,028	193,87
227,246	87,38
227,464	136,53
227,682	183,63
227,9	52,56
228,117	103,76
228,335	85,33
228,553	93,52
228,771	56,66
228,989	68,95
229,206	103,76
229,424	75,09
229,642	7,51
229,86	-33,45
230,077	234,83
230,295	79,19
230,513	134,48
230,731	87,38
230,948	236,88
231,166	202,07
231,384	66,9
231,601	-12,97
231,819	187,73
232,037	-21,16
232,254	-23,21
232,472	-15,02
232,689	62,8
232,907	89,43
233,125	34,13
233,342	1,37
233,56	50,52
233,777	120,15
233,995	21,85
234,213	111,96
234,43	169,3
234,648	66,9
234,865	-19,11
235,083	50,52
235,3	40,28
235,518	130,39
235,735	154,96
235,953	32,08
236,17	66,9
236,388	87,38
236,605	124,24
236,822	134,48
237,04	120,15
237,257	109,91
237,475	-96,94
237,692	56,66
237,909	99,67
238,127	21,85
238,344	95,57
238,562	30,04
238,779	-84,65
238,996	-66,22
239,214	27,99
239,431	111,96
239,648	136,53
239,865	140,63
240,083	107,86
240,3	-10,92
240,517	15,7
240,735	-33,45
240,952	154,96
241,169	30,04
241,386	171,35
241,603	114
241,821	-47,79
242,038	138,58
242,255	187,73
242,472	-19,11
242,689	93,52
242,907	46,42
243,124	79,19
243,341	140,63
243,558	34,13
243,775	-51,88
243,992	-4,78
244,209	140,63
244,426	128,34
244,643	97,62
244,86	32,08
245,078	148,82
245,295	38,23
245,512	81,24
245,729	46,42
245,946	107,86
246,163	23,89
246,38	-2,73
246,597	138,58
246,814	87,38
247,031	-2,73
247,248	54,61
247,464	81,24
247,681	77,14
247,898	87,38
248,115	148,82
248,332	89,43
248,549	193,87
248,766	210,26
248,983	159,06
249,2	99,67
249,417	97,62
249,633	-17,07
249,85	105,81
250,067	21,85
250,284	62,8
250,501	107,86
250,717	52,56
250,934	11,61
251,151	68,95
251,368	3,41
251,585	81,24
251,801	95,57
252,018	-23,21
252,235	58,71
252,451	-29,35
252,668	21,85
252,885	116,05
253,102	130,39
253,318	-27,31
253,535	-35,5
253,752	1,37
253,968	-0,68
254,185	-68,27
254,401	19,8
254,618	66,9
254,835	50,52
255,051	138,58
255,268	87,38
255,484	87,38
255,701	23,89
255,917	56,66
256,134	60,76
256,351	36,18
256,567	97,62
256,784	73,04
257	-23,21
257,217	83,28
257,433	97,62
257,65	134,48
257,866	181,59
258,082	-2,73
258,299	5,46
258,515	54,61
258,732	21,85
258,948	21,85
259,165	75,09
259,381	-15,02
259,597	109,91
259,814	87,38
260,03	25,94
260,246	-2,73
260,463	171,35
260,679	163,15
260,895	75,09
261,112	120,15
261,328	13,65
261,544	46,42
261,761	157,01
261,977	-45,74
262,193	-31,4
262,409	27,99
262,626	73,04
262,842	19,8
263,058	-49,83
263,274	226,64
263,49	118,1
263,707	103,76
263,923	136,53
264,139	-31,4
264,355	54,61
264,571	95,57
264,787	97,62
265,004	152,91
265,22	17,75
265,436	13,65
265,652	134,48
265,868	120,15
266,084	-113,32
266,3	1,37
266,516	23,89
266,732	148,82
266,948	19,8
267,164	36,18
267,38	169,3
267,596	7,51
267,812	111,96
268,028	66,9
268,244	34,13
268,46	62,8
268,676	40,28
268,892	38,23
269,108	7,51
269,324	9,56
269,54	-33,45
269,756	142,68
269,972	-60,07
270,188	25,94
270,403	-68,27
270,619	48,47
270,835	5,46
271,051	58,71
271,267	71
271,483	23,89
271,698	122,2
271,914	152,91
272,13	62,8
272,346	40,28
272,562	56,66
272,777	165,2
272,993	-6,83
273,209	19,8
273,425	111,96
273,64	19,8
273,856	62,8
274,072	-41,64
274,287	-41,64
274,503	32,08
274,719	99,67
274,934	58,71
275,15	-70,31
275,366	66,9
275,581	5,46
275,797	68,95
276,012	48,47
276,228	66,9
276,444	85,33
276,659	116,05
276,875	17,75
277,09	-2,73
277,306	79,19
277,521	99,67
277,737	21,85
277,952	171,35
278,168	79,19
278,383	-15,02
278,599	109,91
278,814	95,57
279,03	32,08
279,245	159,06
279,461	128,34
279,676	44,37
279,892	-4,78
280,107	-6,83
280,322	40,28
280,538	38,23
280,753	3,41
280,969	34,13
281,184	68,95
281,399	202,07
281,615	42,32
281,83	136,53
282,045	-27,31
282,26	-2,73
282,476	87,38
282,691	62,8
282,906	36,18
283,122	120,15
283,337	-23,21
283,552	75,09
283,767	58,71
283,983	157,01
284,198	83,28
284,413	54,61
284,628	-58,03
284,843	3,41
285,058	66,9
285,274	-10,92
285,489	62,8
285,704	136,53
285,919	23,89
286,134	38,23
286,349	-15,02
286,564	7,51
286,779	161,11
286,995	52,56
287,21	-76,46
287,425	107,86
287,64	-47,79
287,855	48,47
288,07	-6,83
288,285	122,2
288,5	120,15
288,715	116,05
288,93	38,23
289,145	62,8
289,36	71
289,575	79,19
289,79	204,11
290,004	-0,68
290,219	167,25
290,434	-43,69
290,649	50,52
290,864	-27,31
291,079	40,28
291,294	5,46
291,509	124,24
291,724	30,04
291,938	48,47
292,153	120,15
292,368	-12,97
292,583	93,52
292,798	132,44
293,012	46,42
293,227	87,38
293,442	15,7
293,657	58,71
293,871	146,77
294,086	114
294,301	218,45
294,516	132,44
294,73	21,85
294,945	-8,87
295,16	105,81
295,374	109,91
295,589	116,05
295,804	-2,73
296,018	75,09
296,233	169,3
296,447	58,71
296,662	66,9
296,877	144,72
297,091	68,95
297,306	89,43
297,52	46,42
297,735	130,39
297,949	56,66
298,164	38,23
298,378	71
298,593	-12,97
298,807	-31,4
299,022	75,09
299,236	185,68
299,451	21,85
299,665	-0,68
299,88	17,75
300,094	91,48
300,309	52,56
300,523	64,85
300,737	9,56
300,952	62,8
301,166	122,2
301,381	23,89
301,595	-33,45
301,809	75,09
302,024	40,28
302,238	-2,73
302,452	210,26
302,667	77,14
302,881	136,53
303,095	83,28
303,309	118,1
303,524	-19,11
303,738	13,65
303,952	5,46
304,166	118,1
304,381	-109,22
304,595	193,87
304,809	21,85
305,023	56,66
305,237	23,89
305,452	19,8
305,666	109,91
305,88	161,11
306,094	165,2
306,308	169,3
306,522	85,33
306,736	99,67
306,95	161,11
307,164	38,23
307,379	99,67
307,593	261,46
307,807	171,35
308,021	122,2
308,235	185,68
308,449	34,13
308,663	124,24
308,877	273,75
309,091	171,35
309,305	185,68
309,519	-35,5
309,733	277,84
309,947	-37,55
310,161	142,68
310,374	146,77
310,588	187,73
310,802	111,96
311,016	107,86
311,23	169,3
311,444	44,37
311,658	73,04
311,872	185,68
312,085	216,4
312,299	365,9
312,513	111,96
312,727	167,25
312,941	77,14
313,154	238,93
313,368	97,62
313,582	173,39
313,796	191,83
314,009	40,28
314,223	238,93
314,437	177,49
314,651	118,1
314,864	17,75
315,078	138,58
315,292	7,51
315,505	38,23
315,719	136,53
315,933	150,87
316,146	21,85
316,36	27,99
316,573	251,22
316,787	140,63
317,001	140,63
317,214	15,7
317,428	99,67
317,641	54,61
317,855	50,52
318,068	124,24
318,282	15,7
318,495	267,6
318,709	202,07
318,922	140,63
319,136	257,36
319,349	212,31
319,563	32,08
319,776	193,87
319,99	-82,6
320,203	243,03
320,417	204,11
320,63	187,73
320,843	292,18
321,057	169,3
321,27	157,01
321,483	154,96
321,697	218,45
321,91	122,2
322,124	120,15
322,337	265,55
322,55	157,01
322,763	163,15
322,977	58,71
323,19	195,92
323,403	122,2
323,617	159,06
323,83	191,83
324,043	89,43
324,256	114
324,469	101,72
324,683	187,73
324,896	83,28
325,109	142,68
325,322	-15,02
325,535	189,78
325,748	165,2
325,962	48,47
326,175	93,52
326,388	136,53
326,601	247,12
326,814	91,48
327,027	116,05
327,24	216,4
327,453	-2,73
327,666	116,05
327,879	189,78
328,092	191,83
328,305	183,63
328,518	62,8
328,731	126,29
328,944	83,28
329,157	208,21
329,37	128,34
329,583	306,51
329,796	228,69
330,009	66,9
330,222	212,31
330,435	226,64
330,648	124,24
330,861	73,04
331,073	183,63
331,286	218,45
331,499	150,87
331,712	130,39
331,925	79,19
332,138	87,38
332,35	261,46
332,563	64,85
332,776	263,51
332,989	124,24
333,202	204,11
333,414	232,79
333,627	183,63
333,84	226,64
334,053	195,92
334,265	296,27
334,478	294,22
334,691	341,33
334,903	367,95
335,116	359,76
335,329	466,25
335,541	458,06
335,754	570,7
335,966	464,21
336,179	507,21
336,392	462,16
336,604	419,15
336,817	628,04
337,029	513,36
337,242	398,67
337,454	460,11
337,667	294,22
337,88	488,78
338,092	378,19
338,305	292,18
338,517	265,55
338,729	355,66
338,942	365,9
339,154	179,54
339,367	214,35
339,579	277,84
339,792	171,35
340,004	300,37
340,217	120,15
340,429	263,51
340,641	165,2
340,854	128,34
341,066	179,54
341,278	318,8
341,491	296,27
341,703	159,06
341,915	148,82
342,128	267,6
342,34	294,22
342,552	185,68
342,764	253,27
342,977	120,15
343,189	283,99
343,401	114
343,613	124,24
343,826	206,16
344,038	64,85
344,25	230,74
344,462	105,81
344,674	189,78
344,886	134,48
345,099	187,73
345,311	134,48
345,523	95,57
345,735	62,8
345,947	212,31
346,159	157,01
346,371	195,92
346,583	175,44
346,795	292,18
347,007	185,68
347,219	144,72
347,431	191,83
347,643	322,9
347,855	159,06
348,067	255,31
348,279	97,62
348,491	238,93
348,703	306,51
348,915	206,16
349,127	136,53
349,339	220,5
349,551	103,76
349,763	326,99
349,975	181,59
350,187	333,14
350,399	290,13
350,61	363,86
350,822	204,11
351,034	224,59
351,246	255,31
351,458	308,56
351,669	281,94
351,881	224,59
352,093	314,7
352,305	388,43
352,517	230,74
352,728	263,51
352,94	265,55
353,152	251,22
353,363	249,17
353,575	228,69
353,787	378,19
353,999	218,45
354,21	316,75
354,422	191,83
354,633	140,63
354,845	251,22
355,057	245,07
355,268	296,27
355,48	314,7
355,692	218,45
355,903	370
356,115	228,69
356,326	257,36
356,538	474,45
356,749	443,73
356,961	488,78
357,172	398,67
357,384	290,13
357,595	712,01
357,807	453,97
358,018	488,78
358,23	437,58
358,441	535,89
358,653	404,82
358,864	421,2
359,075	298,32
359,287	361,81
359,498	376,14
359,709	355,66
359,921	333,14
360,132	247,12
360,344	243,03
360,555	322,9
360,766	314,7
360,977	269,65
361,189	384,34
361,4	314,7
361,611	372,05
361,823	384,34
362,034	228,69
362,245	105,81
362,456	189,78
362,667	277,84
362,879	161,11
363,09	308,56
363,301	253,27
363,512	255,31
363,723	195,92
363,935	218,45
364,146	359,76
364,357	179,54
364,568	320,85
364,779	148,82
364,99	347,47
365,201	236,88
365,412	425,29
365,623	339,28
365,834	482,64
366,045	392,53
366,256	511,31
366,467	537,93
366,678	474,45
366,889	552,27
367,1	480,59
367,311	730,44
367,522	525,65
367,733	638,28
367,944	609,61
368,155	527,69
368,366	597,32
368,577	558,41
368,788	509,26
368,999	374,1
369,209	425,29
369,42	494,93
369,631	494,93
369,842	378,19
370,053	296,27
370,264	300,37
370,474	206,16
370,685	374,1
370,896	320,85
371,107	335,18
371,317	316,75
371,528	286,03
371,739	406,86
371,95	255,31
372,16	322,9
372,371	234,83
372,582	202,07
372,792	306,51
373,003	279,89
373,214	398,67
373,424	347,47
373,635	193,87
373,846	365,9
374,056	292,18
374,267	279,89
374,477	253,27
374,688	236,88
374,898	290,13
375,109	294,22
375,319	374,1
375,53	384,34
375,74	365,9
375,951	210,26
376,161	367,95
376,372	415,06
376,582	302,42
376,793	408,91
377,003	410,96
377,214	376,14
377,424	462,16
377,635	263,51
377,845	363,86
378,055	470,35
378,266	337,23
378,476	384,34
378,686	384,34
378,897	529,74
379,107	556,36
379,317	484,69
379,528	433,49
379,738	595,28
379,948	392,53
380,158	570,7
380,369	484,69
380,579	544,08
380,789	486,73
380,999	566,6
381,21	517,45
381,42	744,78
381,63	466,25
381,84	609,61
382,05	666,96
382,261	587,08
382,471	712,01
382,681	640,33
382,891	886,09
383,101	763,21
383,311	623,95
383,521	757,07
383,731	804,17
383,941	974,15
384,151	832,84
384,361	980,29
384,571	1125,7
384,781	1054,02
384,991	1422,66
385,201	1246,53
385,411	1228,1
385,621	1129,8
385,831	1189,19
386,041	1230,15
386,251	1273,15
386,461	1322,31
386,671	1353,02
386,881	1389,89
387,091	1193,28
387,301	1430,85
387,511	1244,48
387,72	1344,83
387,93	1176,9
388,14	1054,02
388,35	1150,28
388,56	1170,76
388,769	1054,02
388,979	881,99
389,189	646,48
389,399	709,96
389,609	662,86
389,818	613,71
390,028	605,52
390,238	535,89
390,447	445,77
390,657	480,59
390,867	425,29
391,076	406,86
391,286	456,01
391,496	398,67
391,705	462,16
391,915	431,44
392,125	449,87
392,334	417,1
392,544	513,36
392,753	396,62
392,963	296,27
393,172	353,62
393,382	355,66
393,591	517,45
393,801	333,14
394,01	415,06
394,22	435,53
394,429	460,11
394,639	396,62
394,848	417,1
395,058	396,62
395,267	275,79
395,477	384,34
395,686	392,53
395,895	521,55
396,105	460,11
396,314	431,44
396,524	359,76
396,733	304,46
396,942	431,44
397,152	376,14
397,361	378,19
397,57	429,39
397,78	318,8
397,989	398,67
398,198	515,41
398,407	257,36
398,617	351,57
398,826	308,56
399,035	216,4
399,244	384,34
399,453	310,61
399,663	275,79
399,872	318,8
400,081	251,22
400,29	449,87
400,499	251,22
400,708	318,8
400,917	255,31
401,127	234,83
401,336	238,93
401,545	410,96
401,754	382,29
401,963	365,9
402,172	265,55
402,381	185,68
402,59	337,23
402,799	318,8
403,008	476,49
403,217	421,2
403,426	482,64
403,635	306,51
403,844	361,81
404,053	320,85
404,262	431,44
404,471	515,41
404,68	486,73
404,888	419,15
405,097	466,25
405,306	367,95
405,515	390,48
405,724	374,1
405,933	456,01
406,142	365,9
406,35	470,35
406,559	415,06
406,768	439,63
406,977	453,97
407,185	378,19
407,394	372,05
407,603	208,21
407,812	365,9
408,02	415,06
408,229	347,47
408,438	400,72
408,646	263,51
408,855	370
409,064	398,67
409,272	376,14
409,481	451,92
409,69	376,14
409,898	269,65
410,107	400,72
410,315	480,59
410,524	228,69
410,733	372,05
410,941	386,38
411,15	456,01
411,358	531,79
411,567	556,36
411,775	384,34
411,984	388,43
412,192	417,1
412,401	415,06
412,609	552,27
412,818	472,4
413,026	392,53
413,234	384,34
413,443	390,48
413,651	335,18
413,86	476,49
414,068	513,36
414,276	542,03
414,485	382,29
414,693	521,55
414,901	488,78
415,11	429,39
415,318	367,95
415,526	431,44
415,734	505,17
415,943	345,42
416,151	509,26
416,359	378,19
416,567	441,68
416,776	509,26
416,984	486,73
417,192	578,89
417,4	367,95
417,608	345,42
417,817	310,61
418,025	537,93
418,233	609,61
418,441	339,28
418,649	333,14
418,857	476,49
419,065	544,08
419,273	335,18
419,481	443,73
419,689	513,36
419,897	462,16
420,105	449,87
420,313	496,97
420,521	556,36
420,729	603,47
420,937	501,07
421,145	376,14
421,353	525,65
421,561	580,94
421,769	517,45
421,977	370
422,185	443,73
422,393	507,21
422,601	490,83
422,809	449,87
423,017	400,72
423,224	406,86
423,432	474,45
423,64	380,24
423,848	462,16
424,056	300,37
424,263	486,73
424,471	320,85
424,679	513,36
424,887	458,06
425,094	916,81
425,302	1178,95
425,51	1529,15
425,718	1981,75
425,925	2495,79
426,133	3046,69
426,341	4255
426,548	4818,19
426,756	5274,88
426,964	6223,09
427,171	6806,77
427,379	7189,74
427,586	7152,87
427,794	7191,78
428,001	7023,85
428,209	6509,81
428,417	5321,99
428,624	4814,09
428,832	3869,98
429,039	3052,84
429,247	2354,48
429,454	2327,86
429,662	2323,76
429,869	2389,3
430,076	2903,34
430,284	3339,55
430,491	4265,24
430,699	5317,89
430,906	6276,34
431,114	6958,32
431,321	7845,09
431,528	8674,51
431,736	9675,97
431,943	10329,27
432,15	10038,46
432,358	9403,59
432,565	9084,11
432,772	7613,67
432,979	6524,15
433,187	5211,4
433,394	4007,19
433,601	3210,53
433,808	2438,45
434,016	1758,52
434,223	1518,91
434,43	1379,65
434,637	1232,19
434,844	1441,09
435,052	1396,03
435,259	1504,57
435,466	1824,06
435,673	2106,68
435,88	2512,18
436,087	2884,91
436,294	3155,24
436,501	3261,73
436,708	3372,32
436,915	3626,27
437,122	3839,26
437,329	3689,76
437,537	3915,03
437,743	3814,68
437,95	3630,37
438,157	3208,48
438,364	3022,12
438,571	2495,79
438,778	2151,73
438,985	1869,11
439,192	1709,37
439,399	1328,45
439,606	1271,11
439,813	1258,82
440,02	1189,19
440,227	1183,04
440,433	1002,82
440,64	937,29
440,847	783,69
441,054	771,4
441,261	787,79
441,467	722,25
441,674	652,62
441,881	703,82
442,088	597,32
442,294	669
442,501	601,42
442,708	544,08
442,914	544,08
443,121	615,76
443,328	722,25
443,534	865,61
443,741	918,86
443,948	974,15
444,154	1471,81
444,361	1918,26
444,568	2028,85
444,774	2522,41
444,981	2800,94
445,187	3333,41
445,394	3812,64
445,6	3847,45
445,807	4494,61
446,013	4484,37
446,22	4293,91
446,426	4637,97
446,633	4201,75
446,839	3992,86
447,046	3243,3
447,252	2884,91
447,459	2350,39
447,665	1856,83
447,871	1701,18
448,078	1580,35
448,284	1248,58
448,491	1234,24
448,697	1248,58
448,903	1324,35
449,11	1514,81
449,316	1516,86
449,522	2053,43
449,728	2229,56
449,935	2209,08
450,141	2254,13
450,347	2454,83
450,553	2426,16
450,76	2180,4
450,966	2012,47
451,172	1965,37
451,378	1596,73
451,584	1250,63
451,791	1248,58
451,997	1000,77
452,203	677,2
452,409	777,55
452,615	681,29
452,821	482,64
453,027	423,25
453,233	644,43
453,44	478,54
453,646	462,16
453,852	421,2
454,058	363,86
454,264	392,53
454,47	595,28
454,676	302,42
454,882	458,06
455,088	417,1
455,294	388,43
455,5	451,92
455,705	529,74
455,911	357,71
456,117	429,39
456,323	423,25
456,529	406,86
456,735	353,62
456,941	462,16
457,147	468,3
457,352	468,3
457,558	372,05
457,764	472,4
457,97	357,71
458,176	482,64
458,381	316,75
458,587	566,6
458,793	490,83
458,999	331,09
459,204	453,97
459,41	329,04
459,616	449,87
459,821	558,41
460,027	333,14
460,233	443,73
460,438	529,74
460,644	378,19
460,85	507,21
461,055	400,72
461,261	531,79
461,466	333,14
461,672	437,58
461,878	413,01
462,083	499,02
462,289	294,22
462,494	423,25
462,7	425,29
462,905	353,62
463,111	494,93
463,316	415,06
463,522	445,77
463,727	308,56
463,932	378,19
464,138	374,1
464,343	496,97
464,549	554,32
464,754	521,55
464,959	505,17
465,165	316,75
465,37	439,63
465,575	443,73
465,781	443,73
465,986	441,68
466,191	523,6
466,397	558,41
466,602	640,33
466,807	591,18
467,012	648,52
467,218	712,01
467,423	644,43
467,628	640,33
467,833	548,17
468,038	576,84
468,244	521,55
468,449	556,36
468,654	640,33
468,859	613,71
469,064	529,74
469,269	595,28
469,474	607,56
469,679	767,31
469,885	560,46
470,09	628,04
470,295	513,36
470,5	646,48
470,705	666,96
470,91	617,8
471,115	589,13
471,32	537,93
471,525	681,29
471,73	669
471,935	580,94
472,139	515,41
472,344	441,68
472,549	628,04
472,754	623,95
472,959	677,2
473,164	554,32
473,369	496,97
473,574	648,52
473,778	562,51
473,983	523,6
474,188	632,14
474,393	435,53
474,598	525,65
474,802	527,69
475,007	525,65
475,212	752,97
475,417	439,63
475,621	628,04
475,826	464,21
476,031	474,45
476,235	507,21
476,44	509,26
476,645	591,18
476,849	607,56
477,054	380,24
477,259	572,75
477,463	673,1
477,668	652,62
477,872	666,96
478,077	548,17
478,282	509,26
478,486	578,89
478,691	597,32
478,895	484,69
479,1	585,04
479,304	646,48
479,509	623,95
479,713	734,54
479,918	718,15
480,122	589,13
480,326	701,77
480,531	691,53
480,735	750,92
480,94	677,2
481,144	793,93
481,348	761,16
481,553	826,7
481,757	697,67
481,961	748,87
482,166	793,93
482,37	709,96
482,574	759,11
482,778	646,48
482,983	787,79
483,187	658,76
483,391	671,05
483,595	767,31
483,8	750,92
484,004	855,37
484,208	712,01
484,412	902,47
484,616	836,94
484,821	677,2
485,025	707,91
485,229	677,2
485,433	791,88
485,637	652,62
485,841	763,21
486,045	838,98
486,249	832,84
486,453	843,08
486,657	808,27
486,861	675,15
487,065	931,14
487,269	853,32
487,473	755,02
487,677	881,99
487,881	1170,76
488,085	910,66
488,289	920,9
488,493	916,81
488,697	1006,92
488,901	935,24
489,105	822,6
489,309	943,43
489,512	1029,45
489,716	968,01
489,92	857,42
490,124	963,91
490,328	1094,98
490,531	881,99
490,735	867,66
490,939	742,73
491,143	820,55
491,346	730,44
491,55	767,31
491,754	761,16
491,958	724,3
492,161	748,87
492,365	752,97
492,569	687,43
492,772	769,35
492,976	742,73
493,18	617,8
493,383	666,96
493,587	621,9
493,79	800,07
493,994	605,52
494,197	623,95
494,401	752,97
494,605	562,51
494,808	652,62
495,012	658,76
495,215	824,65
495,419	894,28
495,622	664,91
495,825	617,8
496,029	630,09
496,232	769,35
496,436	695,63
496,639	816,46
496,843	707,91
497,046	660,81
497,249	818,5
497,453	824,65
497,656	734,54
497,859	652,62
498,063	843,08
498,266	798,03
498,469	638,28
498,673	697,67
498,876	742,73
499,079	648,52
499,282	736,59
499,485	894,28
499,689	728,39
499,892	845,13
500,095	648,52
500,298	791,88
500,501	613,71
500,705	597,32
500,908	646,48
501,111	595,28
501,314	632,14
501,517	714,06
501,72	546,12
501,923	595,28
502,126	595,28
502,329	722,25
502,532	685,39
502,735	699,72
502,938	838,98
503,141	728,39
503,344	628,04
503,547	736,59
503,75	709,96
503,953	619,85
504,156	836,94
504,359	777,55
504,562	843,08
504,765	761,16
504,968	836,94
505,17	767,31
505,373	871,75
505,576	906,57
505,779	939,34
505,982	816,46
506,185	927,05
506,387	918,86
506,59	1029,45
506,793	906,57
506,996	1004,87
507,198	900,42
507,401	1002,82
507,604	1002,82
507,807	896,33
508,009	834,89
508,212	945,48
508,415	1004,87
508,617	834,89
508,82	836,94
509,022	826,7
509,225	929,1
509,428	826,7
509,63	820,55
509,833	775,5
510,035	925
510,238	798,03
510,44	716,11
510,643	746,83
510,845	890,18
511,048	898,38
511,25	712,01
511,453	824,65
511,655	851,27
511,858	963,91
512,06	1115,46
512,262	873,8
512,465	920,9
512,667	1045,83
512,87	965,96
513,072	1183,04
513,274	1107,27
513,477	1029,45
513,679	1088,84
513,881	1107,27
514,084	1111,36
514,286	1269,06
514,488	1201,47
514,69	1197,38
514,893	1117,51
515,095	1162,56
515,297	1168,71
515,499	1213,76
515,701	1097,03
515,904	1232,19
516,106	1189,19
516,308	1230,15
516,51	1013,06
516,712	1150,28
516,914	1070,41
517,116	925
517,318	902,47
517,52	984,39
517,722	863,56
517,925	818,5
518,127	767,31
518,329	857,42
518,531	671,05
518,733	666,96
518,935	648,52
519,136	771,4
519,338	576,84
519,54	685,39
519,742	658,76
519,944	742,73
520,146	603,47
520,348	619,85
520,55	609,61
520,752	572,75
520,954	691,53
521,155	499,02
521,357	685,39
521,559	775,5
521,761	863,56
521,963	699,72
522,164	775,5
522,366	720,2
522,568	793,93
522,77	701,77
522,971	761,16
523,173	671,05
523,375	746,83
523,576	693,58
523,778	654,67
523,98	736,59
524,181	836,94
524,383	810,31
524,584	806,22
524,786	795,98
524,988	712,01
525,189	873,8
525,391	865,61
525,592	656,72
525,794	773,45
525,995	722,25
526,197	945,48
526,398	906,57
526,6	783,69
526,801	783,69
527,003	636,24
527,204	838,98
527,406	783,69
527,607	693,58
527,808	691,53
528,01	734,54
528,211	830,79
528,412	560,46
528,614	783,69
528,815	767,31
529,016	734,54
529,218	597,32
529,419	662,86
529,62	564,56
529,822	767,31
530,023	693,58
530,224	679,24
530,425	666,96
530,626	642,38
530,828	644,43
531,029	582,99
531,23	740,68
531,431	681,29
531,632	644,43
531,833	709,96
532,035	685,39
532,236	703,82
532,437	814,41
532,638	818,5
532,839	718,15
533,04	886,09
533,241	898,38
533,442	951,62
533,643	965,96
533,844	795,98
534,045	867,66
534,246	943,43
534,447	908,62
534,648	849,22
534,849	1039,69
535,05	853,32
535,251	838,98
535,451	1017,16
535,652	857,42
535,853	916,81
536,054	996,68
536,255	935,24
536,456	830,79
536,657	795,98
536,857	750,92
537,058	914,76
537,259	820,55
537,46	685,39
537,66	752,97
537,861	820,55
538,062	732,49
538,263	623,95
538,463	689,48
538,664	679,24
538,865	652,62
539,065	765,26
539,266	693,58
539,466	619,85
539,667	689,48
539,868	566,6
540,068	652,62
540,269	695,63
540,469	621,9
540,67	738,63
540,87	646,48
541,071	638,28
541,271	664,91
541,472	658,76
541,672	726,35
541,873	664,91
542,073	671,05
542,274	613,71
542,474	787,79
542,675	656,72
542,875	722,25
543,075	587,08
543,276	636,24
543,476	707,91
543,676	722,25
543,877	562,51
544,077	681,29
544,277	765,26
544,478	724,3
544,678	791,88
544,878	709,96
545,078	656,72
545,279	634,19
545,479	619,85
545,679	677,2
545,879	630,09
546,079	689,48
546,28	609,61
546,48	685,39
546,68	699,72
546,88	740,68
547,08	664,91
547,28	763,21
547,48	593,23
547,68	703,82
547,88	703,82
548,081	726,35
548,281	679,24
548,481	773,45
548,681	1027,4
548,881	974,15
549,081	982,34
549,28	1092,93
549,48	1070,41
549,68	1172,8
549,88	1154,37
550,08	1070,41
550,28	1045,83
550,48	1357,12
550,68	1203,52
550,88	1119,56
551,08	1170,76
551,279	1344,83
551,479	1119,56
551,679	1074,5
551,879	947,53
552,079	1137,99
552,278	1070,41
552,478	1121,6
552,678	1064,26
552,878	916,81
553,077	859,46
553,277	730,44
553,477	707,91
553,676	877,9
553,876	652,62
554,076	802,12
554,275	1031,49
554,475	1408,32
554,674	2194,74
554,874	3046,69
555,074	5162,25
555,273	8545,49
555,473	12932,24
555,672	18854,97
555,872	26121,16
556,071	34030,41
556,271	40575,72
556,47	45632,16
556,67	49580,64
556,869	51825,21
557,068	52179,51
557,268	50242,13
557,467	47669,89
557,667	43930,29
557,866	39820,02
558,065	34671,43
558,265	29557,65
558,464	24558,56
558,663	21281,81
558,863	16882,77
559,062	14611,57
559,261	11422,89
559,461	9409,73
559,66	7279,85
559,859	5506,31
560,058	4074,78
560,258	2940,2
560,457	2149,68
560,656	1725,76
560,855	1137,99
561,054	1088,84
561,253	927,05
561,453	939,34
561,652	838,98
561,851	894,28
562,05	773,45
562,249	714,06
562,448	843,08
562,647	644,43
562,846	769,35
563,045	750,92
563,244	802,12
563,443	1006,92
563,642	1006,92
563,841	1189,19
564,04	1465,66
564,239	1531,2
564,438	1652,03
564,637	1584,45
564,836	1787,19
565,035	1785,15
565,234	1762,62
565,432	1717,56
565,631	1635,64
565,83	1660,22
566,029	1672,51
566,228	1490,24
566,427	1668,41
566,625	1502,53
566,824	1557,82
567,023	1613,12
567,222	1529,15
567,42	1572,16
567,619	1520,96
567,818	1377,6
568,016	1590,59
568,215	1275,2
568,414	1340,74
568,612	1217,86
568,811	1066,31
569,01	1191,24
569,208	998,73
569,407	1105,22
569,605	1090,88
569,804	1049,93
570,002	1137,99
570,201	920,9
570,4	1031,49
570,598	1045,83
570,797	922,95
570,995	925
571,193	941,38
571,392	998,73
571,59	908,62
571,789	965,96
571,987	1006,92
572,186	978,25
572,384	816,46
572,582	851,27
572,781	994,63
572,979	744,78
573,177	859,46
573,376	767,31
573,574	800,07
573,772	644,43
573,971	607,56
574,169	613,71
574,367	732,49
574,565	591,18
574,763	630,09
574,962	640,33
575,16	662,86
575,358	605,52
575,556	652,62
575,754	644,43
575,952	640,33
576,151	638,28
576,349	703,82
576,547	529,74
576,745	578,89
576,943	638,28
577,141	496,97
577,339	449,87
577,537	593,23
577,735	705,87
577,933	640,33
578,131	589,13
578,329	744,78
578,527	642,38
578,725	712,01
578,923	492,88
579,121	623,95
579,319	458,06
579,516	636,24
579,714	841,03
579,912	499,02
580,11	533,84
580,308	521,55
580,506	550,22
580,704	537,93
580,901	515,41
581,099	795,98
581,297	820,55
581,495	795,98
581,692	1043,78
581,89	1242,43
582,088	1314,11
582,285	1434,94
582,483	1590,59
582,681	1523,01
582,878	1602,88
583,076	1652,03
583,274	1768,76
583,471	1768,76
583,669	1516,86
583,866	1365,31
584,064	1262,91
584,262	1205,57
584,459	1064,26
584,657	1164,61
584,854	1154,37
585,052	1285,44
585,249	2088,25
585,447	4226,32
585,644	8398,04
585,841	15461,48
586,039	24189,92
586,236	33033,05
586,434	40811,24
586,631	47612,54
586,828	52316,73
587,026	54534,68
587,223	54725,14
587,42	52820,53
587,618	49797,73
587,815	46023,32
588,012	42048,21
588,21	37249,82
588,407	32441,19
588,604	27677,61
588,801	23446,51
588,999	19598,38
589,196	16618,58
589,393	13399,18
589,59	11197,61
589,787	8852,69
589,984	6943,98
590,182	5154,05
590,379	3710,24
590,576	2817,32
590,773	2016,57
590,97	1447,23
591,167	1324,35
591,364	1086,79
591,561	841,03
591,758	841,03
591,955	718,15
592,152	615,76
592,349	519,5
592,546	486,73
592,743	587,08
592,94	519,5
593,137	505,17
593,334	648,52
593,531	621,9
593,727	515,41
593,924	505,17
594,121	425,29
594,318	413,01
594,515	505,17
594,712	574,8
594,908	472,4
595,105	361,81
595,302	484,69
595,499	484,69
595,696	554,32
595,892	462,16
596,089	501,07
596,286	359,76
596,482	519,5
596,679	410,96
596,876	398,67
597,072	537,93
597,269	447,82
597,466	509,26
597,662	521,55
597,859	509,26
598,055	939,34
598,252	1045,83
598,448	1299,78
598,645	1549,63
598,841	1862,97
599,038	2108,73
599,234	2161,97
599,431	2155,83
599,627	2221,36
599,824	2204,98
600,02	2237,75
600,217	2121,01
600,413	2362,67
600,609	2233,65
600,806	2579,76
601,002	2327,86
601,198	2112,82
601,395	2245,94
601,591	2067,77
601,787	1926,46
601,984	1948,98
602,18	1758,52
602,376	1545,53
602,572	1480
602,769	1463,62
602,965	1318,21
603,161	1334,59
603,357	1260,87
603,553	1353,02
603,75	1029,45
603,946	1125,7
604,142	1203,52
604,338	1340,74
604,534	1441,09
604,73	1533,25
604,926	1705,28
605,122	1766,71
605,318	1799,48
605,514	1889,59
605,71	1819,96
605,906	1819,96
606,102	1742,14
606,298	1729,85
606,494	1570,11
606,69	1529,15
606,886	1393,98
607,082	1375,55
607,278	1334,59
607,474	1410,37
607,67	1447,23
607,866	1254,72
608,062	1375,55
608,257	1330,5
608,453	1117,51
608,649	1287,49
608,845	1035,59
609,041	957,77
609,236	920,9
609,432	890,18
609,628	906,57
609,824	828,74
610,019	597,32
610,215	705,87
610,411	691,53
610,606	824,65
610,802	521,55
610,998	539,98
611,193	570,7
611,389	496,97
611,584	621,9
611,78	423,25
611,976	515,41
612,171	732,49
612,367	468,3
612,562	482,64
612,758	550,22
612,953	419,15
613,149	464,21
613,344	472,4
613,539	488,78
613,735	550,22
613,93	558,41
614,126	564,56
614,321	599,37
614,517	744,78
614,712	689,48
614,907	681,29
615,103	769,35
615,298	521,55
615,493	513,36
615,688	548,17
615,884	599,37
616,079	537,93
616,274	546,12
616,47	423,25
616,665	490,83
616,86	423,25
617,055	439,63
617,25	351,57
617,445	417,1
617,641	456,01
617,836	384,34
618,031	326,99
618,226	503,12
618,421	453,97
618,616	320,85
618,811	361,81
619,006	292,18
619,201	394,58
619,396	413,01
619,591	302,42
619,786	326,99
619,981	410,96
620,176	390,48
620,371	314,7
620,566	286,03
620,761	427,34
620,956	374,1
621,151	359,76
621,346	529,74
621,541	470,35
621,735	574,8
621,93	453,97
622,125	511,31
622,32	408,91
622,515	443,73
622,709	793,93
622,904	783,69
623,099	824,65
623,294	927,05
623,488	904,52
623,683	832,84
623,878	836,94
624,072	892,23
624,267	615,76
624,462	658,76
624,656	488,78
624,851	603,47
625,046	517,45
625,24	509,26
625,435	521,55
625,629	525,65
625,824	595,28
626,018	533,84
626,213	513,36
626,407	415,06
626,602	382,29
626,796	277,84
626,991	408,91
627,185	382,29
627,38	365,9
627,574	476,49
627,768	406,86
627,963	318,8
628,157	406,86
628,352	275,79
628,546	288,08
628,74	367,95
628,935	316,75
629,129	286,03
629,323	320,85
629,517	152,91
629,712	277,84
629,906	294,22
630,1	361,81
630,294	365,9
630,489	363,86
630,683	238,93
630,877	296,27
631,071	376,14
631,265	243,03
631,459	247,12
631,653	290,13
631,848	314,7
632,042	329,04
632,236	179,54
632,43	294,22
632,624	316,75
632,818	296,27
633,012	263,51
633,206	214,35
633,4	271,7
633,594	394,58
633,788	384,34
633,982	441,68
634,176	595,28
634,369	378,19
634,563	484,69
634,757	396,62
634,951	496,97
635,145	488,78
635,339	474,45
635,533	552,27
635,726	453,97
635,92	318,8
636,114	423,25
636,308	406,86
636,501	494,93
636,695	576,84
636,889	478,54
637,083	630,09
637,276	595,28
637,47	499,02
637,664	568,65
637,857	605,52
638,051	562,51
638,244	617,8
638,438	511,31
638,632	589,13
638,825	367,95
639,019	595,28
639,212	427,34
639,406	554,32
639,599	480,59
639,793	542,03
639,986	529,74
640,18	648,52
640,373	537,93
640,567	636,24
640,76	832,84
640,954	1008,97
641,147	1107,27
641,34	1367,36
641,534	1725,76
641,727	1953,08
641,92	1967,42
642,114	2108,73
642,307	2028,85
642,5	1979,7
642,694	1772,86
642,887	1799,48
643,08	1621,31
643,273	1580,35
643,467	1299,78
643,66	1162,56
643,853	1168,71
644,046	1131,84
644,239	1178,95
644,432	1492,29
644,626	1770,81
644,819	2082,1
645,012	2649,39
645,205	2999,59
645,398	3341,6
645,591	3257,64
645,784	3233,06
645,977	2985,26
646,17	2864,43
646,363	2620,72
646,556	2512,18
646,749	2262,32
646,942	2020,66
647,135	2000,18
647,328	1754,43
647,521	1664,32
647,714	1469,76
647,907	1387,84
648,099	1158,47
648,292	1170,76
648,485	998,73
648,678	980,29
648,871	861,51
649,064	947,53
649,256	726,35
649,449	722,25
649,642	527,69
649,835	666,96
650,027	605,52
650,22	703,82
650,413	554,32
650,605	695,63
650,798	595,28
650,991	572,75
651,183	515,41
651,376	619,85
651,568	628,04
651,761	476,49
651,954	523,6
652,146	554,32
652,339	560,46
652,531	623,95
652,724	382,29
652,916	488,78
653,109	326,99
653,301	562,51
653,494	580,94
653,686	558,41
653,879	640,33
654,071	585,04
654,263	509,26
654,456	447,82
654,648	662,86
654,84	605,52
655,033	566,6
655,225	834,89
655,417	652,62
655,61	998,73
655,802	1119,56
655,994	1185,09
656,186	978,25
656,379	1248,58
656,571	1017,16
656,763	1017,16
656,955	1103,17
657,148	849,22
657,34	988,49
657,532	910,66
657,724	785,74
657,916	896,33
658,108	849,22
658,3	750,92
658,492	587,08
658,684	617,8
658,876	609,61
659,068	421,2
659,26	439,63
659,452	433,49
659,644	441,68
659,836	556,36
660,028	372,05
660,22	365,9
660,412	333,14
660,604	384,34
660,796	378,19
660,988	441,68
661,18	333,14
661,372	480,59
661,563	353,62
661,755	279,89
661,947	294,22
662,139	232,79
662,331	310,61
662,522	318,8
662,714	187,73
662,906	226,64
663,097	277,84
663,289	251,22
663,481	185,68
663,673	322,9
663,864	281,94
664,056	382,29
664,247	351,57
664,439	572,75
664,631	548,17
664,822	630,09
665,014	677,2
665,205	566,6
665,397	709,96
665,588	650,57
665,78	582,99
665,971	718,15
666,163	572,75
666,354	566,6
666,546	451,92
666,737	488,78
666,929	382,29
667,12	359,76
667,311	488,78
667,503	345,42
667,694	343,38
667,885	431,44
668,077	353,62
668,268	236,88
668,459	247,12
668,651	415,06
668,842	503,12
669,033	458,06
669,224	580,94
669,416	939,34
669,607	689,48
669,798	767,31
669,989	970,05
670,18	841,03
670,371	730,44
670,563	654,67
670,754	755,02
670,945	793,93
671,136	791,88
671,327	507,21
671,518	695,63
671,709	679,24
671,9	623,95
672,091	552,27
672,282	535,89
672,473	488,78
672,664	343,38
672,855	417,1
673,046	521,55
673,237	523,6
673,428	437,58
673,619	443,73
673,809	417,1
674	529,74
674,191	433,49
674,382	476,49
674,573	361,81
674,764	343,38
674,954	376,14
675,145	363,86
675,336	398,67
675,527	271,7
675,717	312,66
675,908	247,12
676,099	240,98
676,289	308,56
676,48	257,36
676,671	195,92
676,861	314,7
677,052	259,41
677,243	220,5
677,433	277,84
677,624	253,27
677,814	277,84
678,005	171,35
678,195	353,62
678,386	193,87
678,576	271,7
678,767	234,83
678,957	359,76
679,148	302,42
679,338	345,42
679,529	310,61
679,719	218,45
679,909	343,38
680,1	388,43
680,29	390,48
680,481	329,04
680,671	585,04
680,861	703,82
681,052	652,62
681,242	644,43
681,432	726,35
681,622	761,16
681,813	521,55
682,003	644,43
682,193	619,85
682,383	574,8
682,573	521,55
682,764	464,21
682,954	521,55
683,144	535,89
683,334	519,5
683,524	382,29
683,714	443,73
683,904	425,29
684,094	437,58
684,284	361,81
684,474	542,03
684,664	394,58
684,854	488,78
685,044	279,89
685,234	408,91
685,424	326,99
685,614	251,22
685,804	478,54
685,994	343,38
686,184	376,14
686,374	367,95
686,564	324,94
686,753	392,53
686,943	316,75
687,133	394,58
687,323	382,29
687,513	333,14
687,702	376,14
687,892	349,52
688,082	320,85
688,272	460,11
688,461	320,85
688,651	492,88
688,841	351,57
689,03	316,75
689,22	283,99
689,41	554,32
689,599	853,32
689,789	963,91
689,979	1471,81
690,168	1477,95
690,358	1647,93
690,547	1641,79
690,737	1527,1
690,926	1418,56
691,116	1365,31
691,305	1469,76
691,495	1158,47
691,684	1035,59
691,874	1025,35
692,063	949,57
692,252	953,67
692,442	935,24
692,631	750,92
692,82	669
693,01	548,17
693,199	449,87
693,388	539,98
693,578	415,06
693,767	402,77
693,956	433,49
694,146	318,8
694,335	400,72
694,524	185,68
694,713	400,72
694,902	283,99
695,092	271,7
695,281	349,52
695,47	347,47
695,659	232,79
695,848	308,56
696,037	335,18
696,226	394,58
696,415	308,56
696,604	410,96
696,793	365,9
696,982	337,23
697,171	392,53
697,36	281,94
697,549	351,57
697,738	281,94
697,927	324,94
698,116	267,6
698,305	417,1
698,494	331,09
698,683	294,22
698,872	441,68
699,061	318,8
699,25	329,04
699,438	382,29
699,627	326,99
699,816	456,01
700,005	300,37
700,193	333,14
700,382	456,01
700,571	355,66
700,76	324,94
700,948	429,39
701,137	380,24
701,326	337,23
701,514	238,93
701,703	410,96
701,892	374,1
702,08	521,55
702,269	259,41
702,457	243,03
702,646	337,23
702,834	281,94
703,023	404,82
703,212	306,51
703,4	210,26
703,589	230,74
703,777	271,7
703,965	267,6
704,154	269,65
704,342	187,73
704,531	222,55
704,719	341,33
704,907	410,96
705,096	226,64
705,284	302,42
705,472	351,57
705,661	419,15
705,849	384,34
706,037	425,29
706,226	347,47
706,414	329,04
706,602	212,31
706,79	394,58
706,979	152,91
707,167	236,88
707,355	171,35
707,543	316,75
707,731	310,61
707,919	308,56
708,107	163,15
708,296	152,91
708,484	202,07
708,672	249,17
708,86	251,22
709,048	304,46
709,236	191,83
709,424	265,55
709,612	259,41
709,8	120,15
709,988	238,93
710,176	343,38
710,364	349,52
710,551	312,66
710,739	220,5
710,927	183,63
711,115	226,64
711,303	288,08
711,491	304,46
711,679	140,63
711,866	236,88
712,054	251,22
712,242	161,11
712,43	277,84
712,617	163,15
712,805	341,33
712,993	218,45
713,181	93,52
713,368	290,13
713,556	165,2
713,744	218,45
713,931	384,34
714,119	257,36
714,306	169,3
714,494	247,12
714,682	292,18
714,869	138,58
715,057	210,26
715,244	183,63
715,432	210,26
715,619	204,11
715,807	222,55
715,994	292,18
716,182	230,74
716,369	210,26
716,556	320,85
716,744	71
716,931	195,92
717,119	202,07
717,306	150,87
717,493	296,27
717,681	157,01
717,868	179,54
718,055	218,45
718,242	116,05
718,43	247,12
718,617	210,26
718,804	101,72
718,991	312,66
719,179	161,11
719,366	300,37
719,553	177,49
719,74	208,21
719,927	216,4
720,114	177,49
720,301	126,29
720,488	167,25
720,676	202,07
720,863	376,14
721,05	413,01
721,237	372,05
721,424	744,78
721,611	939,34
721,798	1092,93
721,985	1430,85
722,172	1715,52
722,358	1848,63
722,545	2002,23
722,732	1848,63
722,919	1852,73
723,106	1613,12
723,293	1590,59
723,48	1420,61
723,667	1291,59
723,853	1250,63
724,04	1236,29
724,227	1213,76
724,414	1035,59
724,6	867,66
724,787	1033,54
724,974	918,86
725,161	701,77
725,347	603,47
725,534	658,76
725,72	542,03
725,907	617,8
726,094	529,74
726,28	449,87
726,467	535,89
726,653	388,43
726,84	556,36
727,027	535,89
727,213	400,72
727,4	525,65
727,586	574,8
727,773	791,88
727,959	896,33
728,145	1074,5
728,332	1267,01
728,518	1492,29
728,705	1594,68
728,891	1656,12
729,077	1406,27
729,264	1371,46
729,45	1267,01
729,636	1422,66
729,823	1260,87
730,009	1271,11
730,195	1166,66
730,382	1103,17
730,568	906,57
730,754	943,43
730,94	845,13
731,126	804,17
731,313	724,3
731,499	681,29
731,685	662,86
731,871	623,95
732,057	648,52
732,243	615,76
732,429	519,5
732,615	578,89
732,801	513,36
732,987	480,59
733,173	527,69
733,359	488,78
733,545	533,84
733,731	564,56
733,917	587,08
734,103	507,21
734,289	501,07
734,475	396,62
734,661	679,24
734,847	537,93
735,033	611,66
735,219	599,37
735,404	513,36
735,59	519,5
735,776	464,21
735,962	591,18
736,148	611,66
736,333	726,35
736,519	523,6
736,705	587,08
736,89	615,76
737,076	623,95
737,262	460,11
737,447	509,26
737,633	496,97
737,819	707,91
738,004	458,06
738,19	566,6
738,375	572,75
738,561	597,32
738,747	439,63
738,932	476,49
739,118	777,55
739,303	654,67
739,489	666,96
739,674	484,69
739,859	560,46
740,045	558,41
740,23	509,26
740,416	484,69
740,601	505,17
740,786	638,28
740,972	523,6
741,157	617,8
741,342	408,91
741,528	517,45
741,713	822,6
741,898	718,15
742,084	963,91
742,269	1103,17
742,454	1193,28
742,639	1273,15
742,824	1113,41
743,01	1236,29
743,195	1236,29
743,38	1002,82
743,565	998,73
743,75	941,38
743,935	982,34
744,12	1123,65
744,305	767,31
744,49	851,27
744,675	857,42
744,86	820,55
745,045	841,03
745,23	863,56
745,415	787,79
745,6	761,16
745,785	709,96
745,97	736,59
746,155	824,65
746,34	808,27
746,525	748,87
746,71	828,74
746,895	587,08
747,079	623,95
747,264	744,78
747,449	810,31
747,634	1002,82
747,819	1125,7
748,003	1377,6
748,188	1572,16
748,373	1901,88
748,557	2176,31
748,742	2389,3
748,927	2430,26
749,111	2422,06
749,296	2422,06
749,481	2393,39
749,665	2383,15
749,85	2223,41
750,034	2088,25
750,219	1930,55
750,404	1772,86
750,588	1813,82
750,773	1631,55
750,957	1529,15
751,141	1410,37
751,326	1441,09
751,51	1248,58
751,695	1133,89
751,879	1113,41
752,064	1137,99
752,248	871,75
752,432	1074,5
752,617	945,48
752,801	1043,78
752,985	949,57
753,17	965,96
753,354	1043,78
753,538	912,71
753,722	968,01
753,907	941,38
754,091	939,34
754,275	1027,4
754,459	972,1
754,643	1017,16
754,828	1148,23
755,012	1221,95
755,196	1217,86
755,38	1324,35
755,564	1455,42
755,748	1537,34
755,932	1725,76
756,116	1729,85
756,3	1948,98
756,484	2020,66
756,668	2239,8
756,852	2399,54
757,036	2520,37
757,22	3067,17
757,404	5358,85
757,588	13579,4
757,772	36735,78
757,956	63611,27
758,14	63611,27
758,323	63611,27
758,507	63611,27
758,691	63611,27
758,875	63611,27
759,059	63611,27
759,242	63611,27
759,426	63611,27
759,61	63611,27
759,794	63611,27
759,977	63611,27
760,161	63611,27
760,345	63611,27
760,528	63611,27
760,712	63611,27
760,895	63611,27
761,079	63611,27
761,263	63611,27
761,446	63611,27
761,63	63611,27
761,813	63611,27
761,997	63611,27
762,18	63611,27
762,364	63611,27
762,547	63611,27
762,731	63611,27
762,914	63611,27
763,098	63611,27
763,281	63611,27
763,464	63611,27
763,648	63611,27
763,831	63611,27
764,015	63611,27
764,198	63611,27
764,381	63611,27
764,564	63611,27
764,748	63611,27
764,931	63611,27
765,114	63611,27
765,297	63611,27
765,481	63611,27
765,664	63611,27
765,847	63611,27
766,03	63611,27
766,213	63611,27
766,397	63611,27
766,58	63611,27
766,763	63611,27
766,946	63611,27
767,129	63611,27
767,312	63611,27
767,495	63611,27
767,678	63611,27
767,861	63611,27
768,044	63611,27
768,227	63611,27
768,41	63611,27
768,593	63611,27
768,776	63611,27
768,959	63611,27
769,142	63611,27
769,324	63611,27
769,507	63611,27
769,69	63611,27
769,873	63611,27
770,056	63611,27
770,239	63611,27
770,421	63611,27
770,604	63611,27
770,787	63611,27
770,97	63611,27
771,152	63611,27
771,335	63611,27
771,518	63611,27
771,7	63611,27
771,883	63611,27
772,066	63611,27
772,248	63611,27
772,431	63611,27
772,613	63611,27
772,796	63611,27
772,978	63611,27
773,161	63611,27
773,343	63611,27
773,526	63611,27
773,708	63611,27
773,891	63611,27
774,073	63611,27
774,256	63611,27
774,438	63611,27
774,621	63611,27
774,803	63611,27
774,985	63611,27
775,168	63611,27
775,35	63611,27
775,532	63611,27
775,715	63611,27
775,897	63611,27
776,079	63611,27
776,261	63611,27
776,444	63611,27
776,626	63611,27
776,808	63611,27
776,99	63611,27
777,173	63611,27
777,355	63611,27
777,537	63611,27
777,719	63611,27
777,901	63611,27
778,083	63611,27
778,265	63611,27
778,447	63611,27
778,629	63611,27
778,811	63611,27
778,993	63611,27
779,175	63611,27
779,357	63611,27
779,539	63611,27
779,721	63611,27
779,903	63611,27
780,085	63611,27
780,267	63611,27
780,449	63611,27
780,631	63611,27
780,812	63611,27
780,994	63611,27
781,176	63611,27
781,358	63611,27
781,54	63611,27
781,721	63611,27
781,903	63611,27
782,085	63611,27
782,267	63611,27
782,448	63611,27
782,63	63611,27
782,812	63611,27
782,993	63611,27
783,175	63611,27
783,357	63611,27
783,538	63611,27
783,72	63611,27
783,901	63611,27
784,083	63611,27
784,264	63611,27
784,446	63611,27
784,627	63611,27
784,809	63611,27
784,99	63611,27
785,172	63611,27
785,353	63611,27
785,535	63611,27
785,716	63611,27
785,897	63611,27
786,079	63611,27
786,26	63611,27
786,441	63611,27
786,623	63611,27
786,804	63611,27
786,985	63611,27
787,167	63611,27
787,348	63611,27
787,529	63611,27
787,71	63611,27
787,891	63611,27
788,073	63611,27
788,254	63611,27
788,435	63611,27
788,616	54059,55
788,797	49289,83
788,978	4736,27
789,159	3538,21
789,34	2893,1
789,522	2329,91
789,703	2037,05
789,884	1981,75
790,065	1854,78
790,246	1955,13
790,427	2241,84
790,607	2809,13
790,788	3362,08
790,969	3577,12
791,15	4160,79
791,331	4439,31
791,512	4570,38
791,693	4515,09
791,874	4517,14
792,054	4732,17
792,235	4785,42
792,416	4992,27
792,597	4994,31
792,778	5057,8
792,958	4869,39
793,139	4594,96
793,32	4259,09
793,5	3806,49
793,681	3644,7
793,862	3294,5
794,042	2936,1
794,223	2489,65
794,404	2307,38
794,584	1965,37
794,765	1908,02
794,945	1705,28
795,126	1686,84
795,306	1465,66
795,487	1340,74
795,667	1307,97
795,848	1185,09
796,028	1103,17
796,209	1021,25
796,389	1037,64
796,57	851,27
796,75	769,35
796,93	945,48
797,111	818,5
797,291	906,57
797,471	1092,93
797,652	949,57
797,832	1076,55
798,012	1299,78
798,192	1187,14
798,373	1117,51
798,553	1232,19
798,733	1307,97
798,913	1226,05
799,093	1090,88
799,274	1221,95
799,454	1211,71
799,634	1217,86
799,814	1056,07
799,994	1129,8
800,174	1113,41
800,354	1041,73
800,534	867,66
800,714	1074,5
800,894	871,75
801,074	836,94
801,254	927,05
801,434	1082,69
801,614	953,67
801,794	914,76
801,974	2788,65
802,154	996,68
802,334	1164,61
802,514	1031,49
802,693	1111,36
802,873	1074,5
803,053	1275,2
803,233	1189,19
803,413	1209,67
803,592	1127,75
803,772	1115,46
803,952	1236,29
804,131	1189,19
804,311	1363,26
804,491	1752,38
804,67	2581,81
804,85	5395,72
805,03	11596,96
805,209	22402,05
805,389	35998,51
805,568	46963,34
805,748	55613,96
805,928	61002,16
806,107	63611,27
806,287	62060,96
806,466	58051,04
806,646	49758,81
806,825	43172,55
807,004	37311,26
807,184	31597,43
807,363	26983,35
807,543	23532,53
807,722	20433,95
807,901	18295,87
808,081	16448,6
808,26	14873,71
808,439	13788,29
808,619	12956,82
808,798	12002,46
808,977	10896,56
809,156	12784,79
809,336	20681,75
809,515	39527,16
809,694	63611,27
809,873	63611,27
810,052	63611,27
810,231	63611,27
810,411	63611,27
810,59	63611,27
810,769	63611,27
810,948	63611,27
811,127	63611,27
811,306	63611,27
811,485	63611,27
811,664	63611,27
811,843	63611,27
812,022	63611,27
812,201	63611,27
812,38	63611,27
812,559	63611,27
812,737	63611,27
812,916	63611,27
813,095	63611,27
813,274	63611,27
813,453	63611,27
813,632	63611,27
813,811	63611,27
813,989	63611,27
814,168	63611,27
814,347	63611,27
814,526	63611,27
814,704	63611,27
814,883	63611,27
815,062	63611,27
815,24	63611,27
815,419	63611,27
815,598	63611,27
815,776	63611,27
815,955	63611,27
816,133	63611,27
816,312	63611,27
816,49	63611,27
816,669	63611,27
816,847	63611,27
817,026	63611,27
817,204	63611,27
817,383	63611,27
817,561	63611,27
817,74	63611,27
817,918	63611,27
818,097	63611,27
818,275	63611,27
818,453	63611,27
818,632	63611,27
818,81	63611,27
818,988	63611,27
819,167	63611,27
819,345	63611,27
819,523	63611,27
819,701	63611,27
819,879	63611,27
820,058	63611,27
820,236	63611,27
820,414	63611,27
820,592	63611,27
820,77	63611,27
820,948	63611,27
821,127	63611,27
821,305	63611,27
821,483	63611,27
821,661	63611,27
821,839	63611,27
822,017	63611,27
822,195	63611,27
822,373	63611,27
822,551	63611,27
822,729	63611,27
822,907	63611,27
823,085	63611,27
823,262	63611,27
823,44	63611,27
823,618	63611,27
823,796	63611,27
823,974	63611,27
824,152	63611,27
824,329	63611,27
824,507	63611,27
824,685	63611,27
824,863	63611,27
825,04	63611,27
825,218	63611,27
825,396	63611,27
825,574	63611,27
825,751	63611,27
825,929	63611,27
826,107	63611,27
826,284	63611,27
826,462	63611,27
826,639	63611,27
826,817	63611,27
826,994	63611,27
827,172	63611,27
827,349	63611,27
827,527	63611,27
827,704	63611,27
827,882	63611,27
828,059	63611,27
828,237	63611,27
828,414	63611,27
828,591	63611,27
828,769	63611,27
828,946	63611,27
829,124	63611,27
829,301	63611,27
829,478	63611,27
829,655	63611,27
829,833	63611,27
830,01	63611,27
830,187	63611,27
830,364	63611,27
830,542	63611,27
830,719	63611,27
830,896	63611,27
831,073	63611,27
831,25	63611,27
831,427	63611,27
831,604	63611,27
831,782	63611,27
831,959	63611,27
832,136	63611,27
832,313	63611,27
832,49	63611,27
832,667	63611,27
832,844	63611,27
833,021	63611,27
833,198	63611,27
833,374	63611,27
833,551	63611,27
833,728	63611,27
833,905	63611,27
834,082	63611,27
834,259	63611,27
834,436	63611,27
834,612	63611,27
834,789	63611,27
834,966	63611,27
835,143	63611,27
835,319	63611,27
835,496	63611,27
835,673	63611,27
835,85	63611,27
836,026	63611,27
836,203	63611,27
836,38	63611,27
836,556	63611,27
836,733	63611,27
836,909	63611,27
837,086	63611,27
837,262	63611,27
837,439	63611,27
837,616	63611,27
837,792	63611,27
837,968	63611,27
838,145	63611,27
838,321	63611,27
838,498	63611,27
838,674	63611,27
838,851	63611,27
839,027	63611,27
839,203	63611,27
839,38	63611,27
839,556	63611,27
839,732	63611,27
839,909	63611,27
840,085	63611,27
840,261	63611,27
840,437	63611,27
840,614	63611,27
840,79	63611,27
840,966	63611,27
841,142	63611,27
841,318	63611,27
841,494	63611,27
841,671	63611,27
841,847	63611,27
842,023	63611,27
842,199	63611,27
842,375	63611,27
842,551	63611,27
842,727	63611,27
842,903	63611,27
843,079	63611,27
843,255	63611,27
843,431	63611,27
843,607	63611,27
843,783	63611,27
843,959	28244,9
844,134	28392,36
844,31	638,28
844,486	503,12
844,662	449,87
844,838	507,21
845,013	392,53
845,189	456,01
845,365	423,25
845,541	337,23
845,716	382,29
845,892	423,25
846,068	357,71
846,244	288,08
846,419	296,27
846,595	298,32
846,77	286,03
846,946	413,01
847,122	290,13
847,297	306,51
847,473	382,29
847,648	318,8
847,824	294,22
847,999	175,44
848,175	253,27
848,35	376,14
848,526	310,61
848,701	439,63
848,876	431,44
849,052	458,06
849,227	447,82
849,403	626
849,578	1338,69
849,753	3491,1
849,929	7050,47
850,104	12348,57
850,279	18744,38
850,454	25054,17
850,63	29258,65
850,805	31511,41
850,98	31849,33
851,155	30331,78
851,33	26989,5
851,505	23247,86
851,681	20206,62
851,856	17503,31
852,031	16204,89
852,206	14826,61
852,381	13485,19
852,556	12659,86
852,731	11658,4
852,906	10992,81
853,081	10140,86
853,256	9520,32
853,431	8783,06
853,606	8041,69
853,781	7337,19
853,956	6823,15
854,131	6235,38
854,305	5416,19
854,48	4603,15
854,655	3656,99
854,83	2602,29
855,005	2018,61
855,18	1555,77
855,354	1070,41
855,529	931,14
855,704	675,15
855,879	623,95
856,053	400,72
856,228	521,55
856,403	337,23
856,577	492,88
856,752	314,7
856,926	333,14
857,101	318,8
857,276	189,78
857,45	308,56
857,625	466,25
857,799	335,18
857,974	290,13
858,148	271,7
858,323	247,12
858,497	228,69
858,672	263,51
858,846	171,35
859,02	296,27
859,195	173,39
859,369	234,83
859,543	300,37
859,718	247,12
859,892	331,09
860,066	314,7
860,241	257,36
860,415	290,13
860,589	222,55
860,763	283,99
860,938	218,45
861,112	310,61
861,286	222,55
861,46	281,94
861,634	179,54
861,808	251,22
861,982	257,36
862,157	202,07
862,331	193,87
862,505	200,02
862,679	87,38
862,853	181,59
863,027	259,41
863,201	390,48
863,375	214,35
863,549	202,07
863,722	298,32
863,896	408,91
864,07	191,83
864,244	165,2
864,418	324,94
864,592	408,91
864,766	288,08
864,939	185,68
865,113	216,4
865,287	341,33
865,461	150,87
865,634	245,07
865,808	259,41
865,982	148,82
866,156	195,92
866,329	152,91
866,503	202,07
866,676	310,61
866,85	271,7
867,024	222,55
867,197	255,31
867,371	277,84
867,544	228,69
867,718	245,07
867,891	376,14
868,065	111,96
868,238	204,11
868,412	402,77
868,585	234,83
868,759	204,11
868,932	230,74
869,105	177,49
869,279	261,46
869,452	230,74
869,625	329,04
869,799	251,22
869,972	245,07
870,145	220,5
870,319	341,33
870,492	316,75
870,665	220,5
870,838	238,93
871,011	195,92
871,185	234,83
871,358	253,27
871,531	245,07
871,704	226,64
871,877	275,79
872,05	142,68
872,223	236,88
872,396	367,95
872,569	292,18
872,742	296,27
872,915	408,91
873,088	331,09
873,261	283,99
873,434	439,63
873,607	339,28
873,78	464,21
873,953	279,89
874,126	402,77
874,299	441,68
874,471	288,08
874,644	320,85
874,817	470,35
874,99	597,32
875,163	456,01
875,335	572,75
875,508	535,89
875,681	742,73
875,853	761,16
876,026	1236,29
876,199	2135,35
876,371	4037,91
876,544	8508,63
876,717	16260,19
876,889	27722,67
877,062	40966,88
877,234	53824,03
877,407	63365,52
877,579	63611,27
877,752	63611,27
877,924	63611,27
878,097	63611,27
878,269	63611,27
878,442	63611,27
878,614	63611,27
878,786	63611,27
878,959	63611,27
879,131	63611,27
879,303	63611,27
879,476	63611,27
879,648	57577,96
879,82	44634,8
879,993	41157,35
880,165	37989,14
880,337	35576,63
880,509	33594,2
880,681	31718,26
880,854	29619,09
881,026	28054,44
881,198	25144,28
881,37	22258,69
881,542	18824,25
881,714	15375,47
881,886	12162,2
882,058	9127,11
882,23	6442,23
882,402	4652,3
882,574	3454,24
882,746	2434,35
882,918	1934,65
883,09	1447,23
883,262	1015,11
883,434	918,86
883,606	644,43
883,778	640,33
883,95	785,74
884,122	480,59
884,293	597,32
884,465	503,12
884,637	470,35
884,809	390,48
884,98	417,1
885,152	374,1
885,324	484,69
885,496	292,18
885,667	290,13
885,839	361,81
886,011	449,87
886,182	355,66
886,354	400,72
886,525	447,82
886,697	413,01
886,869	206,16
887,04	218,45
887,212	374,1
887,383	413,01
887,555	312,66
887,726	206,16
887,897	173,39
888,069	212,31
888,24	341,33
888,412	245,07
888,583	312,66
888,754	277,84
888,926	105,81
889,097	236,88
889,268	181,59
889,44	310,61
889,611	210,26
889,782	214,35
889,953	163,15
890,125	398,67
890,296	222,55
890,467	339,28
890,638	357,71
890,809	316,75
890,98	279,89
891,151	507,21
891,323	730,44
891,494	1082,69
891,665	2022,71
891,836	3790,11
892,007	6868,2
892,178	11220,14
892,349	16792,66
892,52	23231,47
892,691	30471,04
892,862	35799,86
893,032	41583,32
893,203	45083,3
893,374	46877,32
893,545	47477,38
893,716	46557,84
893,887	45023,91
894,057	42775,24
894,228	40168,18
894,399	38609,67
894,57	36193,07
894,74	34044,75
894,911	31654,77
895,082	29782,93
895,253	27734,96
895,423	26508,22
895,594	24490,98
895,764	23311,35
895,935	21586,96
896,106	20524,06
896,276	19340,33
896,447	18193,47
896,617	16356,44
896,788	14662,77
896,958	12321,95
897,129	9927,87
897,299	8043,74
897,47	6208,76
897,64	4705,55
897,81	3343,65
897,981	2438,45
898,151	1779
898,322	1398,08
898,492	1101,12
898,662	818,5
898,832	666,96
899,003	587,08
899,173	615,76
899,343	380,24
899,513	333,14
