Data from krypton_USB4F104151__5__11-01-34-410.txt Node

Date: Wed Apr 15 11:01:34 EDT 2026
User: LaboPhy
Spectrometer: USB4F10415
Trigger mode: 4
Integration Time (sec): 1,000000E-1
Scans to average: 1
Electric dark correction enabled: true
Nonlinearity correction enabled: false
Boxcar width: 0
XAxis mode: Wavelengths
Number of Pixels in Spectrum: 3648
>>>>>Begin Spectral Data<<<<<
178,204	-425,12
178,424	-425,12
178,644	-425,12
178,864	-478,37
179,084	-484,52
179,304	-3,24
179,524	-60,59
179,744	0,85
179,964	80,72
180,184	74,58
180,404	88,92
180,624	-42,15
180,844	-40,11
181,064	-105,64
181,283	68,44
181,503	-83,11
181,723	21,33
181,943	-101,55
182,163	189,27
182,383	-23,72
182,602	45,91
182,822	191,31
183,042	168,79
183,262	-7,34
183,482	35,67
183,701	62,29
183,921	136,02
184,141	11,09
184,361	133,97
184,58	181,07
184,8	146,26
185,02	52,05
185,239	181,07
185,459	90,96
185,679	260,95
185,898	-38,06
186,118	82,77
186,338	154,45
186,557	103,25
186,777	-1,19
186,997	84,82
187,216	127,83
187,436	254,8
187,655	70,48
187,875	123,73
188,095	80,72
188,314	228,18
188,534	107,35
188,753	-52,39
188,973	189,27
189,192	262,99
189,412	93,01
189,631	121,68
189,851	74,58
190,07	203,6
190,29	-3,24
190,509	15,19
190,729	115,54
190,948	168,79
191,168	236,37
191,387	70,48
191,607	95,06
191,826	43,86
192,045	82,77
192,265	84,82
192,484	154,45
192,704	86,87
192,923	-109,74
193,142	201,55
193,362	181,07
193,581	246,61
193,8	113,49
194,02	97,11
194,239	4,95
194,458	144,21
194,678	27,48
194,897	37,72
195,116	80,72
195,335	103,25
195,555	80,72
195,774	19,29
195,993	172,88
196,212	15,19
196,432	33,62
196,651	-21,67
196,87	86,87
197,089	285,52
197,308	138,07
197,528	54,1
197,747	2,9
197,966	172,88
198,185	136,02
198,404	-3,24
198,623	191,31
198,842	58,2
199,062	193,36
199,281	62,29
199,5	95,06
199,719	93,01
199,938	17,24
200,157	62,29
200,376	172,88
200,595	258,9
200,814	115,54
201,033	19,29
201,252	176,98
201,471	113,49
201,69	111,44
201,909	27,48
202,128	136,02
202,347	222,03
202,566	80,72
202,785	-52,39
203,004	29,52
203,223	283,47
203,442	127,83
203,661	-31,91
203,879	33,62
204,098	189,27
204,317	-46,25
204,536	201,55
204,755	95,06
204,974	168,79
205,193	-11,43
205,411	107,35
205,63	179,03
205,849	160,59
206,068	17,24
206,287	7
206,505	152,4
206,724	97,11
206,943	11,09
207,162	4,95
207,381	176,98
207,599	52,05
207,818	99,16
208,037	13,14
208,255	74,58
208,474	121,68
208,693	64,34
208,911	50
209,13	97,11
209,349	150,36
209,567	99,16
209,786	78,68
210,005	172,88
210,223	76,63
210,442	-99,5
210,661	7
210,879	109,4
211,098	62,29
211,316	31,57
211,535	99,16
211,753	21,33
211,972	115,54
212,191	39,76
212,409	-23,72
212,628	105,3
212,846	27,48
213,065	-15,53
213,283	129,88
213,502	88,92
213,72	50
213,938	33,62
214,157	13,14
214,375	127,83
214,594	47,96
214,812	4,95
215,031	39,76
215,249	72,53
215,467	154,45
215,686	-15,53
215,904	72,53
216,122	80,72
216,341	160,59
216,559	133,97
216,778	154,45
216,996	185,17
217,214	129,88
217,432	66,39
217,651	-9,39
217,869	146,26
218,087	-7,34
218,306	15,19
218,524	54,1
218,742	84,82
218,96	127,83
219,179	54,1
219,397	84,82
219,615	228,18
219,833	86,87
220,051	0,85
220,27	119,64
220,488	160,59
220,706	113,49
220,924	31,57
221,142	11,09
221,36	47,96
221,578	56,15
221,796	78,68
222,015	138,07
222,233	144,21
222,451	209,75
222,669	33,62
222,887	129,88
223,105	66,39
223,323	70,48
223,541	13,14
223,759	119,64
223,977	103,25
224,195	158,55
224,413	111,44
224,631	58,2
224,849	27,48
225,067	287,57
225,285	-56,49
225,503	78,68
225,721	-70,83
225,939	90,96
226,157	84,82
226,375	246,61
226,592	56,15
226,81	47,96
227,028	148,31
227,246	82,77
227,464	107,35
227,682	101,2
227,9	88,92
228,117	39,76
228,335	152,4
228,553	35,67
228,771	29,52
228,989	117,59
229,206	121,68
229,424	4,95
229,642	68,44
229,86	39,76
230,077	150,36
230,295	82,77
230,513	107,35
230,731	66,39
230,948	187,22
231,166	219,99
231,384	21,33
231,601	37,72
231,819	244,56
232,037	50
232,254	-38,06
232,472	78,68
232,689	62,29
232,907	146,26
233,125	90,96
233,342	-42,15
233,56	62,29
233,777	93,01
233,995	60,24
234,213	127,83
234,43	131,92
234,648	95,06
234,865	54,1
235,083	86,87
235,3	99,16
235,518	127,83
235,735	95,06
235,953	144,21
236,17	95,06
236,388	-9,39
236,605	88,92
236,822	160,59
237,04	156,5
237,257	203,6
237,475	7
237,692	27,48
237,909	119,64
238,127	74,58
238,344	7
238,562	105,3
238,779	21,33
238,996	-58,54
239,214	62,29
239,431	113,49
239,648	74,58
239,865	111,44
240,083	54,1
240,3	39,76
240,517	97,11
240,735	15,19
240,952	138,07
241,169	90,96
241,386	185,17
241,603	47,96
241,821	31,57
242,038	125,78
242,255	179,03
242,472	31,57
242,689	31,57
242,907	123,73
243,124	123,73
243,341	129,88
243,558	39,76
243,775	-99,5
243,992	-19,63
244,209	156,5
244,426	174,93
244,643	111,44
244,86	119,64
245,078	144,21
245,295	-1,19
245,512	84,82
245,729	35,67
245,946	97,11
246,163	54,1
246,38	31,57
246,597	54,1
246,814	119,64
247,031	66,39
247,248	41,81
247,464	66,39
247,681	54,1
247,898	113,49
248,115	103,25
248,332	-7,34
248,549	119,64
248,766	181,07
248,983	62,29
249,2	62,29
249,417	127,83
249,633	-9,39
249,85	129,88
250,067	113,49
250,284	113,49
250,501	74,58
250,717	78,68
250,934	-1,19
251,151	41,81
251,368	-11,43
251,585	39,76
251,801	29,52
252,018	7
252,235	209,75
252,451	17,24
252,668	45,91
252,885	76,63
253,102	17,24
253,318	23,38
253,535	31,57
253,752	80,72
253,968	-48,3
254,185	-17,58
254,401	31,57
254,618	97,11
254,835	9,05
255,051	197,46
255,268	156,5
255,484	80,72
255,701	76,63
255,917	121,68
256,134	29,52
256,351	86,87
256,567	9,05
256,784	60,24
257	31,57
257,217	97,11
257,433	146,26
257,65	19,29
257,866	170,83
258,082	13,14
258,299	-9,39
258,515	142,16
258,732	68,44
258,948	-19,63
259,165	47,96
259,381	-3,24
259,597	179,03
259,814	86,87
260,03	74,58
260,246	-1,19
260,463	232,27
260,679	150,36
260,895	84,82
261,112	82,77
261,328	107,35
261,544	80,72
261,761	232,27
261,977	37,72
262,193	-17,58
262,409	133,97
262,626	50
262,842	52,05
263,058	-36,01
263,274	97,11
263,49	33,62
263,707	148,31
263,923	154,45
264,139	-36,01
264,355	-9,39
264,571	176,98
264,787	152,4
265,004	193,36
265,22	50
265,436	-27,82
265,652	62,29
265,868	78,68
266,084	-42,15
266,3	136,02
266,516	-15,53
266,732	41,81
266,948	70,48
267,164	103,25
267,38	117,59
267,596	41,81
267,812	197,46
268,028	-1,19
268,244	17,24
268,46	101,2
268,676	60,24
268,892	111,44
269,108	-7,34
269,324	52,05
269,54	-54,44
269,756	105,3
269,972	-31,91
270,188	-1,19
270,403	7
270,619	66,39
270,835	131,92
271,051	31,57
271,267	66,39
271,483	31,57
271,698	123,73
271,914	133,97
272,13	64,34
272,346	58,2
272,562	74,58
272,777	228,18
272,993	-25,77
273,209	-7,34
273,425	11,09
273,64	-36,01
273,856	11,09
274,072	25,43
274,287	27,48
274,503	95,06
274,719	131,92
274,934	50
275,15	0,85
275,366	136,02
275,581	4,95
275,797	60,24
276,012	33,62
276,228	66,39
276,444	86,87
276,659	121,68
276,875	13,14
277,09	131,92
277,306	-1,19
277,521	115,54
277,737	115,54
277,952	146,26
278,168	68,44
278,383	90,96
278,599	72,53
278,814	168,79
279,03	-36,01
279,245	195,41
279,461	107,35
279,676	170,83
279,892	-15,53
280,107	-31,91
280,322	-3,24
280,538	148,31
280,753	121,68
280,969	23,38
281,184	23,38
281,399	195,41
281,615	9,05
281,83	111,44
282,045	-56,49
282,26	4,95
282,476	144,21
282,691	107,35
282,906	136,02
283,122	58,2
283,337	13,14
283,552	86,87
283,767	72,53
283,983	170,83
284,198	84,82
284,413	45,91
284,628	-97,45
284,843	154,45
285,058	78,68
285,274	74,58
285,489	64,34
285,704	160,59
285,919	47,96
286,134	105,3
286,349	47,96
286,564	54,1
286,779	234,32
286,995	54,1
287,21	103,25
287,425	138,07
287,64	82,77
287,855	97,11
288,07	-9,39
288,285	189,27
288,5	97,11
288,715	105,3
288,93	107,35
289,145	4,95
289,36	121,68
289,575	-38,06
289,79	131,92
290,004	29,52
290,219	133,97
290,434	-81,07
290,649	-15,53
290,864	45,91
291,079	17,24
291,294	41,81
291,509	95,06
291,724	27,48
291,938	74,58
292,153	41,81
292,368	15,19
292,583	43,86
292,798	113,49
293,012	50
293,227	117,59
293,442	37,72
293,657	181,07
293,871	187,22
294,086	105,3
294,301	217,94
294,516	181,07
294,73	95,06
294,945	27,48
295,16	62,29
295,374	246,61
295,589	183,12
295,804	19,29
296,018	99,16
296,233	166,74
296,447	56,15
296,662	41,81
296,877	176,98
297,091	129,88
297,306	97,11
297,52	121,68
297,735	144,21
297,949	62,29
298,164	19,29
298,378	111,44
298,593	-33,96
298,807	2,9
299,022	111,44
299,236	252,75
299,451	23,38
299,665	107,35
299,88	56,15
300,094	123,73
300,309	33,62
300,523	13,14
300,737	-3,24
300,952	172,88
301,166	133,97
301,381	43,86
301,595	2,9
301,809	103,25
302,024	90,96
302,238	-21,67
302,452	127,83
302,667	47,96
302,881	146,26
303,095	187,22
303,309	101,2
303,524	70,48
303,738	35,67
303,952	21,33
304,166	129,88
304,381	9,05
304,595	123,73
304,809	35,67
305,023	52,05
305,237	27,48
305,452	70,48
305,666	117,59
305,88	138,07
306,094	181,07
306,308	129,88
306,522	193,36
306,736	129,88
306,95	232,27
307,164	148,31
307,379	127,83
307,593	246,61
307,807	273,23
308,021	154,45
308,235	105,3
308,449	99,16
308,663	82,77
308,877	430,93
309,091	187,22
309,305	207,7
309,519	-36,01
309,733	277,33
309,947	21,33
310,161	203,6
310,374	207,7
310,588	246,61
310,802	150,36
311,016	136,02
311,23	203,6
311,444	70,48
311,658	117,59
311,872	269,14
312,085	344,91
312,299	338,77
312,513	248,66
312,727	168,79
312,941	45,91
313,154	213,84
313,368	103,25
313,582	121,68
313,796	179,03
314,009	119,64
314,223	252,75
314,437	146,26
314,651	248,66
314,864	138,07
315,078	185,17
315,292	19,29
315,505	95,06
315,719	215,89
315,933	105,3
316,146	113,49
316,36	101,2
316,573	170,83
316,787	176,98
317,001	170,83
317,214	9,05
317,428	136,02
317,641	107,35
317,855	136,02
318,068	113,49
318,282	138,07
318,495	250,71
318,709	136,02
318,922	136,02
319,136	211,79
319,349	172,88
319,563	119,64
319,776	111,44
319,99	-5,29
320,203	203,6
320,417	105,3
320,63	230,23
320,843	224,08
321,057	203,6
321,27	172,88
321,483	316,24
321,697	310,1
321,91	181,07
322,124	224,08
322,337	183,12
322,55	144,21
322,763	179,03
322,977	119,64
323,19	60,24
323,403	136,02
323,617	123,73
323,83	193,36
324,043	50
324,256	144,21
324,469	58,2
324,683	277,33
324,896	109,4
325,109	138,07
325,322	17,24
325,535	213,84
325,748	228,18
325,962	54,1
326,175	238,42
326,388	156,5
326,601	219,99
326,814	78,68
327,027	115,54
327,24	236,37
327,453	-17,58
327,666	230,23
327,879	230,23
328,092	170,83
328,305	201,55
328,518	105,3
328,731	111,44
328,944	193,36
329,157	205,65
329,37	97,11
329,583	312,14
329,796	275,28
330,009	39,76
330,222	215,89
330,435	244,56
330,648	318,29
330,861	176,98
331,073	183,12
331,286	162,64
331,499	127,83
331,712	66,39
331,925	105,3
332,138	129,88
332,35	160,59
332,563	74,58
332,776	299,86
332,989	95,06
333,202	170,83
333,414	256,85
333,627	332,62
333,84	205,65
334,053	271,19
334,265	297,81
334,478	299,86
334,691	361,3
334,903	435,02
335,116	330,58
335,329	420,69
335,541	510,8
335,754	564,04
335,966	518,99
336,179	506,7
336,392	467,79
336,604	523,09
336,817	541,52
337,029	387,92
337,242	490,32
337,454	449,36
337,667	377,68
337,88	461,65
338,092	389,97
338,305	381,78
338,517	265,04
338,729	316,24
338,942	371,54
339,154	197,46
339,367	179,03
339,579	301,9
339,792	176,98
340,004	281,43
340,217	170,83
340,429	199,51
340,641	170,83
340,854	138,07
341,066	195,41
341,278	342,86
341,491	365,39
341,703	164,69
341,915	111,44
342,128	236,37
342,34	168,79
342,552	80,72
342,764	179,03
342,977	248,66
343,189	197,46
343,401	232,27
343,613	95,06
343,826	219,99
344,038	76,63
344,25	156,5
344,462	131,92
344,674	209,75
344,886	160,59
345,099	174,93
345,311	158,55
345,523	119,64
345,735	58,2
345,947	168,79
346,159	271,19
346,371	236,37
346,583	99,16
346,795	267,09
347,007	230,23
347,219	252,75
347,431	260,95
347,643	369,49
347,855	129,88
348,067	359,25
348,279	74,58
348,491	185,17
348,703	273,23
348,915	113,49
349,127	146,26
349,339	156,5
349,551	222,03
349,763	295,76
349,975	269,14
350,187	228,18
350,399	363,34
350,61	262,99
350,822	291,66
351,034	310,1
351,246	240,47
351,458	211,79
351,669	252,75
351,881	324,43
352,093	267,09
352,305	324,43
352,517	265,04
352,728	340,82
352,94	258,9
353,152	322,38
353,363	142,16
353,575	281,43
353,787	334,67
353,999	164,69
354,21	430,93
354,422	207,7
354,633	240,47
354,845	351,06
355,057	299,86
355,268	185,17
355,48	371,54
355,692	234,32
355,903	273,23
356,115	260,95
356,326	195,41
356,538	484,17
356,749	414,54
356,961	451,41
357,172	473,93
357,384	424,78
357,595	713,55
357,807	369,49
358,018	447,31
358,23	441,17
358,441	611,15
358,653	377,68
358,864	496,46
359,075	279,38
359,287	432,97
359,498	375,63
359,709	416,59
359,921	301,9
360,132	383,82
360,344	328,53
360,555	273,23
360,766	342,86
360,977	299,86
361,189	375,63
361,4	236,37
361,611	357,2
361,823	414,54
362,034	361,3
362,245	219,99
362,456	291,66
362,667	410,45
362,879	181,07
363,09	240,47
363,301	254,8
363,512	312,14
363,723	189,27
363,935	158,55
364,146	387,92
364,357	205,65
364,568	279,38
364,779	121,68
364,99	469,84
365,201	320,34
365,412	342,86
365,623	303,95
365,834	435,02
366,045	453,45
366,256	564,04
366,467	576,33
366,678	643,92
366,889	521,04
367,1	566,09
367,311	742,22
367,522	578,38
367,733	545,61
367,944	584,52
368,155	631,63
368,366	619,34
368,577	559,95
368,788	523,09
368,999	355,15
369,209	336,72
369,42	529,23
369,631	484,17
369,842	363,34
370,053	320,34
370,264	318,29
370,474	254,8
370,685	224,08
370,896	226,13
371,107	414,54
371,317	373,58
371,528	287,57
371,739	389,97
371,95	250,71
372,16	314,19
372,371	244,56
372,582	277,33
372,792	279,38
373,003	318,29
373,214	326,48
373,424	342,86
373,635	246,61
373,846	404,3
374,056	265,04
374,267	295,76
374,477	394,06
374,688	258,9
374,898	201,55
375,109	303,95
375,319	310,1
375,53	408,4
375,74	357,2
375,951	291,66
376,161	283,47
376,372	357,2
376,582	363,34
376,793	451,41
377,003	254,8
377,214	318,29
377,424	484,17
377,635	463,69
377,845	334,67
378,055	488,27
378,266	349,01
378,476	502,61
378,686	457,55
378,897	443,21
379,107	484,17
379,317	537,42
379,528	490,32
379,738	611,15
379,948	471,89
380,158	625,48
380,369	691,02
380,579	592,72
380,789	564,04
380,999	572,24
381,21	619,34
381,42	682,83
381,63	486,22
381,84	648,01
382,05	615,24
382,261	648,01
382,471	738,12
382,681	672,59
382,891	836,42
383,101	787,27
383,311	727,88
383,521	785,23
383,731	932,68
383,941	987,97
384,151	977,73
384,361	1012,55
384,571	1133,38
384,781	1033,03
384,991	1370,94
385,201	1215,3
385,411	1188,68
385,621	1176,39
385,831	1268,55
386,041	1293,12
386,251	1276,74
386,461	1332,03
386,671	1317,7
386,881	1215,3
387,091	1246,02
387,301	1354,56
387,511	1284,93
387,72	1258,31
387,93	1227,59
388,14	1098,56
388,35	1135,43
388,56	1157,96
388,769	973,64
388,979	994,12
389,189	766,79
389,399	719,69
389,609	734,03
389,818	760,65
390,028	496,46
390,238	605
390,447	514,89
390,657	592,72
390,867	437,07
391,076	359,25
391,286	475,98
391,496	430,93
391,705	439,12
391,915	504,65
392,125	484,17
392,334	398,16
392,544	627,53
392,753	445,26
392,963	422,73
393,172	422,73
393,382	359,25
393,591	568,14
393,801	322,38
394,01	492,37
394,22	482,13
394,429	361,3
394,639	392,02
394,848	463,69
395,058	443,21
395,267	344,91
395,477	459,6
395,686	428,88
395,895	498,51
396,105	568,14
396,314	408,4
396,524	318,29
396,733	377,68
396,942	443,21
397,152	428,88
397,361	412,5
397,57	328,53
397,78	312,14
397,989	324,43
398,198	539,47
398,407	332,62
398,617	308,05
398,826	373,58
399,035	332,62
399,244	406,35
399,453	328,53
399,663	383,82
399,872	320,34
400,081	230,23
400,29	465,74
400,499	232,27
400,708	381,78
400,917	308,05
401,127	189,27
401,336	299,86
401,545	480,08
401,754	500,56
401,963	289,62
402,172	394,06
402,381	316,24
402,59	332,62
402,799	367,44
403,008	353,1
403,217	357,2
403,426	432,97
403,635	291,66
403,844	373,58
404,053	336,72
404,262	324,43
404,471	480,08
404,68	447,31
404,888	383,82
405,097	459,6
405,306	432,97
405,515	414,54
405,724	303,95
405,933	471,89
406,142	424,78
406,35	447,31
406,559	439,12
406,768	430,93
406,977	580,43
407,185	473,93
407,394	416,59
407,603	250,71
407,812	482,13
408,02	490,32
408,229	367,44
408,438	398,16
408,646	156,5
408,855	324,43
409,064	465,74
409,272	404,3
409,481	500,56
409,69	367,44
409,898	260,95
410,107	449,36
410,315	432,97
410,524	453,45
410,733	443,21
410,941	336,72
411,15	490,32
411,358	414,54
411,567	484,17
411,775	381,78
411,984	400,21
412,192	422,73
412,401	328,53
412,609	494,41
412,818	463,69
413,026	512,85
413,234	398,16
413,443	451,41
413,651	293,71
413,86	375,63
414,068	537,42
414,276	545,61
414,485	332,62
414,693	514,89
414,901	672,59
415,11	535,37
415,318	455,5
415,526	449,36
415,734	437,07
415,943	453,45
416,151	555,85
416,359	490,32
416,567	408,4
416,776	500,56
416,984	541,52
417,192	576,33
417,4	363,34
417,608	312,14
417,817	355,15
418,025	473,93
418,233	557,9
418,441	420,69
418,649	365,39
418,857	549,71
419,065	594,76
419,273	418,64
419,481	447,31
419,689	467,79
419,897	392,02
420,105	310,1
420,313	492,37
420,521	557,9
420,729	547,66
420,937	432,97
421,145	369,49
421,353	473,93
421,561	541,52
421,769	414,54
421,977	410,45
422,185	455,5
422,393	465,74
422,601	543,57
422,809	437,07
423,017	406,35
423,224	400,21
423,432	482,13
423,64	340,82
423,848	416,59
424,056	322,38
424,263	559,95
424,471	408,4
424,679	574,28
424,887	484,17
425,094	875,34
425,302	1241,92
425,51	1508,16
425,718	2030,39
425,925	2546,48
426,133	2997,03
426,341	4010,78
426,548	4877,07
426,756	5323,52
426,964	6099,7
427,171	6822,64
427,379	7303,91
427,586	7391,97
427,794	7011,05
428,001	6959,85
428,209	6601,46
428,417	5432,07
428,624	4832,01
428,832	3748,64
429,039	2937,64
429,247	2458,42
429,454	2415,41
429,662	2442,03
429,869	2319,15
430,076	2958,12
430,284	3316,51
430,491	4289,3
430,699	5280,52
430,906	6255,35
431,114	6849,26
431,321	7746,27
431,528	8590,03
431,736	9779,9
431,943	10418,87
432,15	9704,13
432,358	9560,77
432,565	8878,8
432,772	7338,73
432,979	6640,37
433,187	5161,73
433,394	3920,67
433,601	3121,96
433,808	2384,69
434,016	1864,5
434,223	1493,82
434,43	1297,22
434,637	1293,12
434,844	1413,95
435,052	1375,04
435,259	1604,41
435,466	1880,89
435,673	2026,29
435,88	2407,22
436,087	2769,71
436,294	3097,38
436,501	3273,51
436,708	3392,29
436,915	3588,89
437,122	3808,03
437,329	3726,11
437,537	3662,62
437,743	3756,83
437,95	3576,61
438,157	3267,36
438,364	3019,56
438,571	2593,58
438,778	2249,52
438,985	1940,28
439,192	1602,36
439,399	1309,51
439,606	1274,69
439,813	1225,54
440,02	1301,31
440,227	1162,05
440,433	996,17
440,64	901,96
440,847	824,14
441,054	830,28
441,261	848,71
441,467	729,93
441,674	553,8
441,881	691,02
442,088	527,18
442,294	672,59
442,501	721,74
442,708	594,76
442,914	670,54
443,121	609,1
443,328	699,21
443,534	867,14
443,741	953,16
443,948	1020,74
444,154	1358,66
444,361	1954,62
444,568	2048,82
444,774	2462,51
444,981	2894,63
445,187	3488,54
445,394	3736,35
445,6	3867,42
445,807	4670,22
446,013	4463,38
446,22	4328,21
446,426	4535,06
446,633	4109,08
446,839	4008,73
447,046	3236,64
447,252	2937,64
447,459	2386,74
447,665	1905,46
447,871	1643,32
448,078	1573,69
448,284	1260,35
448,491	1350,46
448,697	1428,29
448,903	1350,46
449,11	1600,32
449,316	1604,41
449,522	1938,23
449,728	2159,41
449,935	2274,1
450,141	2401,07
450,347	2466,61
450,553	2366,26
450,76	2220,85
450,966	2075,45
451,172	1907,51
451,378	1604,41
451,584	1405,76
451,791	1303,36
451,997	1073,99
452,203	719,69
452,409	858,95
452,615	637,77
452,821	502,61
453,027	373,58
453,233	691,02
453,44	432,97
453,646	475,98
453,852	492,37
454,058	308,05
454,264	424,78
454,47	545,61
454,676	478,03
454,882	396,11
455,088	529,23
455,294	475,98
455,5	553,8
455,705	535,37
455,911	420,69
456,117	357,2
456,323	426,83
456,529	498,51
456,735	410,45
456,941	426,83
457,147	422,73
457,352	406,35
457,558	404,3
457,764	539,47
457,97	392,02
458,176	435,02
458,381	459,6
458,587	619,34
458,793	461,65
458,999	301,9
459,204	443,21
459,41	408,4
459,616	531,28
459,821	514,89
460,027	283,47
460,233	529,23
460,438	545,61
460,644	471,89
460,85	518,99
461,055	500,56
461,261	553,8
461,466	457,55
461,672	406,35
461,878	459,6
462,083	416,59
462,289	279,38
462,494	326,48
462,7	418,64
462,905	295,76
463,111	447,31
463,316	416,59
463,522	459,6
463,727	371,54
463,932	404,3
464,138	469,84
464,343	482,13
464,549	445,26
464,754	432,97
464,959	514,89
465,165	387,92
465,37	414,54
465,575	473,93
465,781	381,78
465,986	484,17
466,191	545,61
466,397	607,05
466,602	725,83
466,807	613,2
467,012	617,29
467,218	590,67
467,423	584,52
467,628	518,99
467,833	539,47
468,038	611,15
468,244	566,09
468,449	615,24
468,654	668,49
468,859	643,92
469,064	658,25
469,269	627,53
469,474	656,2
469,679	770,89
469,885	686,92
470,09	654,16
470,295	613,2
470,5	566,09
470,705	740,17
470,91	541,52
471,115	664,4
471,32	545,61
471,525	740,17
471,73	703,31
471,935	609,1
472,139	541,52
472,344	539,47
472,549	586,57
472,754	594,76
472,959	643,92
473,164	607,05
473,369	617,29
473,574	770,89
473,778	641,87
473,983	582,48
474,188	537,42
474,393	600,91
474,598	545,61
474,802	545,61
475,007	471,89
475,212	668,49
475,417	430,93
475,621	723,79
475,826	432,97
476,031	500,56
476,235	482,13
476,44	459,6
476,645	596,81
476,849	516,94
477,054	510,8
477,259	529,23
477,463	686,92
477,668	750,41
477,872	664,4
478,077	598,86
478,282	488,27
478,486	645,96
478,691	557,9
478,895	533,33
479,1	613,2
479,304	719,69
479,509	617,29
479,713	740,17
479,918	643,92
480,122	588,62
480,326	654,16
480,531	695,11
480,735	664,4
480,94	746,31
481,144	897,86
481,348	766,79
481,553	774,99
481,757	705,35
481,961	719,69
482,166	756,55
482,37	750,41
482,574	850,76
482,778	686,92
482,983	856,9
483,187	676,68
483,391	742,22
483,595	803,66
483,8	803,66
484,004	791,37
484,208	811,85
484,412	873,29
484,616	756,55
484,821	645,96
485,025	713,55
485,229	738,12
485,433	783,18
485,637	770,89
485,841	693,07
486,045	836,42
486,249	777,03
486,453	768,84
486,657	809,8
486,861	766,79
487,065	858,95
487,269	883,53
487,473	875,34
487,677	932,68
487,881	1135,43
488,085	885,58
488,289	934,73
488,493	924,49
488,697	1071,94
488,901	873,29
489,105	922,44
489,309	955,21
489,512	973,64
489,716	891,72
489,92	938,82
490,124	840,52
490,328	967,49
490,531	906,06
490,735	899,91
490,939	779,08
491,143	826,18
491,346	815,94
491,55	703,31
491,754	815,94
491,958	744,27
492,161	721,74
492,365	660,3
492,569	713,55
492,772	719,69
492,976	762,7
493,18	625,48
493,383	746,31
493,587	686,92
493,79	654,16
493,994	658,25
494,197	541,52
494,401	676,68
494,605	682,83
494,808	678,73
495,012	605
495,215	807,75
495,419	746,31
495,622	703,31
495,825	621,39
496,029	676,68
496,232	834,38
496,436	734,03
496,639	881,48
496,843	801,61
497,046	637,77
497,249	844,62
497,453	815,94
497,656	678,73
497,859	637,77
498,063	758,6
498,266	873,29
498,469	570,19
498,673	719,69
498,876	688,97
499,079	789,32
499,282	688,97
499,485	938,82
499,689	795,47
499,892	777,03
500,095	742,22
500,298	717,64
500,501	662,35
500,705	729,93
500,908	770,89
501,111	613,2
501,314	635,72
501,517	824,14
501,72	641,87
501,923	725,83
502,126	613,2
502,329	697,16
502,532	654,16
502,735	734,03
502,938	770,89
503,141	680,78
503,344	590,67
503,547	793,42
503,75	707,4
503,953	713,55
504,156	908,1
504,359	826,18
504,562	781,13
504,765	850,76
504,968	912,2
505,17	803,66
505,373	985,93
505,576	899,91
505,779	947,01
505,982	852,81
506,185	920,39
506,387	998,21
506,59	985,93
506,793	889,67
506,996	987,97
507,198	1051,46
507,401	1078,08
507,604	1094,47
507,807	955,21
508,009	985,93
508,212	949,06
508,415	940,87
508,617	830,28
508,82	873,29
509,022	881,48
509,225	947,01
509,428	904,01
509,63	801,61
509,833	701,26
510,035	916,3
510,238	809,8
510,44	695,11
510,643	918,34
510,845	832,33
511,048	844,62
511,25	820,04
511,453	848,71
511,655	955,21
511,858	1022,79
512,06	1100,61
512,262	918,34
512,465	973,64
512,667	1020,74
512,87	1006,41
513,072	1270,59
513,274	1071,94
513,477	1100,61
513,679	1205,06
513,881	1237,83
514,084	1053,51
514,286	1194,82
514,488	1260,35
514,69	1217,35
514,893	1127,24
515,095	1207,11
515,297	1082,18
515,499	1151,81
515,701	1170,24
515,904	1254,21
516,106	1313,6
516,308	1246,02
516,51	1213,25
516,712	1082,18
516,914	1127,24
517,116	1071,94
517,318	914,25
517,52	971,59
517,722	858,95
517,925	777,03
518,127	803,66
518,329	824,14
518,531	643,92
518,733	754,51
518,935	693,07
519,136	723,79
519,338	701,26
519,54	684,87
519,742	736,07
519,944	764,75
520,146	613,2
520,348	695,11
520,55	725,83
520,752	613,2
520,954	666,44
521,155	715,59
521,357	656,2
521,559	736,07
521,761	754,51
521,963	734,03
522,164	691,02
522,366	699,21
522,568	815,94
522,77	856,9
522,971	768,84
523,173	723,79
523,375	777,03
523,576	654,16
523,778	809,8
523,98	709,45
524,181	828,23
524,383	754,51
524,584	703,31
524,786	754,51
524,988	707,4
525,189	817,99
525,391	906,06
525,592	719,69
525,794	680,78
525,995	844,62
526,197	887,62
526,398	1012,55
526,6	916,3
526,801	871,24
527,003	779,08
527,204	887,62
527,406	795,47
527,607	801,61
527,808	815,94
528,01	688,97
528,211	820,04
528,412	652,11
528,614	785,23
528,815	762,7
529,016	830,28
529,218	719,69
529,419	676,68
529,62	656,2
529,822	633,68
530,023	684,87
530,224	744,27
530,425	832,33
530,626	695,11
530,828	727,88
531,029	637,77
531,23	750,41
531,431	691,02
531,632	729,93
531,833	734,03
532,035	789,32
532,236	693,07
532,437	797,51
532,638	709,45
532,839	785,23
533,04	961,35
533,241	942,92
533,442	938,82
533,643	858,95
533,844	863,05
534,045	795,47
534,246	916,3
534,447	840,52
534,648	848,71
534,849	996,17
535,05	932,68
535,251	848,71
535,451	1022,79
535,652	813,9
535,853	936,78
536,054	904,01
536,255	840,52
536,456	861
536,657	852,81
536,857	865,1
537,058	971,59
537,259	725,83
537,46	785,23
537,66	807,75
537,861	721,74
538,062	820,04
538,263	570,19
538,463	824,14
538,664	666,44
538,865	637,77
539,065	686,92
539,266	762,7
539,466	559,95
539,667	731,98
539,868	623,44
540,068	717,64
540,269	738,12
540,469	742,22
540,67	799,56
540,87	709,45
541,071	516,94
541,271	774,99
541,472	754,51
541,672	807,75
541,873	707,4
542,073	686,92
542,274	695,11
542,474	760,65
542,675	777,03
542,875	711,5
543,075	664,4
543,276	693,07
543,476	719,69
543,676	693,07
543,877	656,2
544,077	783,18
544,277	729,93
544,478	709,45
544,678	688,97
544,878	729,93
545,078	625,48
545,279	729,93
545,479	594,76
545,679	740,17
545,879	729,93
546,079	770,89
546,28	625,48
546,48	707,4
546,68	834,38
546,88	660,3
547,08	658,25
547,28	738,12
547,48	537,42
547,68	754,51
547,88	793,42
548,081	832,33
548,281	674,64
548,481	852,81
548,681	891,72
548,881	924,49
549,081	1141,57
549,28	1076,04
549,48	1104,71
549,68	1264,45
549,88	1155,91
550,08	1039,17
550,28	1147,72
550,48	1325,89
550,68	1114,95
550,88	1086,28
551,08	1033,03
551,279	1133,38
551,479	1094,47
551,679	1194,82
551,879	977,73
552,079	1030,98
552,278	1020,74
552,478	1170,24
552,678	959,3
552,878	918,34
553,077	926,54
553,277	820,04
553,477	809,8
553,676	865,1
553,876	836,42
554,076	938,82
554,275	1106,76
554,475	1407,81
554,674	2186,04
554,874	3048,23
555,074	5149,45
555,273	8182,49
555,473	12817,04
555,672	18735,67
555,872	26147,27
556,071	33945,94
556,271	40886,5
556,47	45875,35
556,67	49354,85
556,869	51535,94
557,068	52303,93
557,268	50557,01
557,467	47716,48
557,667	44003,51
557,866	39606,52
558,065	34814,27
558,265	29438,36
558,464	24525,28
558,663	21287,44
558,863	17570,38
559,062	14676,6
559,261	11573,92
559,461	9329,35
559,66	7230,18
559,859	5524,23
560,058	4051,74
560,258	2802,47
560,457	2163,51
560,656	1696,57
560,855	1078,08
561,054	1168,2
561,253	994,12
561,453	828,23
561,652	822,09
561,851	873,29
562,05	678,73
562,249	623,44
562,448	779,08
562,647	721,74
562,846	688,97
563,045	779,08
563,244	791,37
563,443	949,06
563,642	920,39
563,841	1125,19
564,04	1438,53
564,239	1401,66
564,438	1659,71
564,637	1547,07
564,836	1596,22
565,035	1708,86
565,234	1770,3
565,432	1837,88
565,631	1715
565,83	1807,16
566,029	1583,93
566,228	1698,62
566,427	1717,05
566,625	1618,75
566,824	1577,79
567,023	1631,04
567,222	1483,58
567,42	1487,68
567,619	1454,91
567,818	1389,38
568,016	1573,69
568,215	1207,11
568,414	1409,86
568,612	1256,26
568,811	1053,51
569,01	1168,2
569,208	1098,56
569,407	1213,25
569,605	1073,99
569,804	1088,32
570,002	1114,95
570,201	1035,08
570,4	1112,9
570,598	990,02
570,797	1049,41
570,995	938,82
571,193	1080,13
571,392	1020,74
571,59	918,34
571,789	1043,27
571,987	949,06
572,186	1053,51
572,384	840,52
572,582	793,42
572,781	949,06
572,979	705,35
573,177	734,03
573,376	731,98
573,574	824,14
573,772	750,41
573,971	588,62
574,169	559,95
574,367	801,61
574,565	717,64
574,763	693,07
574,962	711,5
575,16	697,16
575,358	643,92
575,556	607,05
575,754	662,35
575,952	662,35
576,151	631,63
576,349	660,3
576,547	570,19
576,745	713,55
576,943	631,63
577,141	621,39
577,339	570,19
577,537	555,85
577,735	703,31
577,933	643,92
578,131	596,81
578,329	774,99
578,527	631,63
578,725	713,55
578,923	508,75
579,121	654,16
579,319	486,22
579,516	529,23
579,714	766,79
579,912	666,44
580,11	484,17
580,308	545,61
580,506	584,52
580,704	463,69
580,901	623,44
581,099	832,33
581,297	848,71
581,495	889,67
581,692	990,02
581,89	1362,75
582,088	1280,83
582,285	1473,34
582,483	1481,53
582,681	1657,66
582,878	1661,76
583,076	1569,6
583,274	1620,8
583,471	1676,09
583,669	1448,77
583,866	1305,41
584,064	1276,74
584,262	1194,82
584,459	1071,94
584,657	1094,47
584,854	1203,01
585,052	1284,93
585,249	2067,25
585,447	4262,68
585,644	8823,5
585,841	15428,2
586,039	23988,71
586,236	32731,49
586,434	40925,41
586,631	47638,65
586,828	52453,43
587,026	54765,59
587,223	54958,09
587,42	52510,77
587,618	50225,24
587,815	46397,59
588,012	42447,05
588,21	37034,27
588,407	32414,05
588,604	27369,91
588,801	23386,61
588,999	19489,32
589,196	16593,5
589,393	13478,54
589,59	11231,91
589,787	8983,24
589,984	6896,36
590,182	5264,13
590,379	3801,88
590,576	2759,47
590,773	1993,53
590,97	1461,06
591,167	1315,65
591,364	1086,28
591,561	916,3
591,758	901,96
591,955	719,69
592,152	744,27
592,349	564,04
592,546	537,42
592,743	582,48
592,94	537,42
593,137	602,96
593,334	549,71
593,531	607,05
593,727	533,33
593,924	559,95
594,121	498,51
594,318	463,69
594,515	537,42
594,712	678,73
594,908	492,37
595,105	312,14
595,302	510,8
595,499	443,21
595,696	568,14
595,892	342,86
596,089	588,62
596,286	340,82
596,482	547,66
596,679	414,54
596,876	373,58
597,072	478,03
597,269	480,08
597,466	473,93
597,662	467,79
597,859	545,61
598,055	826,18
598,252	1092,42
598,448	1469,25
598,645	1651,52
598,841	1837,88
599,038	2181,94
599,234	2110,26
599,431	2202,42
599,627	2212,66
599,824	2231,09
600,02	2358,07
600,217	2247,48
600,413	2353,97
600,609	2317,11
600,806	2618,16
601,002	2407,22
601,198	2102,07
601,395	2292,53
601,591	1987,38
601,787	2007,86
601,984	1672
602,18	1780,54
602,376	1571,65
602,572	1514,3
602,769	1465,15
602,965	1301,31
603,161	1360,7
603,357	1307,46
603,553	1301,31
603,75	1157,96
603,946	1174,34
604,142	1225,54
604,338	1459,01
604,534	1303,36
604,73	1618,75
604,926	1647,42
605,122	1825,59
605,318	1841,98
605,514	1901,37
605,71	1913,66
605,906	1798,97
606,102	1639,23
606,298	1684,28
606,494	1635,13
606,69	1614,65
606,886	1405,76
607,082	1446,72
607,278	1303,36
607,474	1495,87
607,67	1258,31
607,866	1252,16
608,062	1405,76
608,257	1495,87
608,453	1155,91
608,649	1239,87
608,845	1061,7
609,041	891,72
609,236	967,49
609,432	893,77
609,628	846,66
609,824	746,31
610,019	656,2
610,215	668,49
610,411	830,28
610,606	742,22
610,802	478,03
610,998	631,63
611,193	662,35
611,389	475,98
611,584	551,76
611,78	455,5
611,976	607,05
612,171	697,16
612,367	541,52
612,562	600,91
612,758	553,8
612,953	400,21
613,149	426,83
613,344	580,43
613,539	467,79
613,735	537,42
613,93	635,72
614,126	596,81
614,321	535,37
614,517	787,27
614,712	766,79
614,907	752,46
615,103	643,92
615,298	643,92
615,493	607,05
615,688	588,62
615,884	611,15
616,079	537,42
616,274	586,57
616,47	549,71
616,665	547,66
616,86	512,85
617,055	516,94
617,25	408,4
617,445	471,89
617,641	396,11
617,836	430,93
618,031	445,26
618,226	437,07
618,421	432,97
618,616	375,63
618,811	414,54
619,006	353,1
619,201	447,31
619,396	410,45
619,591	262,99
619,786	379,73
619,981	463,69
620,176	346,96
620,371	344,91
620,566	269,14
620,761	478,03
620,956	420,69
621,151	389,97
621,346	498,51
621,541	449,36
621,735	600,91
621,93	492,37
622,125	547,66
622,32	490,32
622,515	582,48
622,709	774,99
622,904	844,62
623,099	713,55
623,294	867,14
623,488	738,12
623,683	836,42
623,878	803,66
624,072	824,14
624,267	621,39
624,462	738,12
624,656	596,81
624,851	660,3
625,046	576,33
625,24	506,7
625,435	430,93
625,629	572,24
625,824	594,76
626,018	459,6
626,213	508,75
626,407	412,5
626,602	441,17
626,796	367,44
626,991	420,69
627,185	260,95
627,38	330,58
627,574	467,79
627,768	521,04
627,963	336,72
628,157	383,82
628,352	332,62
628,546	328,53
628,74	332,62
628,935	387,92
629,129	322,38
629,323	430,93
629,517	232,27
629,712	342,86
629,906	269,14
630,1	424,78
630,294	418,64
630,489	293,71
630,683	238,42
630,877	240,47
631,071	498,51
631,265	275,28
631,459	334,67
631,653	310,1
631,848	361,3
632,042	308,05
632,236	213,84
632,43	349,01
632,624	293,71
632,818	334,67
633,012	303,95
633,206	330,58
633,4	256,85
633,594	377,68
633,788	389,97
633,982	416,59
634,176	547,66
634,369	469,84
634,563	465,74
634,757	375,63
634,951	574,28
635,145	572,24
635,339	377,68
635,533	588,62
635,726	525,13
635,92	410,45
636,114	430,93
636,308	473,93
636,501	562
636,695	631,63
636,889	463,69
637,083	682,83
637,276	660,3
637,47	541,52
637,664	594,76
637,857	645,96
638,051	580,43
638,244	559,95
638,438	463,69
638,632	629,58
638,825	432,97
639,019	637,77
639,212	492,37
639,406	535,37
639,599	455,5
639,793	578,38
639,986	500,56
640,18	670,54
640,373	588,62
640,567	631,63
640,76	752,46
640,954	987,97
641,147	1143,62
641,34	1393,47
641,534	1581,89
641,727	1956,66
641,92	2011,96
642,114	2085,69
642,307	1878,84
642,5	1995,57
642,694	1631,04
642,887	1643,32
643,08	1659,71
643,273	1641,28
643,467	1405,76
643,66	1350,46
643,853	1203,01
644,046	1203,01
644,239	1250,11
644,432	1375,04
644,626	1710,91
644,819	2251,57
645,012	2521,9
645,205	2880,3
645,398	3326,75
645,591	3255,08
645,784	3126,05
645,977	3027,75
646,17	2958,12
646,363	2741,04
646,556	2507,57
646,749	2274,1
646,942	2214,71
647,135	2054,97
647,328	1831,74
647,521	1696,57
647,714	1489,73
647,907	1403,71
648,099	1198,92
648,292	1219,39
648,485	1045,32
648,678	961,35
648,871	836,42
649,064	811,85
649,256	750,41
649,449	693,07
649,642	529,23
649,835	602,96
650,027	594,76
650,22	734,03
650,413	641,87
650,605	662,35
650,798	625,48
650,991	586,57
651,183	643,92
651,376	594,76
651,568	605
651,761	578,38
651,954	578,38
652,146	592,72
652,339	586,57
652,531	705,35
652,724	535,37
652,916	543,57
653,109	416,59
653,301	641,87
653,494	660,3
653,686	613,2
653,879	596,81
654,071	586,57
654,263	547,66
654,456	465,74
654,648	688,97
654,84	609,1
655,033	637,77
655,225	863,05
655,417	678,73
655,61	1065,8
655,802	1145,67
655,994	1151,81
656,186	1104,71
656,379	1305,41
656,571	1094,47
656,763	1135,43
656,955	985,93
657,148	1045,32
657,34	1069,89
657,532	1037,13
657,724	914,25
657,916	817,99
658,108	918,34
658,3	815,94
658,492	670,54
658,684	611,15
658,876	725,83
659,068	459,6
659,26	428,88
659,452	455,5
659,644	435,02
659,836	502,61
660,028	566,09
660,22	328,53
660,412	445,26
660,604	328,53
660,796	375,63
660,988	379,73
661,18	355,15
661,372	410,45
661,563	277,33
661,755	344,91
661,947	232,27
662,139	209,75
662,331	340,82
662,522	250,71
662,714	234,32
662,906	248,66
663,097	236,37
663,289	283,47
663,481	150,36
663,673	301,9
663,864	308,05
664,056	469,84
664,247	340,82
664,439	592,72
664,631	566,09
664,822	803,66
665,014	766,79
665,205	639,82
665,397	719,69
665,588	705,35
665,78	627,53
665,971	742,22
666,163	435,02
666,354	555,85
666,546	416,59
666,737	512,85
666,929	475,98
667,12	510,8
667,311	484,17
667,503	492,37
667,694	398,16
667,885	398,16
668,077	420,69
668,268	260,95
668,459	324,43
668,651	389,97
668,842	461,65
669,033	523,09
669,224	492,37
669,416	858,95
669,607	670,54
669,798	688,97
669,989	979,78
670,18	817,99
670,371	789,32
670,563	637,77
670,754	838,47
670,945	740,17
671,136	693,07
671,327	537,42
671,518	688,97
671,709	729,93
671,9	578,38
672,091	549,71
672,282	537,42
672,473	471,89
672,664	373,58
672,855	455,5
673,046	418,64
673,237	420,69
673,428	435,02
673,619	613,2
673,809	406,35
674	547,66
674,191	430,93
674,382	394,06
674,573	441,17
674,764	387,92
674,954	486,22
675,145	277,33
675,336	281,43
675,527	351,06
675,717	324,43
675,908	340,82
676,099	265,04
676,289	334,67
676,48	203,6
676,671	267,09
676,861	222,03
677,052	389,97
677,243	232,27
677,433	189,27
677,624	283,47
677,814	275,28
678,005	256,85
678,195	400,21
678,386	166,74
678,576	275,28
678,767	273,23
678,957	291,66
679,148	314,19
679,338	430,93
679,529	336,72
679,719	207,7
679,909	381,78
680,1	326,48
680,29	465,74
680,481	389,97
680,671	600,91
680,861	605
681,052	701,26
681,242	725,83
681,432	740,17
681,622	648,01
681,813	609,1
682,003	643,92
682,193	541,52
682,383	619,34
682,573	643,92
682,764	437,07
682,954	537,42
683,144	576,33
683,334	449,36
683,524	375,63
683,714	490,32
683,904	414,54
684,094	445,26
684,284	551,76
684,474	508,75
684,664	478,03
684,854	471,89
685,044	381,78
685,234	369,49
685,424	392,02
685,614	289,62
685,804	576,33
685,994	373,58
686,184	326,48
686,374	471,89
686,564	435,02
686,753	342,86
686,943	303,95
687,133	424,78
687,323	478,03
687,513	406,35
687,702	326,48
687,892	359,25
688,082	430,93
688,272	381,78
688,461	320,34
688,651	457,55
688,841	383,82
689,03	277,33
689,22	334,67
689,41	527,18
689,599	822,09
689,789	1039,17
689,979	1379,14
690,168	1442,62
690,358	1749,82
690,547	1647,42
690,737	1465,15
690,926	1626,94
691,116	1385,28
691,305	1381,18
691,495	1332,03
691,684	1022,79
691,874	955,21
692,063	889,67
692,252	930,63
692,442	852,81
692,631	727,88
692,82	680,78
693,01	693,07
693,199	566,09
693,388	432,97
693,578	416,59
693,767	475,98
693,956	379,73
694,146	346,96
694,335	432,97
694,524	256,85
694,713	361,3
694,902	303,95
695,092	297,81
695,281	326,48
695,47	398,16
695,659	324,43
695,848	392,02
696,037	299,86
696,226	367,44
696,415	467,79
696,604	482,13
696,793	430,93
696,982	328,53
697,171	504,65
697,36	326,48
697,549	349,01
697,738	246,61
697,927	365,39
698,116	328,53
698,305	455,5
698,494	349,01
698,683	349,01
698,872	533,33
699,061	418,64
699,25	336,72
699,438	367,44
699,627	389,97
699,816	553,8
700,005	285,52
700,193	359,25
700,382	426,83
700,571	449,36
700,76	385,87
700,948	334,67
701,137	383,82
701,326	383,82
701,514	267,09
701,703	424,78
701,892	424,78
702,08	504,65
702,269	287,57
702,457	295,76
702,646	334,67
702,834	332,62
703,023	414,54
703,212	398,16
703,4	381,78
703,589	291,66
703,777	312,14
703,965	238,42
704,154	262,99
704,342	252,75
704,531	240,47
704,719	398,16
704,907	383,82
705,096	283,47
705,284	351,06
705,472	416,59
705,661	367,44
705,849	414,54
706,037	457,55
706,226	361,3
706,414	363,34
706,602	267,09
706,79	342,86
706,979	244,56
707,167	320,34
707,355	179,03
707,543	303,95
707,731	330,58
707,919	203,6
708,107	183,12
708,296	213,84
708,484	238,42
708,672	258,9
708,86	267,09
709,048	191,31
709,236	144,21
709,424	353,1
709,612	273,23
709,8	152,4
709,988	244,56
710,176	262,99
710,364	316,24
710,551	262,99
710,739	217,94
710,927	207,7
711,115	224,08
711,303	340,82
711,491	306
711,679	238,42
711,866	217,94
712,054	181,07
712,242	332,62
712,43	353,1
712,617	219,99
712,805	301,9
712,993	209,75
713,181	113,49
713,368	326,48
713,556	203,6
713,744	275,28
713,931	430,93
714,119	371,54
714,306	254,8
714,494	279,38
714,682	277,33
714,869	160,59
715,057	256,85
715,244	172,88
715,432	291,66
715,619	234,32
715,807	291,66
715,994	211,79
716,182	267,09
716,369	279,38
716,556	326,48
716,744	129,88
716,931	105,3
717,119	312,14
717,306	113,49
717,493	271,19
717,681	142,16
717,868	133,97
718,055	265,04
718,242	242,51
718,43	168,79
718,617	357,2
718,804	193,36
718,991	265,04
719,179	201,55
719,366	217,94
719,553	222,03
719,74	203,6
719,927	217,94
720,114	154,45
720,301	201,55
720,488	207,7
720,676	170,83
720,863	330,58
721,05	420,69
721,237	490,32
721,424	672,59
721,611	987,97
721,798	1069,89
721,985	1416
722,172	1731,39
722,358	1925,94
722,545	2005,81
722,732	1882,94
722,919	1850,17
723,106	1749,82
723,293	1569,6
723,48	1563,45
723,667	1280,83
723,853	1256,26
724,04	1262,4
724,227	1143,62
724,414	1004,36
724,6	998,21
724,787	1028,93
724,974	951,11
725,161	813,9
725,347	557,9
725,534	643,92
725,72	574,28
725,907	674,64
726,094	598,86
726,28	537,42
726,467	463,69
726,653	365,39
726,84	625,48
727,027	578,38
727,213	428,88
727,4	541,52
727,586	619,34
727,773	807,75
727,959	965,45
728,145	1127,24
728,332	1372,99
728,518	1332,03
728,705	1538,88
728,891	1596,22
729,077	1489,73
729,264	1362,75
729,45	1383,23
729,636	1348,42
729,823	1340,22
730,009	1213,25
730,195	1184,58
730,382	1157,96
730,568	998,21
730,754	1016,65
730,94	815,94
731,126	770,89
731,313	787,27
731,499	676,68
731,685	631,63
731,871	629,58
732,057	615,24
732,243	654,16
732,429	537,42
732,615	660,3
732,801	557,9
732,987	549,71
733,173	514,89
733,359	435,02
733,545	482,13
733,731	512,85
733,917	680,78
734,103	535,37
734,289	564,04
734,475	475,98
734,661	678,73
734,847	518,99
735,033	537,42
735,219	625,48
735,404	494,41
735,59	430,93
735,776	584,52
735,962	637,77
736,148	709,45
736,333	701,26
736,519	547,66
736,705	549,71
736,89	555,85
737,076	623,44
737,262	570,19
737,447	516,94
737,633	578,38
737,819	625,48
738,004	607,05
738,19	512,85
738,375	617,29
738,561	664,4
738,747	594,76
738,932	502,61
739,118	709,45
739,303	658,25
739,489	621,39
739,674	570,19
739,859	478,03
740,045	641,87
740,23	539,47
740,416	525,13
740,601	645,96
740,786	521,04
740,972	512,85
741,157	535,37
741,342	506,7
741,528	643,92
741,713	869,19
741,898	750,41
742,084	1073,99
742,269	1078,08
742,454	1246,02
742,639	1338,18
742,824	1149,76
743,01	1254,21
743,195	1352,51
743,38	1067,85
743,565	1051,46
743,75	1010,5
743,935	1037,13
744,12	1112,9
744,305	863,05
744,49	895,82
744,675	813,9
744,86	721,74
745,045	865,1
745,23	807,75
745,415	744,27
745,6	772,94
745,785	660,3
745,97	844,62
746,155	783,18
746,34	807,75
746,525	707,4
746,71	783,18
746,895	676,68
747,079	654,16
747,264	740,17
747,449	791,37
747,634	971,59
747,819	1203,01
748,003	1403,71
748,188	1518,4
748,373	2044,73
748,557	2190,13
748,742	2358,07
748,927	2413,36
749,111	2376,5
749,296	2417,46
749,481	2372,4
749,665	2294,58
749,85	2130,74
750,034	2052,92
750,219	1930,04
750,404	1817,4
750,588	1659,71
750,773	1567,55
750,957	1612,6
751,141	1454,91
751,326	1497,92
751,51	1192,77
751,695	1092,42
751,879	1049,41
752,064	1256,26
752,248	1018,69
752,432	1018,69
752,617	1002,31
752,801	985,93
752,985	906,06
753,17	1012,55
753,354	918,34
753,538	967,49
753,722	942,92
753,907	1004,36
754,091	971,59
754,275	1063,75
754,459	967,49
754,643	1102,66
754,828	1235,78
755,012	1293,12
755,196	1313,6
755,38	1323,84
755,564	1393,47
755,748	1473,34
755,932	1772,35
756,116	1884,98
756,3	2065,21
756,484	2022,2
756,668	2343,73
756,852	2212,66
757,036	2571,05
757,22	3134,25
757,404	5288,71
757,588	13599,37
757,772	36897,06
757,956	63627,15
758,14	63627,15
758,323	63627,15
758,507	63627,15
758,691	63627,15
758,875	63627,15
759,059	63627,15
759,242	63627,15
759,426	63627,15
759,61	63627,15
759,794	63627,15
759,977	63627,15
760,161	63627,15
760,345	63627,15
760,528	63627,15
760,712	63627,15
760,895	63627,15
761,079	63627,15
761,263	63627,15
761,446	63627,15
761,63	63627,15
761,813	63627,15
761,997	63627,15
762,18	63627,15
762,364	63627,15
762,547	63627,15
762,731	63627,15
762,914	63627,15
763,098	63627,15
763,281	63627,15
763,464	63627,15
763,648	63627,15
763,831	63627,15
764,015	63627,15
764,198	63627,15
764,381	63627,15
764,564	63627,15
764,748	63627,15
764,931	63627,15
765,114	63627,15
765,297	63627,15
765,481	63627,15
765,664	63627,15
765,847	63627,15
766,03	63627,15
766,213	63627,15
766,397	63627,15
766,58	63627,15
766,763	63627,15
766,946	63627,15
767,129	63627,15
767,312	63627,15
767,495	63627,15
767,678	63627,15
767,861	63627,15
768,044	63627,15
768,227	63627,15
768,41	63627,15
768,593	63627,15
768,776	63627,15
768,959	63627,15
769,142	63627,15
769,324	63627,15
769,507	63627,15
769,69	63627,15
769,873	63627,15
770,056	63627,15
770,239	63627,15
770,421	63627,15
770,604	63627,15
770,787	63627,15
770,97	63627,15
771,152	63627,15
771,335	63627,15
771,518	63627,15
771,7	63627,15
771,883	63627,15
772,066	63627,15
772,248	63627,15
772,431	63627,15
772,613	63627,15
772,796	63627,15
772,978	63627,15
773,161	63627,15
773,343	63627,15
773,526	63627,15
773,708	63627,15
773,891	63627,15
774,073	63627,15
774,256	63627,15
774,438	63627,15
774,621	63627,15
774,803	63627,15
774,985	63627,15
775,168	63627,15
775,35	63627,15
775,532	63627,15
775,715	63627,15
775,897	63627,15
776,079	63627,15
776,261	63627,15
776,444	63627,15
776,626	63627,15
776,808	63627,15
776,99	63627,15
777,173	63627,15
777,355	63627,15
777,537	63627,15
777,719	63627,15
777,901	63627,15
778,083	63627,15
778,265	63627,15
778,447	63627,15
778,629	63627,15
778,811	63627,15
778,993	63627,15
779,175	63627,15
779,357	63627,15
779,539	63627,15
779,721	63627,15
779,903	63627,15
780,085	63627,15
780,267	63627,15
780,449	63627,15
780,631	63627,15
780,812	63627,15
780,994	63627,15
781,176	63627,15
781,358	63627,15
781,54	63627,15
781,721	63627,15
781,903	63627,15
782,085	63627,15
782,267	63627,15
782,448	63627,15
782,63	63627,15
782,812	63627,15
782,993	63627,15
783,175	63627,15
783,357	63627,15
783,538	63627,15
783,72	63627,15
783,901	63627,15
784,083	63627,15
784,264	63627,15
784,446	63627,15
784,627	63627,15
784,809	63627,15
784,99	63627,15
785,172	63627,15
785,353	63627,15
785,535	63627,15
785,716	63627,15
785,897	63627,15
786,079	63627,15
786,26	63627,15
786,441	63627,15
786,623	63627,15
786,804	63627,15
786,985	63627,15
787,167	63627,15
787,348	63627,15
787,529	63627,15
787,71	63627,15
787,891	63627,15
788,073	63627,15
788,254	63627,15
788,435	63627,15
788,616	40429,8
788,797	40413,42
788,978	4647,69
789,159	3660,57
789,34	2767,66
789,522	2450,22
789,703	2040,63
789,884	1944,38
790,065	1909,56
790,246	2038,58
790,427	2241,33
790,607	2810,67
790,788	3330,85
790,969	3633,95
791,15	4123,41
791,331	4444,95
791,512	4477,71
791,693	4457,23
791,874	4567,82
792,054	4907,79
792,235	4838,16
792,416	4854,54
792,597	4985,61
792,778	4963,08
792,958	4868,88
793,139	4625,17
793,32	4176,66
793,5	3732,25
793,681	3595,04
793,862	3158,82
794,042	2962,22
794,223	2421,55
794,404	2343,73
794,584	2028,34
794,765	1815,35
794,945	1633,08
795,126	1628,99
795,306	1528,64
795,487	1366,85
795,667	1299,27
795,848	1250,11
796,028	1098,56
796,209	969,54
796,389	1041,22
796,57	971,59
796,75	824,14
796,93	883,53
797,111	799,56
797,291	967,49
797,471	1037,13
797,652	1092,42
797,832	1160
798,012	1262,4
798,192	1176,39
798,373	1303,36
798,553	1352,51
798,733	1297,22
798,913	1266,5
799,093	1188,68
799,274	1143,62
799,454	1264,45
799,634	1194,82
799,814	1200,96
799,994	1184,58
800,174	1104,71
800,354	981,83
800,534	969,54
800,714	1155,91
800,894	994,12
801,074	889,67
801,254	1002,31
801,434	1114,95
801,614	971,59
801,794	949,06
801,974	2833,19
802,154	1035,08
802,334	1139,52
802,514	967,49
802,693	1123,14
802,873	1153,86
803,053	1280,83
803,233	1196,87
803,413	1229,63
803,592	1114,95
803,772	1176,39
803,952	1227,59
804,131	1198,92
804,311	1368,9
804,491	1672
804,67	2513,71
804,85	5262,09
805,03	11868,83
805,209	22284,8
805,389	36122,93
805,568	46919,82
805,748	55054,35
805,928	60614,58
806,107	63424,4
806,287	61890,47
806,466	57780,2
806,646	49846,36
806,825	43561,15
807,004	37142,81
807,184	31711,6
807,363	27062,71
807,543	23257,59
807,722	20417,05
807,901	17881,67
808,081	16415,32
808,26	14895,73
808,439	13853,31
808,619	12872,34
808,798	11623,08
808,977	10986,16
809,156	12667,54
809,336	20855,32
809,515	39416,06
809,694	63627,15
809,873	63627,15
810,052	63627,15
810,231	63627,15
810,411	63627,15
810,59	63627,15
810,769	63627,15
810,948	63627,15
811,127	63627,15
811,306	63627,15
811,485	63627,15
811,664	63627,15
811,843	63627,15
812,022	63627,15
812,201	63627,15
812,38	63627,15
812,559	63627,15
812,737	63627,15
812,916	63627,15
813,095	63627,15
813,274	63627,15
813,453	63627,15
813,632	63627,15
813,811	63627,15
813,989	63627,15
814,168	63627,15
814,347	63627,15
814,526	63627,15
814,704	63627,15
814,883	63627,15
815,062	63627,15
815,24	63627,15
815,419	63627,15
815,598	63627,15
815,776	63627,15
815,955	63627,15
816,133	63627,15
816,312	63627,15
816,49	63627,15
816,669	63627,15
816,847	63627,15
817,026	63627,15
817,204	63627,15
817,383	63627,15
817,561	63627,15
817,74	63627,15
817,918	63627,15
818,097	63627,15
818,275	63627,15
818,453	63627,15
818,632	63627,15
818,81	63627,15
818,988	63627,15
819,167	63627,15
819,345	63627,15
819,523	63627,15
819,701	63627,15
819,879	63627,15
820,058	63627,15
820,236	63627,15
820,414	63627,15
820,592	63627,15
820,77	63627,15
820,948	63627,15
821,127	63627,15
821,305	63627,15
821,483	63627,15
821,661	63627,15
821,839	63627,15
822,017	63627,15
822,195	63627,15
822,373	63627,15
822,551	63627,15
822,729	63627,15
822,907	63627,15
823,085	63627,15
823,262	63627,15
823,44	63627,15
823,618	63627,15
823,796	63627,15
823,974	63627,15
824,152	63627,15
824,329	63627,15
824,507	63627,15
824,685	63627,15
824,863	63627,15
825,04	63627,15
825,218	63627,15
825,396	63627,15
825,574	63627,15
825,751	63627,15
825,929	63627,15
826,107	63627,15
826,284	63627,15
826,462	63627,15
826,639	63627,15
826,817	63627,15
826,994	63627,15
827,172	63627,15
827,349	63627,15
827,527	63627,15
827,704	63627,15
827,882	63627,15
828,059	63627,15
828,237	63627,15
828,414	63627,15
828,591	63627,15
828,769	63627,15
828,946	63627,15
829,124	63627,15
829,301	63627,15
829,478	63627,15
829,655	63627,15
829,833	63627,15
830,01	63627,15
830,187	63627,15
830,364	63627,15
830,542	63627,15
830,719	63627,15
830,896	63627,15
831,073	63627,15
831,25	63627,15
831,427	63627,15
831,604	63627,15
831,782	63627,15
831,959	63627,15
832,136	63627,15
832,313	63627,15
832,49	63627,15
832,667	63627,15
832,844	63627,15
833,021	63627,15
833,198	63627,15
833,374	63627,15
833,551	63627,15
833,728	63627,15
833,905	63627,15
834,082	63627,15
834,259	63627,15
834,436	63627,15
834,612	63627,15
834,789	63627,15
834,966	63627,15
835,143	63627,15
835,319	63627,15
835,496	63627,15
835,673	63627,15
835,85	63627,15
836,026	63627,15
836,203	63627,15
836,38	63627,15
836,556	63627,15
836,733	63627,15
836,909	63627,15
837,086	63627,15
837,262	63627,15
837,439	63627,15
837,616	63627,15
837,792	63627,15
837,968	63627,15
838,145	63627,15
838,321	63627,15
838,498	63627,15
838,674	63627,15
838,851	63627,15
839,027	63627,15
839,203	63627,15
839,38	63627,15
839,556	63627,15
839,732	63627,15
839,909	63627,15
840,085	63627,15
840,261	63627,15
840,437	63627,15
840,614	63627,15
840,79	63627,15
840,966	63627,15
841,142	63627,15
841,318	63627,15
841,494	63627,15
841,671	63627,15
841,847	63627,15
842,023	63627,15
842,199	63627,15
842,375	63627,15
842,551	63627,15
842,727	63627,15
842,903	63627,15
843,079	63627,15
843,255	63627,15
843,431	63627,15
843,607	63627,15
843,783	63627,15
843,959	12802,71
844,134	13695,62
844,31	652,11
844,486	418,64
844,662	516,94
844,838	416,59
845,013	473,93
845,189	488,27
845,365	383,82
845,541	320,34
845,716	287,57
845,892	392,02
846,068	404,3
846,244	359,25
846,419	369,49
846,595	250,71
846,77	217,94
846,946	383,82
847,122	283,47
847,297	324,43
847,473	449,36
847,648	162,64
847,824	312,14
847,999	217,94
848,175	332,62
848,35	365,39
848,526	455,5
848,701	424,78
848,876	404,3
849,052	451,41
849,227	455,5
849,403	648,01
849,578	1413,95
849,753	3347,23
849,929	6847,21
850,104	12315,29
850,279	18666,04
850,454	24691,16
850,63	29200,79
850,805	31392,12
850,98	31752,56
851,155	30118,28
851,33	26984,89
851,505	23210,48
851,681	20154,91
851,856	17816,13
852,031	16431,71
852,206	14750,32
852,381	13529,73
852,556	12907,15
852,731	11508,39
852,906	10855,09
853,081	10130,11
853,256	9312,97
853,431	8651,47
853,606	8043,23
853,781	7434,98
853,956	7039,72
854,131	6210,29
854,305	5411,59
854,48	4580,11
854,655	3584,8
854,83	2718,51
855,005	2028,34
855,18	1733,43
855,354	1094,47
855,529	922,44
855,704	688,97
855,879	691,02
856,053	439,12
856,228	512,85
856,403	322,38
856,577	492,37
856,752	293,71
856,926	308,05
857,101	408,4
857,276	262,99
857,45	359,25
857,625	432,97
857,799	295,76
857,974	340,82
858,148	172,88
858,323	303,95
858,497	201,55
858,672	211,79
858,846	285,52
859,02	400,21
859,195	133,97
859,369	273,23
859,543	256,85
859,718	242,51
859,892	244,56
860,066	349,01
860,241	353,1
860,415	260,95
860,589	242,51
860,763	279,38
860,938	312,14
861,112	308,05
861,286	240,47
861,46	308,05
861,634	193,36
861,808	344,91
861,982	197,46
862,157	183,12
862,331	154,45
862,505	217,94
862,679	127,83
862,853	258,9
863,027	316,24
863,201	412,5
863,375	191,31
863,549	207,7
863,722	213,84
863,896	404,3
864,07	209,75
864,244	234,32
864,418	344,91
864,592	226,13
864,766	275,28
864,939	310,1
865,113	209,75
865,287	357,2
865,461	144,21
865,634	301,9
865,808	260,95
865,982	230,23
866,156	224,08
866,329	136,02
866,503	277,33
866,676	273,23
866,85	338,77
867,024	181,07
867,197	320,34
867,371	293,71
867,544	283,47
867,718	228,18
867,891	375,63
868,065	95,06
868,238	342,86
868,412	441,17
868,585	289,62
868,759	283,47
868,932	312,14
869,105	234,32
869,279	162,64
869,452	154,45
869,625	285,52
869,799	338,77
869,972	205,65
870,145	183,12
870,319	365,39
870,492	244,56
870,665	250,71
870,838	260,95
871,011	187,22
871,185	203,6
871,358	193,36
871,531	410,45
871,704	273,23
871,877	342,86
872,05	281,43
872,223	275,28
872,396	351,06
872,569	420,69
872,742	324,43
872,915	373,58
873,088	324,43
873,261	314,19
873,434	394,06
873,607	340,82
873,78	439,12
873,953	273,23
874,126	428,88
874,299	410,45
874,471	324,43
874,644	373,58
874,817	496,46
874,99	568,14
875,163	465,74
875,335	537,42
875,508	619,34
875,681	752,46
875,853	891,72
876,026	1117
876,199	2165,56
876,371	3982,1
876,544	8637,14
876,717	16325,21
876,889	27490,74
877,062	40941,8
877,234	53723,17
877,407	63274,9
877,579	63627,15
877,752	63627,15
877,924	63627,15
878,097	63627,15
878,269	63627,15
878,442	63627,15
878,614	63627,15
878,786	63627,15
878,959	63627,15
879,131	63627,15
879,303	63627,15
879,476	63627,15
879,648	56641,53
879,82	44366
879,993	41060,58
880,165	38187,28
880,337	35318,07
880,509	33093,98
880,681	31353,21
880,854	29626,77
881,026	27451,83
881,198	25094,61
881,37	22249,99
881,542	18764,34
881,714	15366,76
881,886	12219,03
882,058	9155,27
882,23	6714,09
882,402	4762,38
882,574	3494,69
882,746	2618,16
882,918	1995,57
883,09	1442,62
883,262	1225,54
883,434	1020,74
883,606	734,03
883,778	703,31
883,95	721,74
884,122	564,04
884,293	627,53
884,465	557,9
884,637	629,58
884,809	416,59
884,98	461,65
885,152	461,65
885,324	494,41
885,496	398,16
885,667	342,86
885,839	256,85
886,011	424,78
886,182	381,78
886,354	437,07
886,525	469,84
886,697	334,67
886,869	170,83
887,04	312,14
887,212	426,83
887,383	512,85
887,555	283,47
887,726	318,29
887,897	269,14
888,069	303,95
888,24	355,15
888,412	285,52
888,583	289,62
888,754	285,52
888,926	170,83
889,097	217,94
889,268	164,69
889,44	303,95
889,611	213,84
889,782	172,88
889,953	308,05
890,125	457,55
890,296	226,13
890,467	242,51
890,638	297,81
890,809	357,2
890,98	361,3
891,151	582,48
891,323	779,08
891,494	1112,9
891,665	1995,57
891,836	3826,46
892,007	6763,25
892,178	11477,67
892,349	17085,01
892,52	23337,46
892,691	30140,81
892,862	35709,24
893,032	41486,56
893,203	45138,08
893,374	46813,32
893,545	47028,36
893,716	46602,38
893,887	44980,39
894,057	42596,56
894,228	40208,62
894,399	38670,6
894,57	36550,95
894,74	33571,16
894,911	31447,41
895,082	29899,15
895,253	27513,27
895,423	26276,29
895,594	24668,64
895,764	23147
895,935	21574,16
896,106	20705,82
896,276	19251,76
896,447	18100,8
896,617	16253,53
896,788	14662,26
896,958	12130,97
897,129	10339
897,299	7871,2
897,47	6081,27
897,64	4723,47
897,81	3279,65
897,981	2569,01
898,151	1715
898,322	1518,4
898,492	1082,18
898,662	805,71
898,832	707,4
899,003	627,53
899,173	635,72
899,343	428,88
899,513	484,17
