Data from krypton_USB4F104151__9__11-01-34-809.txt Node

Date: Wed Apr 15 11:01:34 EDT 2026
User: LaboPhy
Spectrometer: USB4F10415
Trigger mode: 4
Integration Time (sec): 1,000000E-1
Scans to average: 1
Electric dark correction enabled: true
Nonlinearity correction enabled: false
Boxcar width: 0
XAxis mode: Wavelengths
Number of Pixels in Spectrum: 3648
>>>>>Begin Spectral Data<<<<<
178,204	-445,77
178,424	-445,77
178,644	-445,77
178,864	-507,21
179,084	-470,35
179,304	-36,18
179,524	-54,61
179,744	21,16
179,964	39,59
180,184	94,89
180,404	78,51
180,624	-93,52
180,844	49,83
181,064	-79,19
181,283	6,83
181,503	-56,66
181,723	29,35
181,943	-58,71
182,163	176,81
182,383	-19,8
182,602	148,14
182,822	189,1
183,042	135,85
183,262	0,68
183,482	2,73
183,701	31,4
183,921	123,56
184,141	-54,61
184,361	80,55
184,58	84,65
184,8	41,64
185,02	21,16
185,239	144,04
185,459	168,62
185,679	193,19
185,898	-87,38
186,118	133,8
186,338	0,68
186,557	86,7
186,777	-99,67
186,997	-5,46
187,216	33,45
187,436	291,49
187,655	146,09
187,875	154,28
188,095	74,41
188,314	164,52
188,534	152,23
188,753	64,17
188,973	119,46
189,192	287,4
189,412	-42,32
189,631	39,59
189,851	156,33
190,07	258,73
190,29	-93,52
190,509	-17,75
190,729	47,79
190,948	121,51
191,168	244,39
191,387	94,89
191,607	105,13
191,826	111,27
192,045	43,69
192,265	-7,51
192,484	49,83
192,704	70,31
192,923	-42,32
193,142	160,42
193,362	141,99
193,581	152,23
193,8	141,99
194,02	88,75
194,239	23,21
194,458	156,33
194,678	8,87
194,897	41,64
195,116	12,97
195,335	29,35
195,555	123,56
195,774	33,45
195,993	182,95
196,212	10,92
196,432	-38,23
196,651	23,21
196,87	6,83
197,089	291,49
197,308	76,46
197,528	78,51
197,747	12,97
197,966	82,6
198,185	135,85
198,404	-46,42
198,623	131,75
198,842	168,62
199,062	137,9
199,281	123,56
199,5	17,07
199,719	201,38
199,938	64,17
200,157	162,47
200,376	148,14
200,595	115,37
200,814	66,22
201,033	17,07
201,252	180,9
201,471	164,52
201,69	74,41
201,909	90,79
202,128	119,46
202,347	70,31
202,566	76,46
202,785	-124,24
203,004	10,92
203,223	295,59
203,442	-64,85
203,661	4,78
203,879	96,94
204,098	62,12
204,317	-7,51
204,536	101,03
204,755	72,36
204,974	82,6
205,193	49,83
205,411	154,28
205,63	154,28
205,849	80,55
206,068	-11,61
206,287	-7,51
206,505	148,14
206,724	-7,51
206,943	-25,94
207,162	-62,8
207,381	123,56
207,599	68,27
207,818	45,74
208,037	-36,18
208,255	84,65
208,474	123,56
208,693	72,36
208,911	17,07
209,13	172,71
209,349	96,94
209,567	113,32
209,786	105,13
210,005	146,09
210,223	53,93
210,442	-87,38
210,661	-7,51
210,879	41,64
211,098	31,4
211,316	21,16
211,535	39,59
211,753	72,36
211,972	146,09
212,191	4,78
212,409	49,83
212,628	88,75
212,846	33,45
213,065	33,45
213,283	86,7
213,502	25,26
213,72	64,17
213,938	49,83
214,157	-11,61
214,375	144,04
214,594	19,11
214,812	45,74
215,031	-19,8
215,249	74,41
215,467	172,71
215,686	137,9
215,904	47,79
216,122	135,85
216,341	223,91
216,559	55,98
216,778	152,23
216,996	211,62
217,214	39,59
217,432	25,26
217,651	-11,61
217,869	150,18
218,087	51,88
218,306	31,4
218,524	96,94
218,742	55,98
218,96	150,18
219,179	6,83
219,397	8,87
219,615	357,03
219,833	162,47
220,051	-66,9
220,27	82,6
220,488	123,56
220,706	-11,61
220,924	-36,18
221,142	62,12
221,36	70,31
221,578	119,46
221,796	29,35
222,015	33,45
222,233	45,74
222,451	201,38
222,669	35,5
222,887	168,62
223,105	4,78
223,323	78,51
223,541	-52,56
223,759	141,99
223,977	76,46
224,195	230,06
224,413	148,14
224,631	107,18
224,849	109,22
225,067	293,54
225,285	12,97
225,503	15,02
225,721	-27,99
225,939	80,55
226,157	49,83
226,375	252,58
226,592	72,36
226,81	53,93
227,028	164,52
227,246	58,03
227,464	80,55
227,682	111,27
227,9	72,36
228,117	74,41
228,335	92,84
228,553	47,79
228,771	47,79
228,989	72,36
229,206	25,26
229,424	74,41
229,642	35,5
229,86	-42,32
230,077	113,32
230,295	41,64
230,513	166,57
230,731	58,03
230,948	268,97
231,166	189,1
231,384	35,5
231,601	-9,56
231,819	176,81
232,037	45,74
232,254	25,26
232,472	80,55
232,689	103,08
232,907	119,46
233,125	-32,08
233,342	-11,61
233,56	37,55
233,777	0,68
233,995	-32,08
234,213	129,7
234,43	119,46
234,648	55,98
234,865	-3,41
235,083	10,92
235,3	47,79
235,518	92,84
235,735	144,04
235,953	127,66
236,17	88,75
236,388	88,75
236,605	-30,04
236,822	154,28
237,04	135,85
237,257	96,94
237,475	21,16
237,692	80,55
237,909	176,81
238,127	0,68
238,344	148,14
238,562	-36,18
238,779	6,83
238,996	-77,14
239,214	27,31
239,431	139,94
239,648	98,99
239,865	109,22
240,083	131,75
240,3	-25,94
240,517	-11,61
240,735	94,89
240,952	178,86
241,169	58,03
241,386	76,46
241,603	25,26
241,821	-48,47
242,038	119,46
242,255	201,38
242,472	-83,28
242,689	113,32
242,907	15,02
243,124	101,03
243,341	6,83
243,558	-15,7
243,775	-27,99
243,992	-3,41
244,209	213,67
244,426	244,39
244,643	49,83
244,86	109,22
245,078	31,4
245,295	154,28
245,512	53,93
245,729	39,59
245,946	107,18
246,163	15,02
246,38	-11,61
246,597	119,46
246,814	78,51
247,031	80,55
247,248	-38,23
247,464	88,75
247,681	72,36
247,898	41,64
248,115	58,03
248,332	-54,61
248,549	228,01
248,766	172,71
248,983	45,74
249,2	125,61
249,417	127,66
249,633	-11,61
249,85	107,18
250,067	60,07
250,284	70,31
250,501	107,18
250,717	74,41
250,934	-23,89
251,151	6,83
251,368	23,21
251,585	62,12
251,801	113,32
252,018	-3,41
252,235	148,14
252,451	21,16
252,668	10,92
252,885	162,47
253,102	0,68
253,318	21,16
253,535	8,87
253,752	55,98
253,968	31,4
254,185	-44,37
254,401	121,51
254,618	62,12
254,835	-11,61
255,051	94,89
255,268	17,07
255,484	55,98
255,701	25,26
255,917	60,07
256,134	23,21
256,351	55,98
256,567	-40,28
256,784	43,69
257	-73,04
257,217	96,94
257,433	98,99
257,65	64,17
257,866	213,67
258,082	-23,89
258,299	-34,13
258,515	12,97
258,732	27,31
258,948	-36,18
259,165	119,46
259,381	-42,32
259,597	17,07
259,814	53,93
260,03	78,51
260,246	35,5
260,463	133,8
260,679	193,19
260,895	80,55
261,112	66,22
261,328	68,27
261,544	-71
261,761	115,37
261,977	17,07
262,193	-13,65
262,409	15,02
262,626	78,51
262,842	0,68
263,058	64,17
263,274	70,31
263,49	23,21
263,707	105,13
263,923	176,81
264,139	-150,87
264,355	4,78
264,571	193,19
264,787	92,84
265,004	135,85
265,22	86,7
265,436	4,78
265,652	-9,56
265,868	78,51
266,084	-83,28
266,3	-19,8
266,516	-7,51
266,732	115,37
266,948	29,35
267,164	6,83
267,38	74,41
267,596	146,09
267,812	127,66
268,028	111,27
268,244	4,78
268,46	90,79
268,676	70,31
268,892	141,99
269,108	17,07
269,324	10,92
269,54	-68,95
269,756	62,12
269,972	-58,71
270,188	33,45
270,403	-60,76
270,619	6,83
270,835	107,18
271,051	19,11
271,267	47,79
271,483	-50,52
271,698	164,52
271,914	109,22
272,13	111,27
272,346	8,87
272,562	117,42
272,777	168,62
272,993	45,74
273,209	0,68
273,425	107,18
273,64	-5,46
273,856	72,36
274,072	62,12
274,287	25,26
274,503	150,18
274,719	117,42
274,934	-42,32
275,15	-36,18
275,366	72,36
275,581	4,78
275,797	6,83
276,012	72,36
276,228	53,93
276,444	70,31
276,659	160,42
276,875	21,16
277,09	86,7
277,306	23,21
277,521	62,12
277,737	17,07
277,952	162,47
278,168	29,35
278,383	53,93
278,599	119,46
278,814	45,74
279,03	90,79
279,245	115,37
279,461	113,32
279,676	127,66
279,892	-71
280,107	25,26
280,322	-5,46
280,538	70,31
280,753	-1,37
280,969	121,51
281,184	70,31
281,399	86,7
281,615	58,03
281,83	62,12
282,045	-34,13
282,26	31,4
282,476	27,31
282,691	185
282,906	72,36
283,122	98,99
283,337	4,78
283,552	51,88
283,767	10,92
283,983	135,85
284,198	78,51
284,413	-1,37
284,628	-83,28
284,843	86,7
285,058	74,41
285,274	-13,65
285,489	-13,65
285,704	105,13
285,919	-9,56
286,134	53,93
286,349	60,07
286,564	62,12
286,779	266,92
286,995	-60,76
287,21	0,68
287,425	88,75
287,64	-11,61
287,855	117,42
288,07	-101,72
288,285	180,9
288,5	174,76
288,715	60,07
288,93	90,79
289,145	27,31
289,36	103,08
289,575	86,7
289,79	117,42
290,004	-13,65
290,219	152,23
290,434	49,83
290,649	15,02
290,864	-32,08
291,079	8,87
291,294	72,36
291,509	94,89
291,724	37,55
291,938	10,92
292,153	55,98
292,368	68,27
292,583	88,75
292,798	80,55
293,012	96,94
293,227	21,16
293,442	-40,28
293,657	146,09
293,871	127,66
294,086	78,51
294,301	250,53
294,516	113,32
294,73	94,89
294,945	-25,94
295,16	12,97
295,374	176,81
295,589	137,9
295,804	21,16
296,018	21,16
296,233	109,22
296,447	107,18
296,662	23,21
296,877	115,37
297,091	49,83
297,306	105,13
297,52	178,86
297,735	103,08
297,949	74,41
298,164	51,88
298,378	86,7
298,593	15,02
298,807	-23,89
299,022	23,21
299,236	199,34
299,451	41,64
299,665	62,12
299,88	88,75
300,094	115,37
300,309	64,17
300,523	76,46
300,737	-68,95
300,952	78,51
301,166	123,56
301,381	-68,95
301,595	-21,85
301,809	17,07
302,024	37,55
302,238	-21,85
302,452	154,28
302,667	80,55
302,881	119,46
303,095	121,51
303,309	144,04
303,524	-40,28
303,738	58,03
303,952	31,4
304,166	39,59
304,381	-93,52
304,595	234,15
304,809	-9,56
305,023	105,13
305,237	117,42
305,452	62,12
305,666	144,04
305,88	111,27
306,094	191,14
306,308	68,27
306,522	178,86
306,736	127,66
306,95	250,53
307,164	105,13
307,379	84,65
307,593	203,43
307,807	279,21
308,021	189,1
308,235	250,53
308,449	-11,61
308,663	152,23
308,877	277,16
309,091	185
309,305	201,38
309,519	6,83
309,733	238,25
309,947	70,31
310,161	176,81
310,374	191,14
310,588	209,58
310,802	82,6
311,016	174,76
311,23	98,99
311,444	101,03
311,658	154,28
311,872	230,06
312,085	209,58
312,299	307,88
312,513	213,67
312,727	172,71
312,941	107,18
313,154	203,43
313,368	135,85
313,582	135,85
313,796	185
314,009	107,18
314,223	197,29
314,437	129,7
314,651	209,58
314,864	148,14
315,078	92,84
315,292	-36,18
315,505	98,99
315,719	213,67
315,933	150,18
316,146	33,45
316,36	125,61
316,573	277,16
316,787	185
317,001	107,18
317,214	23,21
317,428	129,7
317,641	-15,7
317,855	39,59
318,068	107,18
318,282	123,56
318,495	268,97
318,709	170,66
318,922	137,9
319,136	260,77
319,349	219,82
319,563	41,64
319,776	228,01
319,99	49,83
320,203	160,42
320,417	139,94
320,63	170,66
320,843	285,35
321,057	215,72
321,27	189,1
321,483	250,53
321,697	189,1
321,91	170,66
322,124	117,42
322,337	137,9
322,55	62,12
322,763	111,27
322,977	113,32
323,19	90,79
323,403	166,57
323,617	111,27
323,83	182,95
324,043	101,03
324,256	133,8
324,469	15,02
324,683	244,39
324,896	62,12
325,109	98,99
325,322	-21,85
325,535	117,42
325,748	131,75
325,962	53,93
326,175	154,28
326,388	146,09
326,601	201,38
326,814	94,89
327,027	121,51
327,24	187,05
327,453	-44,37
327,666	178,86
327,879	131,75
328,092	109,22
328,305	150,18
328,518	164,52
328,731	127,66
328,944	66,22
329,157	258,73
329,37	139,94
329,583	402,08
329,796	172,71
330,009	62,12
330,222	250,53
330,435	189,1
330,648	217,77
330,861	148,14
331,073	225,96
331,286	197,29
331,499	72,36
331,712	164,52
331,925	127,66
332,138	94,89
332,35	197,29
332,563	74,41
332,776	320,17
332,989	58,03
333,202	176,81
333,414	211,62
333,627	189,1
333,84	193,19
334,053	234,15
334,265	254,63
334,478	256,68
334,691	275,11
334,903	299,69
335,116	373,41
335,329	389,8
335,541	496,29
335,754	641,7
335,966	488,1
336,179	520,87
336,392	527,01
336,604	406,18
336,817	488,1
337,029	549,54
337,242	441
337,454	406,18
337,667	445,09
337,88	457,38
338,092	381,6
338,305	410,28
338,517	254,63
338,729	328,36
338,942	418,47
339,154	103,08
339,367	156,33
339,579	336,55
339,792	158,38
340,004	275,11
340,217	273,06
340,429	236,2
340,641	174,76
340,854	152,23
341,066	119,46
341,278	307,88
341,491	324,26
341,703	168,62
341,915	154,28
342,128	223,91
342,34	205,48
342,552	62,12
342,764	131,75
342,977	240,29
343,189	260,77
343,401	236,2
343,613	103,08
343,826	123,56
344,038	141,99
344,25	168,62
344,462	107,18
344,674	182,95
344,886	172,71
345,099	195,24
345,311	195,24
345,523	90,79
345,735	51,88
345,947	168,62
346,159	127,66
346,371	150,18
346,583	131,75
346,795	316,07
347,007	115,37
347,219	178,86
347,431	189,1
347,643	258,73
347,855	156,33
348,067	334,5
348,279	115,37
348,491	146,09
348,703	287,4
348,915	197,29
349,127	150,18
349,339	176,81
349,551	185
349,763	236,2
349,975	246,44
350,187	307,88
350,399	346,79
350,61	209,58
350,822	268,97
351,034	242,34
351,246	328,36
351,458	324,26
351,669	228,01
351,881	375,46
352,093	258,73
352,305	303,78
352,517	252,58
352,728	252,58
352,94	232,1
353,152	213,67
353,363	135,85
353,575	275,11
353,787	363,17
353,999	268,97
354,21	400,04
354,422	137,9
354,633	273,06
354,845	283,3
355,057	285,35
355,268	244,39
355,48	367,27
355,692	146,09
355,903	295,59
356,115	266,92
356,326	197,29
356,538	479,91
356,749	471,72
356,961	479,91
357,172	416,42
357,384	488,1
357,595	604,83
357,807	473,76
358,018	393,89
358,23	441
358,441	516,77
358,653	430,76
358,864	395,94
359,075	359,08
359,287	445,09
359,498	465,57
359,709	461,48
359,921	264,87
360,132	371,37
360,344	260,77
360,555	228,01
360,766	244,39
360,977	287,4
361,189	383,65
361,4	279,21
361,611	379,56
361,823	289,45
362,034	299,69
362,245	185
362,456	314,02
362,667	344,74
362,879	107,18
363,09	223,91
363,301	232,1
363,512	254,63
363,723	146,09
363,935	187,05
364,146	365,22
364,357	279,21
364,568	291,49
364,779	221,86
364,99	438,95
365,201	311,97
365,412	393,89
365,623	246,44
365,834	441
366,045	393,89
366,256	545,44
366,467	594,59
366,678	561,83
366,889	580,26
367,1	545,44
367,311	621,22
367,522	524,96
367,733	613,03
367,944	574,11
368,155	565,92
368,366	586,4
368,577	580,26
368,788	533,15
368,999	346,79
369,209	391,84
369,42	574,11
369,631	469,67
369,842	357,03
370,053	281,25
370,264	328,36
370,474	234,15
370,685	373,41
370,896	330,41
371,107	344,74
371,317	307,88
371,528	373,41
371,739	328,36
371,95	326,31
372,16	178,86
372,371	211,62
372,582	228,01
372,792	266,92
373,003	238,25
373,214	301,73
373,424	303,78
373,635	133,8
373,846	373,41
374,056	275,11
374,267	342,69
374,477	307,88
374,688	201,38
374,898	260,77
375,109	246,44
375,319	334,5
375,53	367,27
375,74	385,7
375,951	240,29
376,161	307,88
376,372	469,67
376,582	275,11
376,793	389,8
377,003	402,08
377,214	295,59
377,424	461,48
377,635	410,28
377,845	320,17
378,055	504,48
378,266	303,78
378,476	414,37
378,686	447,14
378,897	340,65
379,107	520,87
379,317	492,2
379,528	506,53
379,738	537,25
379,948	420,52
380,158	596,64
380,369	549,54
380,579	639,65
380,789	518,82
380,999	578,21
381,21	565,92
381,42	696,99
381,63	570,02
381,84	643,74
382,05	615,07
382,261	645,79
382,471	748,19
382,681	670,37
382,891	819,87
383,101	778,91
383,311	740
383,521	750,24
383,731	1016,48
383,941	1045,15
384,151	879,26
384,361	1028,76
384,571	1129,11
384,781	1225,37
384,991	1323,67
385,201	1233,56
385,411	1329,81
385,621	1249,94
385,831	1266,33
386,041	1235,61
386,251	1247,9
386,461	1305,24
386,671	1364,63
386,881	1426,07
387,091	1340,05
387,301	1350,29
387,511	1266,33
387,72	1372,82
387,93	1297,05
388,14	1045,15
388,35	1176,22
388,56	1090,2
388,769	938,65
388,979	881,31
389,189	740
389,399	709,28
389,609	717,47
389,818	633,5
390,028	590,5
390,238	598,69
390,447	488,1
390,657	545,44
390,867	488,1
391,076	309,93
391,286	422,56
391,496	457,38
391,705	436,9
391,915	504,48
392,125	518,82
392,334	357,03
392,544	543,39
392,753	412,32
392,963	334,5
393,172	307,88
393,382	311,97
393,591	598,69
393,801	379,56
394,01	422,56
394,22	467,62
394,429	303,78
394,639	381,6
394,848	498,34
395,058	350,89
395,267	389,8
395,477	412,32
395,686	385,7
395,895	549,54
396,105	520,87
396,314	418,47
396,524	246,44
396,733	307,88
396,942	434,85
397,152	361,13
397,361	318,12
397,57	342,69
397,78	330,41
397,989	383,65
398,198	563,87
398,407	346,79
398,617	271,01
398,826	389,8
399,035	361,13
399,244	352,93
399,453	311,97
399,663	311,97
399,872	299,69
400,081	252,58
400,29	375,46
400,499	271,01
400,708	375,46
400,917	217,77
401,127	328,36
401,336	311,97
401,545	498,34
401,754	385,7
401,963	404,13
402,172	262,82
402,381	228,01
402,59	217,77
402,799	320,17
403,008	434,85
403,217	395,94
403,426	414,37
403,635	295,59
403,844	303,78
404,053	381,6
404,262	461,48
404,471	610,98
404,68	420,52
404,888	397,99
405,097	373,41
405,306	420,52
405,515	393,89
405,724	340,65
405,933	408,23
406,142	309,93
406,35	500,39
406,559	346,79
406,768	410,28
406,977	414,37
407,185	324,26
407,394	381,6
407,603	271,01
407,812	367,27
408,02	418,47
408,229	342,69
408,438	428,71
408,646	316,07
408,855	357,03
409,064	352,93
409,272	344,74
409,481	402,08
409,69	346,79
409,898	332,45
410,107	397,99
410,315	506,53
410,524	291,49
410,733	395,94
410,941	354,98
411,15	496,29
411,358	451,24
411,567	504,48
411,775	381,6
411,984	340,65
412,192	512,67
412,401	377,51
412,609	561,83
412,818	520,87
413,026	375,46
413,234	338,6
413,443	348,84
413,651	320,17
413,86	369,32
414,068	578,21
414,276	539,3
414,485	381,6
414,693	559,78
414,901	557,73
415,11	471,72
415,318	457,38
415,526	438,95
415,734	473,76
415,943	397,99
416,151	516,77
416,359	463,52
416,567	389,8
416,776	541,35
416,984	504,48
417,192	479,91
417,4	350,89
417,608	383,65
417,817	402,08
418,025	397,99
418,233	592,55
418,441	381,6
418,649	438,95
418,857	451,24
419,065	516,77
419,273	443,04
419,481	449,19
419,689	445,09
419,897	391,84
420,105	393,89
420,313	522,91
420,521	467,62
420,729	508,58
420,937	385,7
421,145	404,13
421,353	479,91
421,561	522,91
421,769	445,09
421,977	328,36
422,185	563,87
422,393	365,22
422,601	533,15
422,809	404,13
423,017	289,45
423,224	348,84
423,432	496,29
423,64	277,16
423,848	430,76
424,056	363,17
424,263	506,53
424,471	400,04
424,679	561,83
424,887	424,61
425,094	862,88
425,302	1059,48
425,51	1489,56
425,718	2028,17
425,925	2613,89
426,133	3117,69
426,341	4041,32
426,548	4723,3
426,756	5296,73
426,964	6001,23
427,171	6750,79
427,379	7346,75
427,586	7469,62
427,794	7266,88
428,001	6974,02
428,209	6447,69
428,417	5505,62
428,624	4715,11
428,832	3818,1
429,039	2955,9
429,247	2511,49
429,454	2347,65
429,662	2425,48
429,869	2288,26
430,076	2884,22
430,284	3502,71
430,491	4291,18
430,699	5263,96
430,906	6130,25
431,114	6775,36
431,321	7809,59
431,528	8647,21
431,736	9693,72
431,943	10547,72
432,15	9873,94
432,358	9251,36
432,565	8899,11
432,772	7545,4
432,979	6476,36
433,187	5128,8
433,394	3945,07
433,601	3197,56
433,808	2523,78
434,016	1897,1
434,223	1577,62
434,43	1284,76
434,637	1364,63
434,844	1399,45
435,052	1428,12
435,259	1628,82
435,466	1843,85
435,673	2022,03
435,88	2462,34
436,087	2888,32
436,294	3181,18
436,501	3232,38
436,708	3390,07
436,915	3705,46
437,122	3938,93
437,329	3641,97
437,537	3826,29
437,743	3748,47
437,95	3547,76
438,157	3283,58
438,364	3007,1
438,571	2552,45
438,778	2120,33
438,985	1847,95
439,192	1700,5
439,399	1366,68
439,606	1217,18
439,813	1102,49
440,02	1192,6
440,227	1141,4
440,433	912,03
440,64	860,83
440,847	793,25
441,054	758,43
441,261	850,59
441,467	678,56
441,674	635,55
441,881	713,38
442,088	479,91
442,294	613,03
442,501	598,69
442,708	596,64
442,914	502,43
443,121	594,59
443,328	750,24
443,534	821,92
443,741	924,32
443,948	965,28
444,154	1387,16
444,361	1960,59
444,568	2083,47
444,774	2402,95
444,981	2757,25
445,187	3445,37
445,394	3846,77
445,6	3988,08
445,807	4547,17
446,013	4491,88
446,22	4323,94
446,426	4520,55
446,633	4190,83
446,839	4008,56
447,046	3107,45
447,252	3009,15
447,459	2386,57
447,665	1821,33
447,871	1731,22
448,078	1579,67
448,284	1305,24
448,491	1325,72
448,697	1434,26
448,903	1485,46
449,11	1645,2
449,316	1571,47
449,522	1966,73
449,728	2163,34
449,935	2302,6
450,141	2366,09
450,347	2540,16
450,553	2355,85
450,76	2241,16
450,966	2042,51
451,172	1872,53
451,378	1643,15
451,584	1387,16
451,791	1206,94
451,997	996
452,203	832,16
452,409	776,86
452,615	713,38
452,821	438,95
453,027	326,31
453,233	649,89
453,44	461,48
453,646	381,6
453,852	463,52
454,058	348,84
454,264	414,37
454,47	465,57
454,676	418,47
454,882	473,76
455,088	481,96
455,294	328,36
455,5	488,1
455,705	475,81
455,911	436,9
456,117	404,13
456,323	400,04
456,529	422,56
456,735	424,61
456,941	434,85
457,147	406,18
457,352	492,2
457,558	336,55
457,764	479,91
457,97	320,17
458,176	412,32
458,381	410,28
458,587	627,36
458,793	443,04
458,999	387,75
459,204	369,32
459,41	424,61
459,616	447,14
459,821	436,9
460,027	324,26
460,233	488,1
460,438	531,11
460,644	436,9
460,85	475,81
461,055	406,18
461,261	574,11
461,466	430,76
461,672	434,85
461,878	385,7
462,083	475,81
462,289	254,63
462,494	311,97
462,7	471,72
462,905	350,89
463,111	465,57
463,316	455,33
463,522	377,51
463,727	373,41
463,932	381,6
464,138	498,34
464,343	389,8
464,549	520,87
464,754	451,24
464,959	543,39
465,165	428,71
465,37	498,34
465,575	346,79
465,781	391,84
465,986	422,56
466,191	397,99
466,397	520,87
466,602	701,09
466,807	635,55
467,012	635,55
467,218	674,46
467,423	553,63
467,628	463,52
467,833	514,72
468,038	580,26
468,244	479,91
468,449	582,31
468,654	656,03
468,859	645,79
469,064	688,8
469,269	676,51
469,474	672,42
469,679	705,18
469,885	713,38
470,09	570,02
470,295	625,31
470,5	549,54
470,705	619,17
470,91	606,88
471,115	625,31
471,32	492,2
471,525	692,9
471,73	703,14
471,935	438,95
472,139	547,49
472,344	561,83
472,549	598,69
472,754	606,88
472,959	662,18
473,164	504,48
473,369	604,83
473,574	727,71
473,778	651,94
473,983	518,82
474,188	645,79
474,393	508,58
474,598	606,88
474,802	670,37
475,007	484
475,212	576,16
475,417	486,05
475,621	705,18
475,826	535,2
476,031	535,2
476,235	596,64
476,44	543,39
476,645	576,16
476,849	522,91
477,054	520,87
477,259	492,2
477,463	707,23
477,668	744,1
477,872	678,56
478,077	533,15
478,282	418,47
478,486	574,11
478,691	559,78
478,895	557,73
479,1	656,03
479,304	701,09
479,509	596,64
479,713	651,94
479,918	680,61
480,122	574,11
480,326	602,79
480,531	692,9
480,735	711,33
480,94	676,51
481,144	744,1
481,348	711,33
481,553	803,49
481,757	719,52
481,961	772,77
482,166	740
482,37	672,42
482,574	756,38
482,778	629,41
482,983	844,45
483,187	684,7
483,391	719,52
483,595	694,94
483,8	735,9
484,004	858,78
484,208	748,19
484,412	813,73
484,616	733,86
484,821	664,22
485,025	733,86
485,229	570,02
485,433	686,75
485,637	703,14
485,841	740
486,045	821,92
486,249	815,77
486,453	869,02
486,657	791,2
486,861	692,9
487,065	793,25
487,269	893,6
487,473	807,58
487,677	963,23
487,881	1133,21
488,085	934,56
488,289	926,36
488,493	897,69
488,697	1051,29
488,901	944,8
489,105	838,3
489,309	879,26
489,512	1065,63
489,716	987,8
489,92	944,8
490,124	860,83
490,328	909,98
490,531	871,07
490,735	901,79
490,939	740
491,143	811,68
491,346	791,2
491,55	744,1
491,754	826,01
491,958	733,86
492,161	627,36
492,365	772,77
492,569	664,22
492,772	795,29
492,976	766,62
493,18	641,7
493,383	762,53
493,587	690,85
493,79	748,19
493,994	592,55
494,197	570,02
494,401	672,42
494,605	621,22
494,808	610,98
495,012	703,14
495,215	770,72
495,419	735,9
495,622	580,26
495,825	766,62
496,029	651,94
496,232	776,86
496,436	750,24
496,639	723,62
496,843	811,68
497,046	715,42
497,249	901,79
497,453	735,9
497,656	613,03
497,859	801,44
498,063	848,54
498,266	801,44
498,469	592,55
498,673	637,6
498,876	674,46
499,079	615,07
499,282	694,94
499,485	1008,28
499,689	723,62
499,892	799,39
500,095	725,66
500,298	729,76
500,501	602,79
500,705	703,14
500,908	727,71
501,111	555,68
501,314	758,43
501,517	834,21
501,72	717,47
501,923	578,21
502,126	658,08
502,329	735,9
502,532	707,23
502,735	598,69
502,938	791,2
503,141	686,75
503,344	623,27
503,547	860,83
503,75	670,37
503,953	725,66
504,156	869,02
504,359	838,3
504,562	823,97
504,765	754,34
504,968	932,51
505,17	866,97
505,373	905,88
505,576	930,46
505,779	848,54
505,982	889,5
506,185	914,08
506,387	912,03
506,59	1041,05
506,793	942,75
506,996	983,71
507,198	1053,34
507,401	1049,24
507,604	971,42
507,807	969,37
508,009	891,55
508,212	998,04
508,415	893,6
508,617	823,97
508,82	897,69
509,022	758,43
509,225	901,79
509,428	807,58
509,63	817,82
509,833	733,86
510,035	1012,38
510,238	901,79
510,44	686,75
510,643	830,11
510,845	905,88
511,048	889,5
511,25	817,82
511,453	725,66
511,655	821,92
511,858	946,84
512,06	1090,2
512,262	856,73
512,465	940,7
512,667	1057,43
512,87	877,21
513,072	1254,04
513,274	1120,92
513,477	1036,95
513,679	1153,69
513,881	1102,49
514,084	1102,49
514,286	1274,52
514,488	1161,88
514,69	1184,41
514,893	1163,93
515,095	1315,48
515,297	1118,87
515,499	1198,74
515,701	1067,67
515,904	1215,13
516,106	1202,84
516,308	1221,27
516,51	1149,59
516,712	1082,01
516,914	1028,76
517,116	905,88
517,318	838,3
517,52	914,08
517,722	864,93
517,925	793,25
518,127	770,72
518,329	905,88
518,531	664,22
518,733	799,39
518,935	774,81
519,136	807,58
519,338	608,93
519,54	676,51
519,742	672,42
519,944	717,47
520,146	740
520,348	641,7
520,55	725,66
520,752	484
520,954	684,7
521,155	686,75
521,357	610,98
521,559	711,33
521,761	809,63
521,963	733,86
522,164	756,38
522,366	719,52
522,568	742,05
522,77	815,77
522,971	836,25
523,173	701,09
523,375	852,64
523,576	672,42
523,778	684,7
523,98	719,52
524,181	811,68
524,383	850,59
524,584	748,19
524,786	744,1
524,988	760,48
525,189	856,73
525,391	809,63
525,592	735,9
525,794	750,24
525,995	785,05
526,197	836,25
526,398	928,41
526,6	807,58
526,801	828,06
527,003	610,98
527,204	819,87
527,406	789,15
527,607	803,49
527,808	672,42
528,01	733,86
528,211	815,77
528,412	645,79
528,614	828,06
528,815	791,2
529,016	801,44
529,218	645,79
529,419	758,43
529,62	658,08
529,822	756,38
530,023	649,89
530,224	699,04
530,425	656,03
530,626	537,25
530,828	703,14
531,029	475,81
531,23	834,21
531,431	578,21
531,632	862,88
531,833	774,81
532,035	676,51
532,236	719,52
532,437	826,01
532,638	766,62
532,839	774,81
533,04	889,5
533,241	926,36
533,442	916,12
533,643	932,51
533,844	930,46
534,045	893,6
534,246	989,85
534,447	848,54
534,648	938,65
534,849	1114,78
535,05	973,47
535,251	832,16
535,451	971,42
535,652	873,12
535,853	803,49
536,054	975,52
536,255	819,87
536,456	826,01
536,657	828,06
536,857	850,59
537,058	836,25
537,259	807,58
537,46	832,16
537,66	807,58
537,861	643,74
538,062	725,66
538,263	582,31
538,463	817,82
538,664	742,05
538,865	688,8
539,065	647,84
539,266	737,95
539,466	537,25
539,667	723,62
539,868	660,13
540,068	627,36
540,269	701,09
540,469	705,18
540,67	758,43
540,87	723,62
541,071	539,3
541,271	690,85
541,472	791,2
541,672	826,01
541,873	613,03
542,073	672,42
542,274	684,7
542,474	742,05
542,675	733,86
542,875	713,38
543,075	664,22
543,276	686,75
543,476	684,7
543,676	774,81
543,877	637,6
544,077	770,72
544,277	744,1
544,478	746,14
544,678	672,42
544,878	723,62
545,078	678,56
545,279	643,74
545,479	631,46
545,679	623,27
545,879	635,55
546,079	692,9
546,28	574,11
546,48	709,28
546,68	709,28
546,88	672,42
547,08	613,03
547,28	766,62
547,48	598,69
547,68	817,82
547,88	727,71
548,081	780,96
548,281	692,9
548,481	875,17
548,681	869,02
548,881	881,31
549,081	1012,38
549,28	926,36
549,48	1153,69
549,68	1278,62
549,88	1108,63
550,08	1084,06
550,28	1090,2
550,48	1208,98
550,68	1186,46
550,88	1104,54
551,08	1112,73
551,279	1227,42
551,479	1120,92
551,679	1106,59
551,879	1014,43
552,079	1055,39
552,278	938,65
552,478	1127,07
552,678	991,9
552,878	955,04
553,077	897,69
553,277	823,97
553,477	866,97
553,676	899,74
553,876	803,49
554,076	815,77
554,275	1032,86
554,475	1329,81
554,674	2077,32
554,874	3226,23
555,074	5122,65
555,273	8495,66
555,473	12853,73
555,672	18979,21
555,872	26020,13
556,071	33919,14
556,271	40360
556,47	45934,57
556,67	49911,73
556,869	51707,8
557,068	52178,83
557,268	50982,82
557,467	47845,33
557,667	44218,38
557,866	39995,46
558,065	34680,99
558,265	29677,8
558,464	24762,67
558,663	21436,77
558,863	17346,98
559,062	14629,32
559,261	11571,71
559,461	9533,98
559,66	7262,78
559,859	5612,12
560,058	3934,83
560,258	2611,84
560,457	2132,62
560,656	1733,26
560,855	1168,02
561,054	1036,95
561,253	948,89
561,453	848,54
561,652	656,03
561,851	795,29
562,05	664,22
562,249	666,27
562,448	791,2
562,647	629,41
562,846	701,09
563,045	758,43
563,244	852,64
563,443	883,36
563,642	989,85
563,841	1127,07
564,04	1438,36
564,239	1460,88
564,438	1675,92
564,637	1653,39
564,836	1718,93
565,035	1753,74
565,234	1702,54
565,432	1710,74
565,631	1727,12
565,83	1720,98
566,029	1505,94
566,228	1634,96
566,427	1753,74
566,625	1507,99
566,824	1637,01
567,023	1550,99
567,222	1571,47
567,42	1522,32
567,619	1473,17
567,818	1411,73
568,016	1540,76
568,215	1239,7
568,414	1297,05
568,612	1231,51
568,811	1069,72
569,01	1139,35
569,208	1120,92
569,407	1153,69
569,605	1131,16
569,804	1026,71
570,002	1194,65
570,201	971,42
570,4	1112,73
570,598	1104,54
570,797	955,04
570,995	922,27
571,193	971,42
571,392	1030,81
571,59	840,35
571,789	983,71
571,987	950,94
572,186	1102,49
572,384	807,58
572,582	823,97
572,781	975,52
572,979	823,97
573,177	733,86
573,376	762,53
573,574	740
573,772	694,94
573,971	627,36
574,169	598,69
574,367	748,19
574,565	719,52
574,763	637,6
574,962	670,37
575,16	721,57
575,358	610,98
575,556	762,53
575,754	623,27
575,952	719,52
576,151	600,74
576,349	709,28
576,547	541,35
576,745	639,65
576,943	635,55
577,141	660,13
577,339	504,48
577,537	527,01
577,735	692,9
577,933	705,18
578,131	549,54
578,329	744,1
578,527	660,13
578,725	703,14
578,923	520,87
579,121	645,79
579,319	508,58
579,516	537,25
579,714	791,2
579,912	633,5
580,11	457,38
580,308	524,96
580,506	590,5
580,704	522,91
580,901	508,58
581,099	770,72
581,297	727,71
581,495	920,22
581,692	965,28
581,89	1208,98
582,088	1198,74
582,285	1446,55
582,483	1577,62
582,681	1616,53
582,878	1507,99
583,076	1571,47
583,274	1594
583,471	1790,61
583,669	1532,56
583,866	1366,68
584,064	1360,53
584,262	1178,26
584,459	1122,97
584,657	1096,35
584,854	1116,83
585,052	1247,9
585,249	2032,27
585,447	4231,79
585,644	8376,87
585,841	15440,32
586,039	24396,09
586,236	33110,19
586,434	40759,36
586,631	47689,68
586,828	52694,92
587,026	54923,11
587,223	54767,46
587,42	53204,86
587,618	49948,59
587,815	46553,06
588,012	41910,32
588,21	37068,92
588,407	32377,02
588,604	27851,01
588,801	23566,66
588,999	19798,4
589,196	16533,93
589,393	13572,57
589,59	11276,8
589,787	8978,98
589,984	6896,19
590,182	5214,81
590,379	3857,01
590,576	2732,67
590,773	2034,32
590,97	1618,58
591,167	1245,85
591,364	1020,57
591,561	799,39
591,758	897,69
591,955	721,57
592,152	692,9
592,349	578,21
592,546	608,93
592,743	496,29
592,94	574,11
593,137	629,41
593,334	615,07
593,531	520,87
593,727	539,3
593,924	522,91
594,121	512,67
594,318	324,26
594,515	639,65
594,712	533,15
594,908	500,39
595,105	381,6
595,302	484
595,499	529,06
595,696	535,2
595,892	393,89
596,089	424,61
596,286	330,41
596,482	592,55
596,679	365,22
596,876	406,18
597,072	522,91
597,269	443,04
597,466	522,91
597,662	455,33
597,859	604,83
598,055	801,44
598,252	1155,74
598,448	1397,4
598,645	1581,71
598,841	1831,57
599,038	2187,91
599,234	2083,47
599,431	2189,96
599,627	2206,35
599,824	2222,73
600,02	2366,09
600,217	2380,42
600,413	2273,93
600,609	2273,93
600,806	2669,19
601,002	2355,85
601,198	2134,67
601,395	2261,64
601,591	2093,71
601,787	1833,61
601,984	1825,42
602,18	1692,3
602,376	1546,9
602,572	1512,08
602,769	1403,54
602,965	1325,72
603,161	1317,53
603,357	1378,97
603,553	1282,71
603,75	1073,82
603,946	1129,11
604,142	1135,26
604,338	1413,78
604,534	1274,52
604,73	1524,37
604,926	1585,81
605,122	1677,97
605,318	1809,04
605,514	1866,38
605,71	1714,83
605,906	1718,93
606,102	1727,12
606,298	1655,44
606,494	1702,54
606,69	1673,87
606,886	1462,93
607,082	1387,16
607,278	1352,34
607,474	1372,82
607,67	1444,5
607,866	1192,6
608,062	1467,03
608,257	1264,28
608,453	1159,83
608,649	1219,22
608,845	989,85
609,041	924,32
609,236	973,47
609,432	907,93
609,628	848,54
609,824	877,21
610,019	647,84
610,215	656,03
610,411	762,53
610,606	750,24
610,802	600,74
610,998	522,91
611,193	606,88
611,389	449,19
611,584	615,07
611,78	451,24
611,976	553,63
612,171	696,99
612,367	545,44
612,562	484
612,758	572,07
612,953	367,27
613,149	422,56
613,344	553,63
613,539	389,8
613,735	465,57
613,93	529,06
614,126	514,72
614,321	602,79
614,517	801,44
614,712	643,74
614,907	766,62
615,103	696,99
615,298	596,64
615,493	524,96
615,688	596,64
615,884	631,46
616,079	498,34
616,274	613,03
616,47	453,28
616,665	555,68
616,86	481,96
617,055	451,24
617,25	330,41
617,445	479,91
617,641	434,85
617,836	402,08
618,031	430,76
618,226	457,38
618,421	524,96
618,616	432,8
618,811	367,27
619,006	324,26
619,201	459,43
619,396	369,32
619,591	258,73
619,786	395,94
619,981	344,74
620,176	348,84
620,371	340,65
620,566	330,41
620,761	397,99
620,956	461,48
621,151	340,65
621,346	406,18
621,541	357,03
621,735	529,06
621,93	512,67
622,125	531,11
622,32	379,56
622,515	531,11
622,709	686,75
622,904	752,29
623,099	729,76
623,294	926,36
623,488	799,39
623,683	891,55
623,878	699,04
624,072	873,12
624,267	737,95
624,462	744,1
624,656	588,45
624,851	602,79
625,046	541,35
625,24	430,76
625,435	447,14
625,629	500,39
625,824	572,07
626,018	481,96
626,213	465,57
626,407	397,99
626,602	397,99
626,796	359,08
626,991	463,52
627,185	277,16
627,38	334,5
627,574	395,94
627,768	424,61
627,963	248,49
628,157	295,59
628,352	258,73
628,546	281,25
628,74	334,5
628,935	307,88
629,129	232,1
629,323	320,17
629,517	205,48
629,712	299,69
629,906	316,07
630,1	350,89
630,294	447,14
630,489	402,08
630,683	320,17
630,877	217,77
631,071	404,13
631,265	238,25
631,459	334,5
631,653	295,59
631,848	301,73
632,042	332,45
632,236	199,34
632,43	344,74
632,624	293,54
632,818	293,54
633,012	242,34
633,206	273,06
633,4	291,49
633,594	455,33
633,788	375,46
633,982	441
634,176	555,68
634,369	389,8
634,563	408,23
634,757	393,89
634,951	412,32
635,145	547,49
635,339	438,95
635,533	486,05
635,726	516,77
635,92	391,84
636,114	418,47
636,308	457,38
636,501	447,14
636,695	623,27
636,889	461,48
637,083	631,46
637,276	604,83
637,47	602,79
637,664	576,16
637,857	484
638,051	504,48
638,244	658,08
638,438	518,82
638,632	619,17
638,825	496,29
639,019	580,26
639,212	500,39
639,406	494,24
639,599	453,28
639,793	441
639,986	516,77
640,18	551,59
640,373	522,91
640,567	660,13
640,76	713,38
640,954	1018,52
641,147	1208,98
641,34	1356,44
641,534	1632,91
641,727	1970,83
641,92	1933,97
642,114	1931,92
642,307	1909,39
642,5	1890,96
642,694	1716,88
642,887	1661,59
643,08	1598,1
643,273	1589,91
643,467	1407,64
643,66	1282,71
643,853	1163,93
644,046	1180,31
644,239	1165,98
644,432	1411,73
644,626	1778,32
644,819	2247,3
645,012	2632,32
645,205	3064,44
645,398	3259
645,591	3256,95
645,784	3109,5
645,977	2962,05
646,17	2994,81
646,363	2681,47
646,556	2488,96
646,749	2265,74
646,942	2192,01
647,135	2138,76
647,328	1800,85
647,521	1766,03
647,714	1542,8
647,907	1313,43
648,099	1233,56
648,292	1235,61
648,485	981,66
648,678	920,22
648,871	803,49
649,064	848,54
649,256	600,74
649,449	565,92
649,642	600,74
649,835	696,99
650,027	504,48
650,22	647,84
650,413	658,08
650,605	715,42
650,798	547,49
650,991	651,94
651,183	561,83
651,376	717,47
651,568	434,85
651,761	430,76
651,954	574,11
652,146	533,15
652,339	680,61
652,531	475,81
652,724	477,86
652,916	467,62
653,109	490,15
653,301	553,63
653,494	555,68
653,686	559,78
653,879	713,38
654,071	549,54
654,263	443,04
654,456	520,87
654,648	637,6
654,84	619,17
655,033	471,72
655,225	780,96
655,417	752,29
655,61	989,85
655,802	1079,96
655,994	1127,07
656,186	1065,63
656,379	1243,8
656,571	996
656,763	1088,15
656,955	1006,24
657,148	1047,19
657,34	1000,09
657,532	897,69
657,724	844,45
657,916	842,4
658,108	930,46
658,3	762,53
658,492	688,8
658,684	531,11
658,876	621,22
659,068	473,76
659,26	367,27
659,452	373,41
659,644	334,5
659,836	524,96
660,028	340,65
660,22	287,4
660,412	328,36
660,604	373,41
660,796	375,46
660,988	465,57
661,18	354,98
661,372	377,51
661,563	324,26
661,755	361,13
661,947	260,77
662,139	314,02
662,331	277,16
662,522	299,69
662,714	264,87
662,906	301,73
663,097	309,93
663,289	195,24
663,481	125,61
663,673	395,94
663,864	314,02
664,056	414,37
664,247	350,89
664,439	694,94
664,631	570,02
664,822	602,79
665,014	670,37
665,205	676,51
665,397	684,7
665,588	635,55
665,78	627,36
665,971	594,59
666,163	553,63
666,354	606,88
666,546	463,52
666,737	422,56
666,929	350,89
667,12	453,28
667,311	365,22
667,503	383,65
667,694	365,22
667,885	391,84
668,077	389,8
668,268	244,39
668,459	418,47
668,651	354,98
668,842	457,38
669,033	512,67
669,224	500,39
669,416	901,79
669,607	725,66
669,798	766,62
669,989	979,61
670,18	774,81
670,371	864,93
670,563	664,22
670,754	778,91
670,945	604,83
671,136	801,44
671,327	613,03
671,518	660,13
671,709	662,18
671,9	559,78
672,091	602,79
672,282	453,28
672,473	447,14
672,664	389,8
672,855	332,45
673,046	420,52
673,237	455,33
673,428	410,28
673,619	514,72
673,809	391,84
674	502,43
674,191	512,67
674,382	414,37
674,573	449,19
674,764	365,22
674,954	414,37
675,145	324,26
675,336	307,88
675,527	324,26
675,717	287,4
675,908	305,83
676,099	311,97
676,289	314,02
676,48	230,06
676,671	225,96
676,861	217,77
677,052	342,69
677,243	305,83
677,433	234,15
677,624	266,92
677,814	203,43
678,005	234,15
678,195	340,65
678,386	135,85
678,576	316,07
678,767	168,62
678,957	258,73
679,148	211,62
679,338	344,74
679,529	332,45
679,719	213,67
679,909	287,4
680,1	375,46
680,29	354,98
680,481	377,51
680,671	635,55
680,861	690,85
681,052	645,79
681,242	596,64
681,432	641,7
681,622	721,57
681,813	574,11
682,003	608,93
682,193	533,15
682,383	596,64
682,573	537,25
682,764	561,83
682,954	588,45
683,144	635,55
683,334	463,52
683,524	488,1
683,714	453,28
683,904	443,04
684,094	463,52
684,284	391,84
684,474	469,67
684,664	412,32
684,854	445,09
685,044	236,2
685,234	375,46
685,424	314,02
685,614	283,3
685,804	475,81
685,994	418,47
686,184	408,23
686,374	479,91
686,564	373,41
686,753	387,75
686,943	258,73
687,133	326,31
687,323	373,41
687,513	389,8
687,702	346,79
687,892	271,01
688,082	391,84
688,272	373,41
688,461	303,78
688,651	428,71
688,841	385,7
689,03	285,35
689,22	504,48
689,41	676,51
689,599	848,54
689,789	983,71
689,979	1403,54
690,168	1432,21
690,358	1585,81
690,547	1671,83
690,737	1651,35
690,926	1432,21
691,116	1401,49
691,305	1405,59
691,495	1180,31
691,684	1139,35
691,874	1059,48
692,063	983,71
692,252	916,12
692,442	932,51
692,631	660,13
692,82	680,61
693,01	651,94
693,199	527,01
693,388	441
693,578	520,87
693,767	457,38
693,956	404,13
694,146	365,22
694,335	307,88
694,524	340,65
694,713	430,76
694,902	328,36
695,092	236,2
695,281	324,26
695,47	326,31
695,659	316,07
695,848	391,84
696,037	242,34
696,226	367,27
696,415	391,84
696,604	498,34
696,793	344,74
696,982	352,93
697,171	471,72
697,36	246,44
697,549	422,56
697,738	209,58
697,927	334,5
698,116	266,92
698,305	434,85
698,494	336,55
698,683	328,36
698,872	520,87
699,061	316,07
699,25	320,17
699,438	328,36
699,627	297,64
699,816	533,15
700,005	225,96
700,193	354,98
700,382	418,47
700,571	430,76
700,76	350,89
700,948	395,94
701,137	332,45
701,326	406,18
701,514	354,98
701,703	408,23
701,892	352,93
702,08	514,72
702,269	365,22
702,457	221,86
702,646	326,31
702,834	283,3
703,023	391,84
703,212	424,61
703,4	225,96
703,589	234,15
703,777	322,21
703,965	316,07
704,154	254,63
704,342	260,77
704,531	236,2
704,719	258,73
704,907	381,6
705,096	201,38
705,284	211,62
705,472	393,89
705,661	307,88
705,849	301,73
706,037	424,61
706,226	397,99
706,414	352,93
706,602	203,43
706,79	354,98
706,979	209,58
707,167	299,69
707,355	156,33
707,543	297,64
707,731	250,53
707,919	207,53
708,107	221,86
708,296	225,96
708,484	160,42
708,672	342,69
708,86	250,53
709,048	199,34
709,236	133,8
709,424	225,96
709,612	209,58
709,8	80,55
709,988	283,3
710,176	373,41
710,364	316,07
710,551	213,67
710,739	250,53
710,927	121,51
711,115	250,53
711,303	285,35
711,491	318,12
711,679	209,58
711,866	228,01
712,054	238,25
712,242	285,35
712,43	365,22
712,617	234,15
712,805	238,25
712,993	193,19
713,181	180,9
713,368	320,17
713,556	185
713,744	230,06
713,931	357,03
714,119	342,69
714,306	160,42
714,494	209,58
714,682	201,38
714,869	117,42
715,057	250,53
715,244	178,86
715,432	295,59
715,619	137,9
715,807	197,29
715,994	219,82
716,182	209,58
716,369	258,73
716,556	252,58
716,744	74,41
716,931	158,38
717,119	219,82
717,306	201,38
717,493	234,15
717,681	178,86
717,868	139,94
718,055	182,95
718,242	115,37
718,43	234,15
718,617	232,1
718,804	215,72
718,991	189,1
719,179	217,77
719,366	287,4
719,553	320,17
719,74	166,57
719,927	170,66
720,114	225,96
720,301	115,37
720,488	209,58
720,676	137,9
720,863	338,6
721,05	361,13
721,237	432,8
721,424	522,91
721,611	967,32
721,798	1092,25
721,985	1356,44
722,172	1641,11
722,358	1854,09
722,545	2044,56
722,732	2036,36
722,919	1854,09
723,106	1634,96
723,293	1507,99
723,48	1507,99
723,667	1213,08
723,853	1385,11
724,04	1231,51
724,227	1213,08
724,414	1094,3
724,6	952,99
724,787	1057,43
724,974	922,27
725,161	696,99
725,347	578,21
725,534	625,31
725,72	617,12
725,907	541,35
726,094	572,07
726,28	547,49
726,467	422,56
726,653	488,1
726,84	608,93
727,027	643,74
727,213	500,39
727,4	582,31
727,586	600,74
727,773	703,14
727,959	969,37
728,145	1145,5
728,332	1360,53
728,518	1432,21
728,705	1686,16
728,891	1669,78
729,077	1495,7
729,264	1432,21
729,45	1192,6
729,636	1303,19
729,823	1184,41
730,009	1194,65
730,195	1102,49
730,382	1108,63
730,568	918,17
730,754	909,98
730,94	856,73
731,126	807,58
731,313	680,61
731,499	717,47
731,685	754,34
731,871	680,61
732,057	567,97
732,243	684,7
732,429	610,98
732,615	598,69
732,801	512,67
732,987	600,74
733,173	553,63
733,359	457,38
733,545	484
733,731	537,25
733,917	670,37
734,103	529,06
734,289	578,21
734,475	465,57
734,661	606,88
734,847	594,59
735,033	553,63
735,219	572,07
735,404	488,1
735,59	475,81
735,776	606,88
735,962	578,21
736,148	610,98
736,333	588,45
736,519	541,35
736,705	574,11
736,89	506,53
737,076	506,53
737,262	428,71
737,447	457,38
737,633	557,73
737,819	631,46
738,004	524,96
738,19	635,55
738,375	576,16
738,561	662,18
738,747	613,03
738,932	533,15
739,118	715,42
739,303	598,69
739,489	653,98
739,674	516,77
739,859	615,07
740,045	545,44
740,23	590,5
740,416	391,84
740,601	547,49
740,786	547,49
740,972	475,81
741,157	555,68
741,342	494,24
741,528	588,45
741,713	873,12
741,898	830,11
742,084	967,32
742,269	1159,83
742,454	1127,07
742,639	1217,18
742,824	1129,11
743,01	1227,42
743,195	1219,22
743,38	1051,29
743,565	1030,81
743,75	967,32
743,935	981,66
744,12	1006,24
744,305	778,91
744,49	821,92
744,675	866,97
744,86	813,73
745,045	797,34
745,23	826,01
745,415	750,24
745,6	879,26
745,785	727,71
745,97	791,2
746,155	842,4
746,34	791,2
746,525	676,51
746,71	748,19
746,895	621,22
747,079	672,42
747,264	686,75
747,449	807,58
747,634	901,79
747,819	1133,21
748,003	1297,05
748,188	1567,38
748,373	1983,12
748,557	2140,81
748,742	2333,32
748,927	2437,77
749,111	2372,23
749,296	2376,33
749,481	2382,47
749,665	2290,31
749,85	2019,98
750,034	2017,93
750,219	1964,68
750,404	1786,51
750,588	1747,6
750,773	1497,75
750,957	1565,33
751,141	1426,07
751,326	1456,79
751,51	1225,37
751,695	1219,22
751,879	1161,88
752,064	1125,02
752,248	987,8
752,432	1016,48
752,617	998,04
752,801	1082,01
752,985	950,94
753,17	1004,19
753,354	963,23
753,538	961,18
753,722	944,8
753,907	983,71
754,091	946,84
754,275	1069,72
754,459	965,28
754,643	1168,02
754,828	1274,52
755,012	1297,05
755,196	1249,94
755,38	1282,71
755,564	1348,25
755,748	1405,59
755,932	1708,69
756,116	1802,9
756,3	1909,39
756,484	2030,22
756,668	2327,18
756,852	2265,74
757,036	2646,66
757,22	3170,94
757,404	5272,15
757,588	13574,62
757,772	37275,76
757,956	63610,59
758,14	63610,59
758,323	63610,59
758,507	63610,59
758,691	63610,59
758,875	63610,59
759,059	63610,59
759,242	63610,59
759,426	63610,59
759,61	63610,59
759,794	63610,59
759,977	63610,59
760,161	63610,59
760,345	63610,59
760,528	63610,59
760,712	63610,59
760,895	63610,59
761,079	63610,59
761,263	63610,59
761,446	63610,59
761,63	63610,59
761,813	63610,59
761,997	63610,59
762,18	63610,59
762,364	63610,59
762,547	63610,59
762,731	63610,59
762,914	63610,59
763,098	63610,59
763,281	63610,59
763,464	63610,59
763,648	63610,59
763,831	63610,59
764,015	63610,59
764,198	63610,59
764,381	63610,59
764,564	63610,59
764,748	63610,59
764,931	63610,59
765,114	63610,59
765,297	63610,59
765,481	63610,59
765,664	63610,59
765,847	63610,59
766,03	63610,59
766,213	63610,59
766,397	63610,59
766,58	63610,59
766,763	63610,59
766,946	63610,59
767,129	63610,59
767,312	63610,59
767,495	63610,59
767,678	63610,59
767,861	63610,59
768,044	63610,59
768,227	63610,59
768,41	63610,59
768,593	63610,59
768,776	63610,59
768,959	63610,59
769,142	63610,59
769,324	63610,59
769,507	63610,59
769,69	63610,59
769,873	63610,59
770,056	63610,59
770,239	63610,59
770,421	63610,59
770,604	63610,59
770,787	63610,59
770,97	63610,59
771,152	63610,59
771,335	63610,59
771,518	63610,59
771,7	63610,59
771,883	63610,59
772,066	63610,59
772,248	63610,59
772,431	63610,59
772,613	63610,59
772,796	63610,59
772,978	63610,59
773,161	63610,59
773,343	63610,59
773,526	63610,59
773,708	63610,59
773,891	63610,59
774,073	63610,59
774,256	63610,59
774,438	63610,59
774,621	63610,59
774,803	63610,59
774,985	63610,59
775,168	63610,59
775,35	63610,59
775,532	63610,59
775,715	63610,59
775,897	63610,59
776,079	63610,59
776,261	63610,59
776,444	63610,59
776,626	63610,59
776,808	63610,59
776,99	63610,59
777,173	63610,59
777,355	63610,59
777,537	63610,59
777,719	63610,59
777,901	63610,59
778,083	63610,59
778,265	63610,59
778,447	63610,59
778,629	63610,59
778,811	63610,59
778,993	63610,59
779,175	63610,59
779,357	63610,59
779,539	63610,59
779,721	63610,59
779,903	63610,59
780,085	63610,59
780,267	63610,59
780,449	63610,59
780,631	63610,59
780,812	63610,59
780,994	63610,59
781,176	63610,59
781,358	63610,59
781,54	63610,59
781,721	63610,59
781,903	63610,59
782,085	63610,59
782,267	63610,59
782,448	63610,59
782,63	63610,59
782,812	63610,59
782,993	63610,59
783,175	63610,59
783,357	63610,59
783,538	63610,59
783,72	63610,59
783,901	63610,59
784,083	63610,59
784,264	63610,59
784,446	63610,59
784,627	63610,59
784,809	63610,59
784,99	63610,59
785,172	63610,59
785,353	63610,59
785,535	63610,59
785,716	63610,59
785,897	63610,59
786,079	63610,59
786,26	63610,59
786,441	63610,59
786,623	63610,59
786,804	63610,59
786,985	63610,59
787,167	63610,59
787,348	63610,59
787,529	63610,59
787,71	63610,59
787,891	63610,59
788,073	63610,59
788,254	63610,59
788,435	63610,59
788,616	63610,59
788,797	63610,59
788,978	5333,59
789,159	4137,58
789,34	2820,74
789,522	2198,15
789,703	2081,42
789,884	1915,53
790,065	1860,24
790,246	1870,48
790,427	2189,96
790,607	2736,77
790,788	3295,86
790,969	3615,35
791,15	4194,92
791,331	4543,08
791,512	4450,92
791,693	4477,54
791,874	4598,37
792,054	4858,46
792,235	4964,96
792,416	4917,86
792,597	5175,9
792,778	4987,49
792,958	4999,77
793,139	4688,48
793,32	4174,44
793,5	3877,49
793,681	3609,2
793,862	3220,09
794,042	2835,07
794,223	2462,34
794,404	2335,37
794,584	1950,35
794,765	1868,43
794,945	1663,63
795,126	1661,59
795,306	1491,6
795,487	1309,33
795,667	1292,95
795,848	1118,87
796,028	979,61
796,209	981,66
796,389	1028,76
796,57	938,65
796,75	852,64
796,93	840,35
797,111	854,69
797,291	862,88
797,471	1016,48
797,652	1079,96
797,832	1104,54
798,012	1335,96
798,192	1215,13
798,373	1206,94
798,553	1288,85
798,733	1266,33
798,913	1176,22
799,093	1241,75
799,274	1180,31
799,454	1217,18
799,634	1094,3
799,814	1211,03
799,994	1075,87
800,174	1110,68
800,354	1053,34
800,534	934,56
800,714	1131,16
800,894	830,11
801,074	938,65
801,254	950,94
801,434	1114,78
801,614	1008,28
801,794	1020,57
801,974	2802,3
802,154	989,85
802,334	1047,19
802,514	985,76
802,693	1049,24
802,873	1172,12
803,053	1344,15
803,233	1139,35
803,413	1202,84
803,592	1186,46
803,772	1139,35
803,952	1303,19
804,131	1325,72
804,311	1485,46
804,491	1661,59
804,67	2429,57
804,85	5431,9
805,03	11799,03
805,209	22491,48
805,389	36081,8
805,568	47329,24
805,748	55648,09
805,928	61124,36
806,107	63610,59
806,287	62199,54
806,466	58738,47
806,646	50044,85
806,825	44019,72
807,004	37802,09
807,184	31795,4
807,363	27169,04
807,543	23658,82
807,722	20394,36
807,901	18362,77
808,081	16497,07
808,26	14881,22
808,439	13816,28
808,619	12972,52
808,798	11682,3
808,977	11246,08
809,156	12878,31
809,336	20832,62
809,515	39934,03
809,694	63610,59
809,873	63610,59
810,052	63610,59
810,231	63610,59
810,411	63610,59
810,59	63610,59
810,769	63610,59
810,948	63610,59
811,127	63610,59
811,306	63610,59
811,485	63610,59
811,664	63610,59
811,843	63610,59
812,022	63610,59
812,201	63610,59
812,38	63610,59
812,559	63610,59
812,737	63610,59
812,916	63610,59
813,095	63610,59
813,274	63610,59
813,453	63610,59
813,632	63610,59
813,811	63610,59
813,989	63610,59
814,168	63610,59
814,347	63610,59
814,526	63610,59
814,704	63610,59
814,883	63610,59
815,062	63610,59
815,24	63610,59
815,419	63610,59
815,598	63610,59
815,776	63610,59
815,955	63610,59
816,133	63610,59
816,312	63610,59
816,49	63610,59
816,669	63610,59
816,847	63610,59
817,026	63610,59
817,204	63610,59
817,383	63610,59
817,561	63610,59
817,74	63610,59
817,918	63610,59
818,097	63610,59
818,275	63610,59
818,453	63610,59
818,632	63610,59
818,81	63610,59
818,988	63610,59
819,167	63610,59
819,345	63610,59
819,523	63610,59
819,701	63610,59
819,879	63610,59
820,058	63610,59
820,236	63610,59
820,414	63610,59
820,592	63610,59
820,77	63610,59
820,948	63610,59
821,127	63610,59
821,305	63610,59
821,483	63610,59
821,661	63610,59
821,839	63610,59
822,017	63610,59
822,195	63610,59
822,373	63610,59
822,551	63610,59
822,729	63610,59
822,907	63610,59
823,085	63610,59
823,262	63610,59
823,44	63610,59
823,618	63610,59
823,796	63610,59
823,974	63610,59
824,152	63610,59
824,329	63610,59
824,507	63610,59
824,685	63610,59
824,863	63610,59
825,04	63610,59
825,218	63610,59
825,396	63610,59
825,574	63610,59
825,751	63610,59
825,929	63610,59
826,107	63610,59
826,284	63610,59
826,462	63610,59
826,639	63610,59
826,817	63610,59
826,994	63610,59
827,172	63610,59
827,349	63610,59
827,527	63610,59
827,704	63610,59
827,882	63610,59
828,059	63610,59
828,237	63610,59
828,414	63610,59
828,591	63610,59
828,769	63610,59
828,946	63610,59
829,124	63610,59
829,301	63610,59
829,478	63610,59
829,655	63610,59
829,833	63610,59
830,01	63610,59
830,187	63610,59
830,364	63610,59
830,542	63610,59
830,719	63610,59
830,896	63610,59
831,073	63610,59
831,25	63610,59
831,427	63610,59
831,604	63610,59
831,782	63610,59
831,959	63610,59
832,136	63610,59
832,313	63610,59
832,49	63610,59
832,667	63610,59
832,844	63610,59
833,021	63610,59
833,198	63610,59
833,374	63610,59
833,551	63610,59
833,728	63610,59
833,905	63610,59
834,082	63610,59
834,259	63610,59
834,436	63610,59
834,612	63610,59
834,789	63610,59
834,966	63610,59
835,143	63610,59
835,319	63610,59
835,496	63610,59
835,673	63610,59
835,85	63610,59
836,026	63610,59
836,203	63610,59
836,38	63610,59
836,556	63610,59
836,733	63610,59
836,909	63610,59
837,086	63610,59
837,262	63610,59
837,439	63610,59
837,616	63610,59
837,792	63610,59
837,968	63610,59
838,145	63610,59
838,321	63610,59
838,498	63610,59
838,674	63610,59
838,851	63610,59
839,027	63610,59
839,203	63610,59
839,38	63610,59
839,556	63610,59
839,732	63610,59
839,909	63610,59
840,085	63610,59
840,261	63610,59
840,437	63610,59
840,614	63610,59
840,79	63610,59
840,966	63610,59
841,142	63610,59
841,318	63610,59
841,494	63610,59
841,671	63610,59
841,847	63610,59
842,023	63610,59
842,199	63610,59
842,375	63610,59
842,551	63610,59
842,727	63610,59
842,903	63610,59
843,079	63610,59
843,255	63610,59
843,431	63610,59
843,607	63610,59
843,783	63610,59
843,959	51199,9
844,134	50663,33
844,31	799,39
844,486	463,52
844,662	498,34
844,838	410,28
845,013	481,96
845,189	447,14
845,365	402,08
845,541	473,76
845,716	432,8
845,892	465,57
846,068	408,23
846,244	207,53
846,419	332,45
846,595	266,92
846,77	252,58
846,946	393,89
847,122	291,49
847,297	289,45
847,473	469,67
847,648	273,06
847,824	320,17
847,999	148,14
848,175	334,5
848,35	426,66
848,526	307,88
848,701	377,51
848,876	373,41
849,052	404,13
849,227	428,71
849,403	580,26
849,578	1360,53
849,753	3418,74
849,929	7066,17
850,104	12216,82
850,279	18674,06
850,454	24944,94
850,63	29440,23
850,805	31846,6
850,98	32020,67
851,155	30353,63
851,33	26997,01
851,505	23525,7
851,681	20560,24
851,856	17789,34
852,031	16445,87
852,206	15055,3
852,381	13660,63
852,556	12765,67
852,731	11809,27
852,906	11018,75
853,081	10240,53
853,256	9503,26
853,431	8677,93
853,606	8094,26
853,781	7506,49
853,956	6914,63
854,131	6390,35
854,305	5392,98
854,48	4665,96
854,655	3713,65
854,83	2923,13
855,005	2138,76
855,18	1557,14
855,354	1141,4
855,529	907,93
855,704	617,12
855,879	598,69
856,053	432,8
856,228	490,15
856,403	287,4
856,577	481,96
856,752	281,25
856,926	271,01
857,101	418,47
857,276	316,07
857,45	373,41
857,625	322,21
857,799	309,93
857,974	250,53
858,148	144,04
858,323	299,69
858,497	236,2
858,672	301,73
858,846	230,06
859,02	340,65
859,195	271,01
859,369	334,5
859,543	291,49
859,718	311,97
859,892	357,03
860,066	352,93
860,241	316,07
860,415	279,21
860,589	324,26
860,763	264,87
860,938	221,86
861,112	336,55
861,286	176,81
861,46	217,77
861,634	193,19
861,808	322,21
861,982	268,97
862,157	240,29
862,331	225,96
862,505	113,32
862,679	168,62
862,853	230,06
863,027	209,58
863,201	400,04
863,375	201,38
863,549	297,64
863,722	318,12
863,896	307,88
864,07	217,77
864,244	279,21
864,418	260,77
864,592	244,39
864,766	213,67
864,939	258,73
865,113	201,38
865,287	350,89
865,461	166,57
865,634	244,39
865,808	187,05
865,982	209,58
866,156	166,57
866,329	113,32
866,503	275,11
866,676	291,49
866,85	277,16
867,024	209,58
867,197	385,7
867,371	289,45
867,544	367,27
867,718	137,9
867,891	299,69
868,065	133,8
868,238	246,44
868,412	295,59
868,585	254,63
868,759	166,57
868,932	246,44
869,105	154,28
869,279	217,77
869,452	221,86
869,625	252,58
869,799	309,93
869,972	117,42
870,145	264,87
870,319	340,65
870,492	244,39
870,665	240,29
870,838	221,86
871,011	154,28
871,185	219,82
871,358	205,48
871,531	326,31
871,704	232,1
871,877	232,1
872,05	266,92
872,223	285,35
872,396	412,32
872,569	406,18
872,742	262,82
872,915	332,45
873,088	266,92
873,261	305,83
873,434	475,81
873,607	262,82
873,78	379,56
873,953	314,02
874,126	338,6
874,299	352,93
874,471	428,71
874,644	389,8
874,817	481,96
874,99	565,92
875,163	438,95
875,335	449,19
875,508	557,73
875,681	721,57
875,853	848,54
876,026	1192,6
876,199	2200,2
876,371	4076,14
876,544	8589,86
876,717	16589,23
876,889	27345,16
877,062	41146,42
877,234	54214,51
877,407	63479,52
877,579	63610,59
877,752	63610,59
877,924	63610,59
878,097	63610,59
878,269	63610,59
878,442	63610,59
878,614	63610,59
878,786	63610,59
878,959	63610,59
879,131	63610,59
879,303	63610,59
879,476	63610,59
879,648	58832,68
879,82	46372,84
879,993	41390,13
880,165	38148,2
880,337	35741,83
880,509	33745,06
880,681	31809,73
880,854	29769,96
881,026	27992,32
881,198	25360,68
881,37	22395,22
881,542	18880,91
881,714	15618,49
881,886	12251,63
882,058	9323,04
882,23	6642,25
882,402	4805,22
882,574	3410,55
882,746	2579,08
882,918	2065,04
883,09	1487,51
883,262	1168,02
883,434	993,95
883,606	668,32
883,778	725,66
883,95	684,7
884,122	496,29
884,293	563,87
884,465	496,29
884,637	535,2
884,809	336,55
884,98	402,08
885,152	486,05
885,324	400,04
885,496	332,45
885,667	307,88
885,839	334,5
886,011	477,86
886,182	383,65
886,354	363,17
886,525	346,79
886,697	295,59
886,869	236,2
887,04	279,21
887,212	414,37
887,383	412,32
887,555	242,34
887,726	285,35
887,897	189,1
888,069	342,69
888,24	391,84
888,412	291,49
888,583	324,26
888,754	268,97
888,926	223,91
889,097	260,77
889,268	103,08
889,44	314,02
889,611	213,67
889,782	236,2
889,953	199,34
890,125	422,56
890,296	232,1
890,467	320,17
890,638	328,36
890,809	348,84
890,98	266,92
891,151	465,57
891,323	778,91
891,494	1153,69
891,665	2071,18
891,836	3644,02
892,007	6883,91
892,178	11108,87
892,349	17232,29
892,52	23482,69
892,691	30234,85
892,862	35676,3
893,032	41654,32
893,203	45645,81
893,374	47325,14
893,545	47615,96
893,716	46657,51
893,887	45316,09
894,057	43073,56
894,228	40747,07
894,399	38344,8
894,57	36462,72
894,74	34291,87
894,911	31811,78
895,082	29946,08
895,253	27891,97
895,423	26399
895,594	24742,19
895,764	23527,75
895,935	21487,97
896,106	20877,68
896,276	19132,81
896,447	17969,56
896,617	16376,24
896,788	14780,87
896,958	12419,57
897,129	10269,2
897,299	7938,61
897,47	6429,26
897,64	4692,58
897,81	3332,73
897,981	2509,44
898,151	1778,32
898,322	1499,8
898,492	1098,39
898,662	785,05
898,832	717,47
899,003	545,44
899,173	604,83
899,343	537,25
899,513	416,42
