Data from krypton_USB4F104151__2__11-01-34-109.txt Node

Date: Wed Apr 15 11:01:34 EDT 2026
User: LaboPhy
Spectrometer: USB4F10415
Trigger mode: 4
Integration Time (sec): 1,000000E-1
Scans to average: 1
Electric dark correction enabled: true
Nonlinearity correction enabled: false
Boxcar width: 0
XAxis mode: Wavelengths
Number of Pixels in Spectrum: 3648
>>>>>Begin Spectral Data<<<<<
178,204	-422,22
178,424	-422,22
178,644	-422,22
178,864	-471,37
179,084	-479,57
179,304	34,47
179,524	-37,2
179,744	48,81
179,964	61,1
180,184	26,28
180,404	-8,53
180,624	-4,44
180,844	-57,68
181,064	-59,73
181,283	85,67
181,503	-65,88
181,723	-22,87
181,943	-139,6
182,163	358,05
182,383	67,24
182,602	75,43
182,822	118,44
183,042	93,87
183,262	-31,06
183,482	34,47
183,701	11,95
183,921	67,24
184,141	-22,87
184,361	42,67
184,58	100,01
184,8	-6,49
185,02	-33,11
185,239	83,63
185,459	110,25
185,679	112,3
185,898	-139,6
186,118	124,58
186,338	-4,44
186,557	192,17
186,777	-55,64
186,997	5,8
187,216	81,58
187,436	206,5
187,655	169,64
187,875	71,34
188,095	112,3
188,314	235,18
188,534	145,06
188,753	-96,6
188,973	210,6
189,192	255,65
189,412	26,28
189,631	69,29
189,851	36,52
190,07	216,74
190,29	-33,11
190,509	83,63
190,729	67,24
190,948	126,63
191,168	224,94
191,387	52,91
191,607	50,86
191,826	124,58
192,045	40,62
192,265	54,95
192,484	87,72
192,704	81,58
192,923	1,71
193,142	149,16
193,362	151,21
193,581	208,55
193,8	57
194,02	147,11
194,239	83,63
194,458	140,97
194,678	38,57
194,897	44,71
195,116	126,63
195,335	73,39
195,555	22,19
195,774	77,48
195,993	112,3
196,212	61,1
196,432	24,23
196,651	22,19
196,87	-4,44
197,089	298,66
197,308	91,82
197,528	89,77
197,747	3,75
197,966	42,67
198,185	222,89
198,404	-88,4
198,623	59,05
198,842	196,26
199,062	151,21
199,281	136,87
199,5	24,23
199,719	118,44
199,938	81,58
200,157	100,01
200,376	81,58
200,595	165,54
200,814	50,86
201,033	59,05
201,252	175,78
201,471	169,64
201,69	85,67
201,909	48,81
202,128	118,44
202,347	126,63
202,566	22,19
202,785	-47,44
203,004	-53,59
203,223	337,57
203,442	69,29
203,661	-49,49
203,879	151,21
204,098	169,64
204,317	-22,87
204,536	59,05
204,755	132,78
204,974	145,06
205,193	-47,44
205,411	136,87
205,63	122,54
205,849	153,26
206,068	20,14
206,287	34,47
206,505	124,58
206,724	59,05
206,943	-31,06
207,162	-45,4
207,381	93,87
207,599	65,19
207,818	140,97
208,037	-24,92
208,255	9,9
208,474	132,78
208,693	67,24
208,911	42,67
209,13	173,74
209,349	181,93
209,567	71,34
209,786	91,82
210,005	190,12
210,223	108,2
210,442	-88,4
210,661	48,81
210,879	206,5
211,098	87,72
211,316	95,91
211,535	77,48
211,753	108,2
211,972	124,58
212,191	-22,87
212,409	32,43
212,628	69,29
212,846	13,99
213,065	77,48
213,283	30,38
213,502	63,15
213,72	-2,39
213,938	61,1
214,157	110,25
214,375	208,55
214,594	100,01
214,812	67,24
215,031	28,33
215,249	46,76
215,467	102,06
215,686	48,81
215,904	149,16
216,122	140,97
216,341	186,02
216,559	116,39
216,778	81,58
216,996	192,17
217,214	89,77
217,432	-2,39
217,651	9,9
217,869	57
218,087	83,63
218,306	26,28
218,524	34,47
218,742	28,33
218,96	149,16
219,179	79,53
219,397	18,09
219,615	222,89
219,833	36,52
220,051	30,38
220,27	83,63
220,488	75,43
220,706	85,67
220,924	9,9
221,142	-10,58
221,36	79,53
221,578	138,92
221,796	-10,58
222,015	50,86
222,233	9,9
222,451	153,26
222,669	48,81
222,887	128,68
223,105	-57,68
223,323	67,24
223,541	22,19
223,759	85,67
223,977	85,67
224,195	153,26
224,413	91,82
224,631	30,38
224,849	67,24
225,067	257,7
225,285	-37,2
225,503	71,34
225,721	-143,7
225,939	67,24
226,157	102,06
226,375	224,94
226,592	40,62
226,81	-20,82
227,028	116,39
227,246	169,64
227,464	83,63
227,682	169,64
227,9	102,06
228,117	59,05
228,335	116,39
228,553	54,95
228,771	100,01
228,989	120,49
229,206	59,05
229,424	11,95
229,642	-43,35
229,86	-16,73
230,077	104,11
230,295	100,01
230,513	128,68
230,731	181,93
230,948	269,99
231,166	265,89
231,384	34,47
231,601	83,63
231,819	249,51
232,037	3,75
232,254	30,38
232,472	-12,63
232,689	59,05
232,907	149,16
233,125	63,15
233,342	-63,83
233,56	-29,01
233,777	77,48
233,995	75,43
234,213	95,91
234,43	106,15
234,648	59,05
234,865	-47,44
235,083	85,67
235,3	106,15
235,518	102,06
235,735	97,96
235,953	122,54
236,17	75,43
236,388	28,33
236,605	110,25
236,822	106,15
237,04	116,39
237,257	26,28
237,475	-41,3
237,692	-0,34
237,909	54,95
238,127	-35,16
238,344	104,11
238,562	85,67
238,779	-12,63
238,996	-69,97
239,214	-12,63
239,431	136,87
239,648	24,23
239,865	61,1
240,083	38,57
240,3	-20,82
240,517	38,57
240,735	67,24
240,952	120,49
241,169	149,16
241,386	102,06
241,603	28,33
241,821	38,57
242,038	100,01
242,255	108,2
242,472	22,19
242,689	159,4
242,907	106,15
243,124	114,34
243,341	-10,58
243,558	52,91
243,775	-20,82
243,992	-65,88
244,209	181,93
244,426	177,83
244,643	32,43
244,86	18,09
245,078	100,01
245,295	102,06
245,512	-0,34
245,729	28,33
245,946	140,97
246,163	-41,3
246,38	28,33
246,597	91,82
246,814	34,47
247,031	24,23
247,248	34,47
247,464	153,26
247,681	67,24
247,898	91,82
248,115	143,02
248,332	32,43
248,549	175,78
248,766	198,31
248,983	46,76
249,2	138,92
249,417	155,3
249,633	-22,87
249,85	83,63
250,067	118,44
250,284	50,86
250,501	143,02
250,717	145,06
250,934	9,9
251,151	73,39
251,368	54,95
251,585	83,63
251,801	87,72
252,018	-12,63
252,235	104,11
252,451	-14,68
252,668	69,29
252,885	161,45
253,102	71,34
253,318	-39,25
253,535	34,47
253,752	-6,49
253,968	65,19
254,185	-35,16
254,401	83,63
254,618	177,83
254,835	3,75
255,051	110,25
255,268	159,4
255,484	120,49
255,701	73,39
255,917	104,11
256,134	13,99
256,351	54,95
256,567	-80,21
256,784	1,71
257	-59,73
257,217	155,3
257,433	112,3
257,65	132,78
257,866	249,51
258,082	-0,34
258,299	-51,54
258,515	59,05
258,732	75,43
258,948	59,05
259,165	63,15
259,381	1,71
259,597	132,78
259,814	30,38
260,03	63,15
260,246	-14,68
260,463	157,35
260,679	208,55
260,895	83,63
261,112	59,05
261,328	54,95
261,544	-22,87
261,761	165,54
261,977	100,01
262,193	-16,73
262,409	171,69
262,626	46,76
262,842	89,77
263,058	18,09
263,274	73,39
263,49	9,9
263,707	30,38
263,923	93,87
264,139	-12,63
264,355	79,53
264,571	83,63
264,787	83,63
265,004	218,79
265,22	50,86
265,436	-65,88
265,652	32,43
265,868	169,64
266,084	-22,87
266,3	63,15
266,516	-29,01
266,732	179,88
266,948	79,53
267,164	50,86
267,38	216,74
267,596	132,78
267,812	231,08
268,028	102,06
268,244	95,91
268,46	81,58
268,676	-16,73
268,892	32,43
269,108	3,75
269,324	-4,44
269,54	-61,78
269,756	165,54
269,972	-80,21
270,188	48,81
270,403	-33,11
270,619	18,09
270,835	95,91
271,051	81,58
271,267	18,09
271,483	83,63
271,698	136,87
271,914	89,77
272,13	104,11
272,346	40,62
272,562	132,78
272,777	61,1
272,993	11,95
273,209	104,11
273,425	140,97
273,64	16,04
273,856	50,86
274,072	-31,06
274,287	20,14
274,503	149,16
274,719	95,91
274,934	-37,2
275,15	-18,77
275,366	108,2
275,581	-55,64
275,797	50,86
276,012	81,58
276,228	-14,68
276,444	122,54
276,659	159,4
276,875	-6,49
277,09	-26,96
277,306	67,24
277,521	83,63
277,737	57
277,952	87,72
278,168	48,81
278,383	93,87
278,599	132,78
278,814	89,77
279,03	69,29
279,245	200,36
279,461	50,86
279,676	165,54
279,892	22,19
280,107	-22,87
280,322	-39,25
280,538	143,02
280,753	-41,3
280,969	77,48
281,184	40,62
281,399	200,36
281,615	50,86
281,83	50,86
282,045	-29,01
282,26	38,57
282,476	-0,34
282,691	181,93
282,906	153,26
283,122	153,26
283,337	11,95
283,552	75,43
283,767	3,75
283,983	130,73
284,198	-47,44
284,413	87,72
284,628	-115,03
284,843	7,85
285,058	130,73
285,274	-4,44
285,489	-22,87
285,704	169,64
285,919	-29,01
286,134	24,23
286,349	79,53
286,564	71,34
286,779	157,35
286,995	143,02
287,21	1,71
287,425	134,82
287,64	24,23
287,855	118,44
288,07	-123,22
288,285	128,68
288,5	104,11
288,715	233,13
288,93	75,43
289,145	1,71
289,36	200,36
289,575	83,63
289,79	181,93
290,004	104,11
290,219	87,72
290,434	-14,68
290,649	87,72
290,864	54,95
291,079	22,19
291,294	48,81
291,509	100,01
291,724	24,23
291,938	54,95
292,153	30,38
292,368	-16,73
292,583	71,34
292,798	159,4
293,012	102,06
293,227	108,2
293,442	69,29
293,657	157,35
293,871	108,2
294,086	83,63
294,301	229,03
294,516	190,12
294,73	159,4
294,945	13,99
295,16	59,05
295,374	183,98
295,589	140,97
295,804	16,04
296,018	38,57
296,233	212,65
296,447	112,3
296,662	1,71
296,877	102,06
297,091	93,87
297,306	59,05
297,52	71,34
297,735	108,2
297,949	50,86
298,164	44,71
298,378	110,25
298,593	-18,77
298,807	1,71
299,022	106,15
299,236	235,18
299,451	30,38
299,665	85,67
299,88	5,8
300,094	147,11
300,309	18,09
300,523	118,44
300,737	-6,49
300,952	71,34
301,166	34,47
301,381	65,19
301,595	69,29
301,809	95,91
302,024	67,24
302,238	-72,02
302,452	100,01
302,667	120,49
302,881	181,93
303,095	153,26
303,309	87,72
303,524	-6,49
303,738	1,71
303,952	59,05
304,166	153,26
304,381	-8,53
304,595	153,26
304,809	85,67
305,023	36,52
305,237	48,81
305,452	18,09
305,666	81,58
305,88	124,58
306,094	114,34
306,308	114,34
306,522	136,87
306,736	136,87
306,95	145,06
307,164	132,78
307,379	128,68
307,593	175,78
307,807	190,12
308,021	186,02
308,235	104,11
308,449	50,86
308,663	75,43
308,877	339,62
309,091	198,31
309,305	140,97
309,519	81,58
309,733	200,36
309,947	-12,63
310,161	134,82
310,374	196,26
310,588	255,65
310,802	59,05
311,016	102,06
311,23	206,5
311,444	104,11
311,658	106,15
311,872	239,27
312,085	183,98
312,299	241,32
312,513	171,69
312,727	241,32
312,941	128,68
313,154	177,83
313,368	87,72
313,582	114,34
313,796	245,41
314,009	52,91
314,223	186,02
314,437	42,67
314,651	186,02
314,864	110,25
315,078	108,2
315,292	22,19
315,505	132,78
315,719	186,02
315,933	169,64
316,146	38,57
316,36	85,67
316,573	231,08
316,787	153,26
317,001	206,5
317,214	30,38
317,428	138,92
317,641	79,53
317,855	132,78
318,068	112,3
318,282	104,11
318,495	247,46
318,709	214,7
318,922	153,26
319,136	288,42
319,349	173,74
319,563	61,1
319,776	186,02
319,99	1,71
320,203	282,28
320,417	134,82
320,63	220,84
320,843	370,34
321,057	206,5
321,27	30,38
321,483	188,07
321,697	282,28
321,91	132,78
322,124	208,55
322,337	208,55
322,55	69,29
322,763	130,73
322,977	116,39
323,19	46,76
323,403	124,58
323,617	143,02
323,83	198,31
324,043	100,01
324,256	128,68
324,469	52,91
324,683	267,94
324,896	89,77
325,109	202,41
325,322	34,47
325,535	167,59
325,748	173,74
325,962	89,77
326,175	104,11
326,388	75,43
326,601	196,26
326,814	75,43
327,027	208,55
327,24	202,41
327,453	-41,3
327,666	198,31
327,879	226,98
328,092	214,7
328,305	173,74
328,518	126,63
328,731	153,26
328,944	169,64
329,157	218,79
329,37	110,25
329,583	237,22
329,796	202,41
330,009	93,87
330,222	186,02
330,435	253,61
330,648	198,31
330,861	190,12
331,073	108,2
331,286	276,13
331,499	206,5
331,712	50,86
331,925	151,21
332,138	124,58
332,35	251,56
332,563	151,21
332,776	308,9
332,989	149,16
333,202	122,54
333,414	151,21
333,627	204,46
333,84	239,27
334,053	272,04
334,265	339,62
334,478	333,48
334,691	364,2
334,903	380,58
335,116	384,68
335,329	405,16
335,541	462,5
335,754	691,87
335,966	507,55
336,179	478,88
336,392	476,84
336,604	538,27
336,817	480,93
337,029	460,45
337,242	362,15
337,454	407,2
337,667	358,05
337,88	460,45
338,092	392,87
338,305	394,92
338,517	161,45
338,729	345,77
338,942	405,16
339,154	157,35
339,367	181,93
339,579	349,86
339,792	186,02
340,004	280,23
340,217	120,49
340,429	237,22
340,641	183,98
340,854	169,64
341,066	167,59
341,278	251,56
341,491	313
341,703	224,94
341,915	116,39
342,128	280,23
342,34	272,04
342,552	40,62
342,764	147,11
342,977	147,11
343,189	214,7
343,401	222,89
343,613	16,04
343,826	157,35
344,038	24,23
344,25	163,5
344,462	73,39
344,674	212,65
344,886	212,65
345,099	272,04
345,311	169,64
345,523	134,82
345,735	20,14
345,947	159,4
346,159	198,31
346,371	159,4
346,583	122,54
346,795	310,95
347,007	200,36
347,219	212,65
347,431	149,16
347,643	278,18
347,855	126,63
348,067	315,05
348,279	95,91
348,491	165,54
348,703	249,51
348,915	261,8
349,127	202,41
349,339	190,12
349,551	153,26
349,763	226,98
349,975	233,13
350,187	290,47
350,399	323,24
350,61	290,47
350,822	167,59
351,034	224,94
351,246	255,65
351,458	321,19
351,669	351,91
351,881	269,99
352,093	272,04
352,305	255,65
352,517	286,37
352,728	329,38
352,94	181,93
353,152	323,24
353,363	212,65
353,575	282,28
353,787	474,79
353,999	292,52
354,21	331,43
354,422	224,94
354,633	198,31
354,845	192,17
355,057	267,94
355,268	349,86
355,48	341,67
355,692	214,7
355,903	394,92
356,115	302,76
356,326	247,46
356,538	472,74
356,749	464,55
356,961	562,85
357,172	452,26
357,384	351,91
357,595	665,25
357,807	439,97
358,018	456,36
358,23	417,44
358,441	585,38
358,653	413,35
358,864	489,12
359,075	331,43
359,287	380,58
359,498	446,12
359,709	353,96
359,921	288,42
360,132	274,09
360,344	331,43
360,555	282,28
360,766	353,96
360,977	280,23
361,189	351,91
361,4	269,99
361,611	274,09
361,823	423,59
362,034	325,29
362,245	200,36
362,456	216,74
362,667	243,37
362,879	190,12
363,09	300,71
363,301	351,91
363,512	241,32
363,723	140,97
363,935	257,7
364,146	304,81
364,357	202,41
364,568	288,42
364,779	226,98
364,99	485,03
365,201	202,41
365,412	437,92
365,623	216,74
365,834	331,43
366,045	464,55
366,256	583,33
366,467	507,55
366,678	575,14
366,889	644,77
367,1	487,08
367,311	687,78
367,522	542,37
367,733	585,38
367,944	601,76
368,155	495,27
368,366	544,42
368,577	573,09
368,788	521,89
368,999	349,86
369,209	405,16
369,42	431,78
369,631	566,95
369,842	401,06
370,053	269,99
370,264	341,67
370,474	255,65
370,685	288,42
370,896	327,33
371,107	382,63
371,317	304,81
371,528	229,03
371,739	308,9
371,95	362,15
372,16	339,62
372,371	165,54
372,582	226,98
372,792	290,47
373,003	296,61
373,214	296,61
373,424	353,96
373,635	202,41
373,846	298,66
374,056	306,85
374,267	206,5
374,477	269,99
374,688	233,13
374,898	173,74
375,109	339,62
375,319	339,62
375,53	300,71
375,74	366,25
375,951	290,47
376,161	370,34
376,372	378,53
376,582	274,09
376,793	364,2
377,003	292,52
377,214	321,19
377,424	421,54
377,635	396,96
377,845	331,43
378,055	437,92
378,266	382,63
378,476	382,63
378,686	427,68
378,897	450,21
379,107	509,6
379,317	460,45
379,528	431,78
379,738	585,38
379,948	364,2
380,158	638,62
380,369	612
380,579	566,95
380,789	544,42
380,999	511,65
381,21	628,39
381,42	734,88
381,63	530,08
381,84	640,67
382,05	609,95
382,261	589,47
382,471	751,26
382,681	558,75
382,891	790,17
383,101	716,45
383,311	716,45
383,521	777,89
383,731	851,61
383,941	954,01
384,151	972,44
384,361	992,92
384,571	1070,75
384,781	1119,9
384,991	1345,17
385,201	1255,06
385,411	1148,57
385,621	1167
385,831	1218,2
386,041	1218,2
386,251	1244,82
386,461	1425,04
386,671	1328,79
386,881	1220,25
387,091	1244,82
387,301	1357,46
387,511	1349,27
387,72	1244,82
387,93	1224,34
388,14	1027,74
388,35	1148,57
388,56	1142,43
388,769	1011,36
388,979	872,09
389,189	796,32
389,399	657,06
389,609	655,01
389,818	628,39
390,028	618,15
390,238	587,43
390,447	413,35
390,657	437,92
390,867	468,64
391,076	372,39
391,286	456,36
391,496	470,69
391,705	435,88
391,915	517,79
392,125	505,51
392,334	405,16
392,544	562,85
392,753	505,51
392,963	356,01
393,172	382,63
393,382	337,57
393,591	542,37
393,801	386,72
394,01	521,89
394,22	476,84
394,429	413,35
394,639	409,25
394,848	464,55
395,058	423,59
395,267	386,72
395,477	464,55
395,686	321,19
395,895	558,75
396,105	534,18
396,314	376,48
396,524	325,29
396,733	382,63
396,942	388,77
397,152	372,39
397,361	444,07
397,57	380,58
397,78	288,42
397,989	321,19
398,198	511,65
398,407	341,67
398,617	321,19
398,826	315,05
399,035	274,09
399,244	374,44
399,453	323,24
399,663	362,15
399,872	304,81
400,081	243,37
400,29	437,92
400,499	198,31
400,708	360,1
400,917	257,7
401,127	167,59
401,336	220,84
401,545	460,45
401,754	452,26
401,963	351,91
402,172	272,04
402,381	206,5
402,59	337,57
402,799	380,58
403,008	399,01
403,217	356,01
403,426	517,79
403,635	259,75
403,844	405,16
404,053	417,44
404,262	304,81
404,471	558,75
404,68	413,35
404,888	444,07
405,097	345,77
405,306	415,4
405,515	509,6
405,724	306,85
405,933	476,84
406,142	407,2
406,35	485,03
406,559	319,14
406,768	370,34
406,977	558,75
407,185	466,6
407,394	317,09
407,603	284,33
407,812	306,85
408,02	493,22
408,229	325,29
408,438	333,48
408,646	239,27
408,855	351,91
409,064	480,93
409,272	425,64
409,481	431,78
409,69	339,62
409,898	267,94
410,107	435,88
410,315	364,2
410,524	360,1
410,733	386,72
410,941	366,25
411,15	540,32
411,358	439,97
411,567	452,26
411,775	421,54
411,984	407,2
412,192	444,07
412,401	435,88
412,609	446,12
412,818	425,64
413,026	386,72
413,234	351,91
413,443	462,5
413,651	280,23
413,86	378,53
414,068	528,03
414,276	575,14
414,485	353,96
414,693	556,71
414,901	476,84
415,11	493,22
415,318	419,49
415,526	388,77
415,734	474,79
415,943	472,74
416,151	577,19
416,359	407,2
416,567	470,69
416,776	472,74
416,984	525,99
417,192	640,67
417,4	405,16
417,608	386,72
417,817	319,14
418,025	487,08
418,233	620,19
418,441	280,23
418,649	415,4
418,857	433,83
419,065	601,76
419,273	335,53
419,481	435,88
419,689	429,73
419,897	407,2
420,105	321,19
420,313	444,07
420,521	564,9
420,729	546,47
420,937	470,69
421,145	353,96
421,353	464,55
421,561	542,37
421,769	466,6
421,977	356,01
422,185	454,31
422,393	417,44
422,601	501,41
422,809	452,26
423,017	272,04
423,224	317,09
423,432	431,78
423,64	333,48
423,848	497,32
424,056	327,33
424,263	454,31
424,471	380,58
424,679	589,47
424,887	446,12
425,094	849,57
425,302	1175,19
425,51	1486,48
425,718	2059,92
425,925	2612,87
426,133	3028,6
426,341	4144,75
426,548	4779,62
426,756	5297,75
426,964	6065,74
427,171	6577,73
427,379	7251,52
427,586	7329,34
427,794	7083,58
428,001	6841,92
428,209	6377,03
428,417	5566,04
428,624	4740,71
428,832	3755,63
429,039	2889,34
429,247	2434,69
429,454	2236,04
429,662	2356,87
429,869	2365,06
430,076	2977,41
430,284	3387
430,491	4236,91
430,699	5275,23
430,906	6026,83
431,114	6872,64
431,321	7765,56
431,528	8762,92
431,736	9754,13
431,943	10278,41
432,15	9713,17
432,358	9498,14
432,565	9174,56
432,772	7562,81
432,979	6407,75
433,187	5109,34
433,394	4075,12
433,601	3161,72
433,808	2520,71
434,016	2008,72
434,223	1623,7
434,43	1234,58
434,637	1349,27
434,844	1345,17
435,052	1384,09
435,259	1666,71
435,466	1848,97
435,673	2033,29
435,88	2451,08
436,087	2774,66
436,294	3055,23
436,501	3370,62
436,708	3389,05
436,915	3606,13
437,122	3843,7
437,329	3704,43
437,537	3649,14
437,743	3673,71
437,95	3473,01
438,157	3208,83
438,364	2942,59
438,571	2416,26
438,778	2059,92
438,985	2010,76
439,192	1693,33
439,399	1359,51
439,606	1263,26
439,813	1203,86
440,02	1203,86
440,227	1068,7
440,433	945,82
440,64	878,24
440,847	761,5
441,054	763,55
441,261	886,43
441,467	767,65
441,674	665,25
441,881	702,11
442,088	620,19
442,294	624,29
442,501	599,71
442,708	673,44
442,914	534,18
443,121	675,49
443,328	779,93
443,534	890,53
443,741	865,95
443,948	861,85
444,154	1379,99
444,361	1894,03
444,568	2080,39
444,774	2410,12
444,981	2705,03
445,187	3395,19
445,394	3712,63
445,6	3925,61
445,807	4591,2
446,013	4519,53
446,22	4288,11
446,426	4302,44
446,633	4167,28
446,839	3851,89
447,046	3116,67
447,252	2971,26
447,459	2389,64
447,665	1867,41
447,871	1681,04
448,078	1486,48
448,284	1334,93
448,491	1273,5
448,697	1296,02
448,903	1394,33
449,11	1566,35
449,316	1576,59
449,522	1975,95
449,728	2098,83
449,935	2383,49
450,141	2387,59
450,347	2551,43
450,553	2422,41
450,76	2168,46
450,966	2080,39
451,172	1877,65
451,378	1648,27
451,584	1291,93
451,791	1224,34
451,997	972,44
452,203	792,22
452,409	743,07
452,615	722,59
452,821	554,66
453,027	421,54
453,233	671,39
453,44	405,16
453,646	464,55
453,852	528,03
454,058	294,57
454,264	417,44
454,47	399,01
454,676	429,73
454,882	454,31
455,088	392,87
455,294	439,97
455,5	478,88
455,705	394,92
455,911	433,83
456,117	386,72
456,323	462,5
456,529	429,73
456,735	429,73
456,941	439,97
457,147	427,68
457,352	554,66
457,558	345,77
457,764	476,84
457,97	347,81
458,176	446,12
458,381	417,44
458,587	544,42
458,793	501,41
458,999	345,77
459,204	374,44
459,41	437,92
459,616	442,02
459,821	480,93
460,027	343,72
460,233	591,52
460,438	587,43
460,644	405,16
460,85	478,88
461,055	544,42
461,261	517,79
461,466	421,54
461,672	421,54
461,878	349,86
462,083	568,99
462,289	343,72
462,494	386,72
462,7	323,24
462,905	376,48
463,111	534,18
463,316	474,79
463,522	353,96
463,727	386,72
463,932	374,44
464,138	462,5
464,343	503,46
464,549	478,88
464,754	503,46
464,959	556,71
465,165	460,45
465,37	482,98
465,575	474,79
465,781	468,64
465,986	528,03
466,191	511,65
466,397	491,17
466,602	622,24
466,807	562,85
467,012	618,15
467,218	626,34
467,423	622,24
467,628	644,77
467,833	583,33
468,038	657,06
468,244	470,69
468,449	573,09
468,654	587,43
468,859	597,67
469,064	599,71
469,269	601,76
469,474	667,3
469,679	695,97
469,885	634,53
470,09	607,91
470,295	507,55
470,5	601,76
470,705	624,29
470,91	618,15
471,115	632,48
471,32	622,24
471,525	669,34
471,73	683,68
471,935	544,42
472,139	573,09
472,344	523,94
472,549	493,22
472,754	618,15
472,959	564,9
473,164	517,79
473,369	560,8
473,574	648,86
473,778	556,71
473,983	673,44
474,188	583,33
474,393	542,37
474,598	540,32
474,802	605,86
475,007	579,23
475,212	655,01
475,417	568,99
475,621	612
475,826	550,56
476,031	599,71
476,235	431,78
476,44	571,04
476,645	491,17
476,849	556,71
477,054	499,36
477,259	456,36
477,463	669,34
477,668	757,41
477,872	681,63
478,077	525,99
478,282	439,97
478,486	683,68
478,691	458,4
478,895	589,47
479,1	573,09
479,304	669,34
479,509	542,37
479,713	747,17
479,918	648,86
480,122	480,93
480,326	661,15
480,531	618,15
480,735	700,06
480,94	675,49
481,144	843,42
481,348	792,22
481,553	820,89
481,757	675,49
481,961	775,84
482,166	702,11
482,37	788,13
482,574	814,75
482,778	632,48
482,983	788,13
483,187	777,89
483,391	765,6
483,595	738,98
483,8	691,87
484,004	788,13
484,208	665,25
484,412	833,18
484,616	765,6
484,821	659,1
485,025	661,15
485,229	669,34
485,433	784,03
485,637	728,74
485,841	722,59
486,045	829,09
486,249	824,99
486,453	833,18
486,657	761,5
486,861	700,06
487,065	941,72
487,269	845,47
487,473	763,55
487,677	829,09
487,881	1173,14
488,085	829,09
488,289	970,4
488,493	900,76
488,697	1095,32
488,901	964,25
489,105	816,8
489,309	894,62
489,512	1083,03
489,716	1044,12
489,92	878,24
490,124	857,76
490,328	921,24
490,531	876,19
490,735	847,52
490,939	708,26
491,143	845,47
491,346	775,84
491,55	710,3
491,754	749,22
491,958	820,89
492,161	685,73
492,365	601,76
492,569	724,64
492,772	671,39
492,976	820,89
493,18	626,34
493,383	652,96
493,587	693,92
493,79	743,07
493,994	587,43
494,197	700,06
494,401	632,48
494,605	628,39
494,808	698,02
495,012	597,67
495,215	796,32
495,419	747,17
495,622	614,05
495,825	755,36
496,029	822,94
496,232	773,79
496,436	681,63
496,639	837,28
496,843	706,21
497,046	657,06
497,249	827,04
497,453	767,65
497,656	747,17
497,859	812,7
498,063	747,17
498,266	786,08
498,469	585,38
498,673	691,87
498,876	702,11
499,079	644,77
499,282	702,11
499,485	927,39
499,689	753,31
499,892	810,65
500,095	657,06
500,298	743,07
500,501	542,37
500,705	601,76
500,908	626,34
501,111	689,82
501,314	644,77
501,517	712,35
501,72	648,86
501,923	636,58
502,126	669,34
502,329	747,17
502,532	710,3
502,735	673,44
502,938	802,46
503,141	646,82
503,344	626,34
503,547	872,09
503,75	702,11
503,953	685,73
504,156	755,36
504,359	765,6
504,562	732,83
504,765	730,78
504,968	845,47
505,17	919,2
505,373	796,32
505,576	898,72
505,779	935,58
505,982	820,89
506,185	951,96
506,387	915,1
506,59	902,81
506,793	954,01
506,996	937,63
507,198	999,07
507,401	1042,07
507,604	1001,12
507,807	972,44
508,009	886,43
508,212	872,09
508,415	898,72
508,617	997,02
508,82	822,94
509,022	829,09
509,225	853,66
509,428	747,17
509,63	824,99
509,833	784,03
510,035	960,16
510,238	749,22
510,44	679,58
510,643	784,03
510,845	804,51
511,048	837,28
511,25	745,12
511,453	788,13
511,655	984,73
511,858	937,63
512,06	976,54
512,262	882,33
512,465	896,67
512,667	1121,95
512,87	972,44
513,072	1222,3
513,274	1058,46
513,477	980,64
513,679	1068,7
513,881	1222,3
514,084	1103,51
514,286	1207,96
514,488	1216,15
514,69	1087,13
514,893	1111,71
515,095	1126,04
515,297	1070,75
515,499	1171,1
515,701	1093,27
515,904	1140,38
516,106	1314,45
516,308	1248,92
516,51	1009,31
516,712	1187,48
516,914	1068,7
517,116	939,68
517,318	937,63
517,52	939,68
517,722	855,71
517,925	738,98
518,127	767,65
518,329	980,64
518,531	679,58
518,733	767,65
518,935	722,59
519,136	781,98
519,338	525,99
519,54	728,74
519,742	710,3
519,944	792,22
520,146	679,58
520,348	605,86
520,55	638,62
520,752	564,9
520,954	587,43
521,155	677,54
521,357	577,19
521,559	755,36
521,761	718,5
521,963	698,02
522,164	743,07
522,366	732,83
522,568	786,08
522,77	829,09
522,971	747,17
523,173	675,49
523,375	898,72
523,576	689,82
523,778	665,25
523,98	730,78
524,181	792,22
524,383	853,66
524,584	691,87
524,786	812,7
524,988	730,78
525,189	763,55
525,391	804,51
525,592	693,92
525,794	753,31
525,995	781,98
526,197	788,13
526,398	1035,93
526,6	788,13
526,801	769,69
527,003	648,86
527,204	767,65
527,406	831,13
527,607	738,98
527,808	741,02
528,01	708,26
528,211	784,03
528,412	616,1
528,614	851,61
528,815	820,89
529,016	788,13
529,218	626,34
529,419	673,44
529,62	573,09
529,822	745,12
530,023	671,39
530,224	738,98
530,425	745,12
530,626	650,91
530,828	689,82
531,029	511,65
531,23	747,17
531,431	652,96
531,632	763,55
531,833	712,35
532,035	738,98
532,236	751,26
532,437	812,7
532,638	853,66
532,839	738,98
533,04	888,48
533,241	1003,16
533,442	911
533,643	841,37
533,844	786,08
534,045	865,95
534,246	904,86
534,447	831,13
534,648	874,14
534,849	960,16
535,05	982,68
535,251	874,14
535,451	904,86
535,652	853,66
535,853	863,9
536,054	890,53
536,255	949,92
536,456	855,71
536,657	843,42
536,857	863,9
537,058	868
537,259	824,99
537,46	806,56
537,66	749,22
537,861	755,36
538,062	771,74
538,263	603,81
538,463	755,36
538,664	677,54
538,865	632,48
539,065	659,1
539,266	808,61
539,466	554,66
539,667	710,3
539,868	693,92
540,068	616,1
540,269	644,77
540,469	714,4
540,67	681,63
540,87	769,69
541,071	642,72
541,271	675,49
541,472	683,68
541,672	702,11
541,873	710,3
542,073	689,82
542,274	591,52
542,474	798,37
542,675	689,82
542,875	781,98
543,075	659,1
543,276	612
543,476	722,59
543,676	755,36
543,877	661,15
544,077	769,69
544,277	714,4
544,478	710,3
544,678	693,92
544,878	691,87
545,078	689,82
545,279	677,54
545,479	605,86
545,679	620,19
545,879	720,54
546,079	730,78
546,28	575,14
546,48	650,91
546,68	806,56
546,88	628,39
547,08	642,72
547,28	798,37
547,48	579,23
547,68	771,74
547,88	800,41
548,081	800,41
548,281	673,44
548,481	786,08
548,681	949,92
548,881	863,9
549,081	992,92
549,28	1017,5
549,48	1113,75
549,68	1126,04
549,88	1117,85
550,08	1035,93
550,28	1164,95
550,48	1177,24
550,68	1140,38
550,88	1074,84
551,08	1119,9
551,279	1261,21
551,479	1080,99
551,679	1183,38
551,879	1001,12
552,079	1021,6
552,278	962,2
552,478	1189,53
552,678	1017,5
552,878	1044,12
553,077	804,51
553,277	841,37
553,477	833,18
553,676	994,97
553,876	849,57
554,076	861,85
554,275	1033,88
554,475	1312,41
554,674	2115,21
554,874	3219,07
555,074	5058,14
555,273	8418,86
555,473	12756,46
555,672	18767,24
555,872	26223,9
556,071	33658,03
556,271	40797,24
556,47	45951,98
556,67	49417,14
556,869	50963,36
557,068	52243,34
557,268	50088,88
557,467	47336,41
557,667	43996,17
557,866	39232,6
558,065	34069,67
558,265	29390,06
558,464	24585,52
558,663	21269,86
558,863	17077,67
559,062	14321,1
559,261	11625,98
559,461	9362,97
559,66	7083,58
559,859	5408,34
560,058	3911,28
560,258	2676,35
560,457	1990,28
560,656	1646,23
560,855	1148,57
561,054	1072,79
561,253	978,59
561,453	927,39
561,652	788,13
561,851	863,9
562,05	681,63
562,249	581,28
562,448	730,78
562,647	622,24
562,846	716,45
563,045	865,95
563,244	913,05
563,443	943,77
563,642	1013,4
563,841	1152,67
564,04	1283,74
564,239	1492,63
564,438	1605,27
564,637	1597,07
564,836	1744,53
565,035	1762,96
565,234	1656,47
565,432	1781,39
565,631	1795,73
565,83	1783,44
566,029	1656,47
566,228	1648,27
566,427	1744,53
566,625	1443,48
566,824	1635,99
567,023	1451,67
567,222	1578,64
567,42	1556,11
567,619	1472,15
567,818	1457,81
568,016	1543,83
568,215	1298,07
568,414	1298,07
568,612	1177,24
568,811	1113,75
569,01	1083,03
569,208	1085,08
569,407	1150,62
569,605	1107,61
569,804	1062,55
570,002	1128,09
570,201	949,92
570,4	1005,21
570,598	1001,12
570,797	988,83
570,995	880,29
571,193	960,16
571,392	853,66
571,59	935,58
571,789	999,07
571,987	984,73
572,186	986,78
572,384	902,81
572,582	884,38
572,781	947,87
572,979	738,98
573,177	765,6
573,376	767,65
573,574	794,27
573,772	775,84
573,971	655,01
574,169	585,38
574,367	767,65
574,565	683,68
574,763	706,21
574,962	710,3
575,16	652,96
575,358	575,14
575,556	634,53
575,754	683,68
575,952	650,91
576,151	661,15
576,349	757,41
576,547	491,17
576,745	638,62
576,943	614,05
577,141	552,61
577,339	505,51
577,537	710,3
577,735	681,63
577,933	673,44
578,131	628,39
578,329	693,92
578,527	636,58
578,725	648,86
578,923	487,08
579,121	675,49
579,319	507,55
579,516	599,71
579,714	833,18
579,912	648,86
580,11	509,6
580,308	558,75
580,506	601,76
580,704	517,79
580,901	540,32
581,099	863,9
581,297	763,55
581,495	943,77
581,692	968,35
581,89	1277,59
582,088	1328,79
582,285	1402,52
582,483	1425,04
582,681	1664,66
582,878	1607,31
583,076	1609,36
583,274	1660,56
583,471	1652,37
583,669	1490,58
583,866	1451,67
584,064	1238,68
584,262	1175,19
584,459	1136,28
584,657	1126,04
584,854	1064,6
585,052	1332,89
585,249	1971,85
585,447	4304,49
585,644	8349,23
585,841	15338,94
586,039	24253,75
586,236	32912,56
586,434	40608,83
586,631	47256,54
586,828	52300,68
587,026	54553,45
587,223	54256,49
587,42	52372,36
587,618	49824,69
587,815	45679,6
588,012	41954,35
588,21	36779,13
588,407	32304,32
588,604	27577,61
588,801	23264,58
588,999	19631,49
589,196	16430,51
589,393	13311,46
589,59	11193,86
589,787	8840,74
589,984	6919,75
590,182	5303,9
590,379	3886,7
590,576	2758,27
590,773	1992,33
590,97	1543,83
591,167	1189,53
591,364	1027,74
591,561	863,9
591,758	988,83
591,955	808,61
592,152	622,24
592,349	476,84
592,546	534,18
592,743	579,23
592,94	503,46
593,137	605,86
593,334	577,19
593,531	489,12
593,727	558,75
593,924	491,17
594,121	521,89
594,318	427,68
594,515	568,99
594,712	523,94
594,908	601,76
595,105	323,24
595,302	435,88
595,499	435,88
595,696	548,51
595,892	388,77
596,089	542,37
596,286	413,35
596,482	583,33
596,679	433,83
596,876	356,01
597,072	552,61
597,269	362,15
597,466	489,12
597,662	501,41
597,859	568,99
598,055	837,28
598,252	1058,46
598,448	1371,8
598,645	1543,83
598,841	1848,97
599,038	2078,35
599,234	2213,51
599,431	2170,51
599,627	2233,99
599,824	2244,23
600,02	2305,67
600,217	2236,04
600,413	2287,24
600,609	2315,91
600,806	2627,2
601,002	2328,2
601,198	2066,06
601,395	2225,8
601,591	1961,61
601,787	1869,45
601,984	1805,97
602,18	1592,98
602,376	1478,29
602,572	1447,57
602,769	1455,76
602,965	1298,07
603,161	1398,42
603,357	1318,55
603,553	1341,08
603,75	1191,58
603,946	1117,85
604,142	1191,58
604,338	1472,15
604,534	1328,79
604,73	1535,64
604,926	1705,62
605,122	1773,2
605,318	1844,88
605,514	1840,78
605,71	1754,77
605,906	1820,3
606,102	1611,41
606,298	1754,77
606,494	1648,27
606,69	1484,44
606,886	1427,09
607,082	1394,33
607,278	1334,93
607,474	1468,05
607,67	1531,54
607,866	1339,03
608,062	1466
608,257	1263,26
608,453	1103,51
608,649	1224,34
608,845	958,11
609,041	964,25
609,236	1035,93
609,432	824,99
609,628	927,39
609,824	804,51
610,019	644,77
610,215	636,58
610,411	761,5
610,606	816,8
610,802	497,32
610,998	542,37
611,193	612
611,389	349,86
611,584	581,28
611,78	450,21
611,976	450,21
612,171	683,68
612,367	642,72
612,562	478,88
612,758	501,41
612,953	433,83
613,149	525,99
613,344	517,79
613,539	394,92
613,735	577,19
613,93	601,76
614,126	460,45
614,321	601,76
614,517	718,5
614,712	657,06
614,907	683,68
615,103	702,11
615,298	546,47
615,493	525,99
615,688	595,62
615,884	562,85
616,079	589,47
616,274	550,56
616,47	495,27
616,665	435,88
616,86	517,79
617,055	421,54
617,25	401,06
617,445	446,12
617,641	435,88
617,836	366,25
618,031	358,05
618,226	419,49
618,421	464,55
618,616	321,19
618,811	306,85
619,006	304,81
619,201	511,65
619,396	358,05
619,591	347,81
619,786	364,2
619,981	411,3
620,176	317,09
620,371	310,95
620,566	325,29
620,761	579,23
620,956	378,53
621,151	347,81
621,346	476,84
621,541	433,83
621,735	591,52
621,93	468,64
622,125	491,17
622,32	523,94
622,515	474,79
622,709	745,12
622,904	693,92
623,099	716,45
623,294	859,81
623,488	872,09
623,683	814,75
623,878	757,41
624,072	829,09
624,267	571,04
624,462	716,45
624,656	487,08
624,851	640,67
625,046	568,99
625,24	472,74
625,435	521,89
625,629	480,93
625,824	456,36
626,018	444,07
626,213	507,55
626,407	415,4
626,602	382,63
626,796	347,81
626,991	487,08
627,185	384,68
627,38	364,2
627,574	444,07
627,768	380,58
627,963	292,52
628,157	390,82
628,352	292,52
628,546	237,22
628,74	317,09
628,935	351,91
629,129	239,27
629,323	448,16
629,517	280,23
629,712	255,65
629,906	325,29
630,1	446,12
630,294	362,15
630,489	317,09
630,683	280,23
630,877	267,94
631,071	462,5
631,265	269,99
631,459	269,99
631,653	306,85
631,848	329,38
632,042	267,94
632,236	278,18
632,43	341,67
632,624	345,77
632,818	327,33
633,012	345,77
633,206	294,57
633,4	306,85
633,594	345,77
633,788	388,77
633,982	409,25
634,176	601,76
634,369	325,29
634,563	431,78
634,757	411,3
634,951	534,18
635,145	554,66
635,339	437,92
635,533	523,94
635,726	562,85
635,92	429,73
636,114	358,05
636,308	390,82
636,501	450,21
636,695	599,71
636,889	491,17
637,083	706,21
637,276	509,6
637,47	558,75
637,664	573,09
637,857	542,37
638,051	501,41
638,244	542,37
638,438	497,32
638,632	587,43
638,825	349,86
639,019	628,39
639,212	462,5
639,406	513,7
639,599	419,49
639,793	456,36
639,986	472,74
640,18	624,29
640,373	497,32
640,567	689,82
640,76	863,9
640,954	1033,88
641,147	1203,86
641,34	1453,72
641,534	1695,38
641,727	1918,61
641,92	2057,87
642,114	2061,96
642,307	1828,49
642,5	1877,65
642,694	1662,61
642,887	1705,62
643,08	1664,66
643,273	1480,34
643,467	1353,37
643,66	1199,77
643,853	1164,95
644,046	1119,9
644,239	1187,48
644,432	1408,66
644,626	1726,1
644,819	2223,75
645,012	2580,1
645,205	2940,54
645,398	3182,2
645,591	3247,74
645,784	3200,63
645,977	3079,8
646,17	2866,81
646,363	2707,07
646,556	2504,32
646,749	2369,16
646,942	2338,44
647,135	2053,77
647,328	1793,68
647,521	1599,12
647,714	1414,81
647,907	1466
648,099	1199,77
648,292	1222,3
648,485	1027,74
648,678	820,89
648,871	716,45
649,064	818,85
649,256	650,91
649,449	636,58
649,642	591,52
649,835	622,24
650,027	548,51
650,22	714,4
650,413	607,91
650,605	609,95
650,798	538,27
650,991	593,57
651,183	577,19
651,376	556,71
651,568	614,05
651,761	548,51
651,954	546,47
652,146	480,93
652,339	644,77
652,531	597,67
652,724	450,21
652,916	388,77
653,109	372,39
653,301	599,71
653,494	691,87
653,686	534,18
653,879	677,54
654,071	552,61
654,263	530,08
654,456	487,08
654,648	591,52
654,84	659,1
655,033	564,9
655,225	841,37
655,417	669,34
655,61	1025,69
655,802	1052,31
655,994	1183,38
656,186	1128,09
656,379	1246,87
656,571	1046,17
656,763	1091,23
656,955	1015,45
657,148	974,49
657,34	1001,12
657,532	906,91
657,724	851,61
657,916	794,27
658,108	839,33
658,3	777,89
658,492	718,5
658,684	454,31
658,876	798,37
659,068	460,45
659,26	437,92
659,452	423,59
659,644	528,03
659,836	585,38
660,028	423,59
660,22	331,43
660,412	384,68
660,604	306,85
660,796	388,77
660,988	439,97
661,18	394,92
661,372	356,01
661,563	323,24
661,755	306,85
661,947	267,94
662,139	339,62
662,331	304,81
662,522	345,77
662,714	255,65
662,906	216,74
663,097	298,66
663,289	313
663,481	218,79
663,673	360,1
663,864	200,36
664,056	349,86
664,247	372,39
664,439	558,75
664,631	591,52
664,822	759,46
665,014	675,49
665,205	671,39
665,397	646,82
665,588	716,45
665,78	616,1
665,971	681,63
666,163	581,28
666,354	577,19
666,546	476,84
666,737	485,03
666,929	411,3
667,12	378,53
667,311	458,4
667,503	378,53
667,694	372,39
667,885	345,77
668,077	437,92
668,268	165,54
668,459	282,28
668,651	374,44
668,842	423,59
669,033	489,12
669,224	503,46
669,416	853,66
669,607	779,93
669,798	759,46
669,989	820,89
670,18	710,3
670,371	845,47
670,563	644,77
670,754	804,51
670,945	720,54
671,136	661,15
671,327	540,32
671,518	618,15
671,709	704,16
671,9	591,52
672,091	609,95
672,282	523,94
672,473	431,78
672,664	394,92
672,855	403,11
673,046	464,55
673,237	452,26
673,428	423,59
673,619	450,21
673,809	409,25
674	521,89
674,191	489,12
674,382	376,48
674,573	405,16
674,764	417,44
674,954	431,78
675,145	304,81
675,336	226,98
675,527	290,47
675,717	396,96
675,908	290,47
676,099	284,33
676,289	290,47
676,48	120,49
676,671	247,46
676,861	288,42
677,052	329,38
677,243	237,22
677,433	222,89
677,624	249,51
677,814	300,71
678,005	212,65
678,195	413,35
678,386	269,99
678,576	237,22
678,767	173,74
678,957	296,61
679,148	329,38
679,338	339,62
679,529	259,75
679,719	208,55
679,909	306,85
680,1	366,25
680,29	380,58
680,481	335,53
680,671	560,8
680,861	595,62
681,052	652,96
681,242	583,33
681,432	792,22
681,622	747,17
681,813	589,47
682,003	624,29
682,193	487,08
682,383	562,85
682,573	558,75
682,764	474,79
682,954	507,55
683,144	650,91
683,334	519,84
683,524	360,1
683,714	521,89
683,904	446,12
684,094	411,3
684,284	468,64
684,474	505,51
684,664	511,65
684,854	435,88
685,044	304,81
685,234	370,34
685,424	321,19
685,614	226,98
685,804	462,5
685,994	353,96
686,184	446,12
686,374	413,35
686,564	335,53
686,753	444,07
686,943	323,24
687,133	384,68
687,323	405,16
687,513	362,15
687,702	347,81
687,892	378,53
688,082	470,69
688,272	386,72
688,461	339,62
688,651	368,29
688,841	329,38
689,03	249,51
689,22	351,91
689,41	714,4
689,599	792,22
689,789	1021,6
689,979	1306,26
690,168	1388,18
690,358	1549,97
690,547	1711,76
690,737	1535,64
690,926	1570,45
691,116	1396,37
691,305	1324,69
691,495	1226,39
691,684	1070,75
691,874	1009,31
692,063	947,87
692,252	847,52
692,442	954,01
692,631	700,06
692,82	628,39
693,01	593,57
693,199	581,28
693,388	546,47
693,578	407,2
693,767	482,98
693,956	444,07
694,146	448,16
694,335	368,29
694,524	296,61
694,713	378,53
694,902	296,61
695,092	290,47
695,281	370,34
695,47	263,85
695,659	294,57
695,848	388,77
696,037	247,46
696,226	485,03
696,415	337,57
696,604	431,78
696,793	470,69
696,982	362,15
697,171	421,54
697,36	353,96
697,549	407,2
697,738	206,5
697,927	296,61
698,116	261,8
698,305	362,15
698,494	378,53
698,683	308,9
698,872	450,21
699,061	321,19
699,25	358,05
699,438	399,01
699,627	341,67
699,816	558,75
700,005	347,81
700,193	356,01
700,382	437,92
700,571	347,81
700,76	466,6
700,948	423,59
701,137	386,72
701,326	356,01
701,514	263,85
701,703	349,86
701,892	337,57
702,08	476,84
702,269	384,68
702,457	263,85
702,646	306,85
702,834	304,81
703,023	351,91
703,212	417,44
703,4	263,85
703,589	306,85
703,777	321,19
703,965	222,89
704,154	206,5
704,342	224,94
704,531	206,5
704,719	241,32
704,907	466,6
705,096	202,41
705,284	190,12
705,472	313
705,661	384,68
705,849	337,57
706,037	415,4
706,226	274,09
706,414	302,76
706,602	263,85
706,79	386,72
706,979	282,28
707,167	384,68
707,355	163,5
707,543	306,85
707,731	349,86
707,919	261,8
708,107	206,5
708,296	222,89
708,484	169,64
708,672	296,61
708,86	263,85
709,048	280,23
709,236	161,45
709,424	339,62
709,612	288,42
709,8	132,78
709,988	235,18
710,176	233,13
710,364	323,24
710,551	153,26
710,739	233,13
710,927	124,58
711,115	200,36
711,303	325,29
711,491	304,81
711,679	102,06
711,866	249,51
712,054	226,98
712,242	249,51
712,43	274,09
712,617	186,02
712,805	304,81
712,993	233,13
713,181	108,2
713,368	382,63
713,556	239,27
713,744	194,22
713,931	390,82
714,119	239,27
714,306	319,14
714,494	249,51
714,682	282,28
714,869	140,97
715,057	206,5
715,244	50,86
715,432	251,56
715,619	138,92
715,807	222,89
715,994	245,41
716,182	245,41
716,369	255,65
716,556	308,9
716,744	124,58
716,931	132,78
717,119	237,22
717,306	222,89
717,493	165,54
717,681	134,82
717,868	104,11
718,055	198,31
718,242	192,17
718,43	218,79
718,617	183,98
718,804	173,74
718,991	360,1
719,179	237,22
719,366	261,8
719,553	237,22
719,74	335,53
719,927	181,93
720,114	188,07
720,301	50,86
720,488	214,7
720,676	163,5
720,863	308,9
721,05	427,68
721,237	435,88
721,424	577,19
721,611	917,15
721,798	1183,38
721,985	1445,52
722,172	1595,03
722,358	1830,54
722,545	2025,1
722,732	1900,17
722,919	1902,22
723,106	1615,51
723,293	1515,16
723,48	1384,09
723,667	1320,6
723,853	1365,65
724,04	1181,34
724,227	1238,68
724,414	974,49
724,6	992,92
724,787	980,64
724,974	896,67
725,161	804,51
725,347	478,88
725,534	648,86
725,72	616,1
725,907	620,19
726,094	546,47
726,28	419,49
726,467	536,23
726,653	356,01
726,84	577,19
727,027	593,57
727,213	429,73
727,4	489,12
727,586	509,6
727,773	693,92
727,959	941,72
728,145	1044,12
728,332	1232,54
728,518	1379,99
728,705	1640,08
728,891	1621,65
729,077	1478,29
729,264	1365,65
729,45	1451,67
729,636	1388,18
729,823	1185,43
730,009	1238,68
730,195	1177,24
730,382	1123,99
730,568	978,59
730,754	947,87
730,94	822,94
731,126	732,83
731,313	751,26
731,499	700,06
731,685	665,25
731,871	614,05
732,057	681,63
732,243	722,59
732,429	671,39
732,615	689,82
732,801	560,8
732,987	552,61
733,173	478,88
733,359	448,16
733,545	476,84
733,731	421,54
733,917	546,47
734,103	523,94
734,289	417,44
734,475	386,72
734,661	632,48
734,847	534,18
735,033	519,84
735,219	636,58
735,404	499,36
735,59	470,69
735,776	562,85
735,962	616,1
736,148	667,3
736,333	700,06
736,519	585,38
736,705	599,71
736,89	607,91
737,076	618,15
737,262	454,31
737,447	444,07
737,633	509,6
737,819	587,43
738,004	571,04
738,19	571,04
738,375	536,23
738,561	575,14
738,747	525,99
738,932	413,35
739,118	810,65
739,303	599,71
739,489	550,56
739,674	540,32
739,859	476,84
740,045	556,71
740,23	573,09
740,416	421,54
740,601	681,63
740,786	530,08
740,972	517,79
741,157	521,89
741,342	573,09
741,528	579,23
741,713	849,57
741,898	788,13
742,084	1078,94
742,269	1033,88
742,454	1107,61
742,639	1253,02
742,824	1191,58
743,01	1291,93
743,195	1222,3
743,38	1005,21
743,565	1017,5
743,75	1044,12
743,935	884,38
744,12	1087,13
744,305	919,2
744,49	757,41
744,675	831,13
744,86	755,36
745,045	870,05
745,23	765,6
745,415	673,44
745,6	843,42
745,785	677,54
745,97	800,41
746,155	706,21
746,34	673,44
746,525	591,52
746,71	788,13
746,895	642,72
747,079	650,91
747,264	714,4
747,449	822,94
747,634	1001,12
747,819	1042,07
748,003	1357,46
748,188	1531,54
748,373	1992,33
748,557	2219,66
748,742	2297,48
748,927	2412,17
749,111	2391,69
749,296	2426,5
749,481	2369,16
749,665	2229,9
749,85	2074,25
750,034	1951,37
750,219	1910,41
750,404	1773,2
750,588	1783,44
750,773	1552,02
750,957	1437,33
751,141	1388,18
751,326	1453,72
751,51	1078,94
751,695	1205,91
751,879	1148,57
752,064	1148,57
752,248	982,68
752,432	988,83
752,617	980,64
752,801	941,72
752,985	898,72
753,17	988,83
753,354	892,57
753,538	968,35
753,722	927,39
753,907	968,35
754,091	947,87
754,275	1015,45
754,459	972,44
754,643	1029,79
754,828	1091,23
755,012	1371,8
755,196	1228,44
755,38	1355,41
755,564	1367,7
755,748	1527,44
755,932	1748,62
756,116	1767,06
756,3	1959,56
756,484	2070,16
756,668	2324,1
756,852	2303,62
757,036	2627,2
757,22	3243,64
757,404	5199,45
757,588	13481,44
757,772	37033,08
757,956	63615,71
758,14	63615,71
758,323	63615,71
758,507	63615,71
758,691	63615,71
758,875	63615,71
759,059	63615,71
759,242	63615,71
759,426	63615,71
759,61	63615,71
759,794	63615,71
759,977	63615,71
760,161	63615,71
760,345	63615,71
760,528	63615,71
760,712	63615,71
760,895	63615,71
761,079	63615,71
761,263	63615,71
761,446	63615,71
761,63	63615,71
761,813	63615,71
761,997	63615,71
762,18	63615,71
762,364	63615,71
762,547	63615,71
762,731	63615,71
762,914	63615,71
763,098	63615,71
763,281	63615,71
763,464	63615,71
763,648	63615,71
763,831	63615,71
764,015	63615,71
764,198	63615,71
764,381	63615,71
764,564	63615,71
764,748	63615,71
764,931	63615,71
765,114	63615,71
765,297	63615,71
765,481	63615,71
765,664	63615,71
765,847	63615,71
766,03	63615,71
766,213	63615,71
766,397	63615,71
766,58	63615,71
766,763	63615,71
766,946	63615,71
767,129	63615,71
767,312	63615,71
767,495	63615,71
767,678	63615,71
767,861	63615,71
768,044	63615,71
768,227	63615,71
768,41	63615,71
768,593	63615,71
768,776	63615,71
768,959	63615,71
769,142	63615,71
769,324	63615,71
769,507	63615,71
769,69	63615,71
769,873	63615,71
770,056	63615,71
770,239	63615,71
770,421	63615,71
770,604	63615,71
770,787	63615,71
770,97	63615,71
771,152	63615,71
771,335	63615,71
771,518	63615,71
771,7	63615,71
771,883	63615,71
772,066	63615,71
772,248	63615,71
772,431	63615,71
772,613	63615,71
772,796	63615,71
772,978	63615,71
773,161	63615,71
773,343	63615,71
773,526	63615,71
773,708	63615,71
773,891	63615,71
774,073	63615,71
774,256	63615,71
774,438	63615,71
774,621	63615,71
774,803	63615,71
774,985	63615,71
775,168	63615,71
775,35	63615,71
775,532	63615,71
775,715	63615,71
775,897	63615,71
776,079	63615,71
776,261	63615,71
776,444	63615,71
776,626	63615,71
776,808	63615,71
776,99	63615,71
777,173	63615,71
777,355	63615,71
777,537	63615,71
777,719	63615,71
777,901	63615,71
778,083	63615,71
778,265	63615,71
778,447	63615,71
778,629	63615,71
778,811	63615,71
778,993	63615,71
779,175	63615,71
779,357	63615,71
779,539	63615,71
779,721	63615,71
779,903	63615,71
780,085	63615,71
780,267	63615,71
780,449	63615,71
780,631	63615,71
780,812	63615,71
780,994	63615,71
781,176	63615,71
781,358	63615,71
781,54	63615,71
781,721	63615,71
781,903	63615,71
782,085	63615,71
782,267	63615,71
782,448	63615,71
782,63	63615,71
782,812	63615,71
782,993	63615,71
783,175	63615,71
783,357	63615,71
783,538	63615,71
783,72	63615,71
783,901	63615,71
784,083	63615,71
784,264	63615,71
784,446	63615,71
784,627	63615,71
784,809	63615,71
784,99	63615,71
785,172	63615,71
785,353	63615,71
785,535	63615,71
785,716	63615,71
785,897	63615,71
786,079	63615,71
786,26	63615,71
786,441	63615,71
786,623	63615,71
786,804	63615,71
786,985	63615,71
787,167	63615,71
787,348	63615,71
787,529	63615,71
787,71	63615,71
787,891	63615,71
788,073	63615,71
788,254	63615,71
788,435	63615,71
788,616	25283,88
788,797	16938,41
788,978	4671,08
789,159	3397,24
789,34	2811,52
789,522	2328,2
789,703	1957,52
789,884	2057,87
790,065	1818,25
790,246	1992,33
790,427	2102,92
790,607	2776,7
790,788	3311,22
790,969	3538,55
791,15	4099,69
791,331	4355,69
791,512	4578,92
791,693	4351,59
791,874	4392,55
792,054	4761,19
792,235	4847,2
792,416	4957,79
792,597	4810,34
792,778	5142,11
792,958	5004,89
793,139	4615,78
793,32	4210,28
793,5	3753,59
793,681	3647,09
793,862	3182,2
794,042	2875,01
794,223	2586,24
794,404	2201,23
794,584	1986,19
794,765	1896,08
794,945	1699,47
795,126	1578,64
795,306	1529,49
795,487	1418,9
795,667	1351,32
795,848	1248,92
796,028	1042,07
796,209	1042,07
796,389	1040,03
796,57	929,44
796,75	786,08
796,93	939,68
797,111	792,22
797,291	949,92
797,471	1033,88
797,652	1060,51
797,832	1144,47
798,012	1281,69
798,192	1326,74
798,373	1275,54
798,553	1296,02
798,733	1330,84
798,913	1224,34
799,093	1158,81
799,274	1199,77
799,454	1232,54
799,634	1107,61
799,814	1101,47
799,994	1095,32
800,174	1164,95
800,354	1105,56
800,534	945,82
800,714	997,02
800,894	902,81
801,074	984,73
801,254	911
801,434	1089,18
801,614	1050,27
801,794	945,82
801,974	2762,37
802,154	1048,22
802,334	1150,62
802,514	994,97
802,693	1105,56
802,873	1117,85
803,053	1287,83
803,233	1189,53
803,413	1246,87
803,592	1152,67
803,772	1193,62
803,952	1236,63
804,131	1210,01
804,311	1476,24
804,491	1666,71
804,67	2442,89
804,85	5228,12
805,03	11587,07
805,209	22238,55
805,389	35560,59
805,568	46760,93
805,748	54995,81
805,928	61115,14
806,107	63189,73
806,287	61600,51
806,466	57383,74
806,646	49464,25
806,825	43160,6
807,004	37323,89
807,184	31343,82
807,363	26668,31
807,543	23280,97
807,722	20084,09
807,901	18150,81
808,081	16131,51
808,26	15050,18
808,439	13749,72
808,619	12660,2
808,798	11480,57
808,977	10978,82
809,156	12682,73
809,336	20764,01
809,515	39631,95
809,694	63615,71
809,873	63615,71
810,052	63615,71
810,231	63615,71
810,411	63615,71
810,59	63615,71
810,769	63615,71
810,948	63615,71
811,127	63615,71
811,306	63615,71
811,485	63615,71
811,664	63615,71
811,843	63615,71
812,022	63615,71
812,201	63615,71
812,38	63615,71
812,559	63615,71
812,737	63615,71
812,916	63615,71
813,095	63615,71
813,274	63615,71
813,453	63615,71
813,632	63615,71
813,811	63615,71
813,989	63615,71
814,168	63615,71
814,347	63615,71
814,526	63615,71
814,704	63615,71
814,883	63615,71
815,062	63615,71
815,24	63615,71
815,419	63615,71
815,598	63615,71
815,776	63615,71
815,955	63615,71
816,133	63615,71
816,312	63615,71
816,49	63615,71
816,669	63615,71
816,847	63615,71
817,026	63615,71
817,204	63615,71
817,383	63615,71
817,561	63615,71
817,74	63615,71
817,918	63615,71
818,097	63615,71
818,275	63615,71
818,453	63615,71
818,632	63615,71
818,81	63615,71
818,988	63615,71
819,167	63615,71
819,345	63615,71
819,523	63615,71
819,701	63615,71
819,879	63615,71
820,058	63615,71
820,236	63615,71
820,414	63615,71
820,592	63615,71
820,77	63615,71
820,948	63615,71
821,127	63615,71
821,305	63615,71
821,483	63615,71
821,661	63615,71
821,839	63615,71
822,017	63615,71
822,195	63615,71
822,373	63615,71
822,551	63615,71
822,729	63615,71
822,907	63615,71
823,085	63615,71
823,262	63615,71
823,44	63615,71
823,618	63615,71
823,796	63615,71
823,974	63615,71
824,152	63615,71
824,329	63615,71
824,507	63615,71
824,685	63615,71
824,863	63615,71
825,04	63615,71
825,218	63615,71
825,396	63615,71
825,574	63615,71
825,751	63615,71
825,929	63615,71
826,107	63615,71
826,284	63615,71
826,462	63615,71
826,639	63615,71
826,817	63615,71
826,994	63615,71
827,172	63615,71
827,349	63615,71
827,527	63615,71
827,704	63615,71
827,882	63615,71
828,059	63615,71
828,237	63615,71
828,414	63615,71
828,591	63615,71
828,769	63615,71
828,946	63615,71
829,124	63615,71
829,301	63615,71
829,478	63615,71
829,655	63615,71
829,833	63615,71
830,01	63615,71
830,187	63615,71
830,364	63615,71
830,542	63615,71
830,719	63615,71
830,896	63615,71
831,073	63615,71
831,25	63615,71
831,427	63615,71
831,604	63615,71
831,782	63615,71
831,959	63615,71
832,136	63615,71
832,313	63615,71
832,49	63615,71
832,667	63615,71
832,844	63615,71
833,021	63615,71
833,198	63615,71
833,374	63615,71
833,551	63615,71
833,728	63615,71
833,905	63615,71
834,082	63615,71
834,259	63615,71
834,436	63615,71
834,612	63615,71
834,789	63615,71
834,966	63615,71
835,143	63615,71
835,319	63615,71
835,496	63615,71
835,673	63615,71
835,85	63615,71
836,026	63615,71
836,203	63615,71
836,38	63615,71
836,556	63615,71
836,733	63615,71
836,909	63615,71
837,086	63615,71
837,262	63615,71
837,439	63615,71
837,616	63615,71
837,792	63615,71
837,968	63615,71
838,145	63615,71
838,321	63615,71
838,498	63615,71
838,674	63615,71
838,851	63615,71
839,027	63615,71
839,203	63615,71
839,38	63615,71
839,556	63615,71
839,732	63615,71
839,909	63615,71
840,085	63615,71
840,261	63615,71
840,437	63615,71
840,614	63615,71
840,79	63615,71
840,966	63615,71
841,142	63615,71
841,318	63615,71
841,494	63615,71
841,671	63615,71
841,847	63615,71
842,023	63615,71
842,199	63615,71
842,375	63615,71
842,551	63615,71
842,727	63615,71
842,903	63615,71
843,079	63615,71
843,255	63615,71
843,431	63615,71
843,607	62976,75
843,783	63615,71
843,959	704,16
844,134	534,18
844,31	632,48
844,486	468,64
844,662	476,84
844,838	470,69
845,013	532,13
845,189	513,7
845,365	356,01
845,541	435,88
845,716	358,05
845,892	407,2
846,068	222,89
846,244	331,43
846,419	335,53
846,595	229,03
846,77	286,37
846,946	339,62
847,122	263,85
847,297	231,08
847,473	470,69
847,648	265,89
847,824	360,1
847,999	222,89
848,175	292,52
848,35	339,62
848,526	323,24
848,701	347,81
848,876	513,7
849,052	460,45
849,227	358,05
849,403	685,73
849,578	1429,14
849,753	3378,81
849,929	6909,51
850,104	12264,94
850,279	18281,88
850,454	24810,8
850,63	28964,08
850,805	31524,04
850,98	31716,55
851,155	30325,98
851,33	26570,01
851,505	23317,83
851,681	20114,81
851,856	17513,89
852,031	15975,86
852,206	15054,28
852,381	13723,1
852,556	12529,13
852,731	11740,66
852,906	10845,7
853,081	10186,26
853,256	9340,44
853,431	8691,24
853,606	7933,49
853,781	7325,24
853,956	6929,98
854,131	6202,96
854,305	5459,54
854,48	4570,72
854,655	3532,4
854,83	2764,42
855,005	2082,44
855,18	1529,49
855,354	1074,84
855,529	1007,26
855,704	710,3
855,879	681,63
856,053	474,79
856,228	519,84
856,403	382,63
856,577	421,54
856,752	274,09
856,926	362,15
857,101	329,38
857,276	124,58
857,45	370,34
857,625	390,82
857,799	353,96
857,974	292,52
858,148	147,11
858,323	313
858,497	335,53
858,672	206,5
858,846	288,42
859,02	323,24
859,195	196,26
859,369	237,22
859,543	224,94
859,718	288,42
859,892	233,13
860,066	382,63
860,241	224,94
860,415	243,37
860,589	255,65
860,763	274,09
860,938	276,13
861,112	255,65
861,286	124,58
861,46	210,6
861,634	204,46
861,808	364,2
861,982	261,8
862,157	132,78
862,331	169,64
862,505	175,78
862,679	159,4
862,853	190,12
863,027	280,23
863,201	374,44
863,375	173,74
863,549	315,05
863,722	200,36
863,896	388,77
864,07	145,06
864,244	247,46
864,418	310,95
864,592	272,04
864,766	214,7
864,939	231,08
865,113	224,94
865,287	349,86
865,461	134,82
865,634	235,18
865,808	229,03
865,982	243,37
866,156	202,41
866,329	173,74
866,503	255,65
866,676	308,9
866,85	229,03
867,024	194,22
867,197	358,05
867,371	317,09
867,544	231,08
867,718	243,37
867,891	290,47
868,065	165,54
868,238	298,66
868,412	347,81
868,585	294,57
868,759	153,26
868,932	241,32
869,105	243,37
869,279	222,89
869,452	186,02
869,625	302,76
869,799	323,24
869,972	157,35
870,145	210,6
870,319	388,77
870,492	231,08
870,665	274,09
870,838	235,18
871,011	136,87
871,185	296,61
871,358	200,36
871,531	353,96
871,704	247,46
871,877	265,89
872,05	366,25
872,223	222,89
872,396	386,72
872,569	296,61
872,742	251,56
872,915	409,25
873,088	351,91
873,261	317,09
873,434	394,92
873,607	335,53
873,78	415,4
873,953	267,94
874,126	298,66
874,299	435,88
874,471	349,86
874,644	317,09
874,817	411,3
874,99	616,1
875,163	421,54
875,335	544,42
875,508	575,14
875,681	773,79
875,853	775,84
876,026	1128,09
876,199	2164,36
876,371	4157,04
876,544	8361,52
876,717	16072,12
876,889	27106,57
877,062	40821,82
877,234	53883,76
877,407	63220,45
877,579	63615,71
877,752	63615,71
877,924	63615,71
878,097	63615,71
878,269	63615,71
878,442	63615,71
878,614	63615,71
878,786	63615,71
878,959	63615,71
879,131	63615,71
879,303	63615,71
879,476	63615,71
879,648	54215,54
879,82	43893,77
879,993	40827,96
880,165	38018,15
880,337	35734,67
880,509	32996,53
880,681	31126,74
880,854	29160,69
881,026	27675,91
881,198	24958,25
881,37	22117,72
881,542	18826,64
881,714	15408,58
881,886	12039,67
882,058	9293,34
882,23	6518,34
882,402	4718,18
882,574	3532,4
882,746	2506,37
882,918	1975,95
883,09	1451,67
883,262	1070,75
883,434	960,16
883,606	634,53
883,778	724,64
883,95	820,89
884,122	517,79
884,293	685,73
884,465	517,79
884,637	525,99
884,809	431,78
884,98	388,77
885,152	468,64
885,324	452,26
885,496	286,37
885,667	401,06
885,839	362,15
886,011	431,78
886,182	347,81
886,354	411,3
886,525	390,82
886,697	310,95
886,869	212,65
887,04	339,62
887,212	327,33
887,383	470,69
887,555	282,28
887,726	253,61
887,897	251,56
888,069	272,04
888,24	374,44
888,412	265,89
888,583	298,66
888,754	257,7
888,926	143,02
889,097	239,27
889,268	165,54
889,44	345,77
889,611	214,7
889,782	231,08
889,953	290,47
890,125	396,96
890,296	247,46
890,467	194,22
890,638	288,42
890,809	388,77
890,98	333,48
891,151	444,07
891,323	745,12
891,494	1033,88
891,665	2068,11
891,836	3966,57
892,007	6702,66
892,178	11116,03
892,349	16864,68
892,52	22955,34
892,691	29924,58
892,862	35644,55
893,032	41411,63
893,203	44659,71
893,374	46902,24
893,545	46803,94
893,716	45822,96
893,887	44844,03
894,057	42615,84
894,228	40305,73
894,399	38184,04
894,57	35589,26
894,74	33698,98
894,911	31134,93
895,082	29719,78
895,253	27372,81
895,423	26096,92
895,594	24382,77
895,764	23295,3
895,935	21282,15
896,106	20204,92
896,276	19207,56
896,447	17800,6
896,617	16405,94
896,788	14636,49
896,958	12228,08
897,129	10120,72
897,299	7855,67
897,47	6176,33
897,64	4605,54
897,81	3311,22
897,981	2518,66
898,151	1787,54
898,322	1371,8
898,492	1164,95
898,662	810,65
898,832	732,83
899,003	595,62
899,173	665,25
899,343	521,89
899,513	419,49
