Data from filtre 577_USB4F104151__7__12-00-10-748.txt Node

Date: Wed Apr 15 12:00:10 EDT 2026
User: LaboPhy
Spectrometer: USB4F10415
Trigger mode: 4
Integration Time (sec): 2,000000E-3
Scans to average: 1
Electric dark correction enabled: true
Nonlinearity correction enabled: false
Boxcar width: 0
XAxis mode: Wavelengths
Number of Pixels in Spectrum: 3648
>>>>>Begin Spectral Data<<<<<
178,204	27,48
178,424	27,48
178,644	27,48
178,864	13,14
179,084	11,09
179,304	-44,2
179,524	-5,29
179,744	52,05
179,964	37,72
180,184	-38,06
180,404	39,76
180,624	27,48
180,844	-23,72
181,064	-17,58
181,283	-3,24
181,503	-40,11
181,723	15,19
181,943	21,33
182,163	86,87
182,383	19,29
182,602	43,86
182,822	-13,48
183,042	56,15
183,262	78,68
183,482	78,68
183,701	68,44
183,921	43,86
184,141	-76,97
184,361	19,29
184,58	54,1
184,8	41,81
185,02	11,09
185,239	2,9
185,459	0,85
185,679	-5,29
185,898	54,1
186,118	47,96
186,338	-56,49
186,557	72,53
186,777	11,09
186,997	-25,77
187,216	62,29
187,436	-29,87
187,655	43,86
187,875	27,48
188,095	15,19
188,314	21,33
188,534	21,33
188,753	27,48
188,973	21,33
189,192	45,91
189,412	-27,82
189,631	15,19
189,851	-9,39
190,07	-46,25
190,29	56,15
190,509	-33,96
190,729	35,67
190,948	-29,87
191,168	35,67
191,387	31,57
191,607	11,09
191,826	-7,34
192,045	-46,25
192,265	-5,29
192,484	47,96
192,704	19,29
192,923	-19,63
193,142	29,52
193,362	13,14
193,581	-25,77
193,8	33,62
194,02	0,85
194,239	15,19
194,458	2,9
194,678	-11,43
194,897	74,58
195,116	13,14
195,335	15,19
195,555	41,81
195,774	39,76
195,993	33,62
196,212	-48,3
196,432	-42,15
196,651	52,05
196,87	-19,63
197,089	52,05
197,308	4,95
197,528	-27,82
197,747	47,96
197,966	-50,35
198,185	-13,48
198,404	27,48
198,623	-3,24
198,842	13,14
199,062	31,57
199,281	13,14
199,5	86,87
199,719	21,33
199,938	-25,77
200,157	-13,48
200,376	-15,53
200,595	25,43
200,814	23,38
201,033	2,9
201,252	13,14
201,471	78,68
201,69	33,62
201,909	-1,19
202,128	-81,07
202,347	-29,87
202,566	52,05
202,785	25,43
203,004	-70,83
203,223	-21,67
203,442	-5,29
203,661	-5,29
203,879	21,33
204,098	27,48
204,317	0,85
204,536	35,67
204,755	-19,63
204,974	86,87
205,193	-25,77
205,411	-33,96
205,63	-13,48
205,849	29,52
206,068	-58,54
206,287	15,19
206,505	-42,15
206,724	84,82
206,943	-33,96
207,162	17,24
207,381	13,14
207,599	-56,49
207,818	43,86
208,037	-38,06
208,255	72,53
208,474	-3,24
208,693	-31,91
208,911	60,24
209,13	21,33
209,349	72,53
209,567	17,24
209,786	-21,67
210,005	-1,19
210,223	-7,34
210,442	-3,24
210,661	52,05
210,879	-13,48
211,098	-11,43
211,316	-21,67
211,535	-13,48
211,753	-31,91
211,972	-3,24
212,191	4,95
212,409	47,96
212,628	-38,06
212,846	-9,39
213,065	7
213,283	17,24
213,502	27,48
213,72	93,01
213,938	2,9
214,157	58,2
214,375	-46,25
214,594	39,76
214,812	84,82
215,031	-42,15
215,249	37,72
215,467	29,52
215,686	-42,15
215,904	13,14
216,122	-3,24
216,341	70,48
216,559	37,72
216,778	-21,67
216,996	-42,15
217,214	-52,39
217,432	68,44
217,651	54,1
217,869	41,81
218,087	4,95
218,306	7
218,524	70,48
218,742	101,2
218,96	27,48
219,179	19,29
219,397	27,48
219,615	-42,15
219,833	-1,19
220,051	-29,87
220,27	52,05
220,488	-9,39
220,706	54,1
220,924	-91,31
221,142	72,53
221,36	-15,53
221,578	-29,87
221,796	11,09
222,015	-36,01
222,233	64,34
222,451	-3,24
222,669	-56,49
222,887	45,91
223,105	-17,58
223,323	-21,67
223,541	-68,78
223,759	11,09
223,977	-17,58
224,195	21,33
224,413	-21,67
224,631	52,05
224,849	56,15
225,067	54,1
225,285	15,19
225,503	13,14
225,721	23,38
225,939	-9,39
226,157	-1,19
226,375	9,05
226,592	19,29
226,81	43,86
227,028	-9,39
227,246	133,97
227,464	-44,2
227,682	109,4
227,9	82,77
228,117	-54,44
228,335	-74,92
228,553	-17,58
228,771	-60,59
228,989	-46,25
229,206	-44,2
229,424	-25,77
229,642	-13,48
229,86	-21,67
230,077	-50,35
230,295	-11,43
230,513	-25,77
230,731	15,19
230,948	-31,91
231,166	27,48
231,384	-7,34
231,601	33,62
231,819	78,68
232,037	43,86
232,254	-29,87
232,472	11,09
232,689	50
232,907	43,86
233,125	47,96
233,342	-33,96
233,56	-17,58
233,777	35,67
233,995	50
234,213	29,52
234,43	-7,34
234,648	17,24
234,865	41,81
235,083	15,19
235,3	19,29
235,518	15,19
235,735	52,05
235,953	-5,29
236,17	-15,53
236,388	70,48
236,605	19,29
236,822	2,9
237,04	80,72
237,257	4,95
237,475	7
237,692	105,3
237,909	-17,58
238,127	25,43
238,344	-13,48
238,562	-29,87
238,779	27,48
238,996	45,91
239,214	-21,67
239,431	-21,67
239,648	0,85
239,865	31,57
240,083	-50,35
240,3	27,48
240,517	31,57
240,735	-48,3
240,952	-46,25
241,169	25,43
241,386	-9,39
241,603	-13,48
241,821	0,85
242,038	17,24
242,255	-36,01
242,472	43,86
242,689	25,43
242,907	35,67
243,124	23,38
243,341	23,38
243,558	2,9
243,775	19,29
243,992	60,24
244,209	21,33
244,426	2,9
244,643	27,48
244,86	52,05
245,078	-3,24
245,295	11,09
245,512	-68,78
245,729	-62,63
245,946	39,76
246,163	68,44
246,38	31,57
246,597	43,86
246,814	45,91
247,031	-21,67
247,248	62,29
247,464	-85,16
247,681	15,19
247,898	-3,24
248,115	88,92
248,332	19,29
248,549	-7,34
248,766	15,19
248,983	68,44
249,2	-1,19
249,417	-11,43
249,633	17,24
249,85	-70,83
250,067	47,96
250,284	13,14
250,501	64,34
250,717	13,14
250,934	60,24
251,151	31,57
251,368	27,48
251,585	-21,67
251,801	-40,11
252,018	35,67
252,235	25,43
252,451	35,67
252,668	-38,06
252,885	76,63
253,102	-97,45
253,318	0,85
253,535	-3,24
253,752	13,14
253,968	0,85
254,185	31,57
254,401	29,52
254,618	-1,19
254,835	43,86
255,051	15,19
255,268	-66,73
255,484	43,86
255,701	43,86
255,917	2,9
256,134	7
256,351	-5,29
256,567	-50,35
256,784	76,63
257	45,91
257,217	78,68
257,433	-50,35
257,65	-1,19
257,866	2,9
258,082	-5,29
258,299	23,38
258,515	0,85
258,732	23,38
258,948	29,52
259,165	-52,39
259,381	-42,15
259,597	27,48
259,814	60,24
260,03	-21,67
260,246	37,72
260,463	109,4
260,679	-11,43
260,895	-54,44
261,112	21,33
261,328	13,14
261,544	-13,48
261,761	13,14
261,977	2,9
262,193	2,9
262,409	54,1
262,626	2,9
262,842	76,63
263,058	-17,58
263,274	76,63
263,49	-33,96
263,707	-29,87
263,923	13,14
264,139	56,15
264,355	11,09
264,571	-9,39
264,787	31,57
265,004	35,67
265,22	11,09
265,436	-1,19
265,652	35,67
265,868	19,29
266,084	15,19
266,3	23,38
266,516	25,43
266,732	-38,06
266,948	90,96
267,164	-25,77
267,38	19,29
267,596	13,14
267,812	-13,48
268,028	43,86
268,244	21,33
268,46	31,57
268,676	-25,77
268,892	19,29
269,108	35,67
269,324	-3,24
269,54	-5,29
269,756	7
269,972	35,67
270,188	-40,11
270,403	0,85
270,619	17,24
270,835	-11,43
271,051	13,14
271,267	52,05
271,483	72,53
271,698	13,14
271,914	64,34
272,13	9,05
272,346	-21,67
272,562	25,43
272,777	21,33
272,993	54,1
273,209	35,67
273,425	23,38
273,64	-1,19
273,856	64,34
274,072	7
274,287	-50,35
274,503	13,14
274,719	39,76
274,934	9,05
275,15	11,09
275,366	13,14
275,581	-46,25
275,797	31,57
276,012	50
276,228	56,15
276,444	-5,29
276,659	11,09
276,875	-3,24
277,09	-29,87
277,306	-68,78
277,521	21,33
277,737	-17,58
277,952	7
278,168	56,15
278,383	27,48
278,599	-13,48
278,814	-1,19
279,03	17,24
279,245	68,44
279,461	15,19
279,676	95,06
279,892	-3,24
280,107	13,14
280,322	-40,11
280,538	84,82
280,753	43,86
280,969	-17,58
281,184	-38,06
281,399	35,67
281,615	68,44
281,83	-9,39
282,045	43,86
282,26	13,14
282,476	9,05
282,691	-13,48
282,906	27,48
283,122	-3,24
283,337	39,76
283,552	74,58
283,767	27,48
283,983	15,19
284,198	-31,91
284,413	2,9
284,628	29,52
284,843	11,09
285,058	-52,39
285,274	29,52
285,489	31,57
285,704	-13,48
285,919	-3,24
286,134	45,91
286,349	-3,24
286,564	-23,72
286,779	-17,58
286,995	60,24
287,21	27,48
287,425	27,48
287,64	-17,58
287,855	-40,11
288,07	-1,19
288,285	70,48
288,5	58,2
288,715	58,2
288,93	2,9
289,145	43,86
289,36	-54,44
289,575	66,39
289,79	-7,34
290,004	111,44
290,219	-21,67
290,434	35,67
290,649	-9,39
290,864	9,05
291,079	-105,64
291,294	15,19
291,509	93,01
291,724	-15,53
291,938	35,67
292,153	68,44
292,368	29,52
292,583	13,14
292,798	-40,11
293,012	27,48
293,227	21,33
293,442	-27,82
293,657	2,9
293,871	15,19
294,086	56,15
294,301	11,09
294,516	11,09
294,73	78,68
294,945	-9,39
295,16	29,52
295,374	-1,19
295,589	33,62
295,804	-27,82
296,018	25,43
296,233	19,29
296,447	4,95
296,662	-33,96
296,877	-68,78
297,091	21,33
297,306	-11,43
297,52	-29,87
297,735	-38,06
297,949	29,52
298,164	43,86
298,378	-1,19
298,593	2,9
298,807	-1,19
299,022	21,33
299,236	11,09
299,451	19,29
299,665	0,85
299,88	4,95
300,094	15,19
300,309	2,9
300,523	-21,67
300,737	19,29
300,952	4,95
301,166	35,67
301,381	21,33
301,595	-17,58
301,809	-11,43
302,024	-5,29
302,238	-1,19
302,452	7
302,667	-54,44
302,881	29,52
303,095	19,29
303,309	54,1
303,524	47,96
303,738	-9,39
303,952	-17,58
304,166	2,9
304,381	4,95
304,595	15,19
304,809	23,38
305,023	60,24
305,237	-21,67
305,452	29,52
305,666	-66,73
305,88	39,76
306,094	-13,48
306,308	9,05
306,522	76,63
306,736	43,86
306,95	27,48
307,164	70,48
307,379	4,95
307,593	4,95
307,807	11,09
308,021	29,52
308,235	2,9
308,449	97,11
308,663	-38,06
308,877	70,48
309,091	39,76
309,305	-1,19
309,519	-9,39
309,733	41,81
309,947	31,57
310,161	62,29
310,374	33,62
310,588	11,09
310,802	-11,43
311,016	45,91
311,23	-27,82
311,444	15,19
311,658	-11,43
311,872	56,15
312,085	9,05
312,299	-7,34
312,513	-83,11
312,727	50
312,941	15,19
313,154	52,05
313,368	41,81
313,582	9,05
313,796	43,86
314,009	-33,96
314,223	25,43
314,437	-29,87
314,651	45,91
314,864	21,33
315,078	25,43
315,292	25,43
315,505	-11,43
315,719	43,86
315,933	0,85
316,146	-25,77
316,36	60,24
316,573	76,63
316,787	-83,11
317,001	11,09
317,214	39,76
317,428	35,67
317,641	-13,48
317,855	-13,48
318,068	-27,82
318,282	-25,77
318,495	-17,58
318,709	37,72
318,922	23,38
319,136	-62,63
319,349	56,15
319,563	23,38
319,776	-7,34
319,99	43,86
320,203	2,9
320,417	31,57
320,63	-17,58
320,843	2,9
321,057	2,9
321,27	111,44
321,483	27,48
321,697	4,95
321,91	-44,2
322,124	35,67
322,337	-3,24
322,55	23,38
322,763	-21,67
322,977	35,67
323,19	52,05
323,403	78,68
323,617	35,67
323,83	-1,19
324,043	-5,29
324,256	-29,87
324,469	0,85
324,683	2,9
324,896	0,85
325,109	45,91
325,322	-44,2
325,535	23,38
325,748	-1,19
325,962	2,9
326,175	47,96
326,388	-93,35
326,601	23,38
326,814	43,86
327,027	-29,87
327,24	54,1
327,453	72,53
327,666	-5,29
327,879	27,48
328,092	-74,92
328,305	33,62
328,518	29,52
328,731	-13,48
328,944	-13,48
329,157	84,82
329,37	23,38
329,583	-1,19
329,796	-17,58
330,009	-1,19
330,222	31,57
330,435	-29,87
330,648	39,76
330,861	-44,2
331,073	-19,63
331,286	0,85
331,499	-9,39
331,712	2,9
331,925	-1,19
332,138	33,62
332,35	60,24
332,563	2,9
332,776	2,9
332,989	-5,29
333,202	21,33
333,414	-3,24
333,627	2,9
333,84	29,52
334,053	4,95
334,265	2,9
334,478	68,44
334,691	45,91
334,903	-46,25
335,116	27,48
335,329	23,38
335,541	21,33
335,754	19,29
335,966	-13,48
336,179	15,19
336,392	27,48
336,604	52,05
336,817	9,05
337,029	35,67
337,242	23,38
337,454	50
337,667	-3,24
337,88	7
338,092	-46,25
338,305	41,81
338,517	27,48
338,729	101,2
338,942	-3,24
339,154	37,72
339,367	-40,11
339,579	29,52
339,792	7
340,004	-21,67
340,217	-64,68
340,429	-40,11
340,641	-19,63
340,854	-21,67
341,066	-44,2
341,278	2,9
341,491	4,95
341,703	54,1
341,915	-9,39
342,128	50
342,34	-11,43
342,552	-38,06
342,764	60,24
342,977	-42,15
343,189	29,52
343,401	-11,43
343,613	-38,06
343,826	-17,58
344,038	-9,39
344,25	7
344,462	-5,29
344,674	35,67
344,886	13,14
345,099	-19,63
345,311	-5,29
345,523	-19,63
345,735	-19,63
345,947	0,85
346,159	-29,87
346,371	105,3
346,583	-5,29
346,795	43,86
347,007	15,19
347,219	43,86
347,431	-23,72
347,643	-54,44
347,855	-5,29
348,067	-15,53
348,279	15,19
348,491	99,16
348,703	-3,24
348,915	23,38
349,127	-27,82
349,339	-13,48
349,551	-25,77
349,763	-76,97
349,975	-5,29
350,187	45,91
350,399	25,43
350,61	88,92
350,822	21,33
351,034	-3,24
351,246	-13,48
351,458	-1,19
351,669	43,86
351,881	9,05
352,093	11,09
352,305	-1,19
352,517	31,57
352,728	31,57
352,94	-36,01
353,152	-5,29
353,363	-38,06
353,575	-5,29
353,787	-83,11
353,999	35,67
354,21	37,72
354,422	-11,43
354,633	15,19
354,845	43,86
355,057	60,24
355,268	11,09
355,48	11,09
355,692	15,19
355,903	21,33
356,115	-5,29
356,326	0,85
356,538	-1,19
356,749	13,14
356,961	9,05
357,172	11,09
357,384	-48,3
357,595	-58,54
357,807	25,43
358,018	-58,54
358,23	21,33
358,441	29,52
358,653	52,05
358,864	17,24
359,075	56,15
359,287	23,38
359,498	11,09
359,709	47,96
359,921	60,24
360,132	-62,63
360,344	39,76
360,555	-40,11
360,766	-40,11
360,977	-38,06
361,189	29,52
361,4	35,67
361,611	39,76
361,823	2,9
362,034	19,29
362,245	15,19
362,456	-7,34
362,667	-25,77
362,879	-36,01
363,09	113,49
363,301	-29,87
363,512	19,29
363,723	13,14
363,935	-11,43
364,146	21,33
364,357	-5,29
364,568	11,09
364,779	4,95
364,99	27,48
365,201	2,9
365,412	64,34
365,623	54,1
365,834	47,96
366,045	-5,29
366,256	62,29
366,467	21,33
366,678	35,67
366,889	19,29
367,1	4,95
367,311	-33,96
367,522	-9,39
367,733	43,86
367,944	17,24
368,155	2,9
368,366	29,52
368,577	-54,44
368,788	13,14
368,999	29,52
369,209	47,96
369,42	9,05
369,631	29,52
369,842	15,19
370,053	0,85
370,264	78,68
370,474	58,2
370,685	2,9
370,896	0,85
371,107	-58,54
371,317	17,24
371,528	7
371,739	62,29
371,95	-23,72
372,16	-46,25
372,371	-9,39
372,582	13,14
372,792	33,62
373,003	62,29
373,214	23,38
373,424	21,33
373,635	43,86
373,846	29,52
374,056	13,14
374,267	-25,77
374,477	136,02
374,688	-13,48
374,898	13,14
375,109	45,91
375,319	19,29
375,53	68,44
375,74	-11,43
375,951	-46,25
376,161	2,9
376,372	-13,48
376,582	-48,3
376,793	-1,19
377,003	-17,58
377,214	56,15
377,424	-38,06
377,635	35,67
377,845	-3,24
378,055	41,81
378,266	31,57
378,476	0,85
378,686	37,72
378,897	103,25
379,107	33,62
379,317	7
379,528	-54,44
379,738	-13,48
379,948	60,24
380,158	27,48
380,369	13,14
380,579	88,92
380,789	-52,39
380,999	17,24
381,21	-17,58
381,42	-33,96
381,63	-3,24
381,84	-21,67
382,05	-44,2
382,261	56,15
382,471	-62,63
382,681	35,67
382,891	-25,77
383,101	33,62
383,311	-13,48
383,521	35,67
383,731	-3,24
383,941	-19,63
384,151	2,9
384,361	60,24
384,571	-1,19
384,781	35,67
384,991	-13,48
385,201	35,67
385,411	29,52
385,621	11,09
385,831	23,38
386,041	13,14
386,251	13,14
386,461	2,9
386,671	-50,35
386,881	35,67
387,091	68,44
387,301	66,39
387,511	37,72
387,72	19,29
387,93	-13,48
388,14	-9,39
388,35	23,38
388,56	-11,43
388,769	-13,48
388,979	93,01
389,189	35,67
389,399	45,91
389,609	23,38
389,818	35,67
390,028	31,57
390,238	27,48
390,447	29,52
390,657	29,52
390,867	11,09
391,076	19,29
391,286	-36,01
391,496	-52,39
391,705	19,29
391,915	56,15
392,125	21,33
392,334	-9,39
392,544	41,81
392,753	-33,96
392,963	-13,48
393,172	-9,39
393,382	2,9
393,591	35,67
393,801	-62,63
394,01	21,33
394,22	9,05
394,429	-48,3
394,639	47,96
394,848	17,24
395,058	7
395,267	7
395,477	-9,39
395,686	54,1
395,895	-27,82
396,105	9,05
396,314	-36,01
396,524	-5,29
396,733	-21,67
396,942	37,72
397,152	-15,53
397,361	-79,02
397,57	29,52
397,78	31,57
397,989	-33,96
398,198	-46,25
398,407	-52,39
398,617	54,1
398,826	-60,59
399,035	27,48
399,244	31,57
399,453	-1,19
399,663	15,19
399,872	29,52
400,081	29,52
400,29	21,33
400,499	-23,72
400,708	-13,48
400,917	-36,01
401,127	19,29
401,336	-3,24
401,545	-25,77
401,754	25,43
401,963	-9,39
402,172	11,09
402,381	-9,39
402,59	-7,34
402,799	15,19
403,008	37,72
403,217	-76,97
403,426	-27,82
403,635	29,52
403,844	58,2
404,053	41,81
404,262	29,52
404,471	39,76
404,68	70,48
404,888	2,9
405,097	-36,01
405,306	70,48
405,515	7
405,724	35,67
405,933	64,34
406,142	21,33
406,35	2,9
406,559	27,48
406,768	52,05
406,977	58,2
407,185	64,34
407,394	43,86
407,603	19,29
407,812	9,05
408,02	9,05
408,229	31,57
408,438	-15,53
408,646	23,38
408,855	66,39
409,064	-9,39
409,272	19,29
409,481	-3,24
409,69	56,15
409,898	-7,34
410,107	-44,2
410,315	19,29
410,524	52,05
410,733	-11,43
410,941	84,82
411,15	60,24
411,358	39,76
411,567	52,05
411,775	13,14
411,984	-5,29
412,192	-9,39
412,401	31,57
412,609	45,91
412,818	21,33
413,026	-38,06
413,234	54,1
413,443	-15,53
413,651	19,29
413,86	-13,48
414,068	11,09
414,276	27,48
414,485	27,48
414,693	11,09
414,901	9,05
415,11	52,05
415,318	-38,06
415,526	-23,72
415,734	37,72
415,943	25,43
416,151	19,29
416,359	19,29
416,567	101,2
416,776	-1,19
416,984	-56,49
417,192	23,38
417,4	84,82
417,608	2,9
417,817	-21,67
418,025	17,24
418,233	60,24
418,441	-46,25
418,649	-5,29
418,857	-5,29
419,065	62,29
419,273	-64,68
419,481	2,9
419,689	9,05
419,897	-1,19
420,105	-11,43
420,313	45,91
420,521	-9,39
420,729	29,52
420,937	-60,59
421,145	15,19
421,353	15,19
421,561	70,48
421,769	-66,73
421,977	43,86
422,185	35,67
422,393	-19,63
422,601	-38,06
422,809	-27,82
423,017	41,81
423,224	-21,67
423,432	4,95
423,64	13,14
423,848	-11,43
424,056	-29,87
424,263	47,96
424,471	113,49
424,679	-38,06
424,887	-17,58
425,094	19,29
425,302	11,09
425,51	-7,34
425,718	-13,48
425,925	-31,91
426,133	19,29
426,341	27,48
426,548	-52,39
426,756	-27,82
426,964	19,29
427,171	-15,53
427,379	-5,29
427,586	-25,77
427,794	52,05
428,001	52,05
428,209	39,76
428,417	13,14
428,624	52,05
428,832	37,72
429,039	19,29
429,247	-21,67
429,454	-42,15
429,662	-48,3
429,869	52,05
430,076	41,81
430,284	66,39
430,491	-3,24
430,699	35,67
430,906	-3,24
431,114	39,76
431,321	-58,54
431,528	29,52
431,736	-9,39
431,943	0,85
432,15	-25,77
432,358	0,85
432,565	70,48
432,772	54,1
432,979	11,09
433,187	-11,43
433,394	107,35
433,601	52,05
433,808	37,72
434,016	56,15
434,223	15,19
434,43	127,83
434,637	9,05
434,844	78,68
435,052	35,67
435,259	4,95
435,466	-7,34
435,673	33,62
435,88	29,52
436,087	-27,82
436,294	11,09
436,501	35,67
436,708	2,9
436,915	15,19
437,122	-21,67
437,329	-54,44
437,537	-7,34
437,743	27,48
437,95	60,24
438,157	-9,39
438,364	-42,15
438,571	-27,82
438,778	7
438,985	27,48
439,192	0,85
439,399	7
439,606	13,14
439,813	21,33
440,02	-1,19
440,227	56,15
440,433	29,52
440,64	-11,43
440,847	68,44
441,054	13,14
441,261	50
441,467	21,33
441,674	-17,58
441,881	-31,91
442,088	-58,54
442,294	52,05
442,501	50
442,708	4,95
442,914	56,15
443,121	50
443,328	-3,24
443,534	29,52
443,741	52,05
443,948	15,19
444,154	-3,24
444,361	21,33
444,568	2,9
444,774	13,14
444,981	-29,87
445,187	29,52
445,394	74,58
445,6	31,57
445,807	-62,63
446,013	-19,63
446,22	-21,67
446,426	15,19
446,633	-81,07
446,839	19,29
447,046	-38,06
447,252	39,76
447,459	107,35
447,665	2,9
447,871	-44,2
448,078	-7,34
448,284	-46,25
448,491	-29,87
448,697	62,29
448,903	-27,82
449,11	-46,25
449,316	4,95
449,522	0,85
449,728	9,05
449,935	21,33
450,141	7
450,347	78,68
450,553	27,48
450,76	-38,06
450,966	-40,11
451,172	-29,87
451,378	-31,91
451,584	-46,25
451,791	-5,29
451,997	2,9
452,203	9,05
452,409	-38,06
452,615	66,39
452,821	31,57
453,027	45,91
453,233	45,91
453,44	-11,43
453,646	-19,63
453,852	25,43
454,058	-62,63
454,264	15,19
454,47	-7,34
454,676	-25,77
454,882	-27,82
455,088	-29,87
455,294	97,11
455,5	11,09
455,705	-29,87
455,911	7
456,117	19,29
456,323	-29,87
456,529	47,96
456,735	-48,3
456,941	37,72
457,147	4,95
457,352	-3,24
457,558	-11,43
457,764	84,82
457,97	27,48
458,176	-15,53
458,381	41,81
458,587	29,52
458,793	60,24
458,999	11,09
459,204	33,62
459,41	27,48
459,616	54,1
459,821	45,91
460,027	62,29
460,233	-31,91
460,438	37,72
460,644	29,52
460,85	11,09
461,055	45,91
461,261	37,72
461,466	35,67
461,672	2,9
461,878	62,29
462,083	19,29
462,289	4,95
462,494	-3,24
462,7	-29,87
462,905	19,29
463,111	70,48
463,316	-70,83
463,522	-3,24
463,727	-11,43
463,932	-9,39
464,138	43,86
464,343	-13,48
464,549	45,91
464,754	72,53
464,959	23,38
465,165	90,96
465,37	-13,48
465,575	-13,48
465,781	19,29
465,986	23,38
466,191	-21,67
466,397	-1,19
466,602	-36,01
466,807	60,24
467,012	52,05
467,218	86,87
467,423	19,29
467,628	27,48
467,833	-50,35
468,038	15,19
468,244	27,48
468,449	27,48
468,654	23,38
468,859	-21,67
469,064	0,85
469,269	19,29
469,474	19,29
469,679	64,34
469,885	-17,58
470,09	21,33
470,295	93,01
470,5	-9,39
470,705	25,43
470,91	-19,63
471,115	17,24
471,32	35,67
471,525	19,29
471,73	13,14
471,935	-7,34
472,139	21,33
472,344	56,15
472,549	19,29
472,754	-19,63
472,959	9,05
473,164	56,15
473,369	23,38
473,574	-9,39
473,778	-58,54
473,983	41,81
474,188	-29,87
474,393	-21,67
474,598	7
474,802	-15,53
475,007	11,09
475,212	-15,53
475,417	-38,06
475,621	41,81
475,826	19,29
476,031	-5,29
476,235	80,72
476,44	41,81
476,645	-50,35
476,849	29,52
477,054	93,01
477,259	37,72
477,463	70,48
477,668	64,34
477,872	64,34
478,077	-46,25
478,282	-50,35
478,486	95,06
478,691	23,38
478,895	58,2
479,1	-1,19
479,304	-1,19
479,509	-19,63
479,713	68,44
479,918	-7,34
480,122	-40,11
480,326	9,05
480,531	39,76
480,735	19,29
480,94	-5,29
481,144	-5,29
481,348	11,09
481,553	-5,29
481,757	13,14
481,961	27,48
482,166	13,14
482,37	-9,39
482,574	23,38
482,778	7
482,983	-17,58
483,187	47,96
483,391	-29,87
483,595	35,67
483,8	35,67
484,004	52,05
484,208	21,33
484,412	19,29
484,616	45,91
484,821	-23,72
485,025	27,48
485,229	66,39
485,433	52,05
485,637	33,62
485,841	15,19
486,045	2,9
486,249	21,33
486,453	2,9
486,657	23,38
486,861	-11,43
487,065	-42,15
487,269	23,38
487,473	-19,63
487,677	74,58
487,881	80,72
488,085	45,91
488,289	88,92
488,493	11,09
488,697	-3,24
488,901	-11,43
489,105	43,86
489,309	7
489,512	-46,25
489,716	25,43
489,92	-38,06
490,124	56,15
490,328	15,19
490,531	-29,87
490,735	68,44
490,939	19,29
491,143	-54,44
491,346	-13,48
491,55	4,95
491,754	13,14
491,958	39,76
492,161	31,57
492,365	-25,77
492,569	-5,29
492,772	52,05
492,976	-23,72
493,18	41,81
493,383	35,67
493,587	2,9
493,79	-15,53
493,994	37,72
494,197	0,85
494,401	-9,39
494,605	-5,29
494,808	2,9
495,012	33,62
495,215	-5,29
495,419	11,09
495,622	52,05
495,825	-13,48
496,029	-5,29
496,232	-62,63
496,436	-21,67
496,639	35,67
496,843	45,91
497,046	-25,77
497,249	31,57
497,453	-19,63
497,656	7
497,859	-42,15
498,063	54,1
498,266	-38,06
498,469	35,67
498,673	35,67
498,876	41,81
499,079	-60,59
499,282	54,1
499,485	-17,58
499,689	23,38
499,892	25,43
500,095	45,91
500,298	58,2
500,501	15,19
500,705	-46,25
500,908	52,05
501,111	-1,19
501,314	23,38
501,517	-23,72
501,72	-17,58
501,923	64,34
502,126	-58,54
502,329	-15,53
502,532	39,76
502,735	-70,83
502,938	-1,19
503,141	60,24
503,344	76,63
503,547	35,67
503,75	7
503,953	43,86
504,156	0,85
504,359	-76,97
504,562	56,15
504,765	15,19
504,968	-3,24
505,17	19,29
505,373	35,67
505,576	35,67
505,779	119,64
505,982	15,19
506,185	19,29
506,387	86,87
506,59	39,76
506,793	-38,06
506,996	43,86
507,198	31,57
507,401	-5,29
507,604	45,91
507,807	72,53
508,009	-1,19
508,212	33,62
508,415	-13,48
508,617	2,9
508,82	9,05
509,022	2,9
509,225	29,52
509,428	13,14
509,63	15,19
509,833	-5,29
510,035	-21,67
510,238	-72,87
510,44	-44,2
510,643	7
510,845	-9,39
511,048	23,38
511,25	25,43
511,453	50
511,655	-5,29
511,858	97,11
512,06	-29,87
512,262	54,1
512,465	2,9
512,667	11,09
512,87	-5,29
513,072	39,76
513,274	-36,01
513,477	43,86
513,679	29,52
513,881	88,92
514,084	-7,34
514,286	45,91
514,488	41,81
514,69	60,24
514,893	-62,63
515,095	-50,35
515,297	-23,72
515,499	35,67
515,701	-42,15
515,904	-5,29
516,106	11,09
516,308	-17,58
516,51	25,43
516,712	54,1
516,914	-5,29
517,116	62,29
517,318	11,09
517,52	-9,39
517,722	11,09
517,925	56,15
518,127	-40,11
518,329	31,57
518,531	-25,77
518,733	-44,2
518,935	0,85
519,136	11,09
519,338	-40,11
519,54	-5,29
519,742	19,29
519,944	-62,63
520,146	33,62
520,348	4,95
520,55	4,95
520,752	-13,48
520,954	11,09
521,155	9,05
521,357	13,14
521,559	-3,24
521,761	29,52
521,963	52,05
522,164	-48,3
522,366	95,06
522,568	29,52
522,77	-21,67
522,971	-38,06
523,173	19,29
523,375	15,19
523,576	54,1
523,778	43,86
523,98	60,24
524,181	13,14
524,383	-13,48
524,584	-5,29
524,786	-50,35
524,988	64,34
525,189	-27,82
525,391	-17,58
525,592	-31,91
525,794	45,91
525,995	27,48
526,197	29,52
526,398	54,1
526,6	-44,2
526,801	35,67
527,003	-33,96
527,204	45,91
527,406	-13,48
527,607	62,29
527,808	2,9
528,01	11,09
528,211	2,9
528,412	2,9
528,614	19,29
528,815	-3,24
529,016	31,57
529,218	56,15
529,419	-33,96
529,62	25,43
529,822	19,29
530,023	37,72
530,224	-62,63
530,425	13,14
530,626	7
530,828	50
531,029	-1,19
531,23	-27,82
531,431	-29,87
531,632	54,1
531,833	-44,2
532,035	47,96
532,236	23,38
532,437	15,19
532,638	-54,44
532,839	0,85
533,04	21,33
533,241	-52,39
533,442	-17,58
533,643	74,58
533,844	-3,24
534,045	7
534,246	13,14
534,447	17,24
534,648	-17,58
534,849	-36,01
535,05	37,72
535,251	13,14
535,451	27,48
535,652	11,09
535,853	68,44
536,054	-21,67
536,255	50
536,456	66,39
536,657	-46,25
536,857	-19,63
537,058	68,44
537,259	-48,3
537,46	29,52
537,66	41,81
537,861	54,1
538,062	31,57
538,263	45,91
538,463	29,52
538,664	-25,77
538,865	84,82
539,065	11,09
539,266	52,05
539,466	-5,29
539,667	52,05
539,868	47,96
540,068	7
540,269	19,29
540,469	15,19
540,67	-1,19
540,87	101,2
541,071	15,19
541,271	7
541,472	13,14
541,672	-27,82
541,873	37,72
542,073	-5,29
542,274	11,09
542,474	21,33
542,675	-54,44
542,875	35,67
543,075	-50,35
543,276	13,14
543,476	-5,29
543,676	54,1
543,877	56,15
544,077	21,33
544,277	-5,29
544,478	2,9
544,678	-25,77
544,878	33,62
545,078	43,86
545,279	4,95
545,479	-19,63
545,679	-31,91
545,879	43,86
546,079	11,09
546,28	-13,48
546,48	25,43
546,68	-42,15
546,88	27,48
547,08	-44,2
547,28	2,9
547,48	2,9
547,68	19,29
547,88	-1,19
548,081	17,24
548,281	62,29
548,481	25,43
548,681	19,29
548,881	35,67
549,081	31,57
549,28	11,09
549,48	-13,48
549,68	-33,96
549,88	-7,34
550,08	21,33
550,28	-11,43
550,48	27,48
550,68	19,29
550,88	-15,53
551,08	-27,82
551,279	93,01
551,479	-3,24
551,679	35,67
551,879	0,85
552,079	11,09
552,278	-19,63
552,478	19,29
552,678	-27,82
552,878	-36,01
553,077	-3,24
553,277	60,24
553,477	-3,24
553,676	-5,29
553,876	-62,63
554,076	-5,29
554,275	-1,19
554,475	-3,24
554,674	-36,01
554,874	29,52
555,074	47,96
555,273	-25,77
555,473	-42,15
555,672	19,29
555,872	-3,24
556,071	-17,58
556,271	-1,19
556,47	-13,48
556,67	13,14
556,869	-7,34
557,068	7
557,268	2,9
557,467	11,09
557,667	47,96
557,866	-19,63
558,065	-13,48
558,265	4,95
558,464	-5,29
558,663	76,63
558,863	-13,48
559,062	41,81
559,261	72,53
559,461	-27,82
559,66	27,48
559,859	-25,77
560,058	23,38
560,258	-19,63
560,457	47,96
560,656	2,9
560,855	2,9
561,054	-5,29
561,253	11,09
561,453	62,29
561,652	15,19
561,851	-1,19
562,05	4,95
562,249	-23,72
562,448	56,15
562,647	-29,87
562,846	37,72
563,045	-5,29
563,244	29,52
563,443	19,29
563,642	41,81
563,841	-13,48
564,04	19,29
564,239	-17,58
564,438	21,33
564,637	27,48
564,836	111,44
565,035	21,33
565,234	150,36
565,432	11,09
565,631	68,44
565,83	66,39
566,029	-3,24
566,228	15,19
566,427	52,05
566,625	7
566,824	13,14
567,023	52,05
567,222	-25,77
567,42	-38,06
567,619	50
567,818	11,09
568,016	27,48
568,215	70,48
568,414	56,15
568,612	56,15
568,811	150,36
569,01	111,44
569,208	301,9
569,407	498,51
569,605	582,48
569,804	1137,48
570,002	1592,13
570,201	2626,35
570,4	3410,72
570,598	4897,55
570,797	6099,7
570,995	8241,88
571,193	9853,63
571,392	12745,36
571,59	15004,27
571,789	18141,76
571,987	21260,82
572,186	24881,63
572,384	27926,96
572,582	31842,67
572,781	35672,37
572,979	38654,22
573,177	42322,13
573,376	44673,2
573,574	46950,54
573,772	49649,76
573,971	51329,09
574,169	52494,39
574,367	53723,17
574,565	55660,55
574,763	55580,68
574,962	56784,88
575,16	56936,43
575,358	58169,31
575,556	58122,21
575,754	59119,57
575,952	58843,09
576,151	59776,97
576,349	59334,6
576,547	60178,37
576,745	60241,85
576,943	60497,85
577,141	60919,73
577,339	61110,19
577,537	60497,85
577,735	60356,54
577,933	59953,09
578,131	60039,11
578,329	59301,84
578,527	58523,61
578,725	58603,48
578,923	58046,43
579,121	57679,85
579,319	56631,29
579,516	56018,94
579,714	54497,3
579,912	52785,2
580,11	50718,8
580,308	49764,45
580,506	47466,63
580,704	43706,55
580,901	42139,86
581,099	39299,33
581,297	35717,43
581,495	32422,25
581,692	29999,5
581,89	26128,84
582,088	23372,27
582,285	20236,83
582,483	17807,94
582,681	15043,18
582,878	12817,04
583,076	10662,58
583,274	8917,71
583,471	7131,88
583,669	5903,1
583,866	4625,17
584,064	3758,88
584,262	2411,31
584,459	1749,82
584,657	1246,02
584,854	897,86
585,052	500,56
585,249	326,48
585,447	250,71
585,644	174,93
585,841	185,17
586,039	158,55
586,236	168,79
586,434	103,25
586,631	88,92
586,828	56,15
587,026	54,1
587,223	35,67
587,42	111,44
587,618	97,11
587,815	43,86
588,012	23,38
588,21	68,44
588,407	13,14
588,604	101,2
588,801	-11,43
588,999	72,53
589,196	13,14
589,393	74,58
589,59	109,4
589,787	31,57
589,984	23,38
590,182	23,38
590,379	45,91
590,576	-13,48
590,773	88,92
590,97	45,91
591,167	27,48
591,364	39,76
591,561	4,95
591,758	47,96
591,955	-27,82
592,152	76,63
592,349	29,52
592,546	80,72
592,743	39,76
592,94	31,57
593,137	45,91
593,334	62,29
593,531	90,96
593,727	54,1
593,924	2,9
594,121	29,52
594,318	62,29
594,515	52,05
594,712	-9,39
594,908	70,48
595,105	-27,82
595,302	-19,63
595,499	-31,91
595,696	39,76
595,892	35,67
596,089	70,48
596,286	60,24
596,482	7
596,679	50
596,876	45,91
597,072	-1,19
597,269	23,38
597,466	41,81
597,662	19,29
597,859	-7,34
598,055	2,9
598,252	9,05
598,448	-33,96
598,645	-48,3
598,841	37,72
599,038	0,85
599,234	56,15
599,431	-7,34
599,627	58,2
599,824	-9,39
600,02	-19,63
600,217	7
600,413	-7,34
600,609	-27,82
600,806	-13,48
601,002	-27,82
601,198	19,29
601,395	39,76
601,591	7
601,787	11,09
601,984	43,86
602,18	-3,24
602,376	66,39
602,572	84,82
602,769	31,57
602,965	54,1
603,161	93,01
603,357	13,14
603,553	60,24
603,75	84,82
603,946	-48,3
604,142	76,63
604,338	47,96
604,534	43,86
604,73	-9,39
604,926	-31,91
605,122	82,77
605,318	-44,2
605,514	-13,48
605,71	17,24
605,906	19,29
606,102	60,24
606,298	-25,77
606,494	33,62
606,69	-70,83
606,886	68,44
607,082	-21,67
607,278	62,29
607,474	-25,77
607,67	37,72
607,866	21,33
608,062	-29,87
608,257	7
608,453	-1,19
608,649	15,19
608,845	-25,77
609,041	2,9
609,236	50
609,432	19,29
609,628	15,19
609,824	11,09
610,019	23,38
610,215	-5,29
610,411	39,76
610,606	-13,48
610,802	31,57
610,998	45,91
611,193	2,9
611,389	15,19
611,584	2,9
611,78	-25,77
611,976	72,53
612,171	-17,58
612,367	31,57
612,562	-9,39
612,758	-11,43
612,953	37,72
613,149	76,63
613,344	43,86
613,539	23,38
613,735	-36,01
613,93	13,14
614,126	72,53
614,321	-21,67
614,517	11,09
614,712	82,77
614,907	29,52
615,103	33,62
615,298	-1,19
615,493	19,29
615,688	82,77
615,884	-7,34
616,079	2,9
616,274	43,86
616,47	-17,58
616,665	-27,82
616,86	21,33
617,055	29,52
617,25	-9,39
617,445	52,05
617,641	15,19
617,836	19,29
618,031	66,39
618,226	-17,58
618,421	39,76
618,616	25,43
618,811	54,1
619,006	19,29
619,201	-3,24
619,396	31,57
619,591	47,96
619,786	47,96
619,981	43,86
620,176	-40,11
620,371	64,34
620,566	29,52
620,761	31,57
620,956	19,29
621,151	21,33
621,346	74,58
621,541	37,72
621,735	78,68
621,93	-38,06
622,125	31,57
622,32	-27,82
622,515	13,14
622,709	37,72
622,904	-29,87
623,099	27,48
623,294	45,91
623,488	29,52
623,683	33,62
623,878	9,05
624,072	2,9
624,267	47,96
624,462	-31,91
624,656	-1,19
624,851	7
625,046	50
625,24	-21,67
625,435	76,63
625,629	25,43
625,824	7
626,018	-19,63
626,213	80,72
626,407	-25,77
626,602	43,86
626,796	37,72
626,991	56,15
627,185	11,09
627,38	74,58
627,574	31,57
627,768	-52,39
627,963	54,1
628,157	97,11
628,352	43,86
628,546	68,44
628,74	21,33
628,935	70,48
629,129	66,39
629,323	35,67
629,517	-68,78
629,712	76,63
629,906	-44,2
630,1	21,33
630,294	60,24
630,489	45,91
630,683	-17,58
630,877	2,9
631,071	23,38
631,265	-27,82
631,459	58,2
631,653	43,86
631,848	2,9
632,042	52,05
632,236	-11,43
632,43	56,15
632,624	-5,29
632,818	-5,29
633,012	-13,48
633,206	-29,87
633,4	37,72
633,594	37,72
633,788	64,34
633,982	43,86
634,176	-5,29
634,369	-40,11
634,563	19,29
634,757	52,05
634,951	52,05
635,145	56,15
635,339	62,29
635,533	47,96
635,726	-7,34
635,92	35,67
636,114	23,38
636,308	-25,77
636,501	7
636,695	47,96
636,889	54,1
637,083	0,85
637,276	-25,77
637,47	58,2
637,664	52,05
637,857	-54,44
638,051	-13,48
638,244	37,72
638,438	56,15
638,632	25,43
638,825	2,9
639,019	43,86
639,212	107,35
639,406	47,96
639,599	-21,67
639,793	-7,34
639,986	-46,25
640,18	-1,19
640,373	35,67
640,567	-13,48
640,76	-21,67
640,954	-38,06
641,147	-36,01
641,34	0,85
641,534	11,09
641,727	43,86
641,92	7
642,114	13,14
642,307	-15,53
642,5	35,67
642,694	-42,15
642,887	13,14
643,08	-5,29
643,273	-25,77
643,467	80,72
643,66	-19,63
643,853	-5,29
644,046	95,06
644,239	-36,01
644,432	52,05
644,626	-54,44
644,819	-38,06
645,012	60,24
645,205	45,91
645,398	4,95
645,591	25,43
645,784	-36,01
645,977	27,48
646,17	-21,67
646,363	35,67
646,556	29,52
646,749	-1,19
646,942	-52,39
647,135	-42,15
647,328	2,9
647,521	-7,34
647,714	-38,06
647,907	4,95
648,099	0,85
648,292	84,82
648,485	4,95
648,678	80,72
648,871	27,48
649,064	2,9
649,256	47,96
649,449	-1,19
649,642	37,72
649,835	37,72
650,027	39,76
650,22	56,15
650,413	56,15
650,605	27,48
650,798	23,38
650,991	2,9
651,183	-7,34
651,376	15,19
651,568	19,29
651,761	0,85
651,954	9,05
652,146	11,09
652,339	25,43
652,531	-33,96
652,724	-25,77
652,916	27,48
653,109	29,52
653,301	37,72
653,494	7
653,686	31,57
653,879	7
654,071	43,86
654,263	136,02
654,456	21,33
654,648	9,05
654,84	-1,19
655,033	25,43
655,225	39,76
655,417	-3,24
655,61	19,29
655,802	37,72
655,994	-3,24
656,186	2,9
656,379	-52,39
656,571	4,95
656,763	11,09
656,955	54,1
657,148	4,95
657,34	70,48
657,532	60,24
657,724	64,34
657,916	52,05
658,108	-15,53
658,3	27,48
658,492	7
658,684	56,15
658,876	-23,72
659,068	21,33
659,26	25,43
659,452	-42,15
659,644	-15,53
659,836	0,85
660,028	-36,01
660,22	45,91
660,412	17,24
660,604	27,48
660,796	4,95
660,988	-7,34
661,18	-76,97
661,372	7
661,563	37,72
661,755	35,67
661,947	-50,35
662,139	-11,43
662,331	-13,48
662,522	13,14
662,714	-7,34
662,906	43,86
663,097	7
663,289	31,57
663,481	13,14
663,673	2,9
663,864	13,14
664,056	-11,43
664,247	84,82
664,439	47,96
664,631	13,14
664,822	35,67
665,014	-44,2
665,205	2,9
665,397	-48,3
665,588	45,91
665,78	37,72
665,971	68,44
666,163	43,86
666,354	-1,19
666,546	45,91
666,737	21,33
666,929	27,48
667,12	29,52
667,311	-7,34
667,503	19,29
667,694	45,91
667,885	72,53
668,077	-46,25
668,268	-3,24
668,459	117,59
668,651	9,05
668,842	33,62
669,033	7
669,224	-27,82
669,416	47,96
669,607	7
669,798	35,67
669,989	11,09
670,18	13,14
670,371	-1,19
670,563	-5,29
670,754	11,09
670,945	27,48
671,136	27,48
671,327	-7,34
671,518	23,38
671,709	41,81
671,9	31,57
672,091	47,96
672,282	-29,87
672,473	11,09
672,664	109,4
672,855	-27,82
673,046	70,48
673,237	-13,48
673,428	-36,01
673,619	21,33
673,809	-29,87
674	121,68
674,191	-27,82
674,382	0,85
674,573	-29,87
674,764	19,29
674,954	15,19
675,145	23,38
675,336	-13,48
675,527	-5,29
675,717	-17,58
675,908	37,72
676,099	-19,63
676,289	-21,67
676,48	27,48
676,671	54,1
676,861	-29,87
677,052	21,33
677,243	-13,48
677,433	15,19
677,624	-52,39
677,814	47,96
678,005	4,95
678,195	27,48
678,386	19,29
678,576	19,29
678,767	9,05
678,957	19,29
679,148	-21,67
679,338	82,77
679,529	-54,44
679,719	43,86
679,909	-38,06
680,1	19,29
680,29	35,67
680,481	27,48
680,671	2,9
680,861	-1,19
681,052	-3,24
681,242	0,85
681,432	7
681,622	13,14
681,813	84,82
682,003	-52,39
682,193	-44,2
682,383	72,53
682,573	27,48
682,764	2,9
682,954	72,53
683,144	-79,02
683,334	-5,29
683,524	-3,24
683,714	31,57
683,904	56,15
684,094	-36,01
684,284	39,76
684,474	27,48
684,664	27,48
684,854	-13,48
685,044	-3,24
685,234	17,24
685,424	35,67
685,614	45,91
685,804	47,96
685,994	-7,34
686,184	50
686,374	-3,24
686,564	0,85
686,753	2,9
686,943	80,72
687,133	-15,53
687,323	72,53
687,513	-11,43
687,702	-21,67
687,892	2,9
688,082	-17,58
688,272	-5,29
688,461	27,48
688,651	15,19
688,841	-31,91
689,03	-36,01
689,22	13,14
689,41	-5,29
689,599	76,63
689,789	23,38
689,979	4,95
690,168	9,05
690,358	13,14
690,547	52,05
690,737	27,48
690,926	21,33
691,116	84,82
691,305	-46,25
691,495	25,43
691,684	15,19
691,874	66,39
692,063	-36,01
692,252	2,9
692,442	52,05
692,631	-13,48
692,82	-11,43
693,01	-23,72
693,199	60,24
693,388	43,86
693,578	-29,87
693,767	-58,54
693,956	78,68
694,146	13,14
694,335	-79,02
694,524	37,72
694,713	-19,63
694,902	31,57
695,092	-3,24
695,281	-11,43
695,47	97,11
695,659	-19,63
695,848	33,62
696,037	-29,87
696,226	15,19
696,415	31,57
696,604	68,44
696,793	4,95
696,982	31,57
697,171	7
697,36	4,95
697,549	-38,06
697,738	52,05
697,927	25,43
698,116	-1,19
698,305	-19,63
698,494	7
698,683	-58,54
698,872	-54,44
699,061	-17,58
699,25	31,57
699,438	47,96
699,627	-17,58
699,816	-15,53
700,005	35,67
700,193	11,09
700,382	4,95
700,571	29,52
700,76	37,72
700,948	9,05
701,137	4,95
701,326	21,33
701,514	11,09
701,703	66,39
701,892	27,48
702,08	56,15
702,269	-38,06
702,457	35,67
702,646	45,91
702,834	-5,29
703,023	-52,39
703,212	47,96
703,4	-38,06
703,589	52,05
703,777	37,72
703,965	-19,63
704,154	11,09
704,342	76,63
704,531	-21,67
704,719	80,72
704,907	60,24
705,096	2,9
705,284	37,72
705,472	37,72
705,661	84,82
705,849	66,39
706,037	19,29
706,226	2,9
706,414	52,05
706,602	-1,19
706,79	-5,29
706,979	-5,29
707,167	19,29
707,355	64,34
707,543	-25,77
707,731	-13,48
707,919	43,86
708,107	33,62
708,296	-15,53
708,484	-3,24
708,672	-91,31
708,86	35,67
709,048	-15,53
709,236	-19,63
709,424	-29,87
709,612	21,33
709,8	-21,67
709,988	-38,06
710,176	-7,34
710,364	52,05
710,551	19,29
710,739	25,43
710,927	-21,67
711,115	47,96
711,303	23,38
711,491	31,57
711,679	-46,25
711,866	-11,43
712,054	-21,67
712,242	-19,63
712,43	-60,59
712,617	2,9
712,805	-21,67
712,993	11,09
713,181	-29,87
713,368	43,86
713,556	-1,19
713,744	62,29
713,931	88,92
714,119	21,33
714,306	-52,39
714,494	31,57
714,682	25,43
714,869	35,67
715,057	-15,53
715,244	27,48
715,432	-21,67
715,619	-5,29
715,807	-11,43
715,994	27,48
716,182	-79,02
716,369	29,52
716,556	-27,82
716,744	68,44
716,931	25,43
717,119	93,01
717,306	50
717,493	-1,19
717,681	74,58
717,868	15,19
718,055	15,19
718,242	-36,01
718,43	0,85
718,617	15,19
718,804	2,9
718,991	2,9
719,179	29,52
719,366	35,67
719,553	-38,06
719,74	2,9
719,927	-38,06
720,114	2,9
720,301	29,52
720,488	19,29
720,676	80,72
720,863	4,95
721,05	43,86
721,237	-21,67
721,424	-13,48
721,611	54,1
721,798	21,33
721,985	-3,24
722,172	41,81
722,358	29,52
722,545	-7,34
722,732	-13,48
722,919	-5,29
723,106	-1,19
723,293	-23,72
723,48	-9,39
723,667	-3,24
723,853	-5,29
724,04	64,34
724,227	17,24
724,414	31,57
724,6	76,63
724,787	23,38
724,974	27,48
725,161	52,05
725,347	-5,29
725,534	23,38
725,72	54,1
725,907	19,29
726,094	-15,53
726,28	-27,82
726,467	11,09
726,653	13,14
726,84	35,67
727,027	-29,87
727,213	45,91
727,4	11,09
727,586	-36,01
727,773	-13,48
727,959	-15,53
728,145	-54,44
728,332	0,85
728,518	-52,39
728,705	78,68
728,891	-23,72
729,077	29,52
729,264	13,14
729,45	56,15
729,636	15,19
729,823	58,2
730,009	7
730,195	19,29
730,382	-5,29
730,568	27,48
730,754	19,29
730,94	9,05
731,126	23,38
731,313	-13,48
731,499	41,81
731,685	-7,34
731,871	13,14
732,057	-3,24
732,243	35,67
732,429	35,67
732,615	-5,29
732,801	-3,24
732,987	4,95
733,173	4,95
733,359	70,48
733,545	37,72
733,731	-3,24
733,917	-13,48
734,103	19,29
734,289	19,29
734,475	-1,19
734,661	11,09
734,847	-5,29
735,033	45,91
735,219	-52,39
735,404	13,14
735,59	-54,44
735,776	-21,67
735,962	-5,29
736,148	-3,24
736,333	4,95
736,519	15,19
736,705	72,53
736,89	43,86
737,076	-27,82
737,262	19,29
737,447	21,33
737,633	-64,68
737,819	25,43
738,004	2,9
738,19	39,76
738,375	31,57
738,561	47,96
738,747	84,82
738,932	-7,34
739,118	11,09
739,303	-23,72
739,489	-21,67
739,674	109,4
739,859	21,33
740,045	-5,29
740,23	23,38
740,416	60,24
740,601	7
740,786	31,57
740,972	60,24
741,157	11,09
741,342	76,63
741,528	13,14
741,713	43,86
741,898	-21,67
742,084	13,14
742,269	-11,43
742,454	11,09
742,639	56,15
742,824	52,05
743,01	19,29
743,195	-46,25
743,38	-21,67
743,565	19,29
743,75	-21,67
743,935	4,95
744,12	47,96
744,305	-5,29
744,49	29,52
744,675	15,19
744,86	-3,24
745,045	21,33
745,23	-42,15
745,415	11,09
745,6	76,63
745,785	35,67
745,97	19,29
746,155	-29,87
746,34	60,24
746,525	39,76
746,71	56,15
746,895	11,09
747,079	39,76
747,264	-19,63
747,449	84,82
747,634	11,09
747,819	-29,87
748,003	58,2
748,188	66,39
748,373	13,14
748,557	-38,06
748,742	29,52
748,927	-11,43
749,111	-52,39
749,296	-5,29
749,481	76,63
749,665	-13,48
749,85	25,43
750,034	-25,77
750,219	-29,87
750,404	0,85
750,588	15,19
750,773	-44,2
750,957	19,29
751,141	-17,58
751,326	-29,87
751,51	45,91
751,695	2,9
751,879	31,57
752,064	19,29
752,248	-17,58
752,432	-13,48
752,617	52,05
752,801	29,52
752,985	-19,63
753,17	-11,43
753,354	-17,58
753,538	35,67
753,722	-21,67
753,907	-70,83
754,091	-52,39
754,275	64,34
754,459	-9,39
754,643	31,57
754,828	-21,67
755,012	13,14
755,196	13,14
755,38	-13,48
755,564	56,15
755,748	39,76
755,932	52,05
756,116	15,19
756,3	37,72
756,484	15,19
756,668	-11,43
756,852	11,09
757,036	33,62
757,22	-36,01
757,404	64,34
757,588	37,72
757,772	-42,15
757,956	45,91
758,14	9,05
758,323	97,11
758,507	-58,54
758,691	-13,48
758,875	-29,87
759,059	11,09
759,242	-17,58
759,426	35,67
759,61	-9,39
759,794	-13,48
759,977	21,33
760,161	-27,82
760,345	47,96
760,528	72,53
760,712	11,09
760,895	-46,25
761,079	23,38
761,263	60,24
761,446	35,67
761,63	64,34
761,813	-52,39
761,997	78,68
762,18	37,72
762,364	23,38
762,547	31,57
762,731	-11,43
762,914	29,52
763,098	62,29
763,281	31,57
763,464	-62,63
763,648	52,05
763,831	35,67
764,015	33,62
764,198	19,29
764,381	37,72
764,564	7
764,748	-9,39
764,931	-11,43
765,114	39,76
765,297	-11,43
765,481	21,33
765,664	54,1
765,847	19,29
766,03	13,14
766,213	-70,83
766,397	0,85
766,58	4,95
766,763	35,67
766,946	35,67
767,129	2,9
767,312	35,67
767,495	-5,29
767,678	70,48
767,861	23,38
768,044	43,86
768,227	4,95
768,41	-9,39
768,593	43,86
768,776	4,95
768,959	-15,53
769,142	-60,59
769,324	54,1
769,507	39,76
769,69	35,67
769,873	-87,21
770,056	11,09
770,239	-1,19
770,421	-3,24
770,604	-36,01
770,787	23,38
770,97	11,09
771,152	21,33
771,335	2,9
771,518	33,62
771,7	4,95
771,883	-5,29
772,066	-5,29
772,248	-21,67
772,431	21,33
772,613	19,29
772,796	27,48
772,978	117,59
773,161	-76,97
773,343	27,48
773,526	-17,58
773,708	-13,48
773,891	-1,19
774,073	58,2
774,256	29,52
774,438	70,48
774,621	-15,53
774,803	35,67
774,985	107,35
775,168	23,38
775,35	19,29
775,532	19,29
775,715	21,33
775,897	7
776,079	27,48
776,261	15,19
776,444	7
776,626	-11,43
776,808	64,34
776,99	-29,87
777,173	35,67
777,355	43,86
777,537	-17,58
777,719	-60,59
777,901	97,11
778,083	-52,39
778,265	70,48
778,447	-29,87
778,629	7
778,811	-1,19
778,993	29,52
779,175	4,95
779,357	60,24
779,539	27,48
779,721	-25,77
779,903	29,52
780,085	23,38
780,267	11,09
780,449	31,57
780,631	-40,11
780,812	33,62
780,994	9,05
781,176	37,72
781,358	37,72
781,54	35,67
781,721	-13,48
781,903	62,29
782,085	23,38
782,267	121,68
782,448	29,52
782,63	45,91
782,812	11,09
782,993	19,29
783,175	-29,87
783,357	2,9
783,538	19,29
783,72	-27,82
783,901	-1,19
784,083	45,91
784,264	60,24
784,446	31,57
784,627	-11,43
784,809	-19,63
784,99	33,62
785,172	27,48
785,353	2,9
785,535	-19,63
785,716	15,19
785,897	-13,48
786,079	70,48
786,26	43,86
786,441	-19,63
786,623	23,38
786,804	35,67
786,985	-60,59
787,167	-5,29
787,348	45,91
787,529	4,95
787,71	107,35
787,891	19,29
788,073	-15,53
788,254	-60,59
788,435	27,48
788,616	-13,48
788,797	-50,35
788,978	68,44
789,159	25,43
789,34	-13,48
789,522	19,29
789,703	9,05
789,884	7
790,065	-11,43
790,246	4,95
790,427	-5,29
790,607	-50,35
790,788	21,33
790,969	23,38
791,15	0,85
791,331	31,57
791,512	47,96
791,693	45,91
791,874	23,38
792,054	11,09
792,235	4,95
792,416	19,29
792,597	17,24
792,778	-62,63
792,958	29,52
793,139	-11,43
793,32	-5,29
793,5	25,43
793,681	31,57
793,862	2,9
794,042	23,38
794,223	15,19
794,404	-74,92
794,584	2,9
794,765	-13,48
794,945	-62,63
795,126	37,72
795,306	-9,39
795,487	11,09
795,667	29,52
795,848	35,67
796,028	43,86
796,209	39,76
796,389	21,33
796,57	-23,72
796,75	-5,29
796,93	68,44
797,111	-1,19
797,291	23,38
797,471	33,62
797,652	-3,24
797,832	11,09
798,012	-17,58
798,192	45,91
798,373	72,53
798,553	27,48
798,733	-1,19
798,913	33,62
799,093	29,52
799,274	13,14
799,454	27,48
799,634	19,29
799,814	58,2
799,994	7
800,174	90,96
800,354	0,85
800,534	-66,73
800,714	-1,19
800,894	-56,49
801,074	0,85
801,254	-5,29
801,434	4,95
801,614	64,34
801,794	19,29
801,974	19,29
802,154	-23,72
802,334	-13,48
802,514	-21,67
802,693	-36,01
802,873	4,95
803,053	37,72
803,233	2,9
803,413	21,33
803,592	15,19
803,772	43,86
803,952	29,52
804,131	21,33
804,311	-11,43
804,491	-21,67
804,67	2,9
804,85	35,67
805,03	35,67
805,209	7
805,389	0,85
805,568	-29,87
805,748	7
805,928	11,09
806,107	35,67
806,287	-13,48
806,466	47,96
806,646	-17,58
806,825	-46,25
807,004	37,72
807,184	19,29
807,363	19,29
807,543	-60,59
807,722	2,9
807,901	11,09
808,081	11,09
808,26	-3,24
808,439	4,95
808,619	7
808,798	-25,77
808,977	29,52
809,156	7
809,336	11,09
809,515	-5,29
809,694	-21,67
809,873	-44,2
810,052	-1,19
810,231	11,09
810,411	-21,67
810,59	-5,29
810,769	-15,53
810,948	-44,2
811,127	15,19
811,306	-3,24
811,485	-66,73
811,664	-23,72
811,843	-21,67
812,022	27,48
812,201	45,91
812,38	19,29
812,559	-87,21
812,737	19,29
812,916	60,24
813,095	7
813,274	2,9
813,453	2,9
813,632	-52,39
813,811	-11,43
813,989	35,67
814,168	47,96
814,347	-54,44
814,526	-9,39
814,704	31,57
814,883	84,82
815,062	-29,87
815,24	27,48
815,419	-9,39
815,598	19,29
815,776	43,86
815,955	66,39
816,133	35,67
816,312	27,48
816,49	47,96
816,669	68,44
816,847	29,52
817,026	-17,58
817,204	23,38
817,383	11,09
817,561	-103,59
817,74	93,01
817,918	39,76
818,097	-3,24
818,275	0,85
818,453	41,81
818,632	7
818,81	-23,72
818,988	2,9
819,167	19,29
819,345	56,15
819,523	45,91
819,701	56,15
819,879	31,57
820,058	4,95
820,236	19,29
820,414	27,48
820,592	47,96
820,77	23,38
820,948	2,9
821,127	13,14
821,305	-21,67
821,483	23,38
821,661	13,14
821,839	-3,24
822,017	-9,39
822,195	4,95
822,373	-36,01
822,551	27,48
822,729	-54,44
822,907	27,48
823,085	50
823,262	15,19
823,44	-5,29
823,618	29,52
823,796	21,33
823,974	-17,58
824,152	31,57
824,329	21,33
824,507	-33,96
824,685	17,24
824,863	-11,43
825,04	43,86
825,218	-13,48
825,396	13,14
825,574	86,87
825,751	-1,19
825,929	11,09
826,107	2,9
826,284	60,24
826,462	-21,67
826,639	58,2
826,817	-31,91
826,994	-25,77
827,172	-38,06
827,349	-5,29
827,527	-79,02
827,704	39,76
827,882	88,92
828,059	-13,48
828,237	21,33
828,414	2,9
828,591	-52,39
828,769	-21,67
828,946	-1,19
829,124	60,24
829,301	19,29
829,478	-27,82
829,655	2,9
829,833	-11,43
830,01	-27,82
830,187	-29,87
830,364	21,33
830,542	4,95
830,719	-3,24
830,896	4,95
831,073	23,38
831,25	11,09
831,427	-17,58
831,604	-56,49
831,782	-40,11
831,959	60,24
832,136	15,19
832,313	-29,87
832,49	21,33
832,667	76,63
832,844	-11,43
833,021	60,24
833,198	21,33
833,374	21,33
833,551	54,1
833,728	56,15
833,905	27,48
834,082	35,67
834,259	45,91
834,436	-11,43
834,612	-5,29
834,789	13,14
834,966	54,1
835,143	7
835,319	-89,26
835,496	35,67
835,673	-21,67
835,85	-52,39
836,026	29,52
836,203	19,29
836,38	-79,02
836,556	64,34
836,733	-7,34
836,909	4,95
837,086	19,29
837,262	-52,39
837,439	-3,24
837,616	13,14
837,792	-23,72
837,968	7
838,145	68,44
838,321	27,48
838,498	19,29
838,674	113,49
838,851	29,52
839,027	21,33
839,203	-50,35
839,38	-13,48
839,556	21,33
839,732	-17,58
839,909	64,34
840,085	27,48
840,261	27,48
840,437	35,67
840,614	-25,77
840,79	-5,29
840,966	-25,77
841,142	54,1
841,318	-9,39
841,494	15,19
841,671	0,85
841,847	31,57
842,023	-29,87
842,199	76,63
842,375	23,38
842,551	21,33
842,727	58,2
842,903	-52,39
843,079	56,15
843,255	21,33
843,431	-17,58
843,607	25,43
843,783	19,29
843,959	-5,29
844,134	-25,77
844,31	86,87
844,486	-5,29
844,662	93,01
844,838	31,57
845,013	7
845,189	13,14
845,365	7
845,541	-5,29
845,716	-1,19
845,892	-33,96
846,068	35,67
846,244	-9,39
846,419	97,11
846,595	62,29
846,77	39,76
846,946	-25,77
847,122	-5,29
847,297	-21,67
847,473	17,24
847,648	52,05
847,824	27,48
847,999	-21,67
848,175	37,72
848,35	-13,48
848,526	35,67
848,701	-54,44
848,876	13,14
849,052	47,96
849,227	-1,19
849,403	54,1
849,578	-44,2
849,753	70,48
849,929	-29,87
850,104	7
850,279	31,57
850,454	-50,35
850,63	68,44
850,805	-42,15
850,98	25,43
851,155	19,29
851,33	33,62
851,505	60,24
851,681	2,9
851,856	-42,15
852,031	52,05
852,206	-5,29
852,381	60,24
852,556	-29,87
852,731	-3,24
852,906	-19,63
853,081	-7,34
853,256	2,9
853,431	-31,91
853,606	-36,01
853,781	2,9
853,956	19,29
854,131	11,09
854,305	4,95
854,48	41,81
854,655	23,38
854,83	45,91
855,005	25,43
855,18	-21,67
855,354	2,9
855,529	37,72
855,704	-17,58
855,879	39,76
856,053	-9,39
856,228	19,29
856,403	-13,48
856,577	33,62
856,752	82,77
856,926	-7,34
857,101	35,67
857,276	19,29
857,45	13,14
857,625	-21,67
857,799	-11,43
857,974	4,95
858,148	-21,67
858,323	31,57
858,497	-15,53
858,672	-9,39
858,846	11,09
859,02	2,9
859,195	56,15
859,369	11,09
859,543	-38,06
859,718	93,01
859,892	19,29
860,066	19,29
860,241	11,09
860,415	35,67
860,589	11,09
860,763	-27,82
860,938	-36,01
861,112	-21,67
861,286	-29,87
861,46	82,77
861,634	39,76
861,808	54,1
861,982	-9,39
862,157	29,52
862,331	7
862,505	43,86
862,679	52,05
862,853	-29,87
863,027	33,62
863,201	-23,72
863,375	-36,01
863,549	9,05
863,722	29,52
863,896	-3,24
864,07	-5,29
864,244	-19,63
864,418	-64,68
864,592	2,9
864,766	-40,11
864,939	19,29
865,113	-70,83
865,287	21,33
865,461	37,72
865,634	-15,53
865,808	23,38
865,982	-3,24
866,156	-40,11
866,329	21,33
866,503	27,48
866,676	54,1
866,85	19,29
867,024	-44,2
867,197	-5,29
867,371	-46,25
867,544	-29,87
867,718	66,39
867,891	-3,24
868,065	-33,96
868,238	-5,29
868,412	-27,82
868,585	76,63
868,759	-19,63
868,932	45,91
869,105	11,09
869,279	19,29
869,452	-1,19
869,625	-7,34
869,799	82,77
869,972	-27,82
870,145	-13,48
870,319	-11,43
870,492	-13,48
870,665	45,91
870,838	62,29
871,011	37,72
871,185	93,01
871,358	-5,29
871,531	-5,29
871,704	-95,4
871,877	25,43
872,05	9,05
872,223	4,95
872,396	9,05
872,569	11,09
872,742	-36,01
872,915	33,62
873,088	7
873,261	19,29
873,434	21,33
873,607	-3,24
873,78	2,9
873,953	9,05
874,126	-68,78
874,299	27,48
874,471	-68,78
874,644	39,76
874,817	-9,39
874,99	47,96
875,163	4,95
875,335	-9,39
875,508	-25,77
875,681	-36,01
875,853	15,19
876,026	-44,2
876,199	2,9
876,371	23,38
876,544	-79,02
876,717	56,15
876,889	-62,63
877,062	-25,77
877,234	4,95
877,407	-3,24
877,579	76,63
877,752	-3,24
877,924	52,05
878,097	86,87
878,269	2,9
878,442	-44,2
878,614	29,52
878,786	27,48
878,959	2,9
879,131	27,48
879,303	4,95
879,476	52,05
879,648	17,24
879,82	45,91
879,993	29,52
880,165	35,67
880,337	-3,24
880,509	19,29
880,681	-3,24
880,854	-29,87
881,026	-38,06
881,198	-21,67
881,37	-5,29
881,542	17,24
881,714	-13,48
881,886	-27,82
882,058	52,05
882,23	43,86
882,402	-13,48
882,574	60,24
882,746	7
882,918	-13,48
883,09	56,15
883,262	-5,29
883,434	-29,87
883,606	68,44
883,778	19,29
883,95	-1,19
884,122	31,57
884,293	29,52
884,465	-15,53
884,637	-38,06
884,809	23,38
884,98	-3,24
885,152	4,95
885,324	29,52
885,496	45,91
885,667	11,09
885,839	29,52
886,011	19,29
886,182	-15,53
886,354	29,52
886,525	45,91
886,697	-29,87
886,869	19,29
887,04	-36,01
887,212	-60,59
887,383	93,01
887,555	-23,72
887,726	103,25
887,897	21,33
888,069	-33,96
888,24	-9,39
888,412	21,33
888,583	25,43
888,754	43,86
888,926	-1,19
889,097	37,72
889,268	39,76
889,44	19,29
889,611	-29,87
889,782	43,86
889,953	-9,39
890,125	2,9
890,296	13,14
890,467	29,52
890,638	2,9
890,809	68,44
890,98	11,09
891,151	19,29
891,323	29,52
891,494	50
891,665	25,43
891,836	19,29
892,007	47,96
892,178	62,29
892,349	50
892,52	35,67
892,691	84,82
892,862	29,52
893,032	4,95
893,203	35,67
893,374	29,52
893,545	21,33
893,716	15,19
893,887	-13,48
894,057	-27,82
894,228	33,62
894,399	19,29
894,57	52,05
894,74	-11,43
894,911	39,76
895,082	11,09
895,253	2,9
895,423	11,09
895,594	66,39
895,764	-54,44
895,935	2,9
896,106	11,09
896,276	-9,39
896,447	-27,82
896,617	-31,91
896,788	-5,29
896,958	72,53
897,129	33,62
897,299	41,81
897,47	19,29
897,64	39,76
897,81	-44,2
897,981	76,63
898,151	17,24
898,322	-19,63
898,492	-27,82
898,662	64,34
898,832	11,09
899,003	29,52
899,173	45,91
899,343	47,96
899,513	-9,39
