Data from filtre 577_USB4F104151__1__12-00-10-660.txt Node

Date: Wed Apr 15 12:00:10 EDT 2026
User: LaboPhy
Spectrometer: USB4F10415
Trigger mode: 4
Integration Time (sec): 2,000000E-3
Scans to average: 1
Electric dark correction enabled: true
Nonlinearity correction enabled: false
Boxcar width: 0
XAxis mode: Wavelengths
Number of Pixels in Spectrum: 3648
>>>>>Begin Spectral Data<<<<<
178,204	-12,46
178,424	-12,46
178,644	-12,46
178,864	10,07
179,084	51,03
179,304	53,08
179,524	-39,08
179,744	-39,08
179,964	5,97
180,184	22,36
180,404	34,64
180,624	-32,94
180,844	-53,42
181,064	46,93
181,283	22,36
181,503	-16,55
181,723	-4,27
181,943	-63,66
182,163	-18,6
182,383	63,32
182,602	-28,84
182,822	-16,55
183,042	38,74
183,262	-22,7
183,482	-49,32
183,701	24,4
183,921	10,07
184,141	-18,6
184,361	57,17
184,58	14,17
184,8	-26,79
185,02	12,12
185,239	-6,31
185,459	28,5
185,679	28,5
185,898	-30,89
186,118	40,79
186,338	-22,7
186,557	30,55
186,777	-14,51
186,997	30,55
187,216	18,26
187,436	-45,23
187,655	32,6
187,875	42,84
188,095	12,12
188,314	32,6
188,534	24,4
188,753	14,17
188,973	12,12
189,192	-2,22
189,412	3,93
189,631	10,07
189,851	5,97
190,07	3,93
190,29	-26,79
190,509	-32,94
190,729	-4,27
190,948	-26,79
191,168	-26,79
191,387	118,61
191,607	-0,17
191,826	-59,56
192,045	48,98
192,265	-8,36
192,484	36,69
192,704	18,26
192,923	-4,27
193,142	5,97
193,362	30,55
193,581	32,6
193,8	-28,84
194,02	65,36
194,239	100,18
194,458	40,79
194,678	-37,03
194,897	12,12
195,116	38,74
195,335	28,5
195,555	48,98
195,774	63,32
195,993	-4,27
196,212	-12,46
196,432	73,56
196,651	-28,84
196,87	-2,22
197,089	22,36
197,308	-16,55
197,528	-20,65
197,747	8,02
197,966	-6,31
198,185	40,79
198,404	-47,27
198,623	32,6
198,842	24,4
199,062	12,12
199,281	57,17
199,5	1,88
199,719	-4,27
199,938	40,79
200,157	38,74
200,376	8,02
200,595	87,89
200,814	-49,32
201,033	10,07
201,252	-34,99
201,471	5,97
201,69	57,17
201,909	-4,27
202,128	16,21
202,347	-47,27
202,566	3,93
202,785	-26,79
203,004	-59,56
203,223	-26,79
203,442	-28,84
203,661	10,07
203,879	100,18
204,098	-41,13
204,317	10,07
204,536	-71,85
204,755	63,32
204,974	-12,46
205,193	44,88
205,411	77,65
205,63	-4,27
205,849	61,27
206,068	8,02
206,287	28,5
206,505	38,74
206,724	-10,41
206,943	38,74
207,162	98,13
207,381	8,02
207,599	94,04
207,818	-57,51
208,037	-4,27
208,255	-28,84
208,474	59,22
208,693	16,21
208,911	36,69
209,13	46,93
209,349	-4,27
209,567	55,12
209,786	28,5
210,005	-20,65
210,223	94,04
210,442	-2,22
210,661	36,69
210,879	-10,41
211,098	1,88
211,316	26,45
211,535	59,22
211,753	55,12
211,972	-2,22
212,191	-57,51
212,409	-22,7
212,628	12,12
212,846	-12,46
213,065	-0,17
213,283	63,32
213,502	-4,27
213,72	-30,89
213,938	-4,27
214,157	-16,55
214,375	61,27
214,594	28,5
214,812	-41,13
215,031	-2,22
215,249	-0,17
215,467	30,55
215,686	-37,03
215,904	51,03
216,122	-41,13
216,341	32,6
216,559	36,69
216,778	-37,03
216,996	16,21
217,214	32,6
217,432	14,17
217,651	71,51
217,869	20,31
218,087	32,6
218,306	36,69
218,524	32,6
218,742	-80,04
218,96	-4,27
219,179	-12,46
219,397	57,17
219,615	-53,42
219,833	44,88
220,051	18,26
220,27	36,69
220,488	10,07
220,706	34,64
220,924	-37,03
221,142	-12,46
221,36	-28,84
221,578	-18,6
221,796	14,17
222,015	28,5
222,233	1,88
222,451	8,02
222,669	-24,75
222,887	46,93
223,105	-20,65
223,323	-0,17
223,541	22,36
223,759	-4,27
223,977	14,17
224,195	36,69
224,413	-0,17
224,631	-2,22
224,849	-18,6
225,067	40,79
225,285	-37,03
225,503	48,98
225,721	77,65
225,939	24,4
226,157	-45,23
226,375	65,36
226,592	-12,46
226,81	-43,18
227,028	55,12
227,246	22,36
227,464	-12,46
227,682	63,32
227,9	-20,65
228,117	12,12
228,335	77,65
228,553	48,98
228,771	55,12
228,989	12,12
229,206	69,46
229,424	-2,22
229,642	-10,41
229,86	22,36
230,077	24,4
230,295	40,79
230,513	30,55
230,731	48,98
230,948	-34,99
231,166	24,4
231,384	16,21
231,601	16,21
231,819	5,97
232,037	24,4
232,254	20,31
232,472	10,07
232,689	-8,36
232,907	-12,46
233,125	-14,51
233,342	-26,79
233,56	20,31
233,777	16,21
233,995	14,17
234,213	34,64
234,43	-8,36
234,648	14,17
234,865	20,31
235,083	-12,46
235,3	3,93
235,518	28,5
235,735	-12,46
235,953	-2,22
236,17	-22,7
236,388	104,28
236,605	-4,27
236,822	-32,94
237,04	12,12
237,257	44,88
237,475	-20,65
237,692	40,79
237,909	122,71
238,127	55,12
238,344	77,65
238,562	-59,56
238,779	-4,27
238,996	71,51
239,214	-43,18
239,431	-8,36
239,648	-57,51
239,865	-12,46
240,083	71,51
240,3	22,36
240,517	-28,84
240,735	36,69
240,952	85,84
241,169	-4,27
241,386	48,98
241,603	10,07
241,821	3,93
242,038	63,32
242,255	-30,89
242,472	102,23
242,689	46,93
242,907	46,93
243,124	10,07
243,341	12,12
243,558	26,45
243,775	65,36
243,992	-53,42
244,209	-12,46
244,426	53,08
244,643	12,12
244,86	-12,46
245,078	18,26
245,295	38,74
245,512	-20,65
245,729	48,98
245,946	20,31
246,163	44,88
246,38	28,5
246,597	65,36
246,814	-10,41
247,031	46,93
247,248	53,08
247,464	-28,84
247,681	-63,66
247,898	-12,46
248,115	14,17
248,332	-0,17
248,549	-28,84
248,766	-2,22
248,983	30,55
249,2	48,98
249,417	55,12
249,633	12,12
249,85	40,79
250,067	-12,46
250,284	-4,27
250,501	32,6
250,717	14,17
250,934	79,7
251,151	-24,75
251,368	67,41
251,585	30,55
251,801	-2,22
252,018	-2,22
252,235	34,64
252,451	-59,56
252,668	-2,22
252,885	79,7
253,102	3,93
253,318	-2,22
253,535	63,32
253,752	28,5
253,968	-2,22
254,185	42,84
254,401	-6,31
254,618	-6,31
254,835	-43,18
255,051	59,22
255,268	32,6
255,484	5,97
255,701	-2,22
255,917	46,93
256,134	-12,46
256,351	16,21
256,567	-10,41
256,784	8,02
257	-26,79
257,217	40,79
257,433	-39,08
257,65	32,6
257,866	-39,08
258,082	-14,51
258,299	-28,84
258,515	24,4
258,732	16,21
258,948	14,17
259,165	1,88
259,381	79,7
259,597	-4,27
259,814	-32,94
260,03	10,07
260,246	-6,31
260,463	-18,6
260,679	-20,65
260,895	-28,84
261,112	53,08
261,328	-24,75
261,544	69,46
261,761	24,4
261,977	-49,32
262,193	71,51
262,409	-73,9
262,626	14,17
262,842	69,46
263,058	-26,79
263,274	89,94
263,49	-6,31
263,707	59,22
263,923	8,02
264,139	-37,03
264,355	-4,27
264,571	28,5
264,787	63,32
265,004	20,31
265,22	1,88
265,436	10,07
265,652	5,97
265,868	5,97
266,084	-14,51
266,3	-12,46
266,516	-8,36
266,732	-18,6
266,948	22,36
267,164	8,02
267,38	28,5
267,596	61,27
267,812	3,93
268,028	42,84
268,244	85,84
268,46	34,64
268,676	1,88
268,892	51,03
269,108	-43,18
269,324	3,93
269,54	24,4
269,756	16,21
269,972	38,74
270,188	3,93
270,403	44,88
270,619	8,02
270,835	-41,13
271,051	-26,79
271,267	-12,46
271,483	-20,65
271,698	-6,31
271,914	30,55
272,13	20,31
272,346	40,79
272,562	-39,08
272,777	55,12
272,993	65,36
273,209	24,4
273,425	3,93
273,64	-59,56
273,856	28,5
274,072	36,69
274,287	-0,17
274,503	-6,31
274,719	-37,03
274,934	42,84
275,15	20,31
275,366	94,04
275,581	-26,79
275,797	12,12
276,012	-41,13
276,228	1,88
276,444	30,55
276,659	-30,89
276,875	57,17
277,09	-24,75
277,306	-0,17
277,521	3,93
277,737	5,97
277,952	-10,41
278,168	10,07
278,383	32,6
278,599	85,84
278,814	28,5
279,03	30,55
279,245	3,93
279,461	48,98
279,676	-37,03
279,892	-41,13
280,107	-0,17
280,322	28,5
280,538	22,36
280,753	46,93
280,969	79,7
281,184	-8,36
281,399	28,5
281,615	-20,65
281,83	8,02
282,045	-0,17
282,26	-24,75
282,476	36,69
282,691	8,02
282,906	28,5
283,122	30,55
283,337	12,12
283,552	57,17
283,767	16,21
283,983	12,12
284,198	81,75
284,413	40,79
284,628	28,5
284,843	34,64
285,058	5,97
285,274	-53,42
285,489	-20,65
285,704	-2,22
285,919	-18,6
286,134	59,22
286,349	1,88
286,564	94,04
286,779	-61,61
286,995	94,04
287,21	-24,75
287,425	44,88
287,64	-8,36
287,855	42,84
288,07	69,46
288,285	69,46
288,5	-26,79
288,715	61,27
288,93	20,31
289,145	-37,03
289,36	-28,84
289,575	71,51
289,79	16,21
290,004	-4,27
290,219	38,74
290,434	16,21
290,649	-0,17
290,864	-20,65
291,079	71,51
291,294	85,84
291,509	-4,27
291,724	24,4
291,938	44,88
292,153	12,12
292,368	-53,42
292,583	16,21
292,798	-20,65
293,012	12,12
293,227	5,97
293,442	34,64
293,657	-22,7
293,871	3,93
294,086	20,31
294,301	18,26
294,516	-18,6
294,73	34,64
294,945	-12,46
295,16	-37,03
295,374	-32,94
295,589	73,56
295,804	26,45
296,018	22,36
296,233	-24,75
296,447	-51,37
296,662	-26,79
296,877	44,88
297,091	22,36
297,306	-45,23
297,52	46,93
297,735	24,4
297,949	12,12
298,164	34,64
298,378	-0,17
298,593	36,69
298,807	59,22
299,022	3,93
299,236	8,02
299,451	14,17
299,665	-22,7
299,88	57,17
300,094	14,17
300,309	-32,94
300,523	20,31
300,737	-28,84
300,952	59,22
301,166	22,36
301,381	8,02
301,595	94,04
301,809	65,36
302,024	77,65
302,238	5,97
302,452	14,17
302,667	-37,03
302,881	-6,31
303,095	-0,17
303,309	12,12
303,524	77,65
303,738	40,79
303,952	51,03
304,166	44,88
304,381	-43,18
304,595	87,89
304,809	-12,46
305,023	-12,46
305,237	36,69
305,452	20,31
305,666	12,12
305,88	8,02
306,094	28,5
306,308	53,08
306,522	8,02
306,736	77,65
306,95	-20,65
307,164	61,27
307,379	3,93
307,593	-16,55
307,807	55,12
308,021	34,64
308,235	-26,79
308,449	61,27
308,663	-20,65
308,877	16,21
309,091	20,31
309,305	51,03
309,519	-8,36
309,733	38,74
309,947	16,21
310,161	20,31
310,374	-43,18
310,588	22,36
310,802	-49,32
311,016	26,45
311,23	81,75
311,444	81,75
311,658	26,45
311,872	63,32
312,085	5,97
312,299	-12,46
312,513	-51,37
312,727	-12,46
312,941	-28,84
313,154	38,74
313,368	-26,79
313,582	-18,6
313,796	-10,41
314,009	-4,27
314,223	44,88
314,437	-34,99
314,651	-24,75
314,864	40,79
315,078	-73,9
315,292	30,55
315,505	-22,7
315,719	12,12
315,933	20,31
316,146	-2,22
316,36	28,5
316,573	22,36
316,787	-2,22
317,001	8,02
317,214	8,02
317,428	14,17
317,641	28,5
317,855	57,17
318,068	-2,22
318,282	-2,22
318,495	30,55
318,709	40,79
318,922	-0,17
319,136	-28,84
319,349	16,21
319,563	81,75
319,776	20,31
319,99	8,02
320,203	8,02
320,417	20,31
320,63	-20,65
320,843	28,5
321,057	44,88
321,27	30,55
321,483	-34,99
321,697	36,69
321,91	24,4
322,124	-16,55
322,337	-41,13
322,55	12,12
322,763	26,45
322,977	-45,23
323,19	69,46
323,403	-92,33
323,617	12,12
323,83	79,7
324,043	46,93
324,256	16,21
324,469	-26,79
324,683	3,93
324,896	67,41
325,109	-18,6
325,322	-4,27
325,535	44,88
325,748	-39,08
325,962	3,93
326,175	-37,03
326,388	-28,84
326,601	-2,22
326,814	12,12
327,027	8,02
327,24	-2,22
327,453	-4,27
327,666	28,5
327,879	-45,23
328,092	94,04
328,305	-2,22
328,518	53,08
328,731	38,74
328,944	-0,17
329,157	-0,17
329,37	-49,32
329,583	5,97
329,796	-2,22
330,009	-8,36
330,222	22,36
330,435	32,6
330,648	-10,41
330,861	-39,08
331,073	79,7
331,286	-61,61
331,499	-22,7
331,712	14,17
331,925	12,12
332,138	34,64
332,35	3,93
332,563	1,88
332,776	16,21
332,989	16,21
333,202	12,12
333,414	3,93
333,627	22,36
333,84	-2,22
334,053	-37,03
334,265	-2,22
334,478	38,74
334,691	-2,22
334,903	-26,79
335,116	22,36
335,329	32,6
335,541	20,31
335,754	-18,6
335,966	40,79
336,179	26,45
336,392	12,12
336,604	-28,84
336,817	1,88
337,029	-2,22
337,242	-20,65
337,454	-8,36
337,667	61,27
337,88	-20,65
338,092	12,12
338,305	3,93
338,517	-45,23
338,729	30,55
338,942	-2,22
339,154	59,22
339,367	71,51
339,579	-2,22
339,792	-28,84
340,004	24,4
340,217	-8,36
340,429	48,98
340,641	63,32
340,854	28,5
341,066	69,46
341,278	-37,03
341,491	16,21
341,703	12,12
341,915	18,26
342,128	1,88
342,34	-8,36
342,552	40,79
342,764	-2,22
342,977	18,26
343,189	-69,8
343,401	30,55
343,613	5,97
343,826	-49,32
344,038	-18,6
344,25	30,55
344,462	-53,42
344,674	30,55
344,886	22,36
345,099	-16,55
345,311	20,31
345,523	-26,79
345,735	-0,17
345,947	28,5
346,159	5,97
346,371	77,65
346,583	32,6
346,795	63,32
347,007	28,5
347,219	3,93
347,431	-55,47
347,643	-6,31
347,855	3,93
348,067	44,88
348,279	12,12
348,491	69,46
348,703	-22,7
348,915	-20,65
349,127	26,45
349,339	-26,79
349,551	-24,75
349,763	8,02
349,975	-12,46
350,187	44,88
350,399	-4,27
350,61	-61,61
350,822	-65,71
351,034	16,21
351,246	-24,75
351,458	14,17
351,669	-24,75
351,881	36,69
352,093	40,79
352,305	-20,65
352,517	26,45
352,728	-2,22
352,94	-16,55
353,152	71,51
353,363	28,5
353,575	106,32
353,787	16,21
353,999	30,55
354,21	-51,37
354,422	77,65
354,633	-24,75
354,845	-20,65
355,057	-26,79
355,268	53,08
355,48	18,26
355,692	73,56
355,903	3,93
356,115	55,12
356,326	30,55
356,538	36,69
356,749	-2,22
356,961	63,32
357,172	-8,36
357,384	-51,37
357,595	-8,36
357,807	-69,8
358,018	16,21
358,23	55,12
358,441	-22,7
358,653	30,55
358,864	48,98
359,075	22,36
359,287	28,5
359,498	20,31
359,709	5,97
359,921	28,5
360,132	36,69
360,344	57,17
360,555	-39,08
360,766	83,8
360,977	-10,41
361,189	65,36
361,4	-71,85
361,611	20,31
361,823	-59,56
362,034	30,55
362,245	-45,23
362,456	34,64
362,667	24,4
362,879	-47,27
363,09	38,74
363,301	3,93
363,512	46,93
363,723	24,4
363,935	-20,65
364,146	-28,84
364,357	53,08
364,568	38,74
364,779	-34,99
364,99	20,31
365,201	-4,27
365,412	-18,6
365,623	-30,89
365,834	-20,65
366,045	69,46
366,256	-14,51
366,467	24,4
366,678	1,88
366,889	-12,46
367,1	30,55
367,311	75,6
367,522	-20,65
367,733	-45,23
367,944	3,93
368,155	-12,46
368,366	38,74
368,577	8,02
368,788	-8,36
368,999	30,55
369,209	-57,51
369,42	38,74
369,631	3,93
369,842	-75,95
370,053	-57,51
370,264	10,07
370,474	-12,46
370,685	-20,65
370,896	-20,65
371,107	40,79
371,317	-45,23
371,528	-12,46
371,739	12,12
371,95	-18,6
372,16	30,55
372,371	3,93
372,582	3,93
372,792	46,93
373,003	-10,41
373,214	10,07
373,424	59,22
373,635	28,5
373,846	67,41
374,056	24,4
374,267	46,93
374,477	-71,85
374,688	30,55
374,898	28,5
375,109	42,84
375,319	1,88
375,53	36,69
375,74	-20,65
375,951	-0,17
376,161	12,12
376,372	-18,6
376,582	-22,7
376,793	1,88
377,003	69,46
377,214	3,93
377,424	-6,31
377,635	57,17
377,845	81,75
378,055	28,5
378,266	42,84
378,476	77,65
378,686	14,17
378,897	22,36
379,107	-82,09
379,317	75,6
379,528	-12,46
379,738	22,36
379,948	-26,79
380,158	12,12
380,369	28,5
380,579	32,6
380,789	8,02
380,999	-8,36
381,21	8,02
381,42	-20,65
381,63	8,02
381,84	26,45
382,05	-18,6
382,261	-16,55
382,471	28,5
382,681	32,6
382,891	-14,51
383,101	-10,41
383,311	-88,23
383,521	-49,32
383,731	-20,65
383,941	1,88
384,151	-12,46
384,361	77,65
384,571	-28,84
384,781	26,45
384,991	40,79
385,201	-4,27
385,411	-69,8
385,621	-16,55
385,831	20,31
386,041	53,08
386,251	30,55
386,461	32,6
386,671	5,97
386,881	1,88
387,091	89,94
387,301	44,88
387,511	-32,94
387,72	-0,17
387,93	-45,23
388,14	61,27
388,35	-53,42
388,56	44,88
388,769	8,02
388,979	-12,46
389,189	-28,84
389,399	65,36
389,609	-0,17
389,818	3,93
390,028	-57,51
390,238	14,17
390,447	26,45
390,657	53,08
390,867	28,5
391,076	30,55
391,286	20,31
391,496	16,21
391,705	-55,47
391,915	-4,27
392,125	16,21
392,334	73,56
392,544	-49,32
392,753	-4,27
392,963	3,93
393,172	-26,79
393,382	-75,95
393,591	8,02
393,801	-12,46
394,01	-4,27
394,22	63,32
394,429	85,84
394,639	71,51
394,848	38,74
395,058	-34,99
395,267	48,98
395,477	-2,22
395,686	24,4
395,895	3,93
396,105	30,55
396,314	-80,04
396,524	-8,36
396,733	40,79
396,942	-94,38
397,152	20,31
397,361	89,94
397,57	-34,99
397,78	20,31
397,989	-57,51
398,198	3,93
398,407	-18,6
398,617	-61,61
398,826	5,97
399,035	42,84
399,244	12,12
399,453	61,27
399,663	8,02
399,872	-34,99
400,081	32,6
400,29	8,02
400,499	94,04
400,708	12,12
400,917	57,17
401,127	44,88
401,336	-20,65
401,545	77,65
401,754	-4,27
401,963	-45,23
402,172	-43,18
402,381	22,36
402,59	-51,37
402,799	-22,7
403,008	-39,08
403,217	-16,55
403,426	65,36
403,635	53,08
403,844	14,17
404,053	-77,99
404,262	22,36
404,471	44,88
404,68	16,21
404,888	3,93
405,097	-8,36
405,306	34,64
405,515	-28,84
405,724	89,94
405,933	-8,36
406,142	3,93
406,35	38,74
406,559	22,36
406,768	110,42
406,977	102,23
407,185	14,17
407,394	-8,36
407,603	46,93
407,812	-69,8
408,02	-8,36
408,229	-18,6
408,438	38,74
408,646	81,75
408,855	16,21
409,064	5,97
409,272	18,26
409,481	1,88
409,69	-49,32
409,898	14,17
410,107	28,5
410,315	14,17
410,524	63,32
410,733	28,5
410,941	36,69
411,15	73,56
411,358	-41,13
411,567	-34,99
411,775	-2,22
411,984	-24,75
412,192	-16,55
412,401	14,17
412,609	8,02
412,818	69,46
413,026	-26,79
413,234	-32,94
413,443	22,36
413,651	55,12
413,86	-8,36
414,068	51,03
414,276	-28,84
414,485	96,08
414,693	-12,46
414,901	61,27
415,11	-14,51
415,318	-18,6
415,526	8,02
415,734	-4,27
415,943	-43,18
416,151	-51,37
416,359	-37,03
416,567	30,55
416,776	-16,55
416,984	12,12
417,192	14,17
417,4	30,55
417,608	36,69
417,817	-51,37
418,025	-20,65
418,233	8,02
418,441	-18,6
418,649	24,4
418,857	42,84
419,065	-8,36
419,273	57,17
419,481	-20,65
419,689	44,88
419,897	-77,99
420,105	36,69
420,313	44,88
420,521	44,88
420,729	-61,61
420,937	-16,55
421,145	81,75
421,353	36,69
421,561	24,4
421,769	44,88
421,977	79,7
422,185	-6,31
422,393	12,12
422,601	3,93
422,809	-45,23
423,017	-41,13
423,224	-28,84
423,432	-2,22
423,64	18,26
423,848	8,02
424,056	10,07
424,263	-8,36
424,471	16,21
424,679	-12,46
424,887	63,32
425,094	-12,46
425,302	48,98
425,51	16,21
425,718	28,5
425,925	22,36
426,133	81,75
426,341	24,4
426,548	48,98
426,756	-47,27
426,964	-30,89
427,171	24,4
427,379	-51,37
427,586	5,97
427,794	20,31
428,001	63,32
428,209	38,74
428,417	-16,55
428,624	-20,65
428,832	40,79
429,039	-0,17
429,247	38,74
429,454	-8,36
429,662	77,65
429,869	12,12
430,076	-16,55
430,284	22,36
430,491	-28,84
430,699	28,5
430,906	59,22
431,114	-20,65
431,321	94,04
431,528	57,17
431,736	-2,22
431,943	-8,36
432,15	71,51
432,358	-2,22
432,565	-20,65
432,772	5,97
432,979	20,31
433,187	1,88
433,394	-10,41
433,601	30,55
433,808	85,84
434,016	24,4
434,223	77,65
434,43	77,65
434,637	1,88
434,844	3,93
435,052	8,02
435,259	-18,6
435,466	12,12
435,673	69,46
435,88	1,88
436,087	65,36
436,294	8,02
436,501	32,6
436,708	28,5
436,915	53,08
437,122	-26,79
437,329	38,74
437,537	44,88
437,743	3,93
437,95	-28,84
438,157	44,88
438,364	61,27
438,571	-22,7
438,778	-55,47
438,985	-61,61
439,192	14,17
439,399	32,6
439,606	-14,51
439,813	36,69
440,02	69,46
440,227	57,17
440,433	14,17
440,64	55,12
440,847	-28,84
441,054	-39,08
441,261	3,93
441,467	-12,46
441,674	71,51
441,881	-67,75
442,088	73,56
442,294	-12,46
442,501	32,6
442,708	24,4
442,914	-14,51
443,121	1,88
443,328	-34,99
443,534	-22,7
443,741	20,31
443,948	26,45
444,154	-73,9
444,361	42,84
444,568	16,21
444,774	-14,51
444,981	46,93
445,187	12,12
445,394	38,74
445,6	38,74
445,807	36,69
446,013	22,36
446,22	-22,7
446,426	57,17
446,633	-102,57
446,839	8,02
447,046	-32,94
447,252	-37,03
447,459	28,5
447,665	5,97
447,871	-28,84
448,078	48,98
448,284	-57,51
448,491	-10,41
448,697	20,31
448,903	-37,03
449,11	24,4
449,316	1,88
449,522	3,93
449,728	22,36
449,935	-20,65
450,141	-2,22
450,347	-14,51
450,553	-18,6
450,76	-41,13
450,966	36,69
451,172	24,4
451,378	61,27
451,584	12,12
451,791	87,89
451,997	-14,51
452,203	-61,61
452,409	-4,27
452,615	-37,03
452,821	34,64
453,027	16,21
453,233	-53,42
453,44	40,79
453,646	-32,94
453,852	55,12
454,058	5,97
454,264	77,65
454,47	53,08
454,676	3,93
454,882	-28,84
455,088	18,26
455,294	61,27
455,5	36,69
455,705	-28,84
455,911	-55,47
456,117	-8,36
456,323	18,26
456,529	-20,65
456,735	-22,7
456,941	40,79
457,147	8,02
457,352	-6,31
457,558	10,07
457,764	3,93
457,97	3,93
458,176	-28,84
458,381	-2,22
458,587	-0,17
458,793	-2,22
458,999	71,51
459,204	16,21
459,41	-2,22
459,616	3,93
459,821	-84,14
460,027	-18,6
460,233	8,02
460,438	114,52
460,644	26,45
460,85	20,31
461,055	30,55
461,261	122,71
461,466	-43,18
461,672	40,79
461,878	18,26
462,083	44,88
462,289	-26,79
462,494	8,02
462,7	46,93
462,905	10,07
463,111	61,27
463,316	22,36
463,522	30,55
463,727	40,79
463,932	-8,36
464,138	32,6
464,343	10,07
464,549	36,69
464,754	36,69
464,959	24,4
465,165	-32,94
465,37	28,5
465,575	38,74
465,781	-32,94
465,986	-28,84
466,191	12,12
466,397	-57,51
466,602	14,17
466,807	-16,55
467,012	12,12
467,218	-57,51
467,423	-30,89
467,628	16,21
467,833	53,08
468,038	12,12
468,244	36,69
468,449	-18,6
468,654	-2,22
468,859	-24,75
469,064	1,88
469,269	-39,08
469,474	28,5
469,679	12,12
469,885	71,51
470,09	40,79
470,295	22,36
470,5	30,55
470,705	-2,22
470,91	-12,46
471,115	38,74
471,32	38,74
471,525	12,12
471,73	-28,84
471,935	36,69
472,139	-6,31
472,344	28,5
472,549	-86,19
472,754	-20,65
472,959	-39,08
473,164	22,36
473,369	46,93
473,574	79,7
473,778	1,88
473,983	87,89
474,188	20,31
474,393	67,41
474,598	-8,36
474,802	-4,27
475,007	63,32
475,212	-8,36
475,417	-26,79
475,621	94,04
475,826	81,75
476,031	-104,62
476,235	16,21
476,44	61,27
476,645	-0,17
476,849	24,4
477,054	89,94
477,259	67,41
477,463	-69,8
477,668	32,6
477,872	-90,28
478,077	48,98
478,282	3,93
478,486	16,21
478,691	-0,17
478,895	20,31
479,1	22,36
479,304	83,8
479,509	-16,55
479,713	48,98
479,918	-69,8
480,122	-59,56
480,326	24,4
480,531	-18,6
480,735	-73,9
480,94	-8,36
481,144	20,31
481,348	14,17
481,553	-28,84
481,757	-43,18
481,961	-0,17
482,166	22,36
482,37	-57,51
482,574	65,36
482,778	1,88
482,983	53,08
483,187	61,27
483,391	8,02
483,595	44,88
483,8	-14,51
484,004	28,5
484,208	18,26
484,412	57,17
484,616	53,08
484,821	77,65
485,025	28,5
485,229	-30,89
485,433	20,31
485,637	-57,51
485,841	102,23
486,045	53,08
486,249	59,22
486,453	20,31
486,657	14,17
486,861	-8,36
487,065	-57,51
487,269	16,21
487,473	5,97
487,677	36,69
487,881	61,27
488,085	-57,51
488,289	61,27
488,493	-10,41
488,697	139,09
488,901	16,21
489,105	73,56
489,309	26,45
489,512	-10,41
489,716	-59,56
489,92	53,08
490,124	-34,99
490,328	1,88
490,531	-20,65
490,735	77,65
490,939	14,17
491,143	-4,27
491,346	-24,75
491,55	12,12
491,754	28,5
491,958	-16,55
492,161	59,22
492,365	48,98
492,569	5,97
492,772	-22,7
492,976	-28,84
493,18	63,32
493,383	3,93
493,587	36,69
493,79	44,88
493,994	42,84
494,197	22,36
494,401	-12,46
494,605	-6,31
494,808	71,51
495,012	-53,42
495,215	3,93
495,419	-32,94
495,622	-6,31
495,825	-8,36
496,029	55,12
496,232	22,36
496,436	-2,22
496,639	-26,79
496,843	-37,03
497,046	20,31
497,249	-10,41
497,453	-47,27
497,656	3,93
497,859	65,36
498,063	-67,75
498,266	-51,37
498,469	-12,46
498,673	-28,84
498,876	-4,27
499,079	3,93
499,282	59,22
499,485	75,6
499,689	30,55
499,892	18,26
500,095	-2,22
500,298	-47,27
500,501	53,08
500,705	36,69
500,908	79,7
501,111	-86,19
501,314	28,5
501,517	36,69
501,72	-41,13
501,923	-41,13
502,126	8,02
502,329	28,5
502,532	57,17
502,735	1,88
502,938	36,69
503,141	5,97
503,344	-32,94
503,547	57,17
503,75	59,22
503,953	12,12
504,156	28,5
504,359	-47,27
504,562	34,64
504,765	28,5
504,968	-4,27
505,17	63,32
505,373	10,07
505,576	36,69
505,779	-53,42
505,982	-4,27
506,185	34,64
506,387	-2,22
506,59	10,07
506,793	16,21
506,996	-45,23
507,198	-47,27
507,401	-59,56
507,604	-4,27
507,807	28,5
508,009	-49,32
508,212	-12,46
508,415	38,74
508,617	38,74
508,82	30,55
509,022	46,93
509,225	-28,84
509,428	38,74
509,63	38,74
509,833	-53,42
510,035	53,08
510,238	26,45
510,44	28,5
510,643	16,21
510,845	14,17
511,048	-18,6
511,25	-39,08
511,453	-41,13
511,655	-18,6
511,858	16,21
512,06	53,08
512,262	-43,18
512,465	14,17
512,667	26,45
512,87	79,7
513,072	53,08
513,274	-32,94
513,477	-18,6
513,679	-6,31
513,881	28,5
514,084	-0,17
514,286	38,74
514,488	-30,89
514,69	22,36
514,893	57,17
515,095	10,07
515,297	-10,41
515,499	63,32
515,701	46,93
515,904	53,08
516,106	-4,27
516,308	-39,08
516,51	-37,03
516,712	14,17
516,914	-4,27
517,116	26,45
517,318	-0,17
517,52	34,64
517,722	-28,84
517,925	22,36
518,127	46,93
518,329	-4,27
518,531	32,6
518,733	22,36
518,935	-12,46
519,136	30,55
519,338	3,93
519,54	34,64
519,742	-16,55
519,944	20,31
520,146	-75,95
520,348	-2,22
520,55	30,55
520,752	30,55
520,954	-22,7
521,155	12,12
521,357	20,31
521,559	-0,17
521,761	59,22
521,963	53,08
522,164	-49,32
522,366	30,55
522,568	44,88
522,77	20,31
522,971	8,02
523,173	-4,27
523,375	3,93
523,576	32,6
523,778	10,07
523,98	16,21
524,181	28,5
524,383	85,84
524,584	3,93
524,786	22,36
524,988	22,36
525,189	30,55
525,391	20,31
525,592	46,93
525,794	34,64
525,995	-26,79
526,197	28,5
526,398	24,4
526,6	-0,17
526,801	-4,27
527,003	77,65
527,204	12,12
527,406	-28,84
527,607	12,12
527,808	26,45
528,01	-22,7
528,211	-30,89
528,412	67,41
528,614	44,88
528,815	-6,31
529,016	26,45
529,218	-20,65
529,419	91,99
529,62	-8,36
529,822	8,02
530,023	61,27
530,224	8,02
530,425	14,17
530,626	36,69
530,828	-32,94
531,029	-12,46
531,23	32,6
531,431	20,31
531,632	-43,18
531,833	-37,03
532,035	73,56
532,236	-18,6
532,437	59,22
532,638	5,97
532,839	61,27
533,04	-12,46
533,241	8,02
533,442	-51,37
533,643	-12,46
533,844	-8,36
534,045	3,93
534,246	46,93
534,447	59,22
534,648	53,08
534,849	-34,99
535,05	-22,7
535,251	10,07
535,451	36,69
535,652	8,02
535,853	-12,46
536,054	-32,94
536,255	61,27
536,456	46,93
536,657	30,55
536,857	-51,37
537,058	-4,27
537,259	-20,65
537,46	26,45
537,66	-2,22
537,861	20,31
538,062	87,89
538,263	-59,56
538,463	87,89
538,664	16,21
538,865	-8,36
539,065	22,36
539,266	3,93
539,466	-24,75
539,667	12,12
539,868	51,03
540,068	36,69
540,269	-12,46
540,469	-8,36
540,67	-28,84
540,87	20,31
541,071	-49,32
541,271	69,46
541,472	51,03
541,672	-22,7
541,873	-6,31
542,073	-10,41
542,274	38,74
542,474	24,4
542,675	-43,18
542,875	20,31
543,075	-69,8
543,276	-28,84
543,476	1,88
543,676	30,55
543,877	8,02
544,077	36,69
544,277	36,69
544,478	16,21
544,678	42,84
544,878	5,97
545,078	-0,17
545,279	30,55
545,479	30,55
545,679	46,93
545,879	36,69
546,079	22,36
546,28	-34,99
546,48	71,51
546,68	65,36
546,88	5,97
547,08	-4,27
547,28	-0,17
547,48	-0,17
547,68	22,36
547,88	-59,56
548,081	44,88
548,281	-20,65
548,481	69,46
548,681	-18,6
548,881	63,32
549,081	46,93
549,28	20,31
549,48	-12,46
549,68	5,97
549,88	-20,65
550,08	38,74
550,28	-24,75
550,48	26,45
550,68	89,94
550,88	-26,79
551,08	-16,55
551,279	12,12
551,479	-8,36
551,679	63,32
551,879	-8,36
552,079	28,5
552,278	69,46
552,478	-20,65
552,678	3,93
552,878	63,32
553,077	-37,03
553,277	40,79
553,477	18,26
553,676	8,02
553,876	-2,22
554,076	-30,89
554,275	-24,75
554,475	-16,55
554,674	34,64
554,874	14,17
555,074	28,5
555,273	38,74
555,473	-26,79
555,672	22,36
555,872	-47,27
556,071	-34,99
556,271	-24,75
556,47	12,12
556,67	8,02
556,869	38,74
557,068	5,97
557,268	-61,61
557,467	71,51
557,667	3,93
557,866	53,08
558,065	53,08
558,265	30,55
558,464	12,12
558,663	10,07
558,863	-16,55
559,062	28,5
559,261	40,79
559,461	-59,56
559,66	36,69
559,859	-12,46
560,058	5,97
560,258	-0,17
560,457	61,27
560,656	-18,6
560,855	5,97
561,054	53,08
561,253	-8,36
561,453	-18,6
561,652	3,93
561,851	-12,46
562,05	32,6
562,249	18,26
562,448	55,12
562,647	-102,57
562,846	28,5
563,045	51,03
563,244	34,64
563,443	26,45
563,642	44,88
563,841	10,07
564,04	20,31
564,239	1,88
564,438	8,02
564,637	91,99
564,836	65,36
565,035	38,74
565,234	5,97
565,432	69,46
565,631	12,12
565,83	22,36
566,029	-45,23
566,228	34,64
566,427	40,79
566,625	-4,27
566,824	26,45
567,023	3,93
567,222	12,12
567,42	-12,46
567,619	53,08
567,818	55,12
568,016	94,04
568,215	75,6
568,414	63,32
568,612	91,99
568,811	79,7
569,01	120,66
569,208	194,39
569,407	372,56
569,605	640,84
569,804	1212,23
570,002	1650,49
570,201	2535,21
570,4	3518,24
570,598	4785,93
570,797	6086,39
570,995	8064,73
571,193	9932,48
571,392	12543,64
571,59	14974,58
571,789	17983,04
571,987	21122,58
572,186	25046,49
572,384	28128,68
572,582	31876,46
572,781	35546,42
572,979	38636,81
573,177	42009,81
573,376	44946,6
573,574	47078,53
573,772	49558,63
573,971	50611,28
574,169	52511,8
574,367	54338,58
574,565	55385,1
574,763	55729,15
574,962	56787,95
575,16	56857,59
575,358	57981,92
575,556	57668,58
575,754	59622,34
575,952	58393,56
576,151	59710,41
576,349	59608,01
576,547	59857,86
576,745	60044,23
576,943	60511,16
577,141	60683,19
577,339	60619,7
577,537	60496,83
577,735	60556,22
577,933	59798,47
578,131	60367,8
578,329	59579,34
578,527	59026,38
578,725	58637,27
578,923	58536,92
579,121	56962,03
579,319	56554,49
579,516	55774,21
579,714	54744,08
579,912	52872,24
580,11	50828,37
580,308	49575,01
580,506	47465,6
580,704	43852,98
580,901	42198,23
581,099	38958,34
581,297	36080,94
581,495	32265,58
581,692	29949,32
581,89	25652,69
582,088	23563,76
582,285	20289,06
582,483	17768,01
582,681	15257,2
582,878	12664,47
583,076	10657,46
583,274	9172,68
583,471	7376,61
583,669	6024,95
583,866	4642,57
584,064	3723,04
584,262	2621,23
584,459	1969,98
584,657	1244,99
584,854	937,8
585,052	538,45
585,249	401,23
585,447	323,41
585,644	159,57
585,841	143,19
586,039	85,84
586,236	59,22
586,434	-0,17
586,631	-0,17
586,828	-10,41
587,026	77,65
587,223	-24,75
587,42	14,17
587,618	77,65
587,815	67,41
588,012	79,7
588,21	22,36
588,407	57,17
588,604	55,12
588,801	-57,51
588,999	-2,22
589,196	18,26
589,393	28,5
589,59	18,26
589,787	89,94
589,984	5,97
590,182	44,88
590,379	-43,18
590,576	-51,37
590,773	55,12
590,97	102,23
591,167	110,42
591,364	16,21
591,561	-18,6
591,758	12,12
591,955	38,74
592,152	24,4
592,349	63,32
592,546	26,45
592,743	-32,94
592,94	-0,17
593,137	28,5
593,334	44,88
593,531	20,31
593,727	38,74
593,924	-12,46
594,121	-28,84
594,318	53,08
594,515	5,97
594,712	-41,13
594,908	69,46
595,105	69,46
595,302	53,08
595,499	26,45
595,696	59,22
595,892	16,21
596,089	26,45
596,286	55,12
596,482	63,32
596,679	-10,41
596,876	22,36
597,072	28,5
597,269	-2,22
597,466	-14,51
597,662	53,08
597,859	36,69
598,055	-34,99
598,252	22,36
598,448	-20,65
598,645	20,31
598,841	81,75
599,038	1,88
599,234	12,12
599,431	-20,65
599,627	36,69
599,824	20,31
600,02	-18,6
600,217	-8,36
600,413	-10,41
600,609	55,12
600,806	-16,55
601,002	-41,13
601,198	32,6
601,395	28,5
601,591	3,93
601,787	14,17
601,984	-12,46
602,18	-47,27
602,376	77,65
602,572	-34,99
602,769	40,79
602,965	-49,32
603,161	-14,51
603,357	42,84
603,553	-10,41
603,75	67,41
603,946	-43,18
604,142	-18,6
604,338	81,75
604,534	28,5
604,73	1,88
604,926	-6,31
605,122	22,36
605,318	-14,51
605,514	-59,56
605,71	40,79
605,906	10,07
606,102	20,31
606,298	1,88
606,494	-10,41
606,69	-10,41
606,886	38,74
607,082	79,7
607,278	-4,27
607,474	12,12
607,67	-8,36
607,866	-34,99
608,062	-12,46
608,257	73,56
608,453	-2,22
608,649	-12,46
608,845	3,93
609,041	40,79
609,236	-8,36
609,432	-20,65
609,628	91,99
609,824	-4,27
610,019	22,36
610,215	44,88
610,411	-6,31
610,606	30,55
610,802	-32,94
610,998	-61,61
611,193	44,88
611,389	-18,6
611,584	20,31
611,78	48,98
611,976	30,55
612,171	46,93
612,367	-26,79
612,562	28,5
612,758	38,74
612,953	32,6
613,149	69,46
613,344	79,7
613,539	20,31
613,735	1,88
613,93	36,69
614,126	20,31
614,321	-32,94
614,517	30,55
614,712	-26,79
614,907	48,98
615,103	55,12
615,298	61,27
615,493	14,17
615,688	48,98
615,884	-88,23
616,079	55,12
616,274	-20,65
616,47	57,17
616,665	-4,27
616,86	26,45
617,055	-12,46
617,25	34,64
617,445	-10,41
617,641	24,4
617,836	-24,75
618,031	63,32
618,226	57,17
618,421	-55,47
618,616	34,64
618,811	-12,46
619,006	85,84
619,201	87,89
619,396	-10,41
619,591	5,97
619,786	38,74
619,981	-39,08
620,176	36,69
620,371	-67,75
620,566	-18,6
620,761	8,02
620,956	-67,75
621,151	24,4
621,346	-6,31
621,541	12,12
621,735	40,79
621,93	38,74
622,125	10,07
622,32	61,27
622,515	-37,03
622,709	26,45
622,904	-96,43
623,099	26,45
623,294	-43,18
623,488	22,36
623,683	5,97
623,878	3,93
624,072	24,4
624,267	77,65
624,462	-8,36
624,656	-10,41
624,851	-10,41
625,046	36,69
625,24	32,6
625,435	63,32
625,629	53,08
625,824	38,74
626,018	63,32
626,213	57,17
626,407	-2,22
626,602	-6,31
626,796	-53,42
626,991	36,69
627,185	28,5
627,38	14,17
627,574	12,12
627,768	53,08
627,963	38,74
628,157	65,36
628,352	26,45
628,546	28,5
628,74	-30,89
628,935	57,17
629,129	5,97
629,323	10,07
629,517	-0,17
629,712	71,51
629,906	-12,46
630,1	36,69
630,294	46,93
630,489	40,79
630,683	-16,55
630,877	48,98
631,071	91,99
631,265	-2,22
631,459	112,47
631,653	-2,22
631,848	63,32
632,042	28,5
632,236	5,97
632,43	-20,65
632,624	16,21
632,818	-30,89
633,012	1,88
633,206	-12,46
633,4	-61,61
633,594	-0,17
633,788	1,88
633,982	-0,17
634,176	36,69
634,369	-12,46
634,563	36,69
634,757	14,17
634,951	-4,27
635,145	-0,17
635,339	-8,36
635,533	-2,22
635,726	-12,46
635,92	12,12
636,114	30,55
636,308	8,02
636,501	8,02
636,695	-2,22
636,889	46,93
637,083	-8,36
637,276	-4,27
637,47	46,93
637,664	-26,79
637,857	8,02
638,051	30,55
638,244	-2,22
638,438	-8,36
638,632	57,17
638,825	-6,31
639,019	34,64
639,212	14,17
639,406	-45,23
639,599	46,93
639,793	16,21
639,986	57,17
640,18	3,93
640,373	-59,56
640,567	14,17
640,76	48,98
640,954	18,26
641,147	10,07
641,34	-12,46
641,534	3,93
641,727	-0,17
641,92	12,12
642,114	87,89
642,307	44,88
642,5	-18,6
642,694	53,08
642,887	18,26
643,08	-28,84
643,273	-2,22
643,467	40,79
643,66	-28,84
643,853	59,22
644,046	-0,17
644,239	40,79
644,432	-20,65
644,626	14,17
644,819	-10,41
645,012	20,31
645,205	26,45
645,398	61,27
645,591	-73,9
645,784	-10,41
645,977	34,64
646,17	-12,46
646,363	18,26
646,556	53,08
646,749	-30,89
646,942	-28,84
647,135	-28,84
647,328	-18,6
647,521	16,21
647,714	5,97
647,907	-8,36
648,099	3,93
648,292	89,94
648,485	-67,75
648,678	36,69
648,871	-88,23
649,064	98,13
649,256	26,45
649,449	-41,13
649,642	48,98
649,835	24,4
650,027	5,97
650,22	-8,36
650,413	44,88
650,605	36,69
650,798	12,12
650,991	30,55
651,183	38,74
651,376	104,28
651,568	-18,6
651,761	65,36
651,954	30,55
652,146	1,88
652,339	73,56
652,531	28,5
652,724	-32,94
652,916	-20,65
653,109	-22,7
653,301	32,6
653,494	46,93
653,686	-43,18
653,879	-16,55
654,071	-8,36
654,263	57,17
654,456	42,84
654,648	8,02
654,84	12,12
655,033	-49,32
655,225	20,31
655,417	-12,46
655,61	71,51
655,802	16,21
655,994	-24,75
656,186	51,03
656,379	-18,6
656,571	44,88
656,763	73,56
656,955	22,36
657,148	55,12
657,34	20,31
657,532	30,55
657,724	30,55
657,916	20,31
658,108	3,93
658,3	61,27
658,492	12,12
658,684	-20,65
658,876	-6,31
659,068	20,31
659,26	-32,94
659,452	-41,13
659,644	-28,84
659,836	63,32
660,028	-53,42
660,22	61,27
660,412	-8,36
660,604	20,31
660,796	-18,6
660,988	-37,03
661,18	20,31
661,372	81,75
661,563	-34,99
661,755	30,55
661,947	20,31
662,139	-20,65
662,331	44,88
662,522	8,02
662,714	89,94
662,906	46,93
663,097	20,31
663,289	46,93
663,481	-14,51
663,673	128,85
663,864	22,36
664,056	20,31
664,247	-2,22
664,439	3,93
664,631	26,45
664,822	-2,22
665,014	-24,75
665,205	55,12
665,397	-12,46
665,588	8,02
665,78	-0,17
665,971	1,88
666,163	20,31
666,354	5,97
666,546	12,12
666,737	-4,27
666,929	12,12
667,12	61,27
667,311	24,4
667,503	34,64
667,694	30,55
667,885	51,03
668,077	38,74
668,268	32,6
668,459	-10,41
668,651	-37,03
668,842	34,64
669,033	53,08
669,224	-28,84
669,416	-10,41
669,607	-14,51
669,798	24,4
669,989	71,51
670,18	-26,79
670,371	-12,46
670,563	-16,55
670,754	8,02
670,945	89,94
671,136	-12,46
671,327	18,26
671,518	-6,31
671,709	8,02
671,9	-24,75
672,091	-6,31
672,282	24,4
672,473	63,32
672,664	38,74
672,855	-12,46
673,046	22,36
673,237	12,12
673,428	12,12
673,619	18,26
673,809	46,93
674	38,74
674,191	12,12
674,382	20,31
674,573	-18,6
674,764	46,93
674,954	16,21
675,145	46,93
675,336	28,5
675,527	1,88
675,717	5,97
675,908	5,97
676,099	-30,89
676,289	18,26
676,48	30,55
676,671	65,36
676,861	-51,37
677,052	16,21
677,243	12,12
677,433	57,17
677,624	-12,46
677,814	69,46
678,005	26,45
678,195	-28,84
678,386	-41,13
678,576	36,69
678,767	-61,61
678,957	18,26
679,148	40,79
679,338	-2,22
679,529	24,4
679,719	28,5
679,909	28,5
680,1	34,64
680,29	-0,17
680,481	36,69
680,671	18,26
680,861	65,36
681,052	55,12
681,242	30,55
681,432	44,88
681,622	36,69
681,813	12,12
682,003	30,55
682,193	26,45
682,383	77,65
682,573	30,55
682,764	-8,36
682,954	44,88
683,144	59,22
683,334	-24,75
683,524	3,93
683,714	53,08
683,904	20,31
684,094	71,51
684,284	-34,99
684,474	38,74
684,664	28,5
684,854	22,36
685,044	-26,79
685,234	12,12
685,424	38,74
685,614	57,17
685,804	-18,6
685,994	28,5
686,184	57,17
686,374	53,08
686,564	51,03
686,753	-34,99
686,943	24,4
687,133	55,12
687,323	89,94
687,513	-61,61
687,702	26,45
687,892	-67,75
688,082	-20,65
688,272	-18,6
688,461	24,4
688,651	-2,22
688,841	-28,84
689,03	-2,22
689,22	-30,89
689,41	-8,36
689,599	44,88
689,789	-14,51
689,979	1,88
690,168	51,03
690,358	-26,79
690,547	81,75
690,737	36,69
690,926	-12,46
691,116	63,32
691,305	12,12
691,495	55,12
691,684	-2,22
691,874	65,36
692,063	12,12
692,252	94,04
692,442	-37,03
692,631	-26,79
692,82	59,22
693,01	3,93
693,199	-18,6
693,388	5,97
693,578	-12,46
693,767	36,69
693,956	30,55
694,146	-32,94
694,335	18,26
694,524	-26,79
694,713	-10,41
694,902	87,89
695,092	-18,6
695,281	77,65
695,47	14,17
695,659	1,88
695,848	-8,36
696,037	-14,51
696,226	36,69
696,415	57,17
696,604	-102,57
696,793	42,84
696,982	5,97
697,171	36,69
697,36	-28,84
697,549	48,98
697,738	22,36
697,927	-45,23
698,116	30,55
698,305	-4,27
698,494	67,41
698,683	61,27
698,872	18,26
699,061	16,21
699,25	36,69
699,438	-61,61
699,627	26,45
699,816	3,93
700,005	18,26
700,193	-0,17
700,382	-59,56
700,571	3,93
700,76	36,69
700,948	28,5
701,137	8,02
701,326	36,69
701,514	-6,31
701,703	10,07
701,892	46,93
702,08	48,98
702,269	-4,27
702,457	3,93
702,646	-39,08
702,834	-4,27
703,023	-8,36
703,212	36,69
703,4	-39,08
703,589	44,88
703,777	26,45
703,965	8,02
704,154	30,55
704,342	30,55
704,531	12,12
704,719	8,02
704,907	12,12
705,096	-26,79
705,284	-6,31
705,472	28,5
705,661	36,69
705,849	38,74
706,037	18,26
706,226	-2,22
706,414	-14,51
706,602	36,69
706,79	12,12
706,979	-24,75
707,167	36,69
707,355	-4,27
707,543	40,79
707,731	24,4
707,919	-4,27
708,107	-0,17
708,296	-2,22
708,484	53,08
708,672	5,97
708,86	18,26
709,048	8,02
709,236	-22,7
709,424	-6,31
709,612	-24,75
709,8	12,12
709,988	22,36
710,176	16,21
710,364	3,93
710,551	71,51
710,739	-20,65
710,927	1,88
711,115	-22,7
711,303	1,88
711,491	69,46
711,679	12,12
711,866	-4,27
712,054	71,51
712,242	-4,27
712,43	-8,36
712,617	-32,94
712,805	-22,7
712,993	81,75
713,181	-0,17
713,368	-10,41
713,556	-2,22
713,744	-2,22
713,931	-45,23
714,119	-8,36
714,306	-4,27
714,494	-43,18
714,682	36,69
714,869	20,31
715,057	-34,99
715,244	-12,46
715,432	69,46
715,619	36,69
715,807	-20,65
715,994	-8,36
716,182	55,12
716,369	-24,75
716,556	53,08
716,744	16,21
716,931	38,74
717,119	89,94
717,306	5,97
717,493	28,5
717,681	22,36
717,868	22,36
718,055	5,97
718,242	53,08
718,43	20,31
718,617	26,45
718,804	-6,31
718,991	96,08
719,179	20,31
719,366	40,79
719,553	10,07
719,74	-41,13
719,927	12,12
720,114	30,55
720,301	3,93
720,488	32,6
720,676	5,97
720,863	63,32
721,05	8,02
721,237	51,03
721,424	-12,46
721,611	36,69
721,798	-26,79
721,985	20,31
722,172	3,93
722,358	20,31
722,545	26,45
722,732	51,03
722,919	8,02
723,106	16,21
723,293	53,08
723,48	-12,46
723,667	-2,22
723,853	44,88
724,04	8,02
724,227	53,08
724,414	71,51
724,6	24,4
724,787	-59,56
724,974	-59,56
725,161	-0,17
725,347	55,12
725,534	85,84
725,72	-98,47
725,907	26,45
726,094	67,41
726,28	12,12
726,467	14,17
726,653	-61,61
726,84	-69,8
727,027	-10,41
727,213	-24,75
727,4	1,88
727,586	44,88
727,773	48,98
727,959	3,93
728,145	-55,47
728,332	28,5
728,518	-28,84
728,705	102,23
728,891	-8,36
729,077	12,12
729,264	-102,57
729,45	34,64
729,636	38,74
729,823	-32,94
730,009	32,6
730,195	30,55
730,382	14,17
730,568	30,55
730,754	-0,17
730,94	22,36
731,126	-12,46
731,313	77,65
731,499	-6,31
731,685	-45,23
731,871	-22,7
732,057	85,84
732,243	55,12
732,429	-0,17
732,615	3,93
732,801	-16,55
732,987	-20,65
733,173	89,94
733,359	12,12
733,545	-53,42
733,731	32,6
733,917	-22,7
734,103	-0,17
734,289	38,74
734,475	48,98
734,661	30,55
734,847	46,93
735,033	38,74
735,219	14,17
735,404	28,5
735,59	-24,75
735,776	85,84
735,962	8,02
736,148	14,17
736,333	20,31
736,519	55,12
736,705	28,5
736,89	57,17
737,076	-30,89
737,262	8,02
737,447	42,84
737,633	44,88
737,819	5,97
738,004	75,6
738,19	-8,36
738,375	48,98
738,561	-12,46
738,747	34,64
738,932	42,84
739,118	16,21
739,303	-30,89
739,489	-18,6
739,674	-16,55
739,859	30,55
740,045	32,6
740,23	34,64
740,416	22,36
740,601	73,56
740,786	51,03
740,972	53,08
741,157	-32,94
741,342	5,97
741,528	12,12
741,713	-6,31
741,898	-10,41
742,084	3,93
742,269	8,02
742,454	20,31
742,639	24,4
742,824	16,21
743,01	30,55
743,195	-12,46
743,38	12,12
743,565	98,13
743,75	40,79
743,935	61,27
744,12	-53,42
744,305	18,26
744,49	8,02
744,675	79,7
744,86	-30,89
745,045	-53,42
745,23	42,84
745,415	-39,08
745,6	3,93
745,785	8,02
745,97	30,55
746,155	3,93
746,34	-4,27
746,525	-57,51
746,71	3,93
746,895	38,74
747,079	8,02
747,264	53,08
747,449	28,5
747,634	20,31
747,819	-8,36
748,003	22,36
748,188	-2,22
748,373	3,93
748,557	-20,65
748,742	-8,36
748,927	-75,95
749,111	-65,71
749,296	24,4
749,481	-18,6
749,665	3,93
749,85	5,97
750,034	22,36
750,219	75,6
750,404	46,93
750,588	36,69
750,773	14,17
750,957	-0,17
751,141	77,65
751,326	59,22
751,51	-16,55
751,695	16,21
751,879	3,93
752,064	32,6
752,248	-12,46
752,432	36,69
752,617	-8,36
752,801	51,03
752,985	77,65
753,17	5,97
753,354	-4,27
753,538	44,88
753,722	-82,09
753,907	-37,03
754,091	30,55
754,275	38,74
754,459	34,64
754,643	30,55
754,828	53,08
755,012	34,64
755,196	28,5
755,38	36,69
755,564	57,17
755,748	18,26
755,932	10,07
756,116	38,74
756,3	18,26
756,484	-0,17
756,668	22,36
756,852	-26,79
757,036	3,93
757,22	89,94
757,404	1,88
757,588	-26,79
757,772	-20,65
757,956	24,4
758,14	-82,09
758,323	38,74
758,507	53,08
758,691	36,69
758,875	-8,36
759,059	-20,65
759,242	26,45
759,426	26,45
759,61	-2,22
759,794	53,08
759,977	-16,55
760,161	87,89
760,345	24,4
760,528	8,02
760,712	-4,27
760,895	20,31
761,079	28,5
761,263	3,93
761,446	-18,6
761,63	5,97
761,813	22,36
761,997	-26,79
762,18	36,69
762,364	-24,75
762,547	85,84
762,731	-51,37
762,914	20,31
763,098	26,45
763,281	-22,7
763,464	16,21
763,648	26,45
763,831	-41,13
764,015	-47,27
764,198	-24,75
764,381	-22,7
764,564	94,04
764,748	10,07
764,931	-45,23
765,114	28,5
765,297	-18,6
765,481	36,69
765,664	32,6
765,847	-26,79
766,03	-14,51
766,213	5,97
766,397	-2,22
766,58	14,17
766,763	79,7
766,946	-20,65
767,129	-49,32
767,312	36,69
767,495	26,45
767,678	-12,46
767,861	-18,6
768,044	-4,27
768,227	30,55
768,41	42,84
768,593	8,02
768,776	44,88
768,959	-28,84
769,142	-12,46
769,324	1,88
769,507	24,4
769,69	42,84
769,873	28,5
770,056	55,12
770,239	-30,89
770,421	-18,6
770,604	-28,84
770,787	46,93
770,97	26,45
771,152	85,84
771,335	61,27
771,518	16,21
771,7	65,36
771,883	61,27
772,066	-4,27
772,248	24,4
772,431	-12,46
772,613	48,98
772,796	22,36
772,978	36,69
773,161	-63,66
773,343	-2,22
773,526	-47,27
773,708	-12,46
773,891	16,21
774,073	69,46
774,256	36,69
774,438	20,31
774,621	59,22
774,803	20,31
774,985	-12,46
775,168	10,07
775,35	8,02
775,532	36,69
775,715	-55,47
775,897	46,93
776,079	16,21
776,261	98,13
776,444	-4,27
776,626	38,74
776,808	36,69
776,99	-22,7
777,173	-6,31
777,355	79,7
777,537	48,98
777,719	38,74
777,901	-41,13
778,083	-41,13
778,265	5,97
778,447	59,22
778,629	48,98
778,811	20,31
778,993	30,55
779,175	38,74
779,357	8,02
779,539	8,02
779,721	12,12
779,903	-28,84
780,085	-18,6
780,267	14,17
780,449	85,84
780,631	-2,22
780,812	24,4
780,994	-45,23
781,176	28,5
781,358	-34,99
781,54	12,12
781,721	-6,31
781,903	-26,79
782,085	26,45
782,267	94,04
782,448	36,69
782,63	-34,99
782,812	110,42
782,993	20,31
783,175	20,31
783,357	-49,32
783,538	126,8
783,72	-37,03
783,901	-41,13
784,083	3,93
784,264	-37,03
784,446	63,32
784,627	-22,7
784,809	16,21
784,99	-0,17
785,172	79,7
785,353	8,02
785,535	53,08
785,716	24,4
785,897	28,5
786,079	48,98
786,26	69,46
786,441	12,12
786,623	28,5
786,804	120,66
786,985	53,08
787,167	71,51
787,348	-2,22
787,529	-26,79
787,71	38,74
787,891	8,02
788,073	3,93
788,254	5,97
788,435	44,88
788,616	42,84
788,797	-53,42
788,978	16,21
789,159	10,07
789,34	46,93
789,522	28,5
789,703	-10,41
789,884	-6,31
790,065	-12,46
790,246	20,31
790,427	10,07
790,607	100,18
790,788	-34,99
790,969	18,26
791,15	63,32
791,331	65,36
791,512	55,12
791,693	1,88
791,874	24,4
792,054	-4,27
792,235	-12,46
792,416	48,98
792,597	53,08
792,778	61,27
792,958	24,4
793,139	-32,94
793,32	79,7
793,5	8,02
793,681	8,02
793,862	63,32
794,042	32,6
794,223	36,69
794,404	3,93
794,584	-28,84
794,765	5,97
794,945	3,93
795,126	61,27
795,306	38,74
795,487	38,74
795,667	10,07
795,848	5,97
796,028	-20,65
796,209	14,17
796,389	-0,17
796,57	-10,41
796,75	-0,17
796,93	77,65
797,111	20,31
797,291	20,31
797,471	75,6
797,652	32,6
797,832	-37,03
798,012	20,31
798,192	22,36
798,373	-2,22
798,553	-32,94
798,733	-20,65
798,913	10,07
799,093	-20,65
799,274	28,5
799,454	-4,27
799,634	16,21
799,814	57,17
799,994	61,27
800,174	-0,17
800,354	81,75
800,534	61,27
800,714	-41,13
800,894	77,65
801,074	-24,75
801,254	12,12
801,434	-2,22
801,614	14,17
801,794	3,93
801,974	48,98
802,154	-12,46
802,334	83,8
802,514	-30,89
802,693	24,4
802,873	30,55
803,053	3,93
803,233	51,03
803,413	-18,6
803,592	32,6
803,772	-14,51
803,952	16,21
804,131	-20,65
804,311	-14,51
804,491	5,97
804,67	14,17
804,85	65,36
805,03	3,93
805,209	-0,17
805,389	1,88
805,568	-2,22
805,748	10,07
805,928	48,98
806,107	1,88
806,287	36,69
806,466	77,65
806,646	20,31
806,825	-51,37
807,004	71,51
807,184	-24,75
807,363	14,17
807,543	-6,31
807,722	-43,18
807,901	-28,84
808,081	32,6
808,26	65,36
808,439	44,88
808,619	1,88
808,798	-18,6
808,977	98,13
809,156	16,21
809,336	28,5
809,515	46,93
809,694	69,46
809,873	-34,99
810,052	-18,6
810,231	26,45
810,411	-2,22
810,59	-16,55
810,769	10,07
810,948	100,18
811,127	-67,75
811,306	-57,51
811,485	10,07
811,664	12,12
811,843	-53,42
812,022	-16,55
812,201	14,17
812,38	8,02
812,559	30,55
812,737	-6,31
812,916	81,75
813,095	-16,55
813,274	10,07
813,453	18,26
813,632	57,17
813,811	28,5
813,989	-65,71
814,168	51,03
814,347	14,17
814,526	20,31
814,704	-8,36
814,883	-18,6
815,062	28,5
815,24	-4,27
815,419	8,02
815,598	46,93
815,776	28,5
815,955	40,79
816,133	-26,79
816,312	53,08
816,49	1,88
816,669	44,88
816,847	22,36
817,026	-65,71
817,204	8,02
817,383	-0,17
817,561	-8,36
817,74	28,5
817,918	-12,46
818,097	-0,17
818,275	20,31
818,453	-4,27
818,632	-6,31
818,81	20,31
818,988	-6,31
819,167	14,17
819,345	28,5
819,523	14,17
819,701	-26,79
819,879	-28,84
820,058	73,56
820,236	12,12
820,414	61,27
820,592	-51,37
820,77	28,5
820,948	-73,9
821,127	65,36
821,305	69,46
821,483	14,17
821,661	-8,36
821,839	-59,56
822,017	5,97
822,195	16,21
822,373	85,84
822,551	-18,6
822,729	40,79
822,907	28,5
823,085	-39,08
823,262	-6,31
823,44	40,79
823,618	-12,46
823,796	40,79
823,974	10,07
824,152	71,51
824,329	-16,55
824,507	-69,8
824,685	-12,46
824,863	77,65
825,04	14,17
825,218	-34,99
825,396	63,32
825,574	24,4
825,751	5,97
825,929	24,4
826,107	-30,89
826,284	5,97
826,462	36,69
826,639	-28,84
826,817	-30,89
826,994	-4,27
827,172	-2,22
827,349	118,61
827,527	73,56
827,704	71,51
827,882	10,07
828,059	-4,27
828,237	51,03
828,414	24,4
828,591	36,69
828,769	-14,51
828,946	14,17
829,124	53,08
829,301	61,27
829,478	-22,7
829,655	24,4
829,833	20,31
830,01	-24,75
830,187	40,79
830,364	-10,41
830,542	-24,75
830,719	20,31
830,896	-0,17
831,073	-22,7
831,25	10,07
831,427	-10,41
831,604	14,17
831,782	-22,7
831,959	3,93
832,136	79,7
832,313	8,02
832,49	-20,65
832,667	20,31
832,844	40,79
833,021	-12,46
833,198	22,36
833,374	69,46
833,551	8,02
833,728	28,5
833,905	-26,79
834,082	20,31
834,259	34,64
834,436	5,97
834,612	63,32
834,789	16,21
834,966	-34,99
835,143	32,6
835,319	-8,36
835,496	32,6
835,673	69,46
835,85	135
836,026	-45,23
836,203	57,17
836,38	-4,27
836,556	-2,22
836,733	-57,51
836,909	44,88
837,086	65,36
837,262	44,88
837,439	-34,99
837,616	36,69
837,792	-0,17
837,968	-26,79
838,145	-8,36
838,321	-20,65
838,498	-10,41
838,674	12,12
838,851	-51,37
839,027	36,69
839,203	14,17
839,38	5,97
839,556	-14,51
839,732	-47,27
839,909	-20,65
840,085	1,88
840,261	-34,99
840,437	44,88
840,614	8,02
840,79	12,12
840,966	18,26
841,142	-18,6
841,318	51,03
841,494	69,46
841,671	-57,51
841,847	-26,79
842,023	-14,51
842,199	42,84
842,375	-39,08
842,551	44,88
842,727	24,4
842,903	77,65
843,079	36,69
843,255	53,08
843,431	40,79
843,607	75,6
843,783	-61,61
843,959	-26,79
844,134	18,26
844,31	-80,04
844,486	-71,85
844,662	-12,46
844,838	-6,31
845,013	81,75
845,189	22,36
845,365	-77,99
845,541	89,94
845,716	14,17
845,892	67,41
846,068	-20,65
846,244	-53,42
846,419	-28,84
846,595	53,08
846,77	-8,36
846,946	108,37
847,122	-22,7
847,297	51,03
847,473	14,17
847,648	94,04
847,824	-12,46
847,999	44,88
848,175	42,84
848,35	63,32
848,526	53,08
848,701	5,97
848,876	-24,75
849,052	-14,51
849,227	-37,03
849,403	24,4
849,578	18,26
849,753	44,88
849,929	-69,8
850,104	34,64
850,279	61,27
850,454	3,93
850,63	51,03
850,805	14,17
850,98	28,5
851,155	46,93
851,33	5,97
851,505	-16,55
851,681	16,21
851,856	-34,99
852,031	10,07
852,206	-45,23
852,381	55,12
852,556	-10,41
852,731	-18,6
852,906	-39,08
853,081	77,65
853,256	-43,18
853,431	53,08
853,606	20,31
853,781	20,31
853,956	12,12
854,131	5,97
854,305	32,6
854,48	-28,84
854,655	40,79
854,83	46,93
855,005	40,79
855,18	-2,22
855,354	-4,27
855,529	18,26
855,704	-45,23
855,879	28,5
856,053	20,31
856,228	-20,65
856,403	-32,94
856,577	5,97
856,752	28,5
856,926	28,5
857,101	20,31
857,276	61,27
857,45	14,17
857,625	14,17
857,799	18,26
857,974	-49,32
858,148	-73,9
858,323	5,97
858,497	10,07
858,672	110,42
858,846	18,26
859,02	5,97
859,195	42,84
859,369	34,64
859,543	-67,75
859,718	20,31
859,892	53,08
860,066	28,5
860,241	61,27
860,415	22,36
860,589	20,31
860,763	55,12
860,938	28,5
861,112	22,36
861,286	-0,17
861,46	5,97
861,634	69,46
861,808	-12,46
861,982	-30,89
862,157	55,12
862,331	22,36
862,505	3,93
862,679	-49,32
862,853	77,65
863,027	22,36
863,201	40,79
863,375	44,88
863,549	102,23
863,722	3,93
863,896	63,32
864,07	-43,18
864,244	12,12
864,418	36,69
864,592	-2,22
864,766	67,41
864,939	-12,46
865,113	40,79
865,287	-18,6
865,461	-2,22
865,634	44,88
865,808	12,12
865,982	-6,31
866,156	-0,17
866,329	51,03
866,503	16,21
866,676	8,02
866,85	-18,6
867,024	32,6
867,197	65,36
867,371	94,04
867,544	-18,6
867,718	-4,27
867,891	-2,22
868,065	28,5
868,238	3,93
868,412	61,27
868,585	-4,27
868,759	73,56
868,932	18,26
869,105	46,93
869,279	-55,47
869,452	8,02
869,625	18,26
869,799	10,07
869,972	-14,51
870,145	40,79
870,319	-16,55
870,492	12,12
870,665	22,36
870,838	-10,41
871,011	38,74
871,185	3,93
871,358	26,45
871,531	63,32
871,704	40,79
871,877	42,84
872,05	83,8
872,223	5,97
872,396	46,93
872,569	44,88
872,742	63,32
872,915	-2,22
873,088	46,93
873,261	-32,94
873,434	71,51
873,607	73,56
873,78	-16,55
873,953	61,27
874,126	12,12
874,299	30,55
874,471	-2,22
874,644	57,17
874,817	-39,08
874,99	24,4
875,163	30,55
875,335	-53,42
875,508	5,97
875,681	14,17
875,853	-8,36
876,026	-20,65
876,199	-37,03
876,371	-47,27
876,544	-61,61
876,717	75,6
876,889	-43,18
877,062	3,93
877,234	8,02
877,407	14,17
877,579	-34,99
877,752	-69,8
877,924	3,93
878,097	-32,94
878,269	20,31
878,442	61,27
878,614	-75,95
878,786	53,08
878,959	-6,31
879,131	-4,27
879,303	8,02
879,476	40,79
879,648	8,02
879,82	12,12
879,993	-6,31
880,165	53,08
880,337	12,12
880,509	12,12
880,681	-2,22
880,854	30,55
881,026	30,55
881,198	53,08
881,37	28,5
881,542	-26,79
881,714	5,97
881,886	77,65
882,058	-51,37
882,23	44,88
882,402	-4,27
882,574	16,21
882,746	3,93
882,918	-12,46
883,09	-20,65
883,262	-18,6
883,434	-65,71
883,606	-57,51
883,778	-14,51
883,95	-24,75
884,122	-16,55
884,293	20,31
884,465	-16,55
884,637	67,41
884,809	28,5
884,98	61,27
885,152	-2,22
885,324	5,97
885,496	44,88
885,667	40,79
885,839	32,6
886,011	22,36
886,182	26,45
886,354	10,07
886,525	-26,79
886,697	28,5
886,869	77,65
887,04	8,02
887,212	-28,84
887,383	36,69
887,555	-24,75
887,726	-4,27
887,897	-18,6
888,069	16,21
888,24	-12,46
888,412	44,88
888,583	-12,46
888,754	-16,55
888,926	61,27
889,097	-4,27
889,268	57,17
889,44	-2,22
889,611	1,88
889,782	46,93
889,953	34,64
890,125	63,32
890,296	46,93
890,467	-18,6
890,638	28,5
890,809	22,36
890,98	36,69
891,151	28,5
891,323	-32,94
891,494	-6,31
891,665	10,07
891,836	-28,84
892,007	-37,03
892,178	-8,36
892,349	-8,36
892,52	22,36
892,691	24,4
892,862	14,17
893,032	-34,99
893,203	28,5
893,374	16,21
893,545	3,93
893,716	18,26
893,887	20,31
894,057	-28,84
894,228	18,26
894,399	16,21
894,57	20,31
894,74	18,26
894,911	26,45
895,082	8,02
895,253	-12,46
895,423	-4,27
895,594	-69,8
895,764	46,93
895,935	14,17
896,106	36,69
896,276	-12,46
896,447	30,55
896,617	40,79
896,788	5,97
896,958	12,12
897,129	-10,41
897,299	-53,42
897,47	30,55
897,64	-22,7
897,81	-8,36
897,981	75,6
898,151	34,64
898,322	36,69
898,492	-10,41
898,662	44,88
898,832	24,4
899,003	3,93
899,173	-47,27
899,343	-28,84
899,513	3,93
