Data from filtre 577_USB4F104151__0__12-00-10-642.txt Node

Date: Wed Apr 15 12:00:10 EDT 2026
User: LaboPhy
Spectrometer: USB4F10415
Trigger mode: 4
Integration Time (sec): 2,000000E-3
Scans to average: 1
Electric dark correction enabled: true
Nonlinearity correction enabled: false
Boxcar width: 0
XAxis mode: Wavelengths
Number of Pixels in Spectrum: 3648
>>>>>Begin Spectral Data<<<<<
178,204	-8,02
178,424	-8,02
178,644	-8,02
178,864	-71,51
179,084	-20,31
179,304	49,32
179,524	-20,31
179,744	2,22
179,964	57,51
180,184	34,99
180,404	-1,88
180,624	20,65
180,844	-28,5
181,064	-48,98
181,283	-48,98
181,503	-28,5
181,723	12,46
181,943	22,7
182,163	-14,17
182,383	-5,97
182,602	63,66
182,822	30,89
183,042	37,03
183,262	-12,12
183,482	0,17
183,701	8,36
183,921	-42,84
184,141	-1,88
184,361	0,17
184,58	-32,6
184,8	39,08
185,02	16,55
185,239	45,23
185,459	-38,74
185,679	53,42
185,898	28,84
186,118	16,55
186,338	-44,88
186,557	-8,02
186,777	8,36
186,997	0,17
187,216	51,37
187,436	-20,31
187,655	4,27
187,875	26,79
188,095	-48,98
188,314	-36,69
188,534	-46,93
188,753	32,94
188,973	-34,64
189,192	12,46
189,412	-42,84
189,631	32,94
189,851	-89,94
190,07	57,51
190,29	-12,12
190,509	0,17
190,729	65,71
190,948	6,31
191,168	12,46
191,387	20,65
191,607	8,36
191,826	-20,31
192,045	-14,17
192,265	-30,55
192,484	32,94
192,704	43,18
192,923	34,99
193,142	8,36
193,362	34,99
193,581	37,03
193,8	24,75
194,02	30,89
194,239	75,95
194,458	-61,27
194,678	49,32
194,897	0,17
195,116	-32,6
195,335	32,94
195,555	-8,02
195,774	-3,93
195,993	16,55
196,212	94,38
196,432	43,18
196,651	8,36
196,87	22,7
197,089	80,04
197,308	-55,12
197,528	45,23
197,747	-3,93
197,966	-3,93
198,185	-30,55
198,404	20,65
198,623	20,65
198,842	-20,31
199,062	-20,31
199,281	-14,17
199,5	-5,97
199,719	4,27
199,938	43,18
200,157	-40,79
200,376	-5,97
200,595	-8,02
200,814	16,55
201,033	-14,17
201,252	34,99
201,471	43,18
201,69	-16,21
201,909	20,65
202,128	67,75
202,347	8,36
202,566	-5,97
202,785	-57,17
203,004	-38,74
203,223	-22,36
203,442	-34,64
203,661	57,51
203,879	30,89
204,098	37,03
204,317	32,94
204,536	8,36
204,755	-40,79
204,974	6,31
205,193	86,19
205,411	2,22
205,63	-12,12
205,849	75,95
206,068	4,27
206,287	-8,02
206,505	-10,07
206,724	90,28
206,943	4,27
207,162	4,27
207,381	55,47
207,599	0,17
207,818	-22,36
208,037	49,32
208,255	16,55
208,474	-8,02
208,693	45,23
208,911	55,47
209,13	-3,93
209,349	10,41
209,567	-34,64
209,786	41,13
210,005	20,65
210,223	-5,97
210,442	30,89
210,661	18,6
210,879	-12,12
211,098	-5,97
211,316	51,37
211,535	16,55
211,753	18,6
211,972	-3,93
212,191	4,27
212,409	-18,26
212,628	-5,97
212,846	24,75
213,065	59,56
213,283	16,55
213,502	-32,6
213,72	-24,4
213,938	-5,97
214,157	-8,02
214,375	-14,17
214,594	-22,36
214,812	-16,21
215,031	20,65
215,249	10,41
215,467	6,31
215,686	12,46
215,904	73,9
216,122	-28,5
216,341	16,55
216,559	-3,93
216,778	2,22
216,996	24,75
217,214	-20,31
217,432	-22,36
217,651	24,75
217,869	32,94
218,087	73,9
218,306	-48,98
218,524	-3,93
218,742	16,55
218,96	24,75
219,179	39,08
219,397	-8,02
219,615	73,9
219,833	-36,69
220,051	82,09
220,27	28,84
220,488	-40,79
220,706	47,27
220,924	4,27
221,142	-8,02
221,36	65,71
221,578	-16,21
221,796	20,65
222,015	18,6
222,233	18,6
222,451	51,37
222,669	-3,93
222,887	18,6
223,105	-8,02
223,323	-24,4
223,541	82,09
223,759	10,41
223,977	26,79
224,195	14,51
224,413	2,22
224,631	10,41
224,849	18,6
225,067	20,65
225,285	-14,17
225,503	45,23
225,721	-24,4
225,939	0,17
226,157	12,46
226,375	-16,21
226,592	14,51
226,81	-42,84
227,028	-16,21
227,246	0,17
227,464	-22,36
227,682	0,17
227,9	32,94
228,117	92,33
228,335	-8,02
228,553	57,51
228,771	41,13
228,989	-5,97
229,206	100,52
229,424	-5,97
229,642	14,51
229,86	20,65
230,077	10,41
230,295	-16,21
230,513	-3,93
230,731	51,37
230,948	-3,93
231,166	-14,17
231,384	32,94
231,601	-12,12
231,819	75,95
232,037	-5,97
232,254	18,6
232,472	16,55
232,689	-34,64
232,907	-16,21
233,125	-65,36
233,342	-8,02
233,56	-85,84
233,777	57,51
233,995	-36,69
234,213	6,31
234,43	0,17
234,648	32,94
234,865	-5,97
235,083	26,79
235,3	-32,6
235,518	34,99
235,735	-5,97
235,953	-63,32
236,17	59,56
236,388	41,13
236,605	45,23
236,822	28,84
237,04	45,23
237,257	32,94
237,475	20,65
237,692	-3,93
237,909	-12,12
238,127	63,66
238,344	-40,79
238,562	24,75
238,779	-3,93
238,996	32,94
239,214	-53,08
239,431	16,55
239,648	8,36
239,865	-38,74
240,083	0,17
240,3	0,17
240,517	-108,37
240,735	63,66
240,952	-10,07
241,169	-20,31
241,386	45,23
241,603	75,95
241,821	49,32
242,038	4,27
242,255	-8,02
242,472	22,7
242,689	-46,93
242,907	18,6
243,124	-77,65
243,341	32,94
243,558	16,55
243,775	102,57
243,992	45,23
244,209	26,79
244,426	22,7
244,643	24,75
244,86	-5,97
245,078	37,03
245,295	-16,21
245,512	-30,55
245,729	4,27
245,946	53,42
246,163	-44,88
246,38	10,41
246,597	20,65
246,814	-46,93
247,031	45,23
247,248	-24,4
247,464	28,84
247,681	22,7
247,898	57,51
248,115	14,51
248,332	-32,6
248,549	-1,88
248,766	43,18
248,983	0,17
249,2	-3,93
249,417	61,61
249,633	53,42
249,85	-16,21
250,067	2,22
250,284	-20,31
250,501	12,46
250,717	12,46
250,934	-32,6
251,151	16,55
251,368	16,55
251,585	6,31
251,801	-55,12
252,018	57,51
252,235	-65,36
252,451	34,99
252,668	12,46
252,885	20,65
253,102	10,41
253,318	63,66
253,535	-10,07
253,752	45,23
253,968	-38,74
254,185	-5,97
254,401	22,7
254,618	-10,07
254,835	-24,4
255,051	16,55
255,268	6,31
255,484	-8,02
255,701	-3,93
255,917	6,31
256,134	86,19
256,351	28,84
256,567	20,65
256,784	4,27
257	-44,88
257,217	-5,97
257,433	37,03
257,65	43,18
257,866	22,7
258,082	2,22
258,299	-12,12
258,515	-44,88
258,732	55,47
258,948	-18,26
259,165	-1,88
259,381	-28,5
259,597	-32,6
259,814	45,23
260,03	-30,55
260,246	-14,17
260,463	20,65
260,679	71,85
260,895	26,79
261,112	32,94
261,328	-16,21
261,544	47,27
261,761	37,03
261,977	43,18
262,193	-3,93
262,409	-14,17
262,626	-20,31
262,842	-44,88
263,058	-38,74
263,274	24,75
263,49	-8,02
263,707	65,71
263,923	71,85
264,139	-40,79
264,355	-3,93
264,571	147,62
264,787	-89,94
265,004	41,13
265,22	22,7
265,436	26,79
265,652	-63,32
265,868	37,03
266,084	75,95
266,3	34,99
266,516	-40,79
266,732	34,99
266,948	-22,36
267,164	10,41
267,38	0,17
267,596	49,32
267,812	-36,69
268,028	16,55
268,244	-14,17
268,46	-3,93
268,676	26,79
268,892	18,6
269,108	-61,27
269,324	-55,12
269,54	26,79
269,756	-110,42
269,972	-28,5
270,188	80,04
270,403	49,32
270,619	-10,07
270,835	43,18
271,051	37,03
271,267	28,84
271,483	-5,97
271,698	-12,12
271,914	10,41
272,13	20,65
272,346	-65,36
272,562	41,13
272,777	94,38
272,993	-16,21
273,209	-73,56
273,425	45,23
273,64	-38,74
273,856	-12,12
274,072	-51,03
274,287	32,94
274,503	-57,17
274,719	-16,21
274,934	12,46
275,15	34,99
275,366	71,85
275,581	-5,97
275,797	-5,97
276,012	16,55
276,228	-67,41
276,444	20,65
276,659	32,94
276,875	-22,36
277,09	26,79
277,306	26,79
277,521	12,46
277,737	49,32
277,952	-8,02
278,168	-40,79
278,383	-16,21
278,599	65,71
278,814	-3,93
279,03	-5,97
279,245	41,13
279,461	49,32
279,676	45,23
279,892	22,7
280,107	41,13
280,322	-48,98
280,538	-20,31
280,753	8,36
280,969	-32,6
281,184	-89,94
281,399	43,18
281,615	-12,12
281,83	39,08
282,045	-24,4
282,26	-3,93
282,476	8,36
282,691	32,94
282,906	-5,97
283,122	32,94
283,337	0,17
283,552	16,55
283,767	32,94
283,983	-30,55
284,198	22,7
284,413	-40,79
284,628	-22,36
284,843	-3,93
285,058	-32,6
285,274	16,55
285,489	-18,26
285,704	-24,4
285,919	-14,17
286,134	-22,36
286,349	24,75
286,564	8,36
286,779	12,46
286,995	18,6
287,21	34,99
287,425	-16,21
287,64	32,94
287,855	-14,17
288,07	-18,26
288,285	8,36
288,5	28,84
288,715	-16,21
288,93	-8,02
289,145	32,94
289,36	8,36
289,575	-22,36
289,79	67,75
290,004	-1,88
290,219	4,27
290,434	16,55
290,649	-32,6
290,864	65,71
291,079	-24,4
291,294	-8,02
291,509	18,6
291,724	-8,02
291,938	-34,64
292,153	39,08
292,368	57,51
292,583	-10,07
292,798	-40,79
293,012	-32,6
293,227	20,65
293,442	-3,93
293,657	-10,07
293,871	55,47
294,086	16,55
294,301	16,55
294,516	-5,97
294,73	8,36
294,945	-57,17
295,16	-48,98
295,374	59,56
295,589	-14,17
295,804	30,89
296,018	-28,5
296,233	-20,31
296,447	45,23
296,662	14,51
296,877	49,32
297,091	-22,36
297,306	43,18
297,52	-8,02
297,735	32,94
297,949	28,84
298,164	10,41
298,378	20,65
298,593	-28,5
298,807	-38,74
299,022	73,9
299,236	20,65
299,451	20,65
299,665	-26,45
299,88	28,84
300,094	47,27
300,309	-12,12
300,523	6,31
300,737	28,84
300,952	34,99
301,166	-32,6
301,381	-1,88
301,595	2,22
301,809	106,67
302,024	16,55
302,238	-44,88
302,452	8,36
302,667	34,99
302,881	28,84
303,095	-32,6
303,309	82,09
303,524	-44,88
303,738	-42,84
303,952	-10,07
304,166	-12,12
304,381	41,13
304,595	-12,12
304,809	0,17
305,023	61,61
305,237	-73,56
305,452	10,41
305,666	4,27
305,88	-5,97
306,094	-36,69
306,308	-10,07
306,522	10,41
306,736	67,75
306,95	2,22
307,164	73,9
307,379	6,31
307,593	-36,69
307,807	-18,26
308,021	-8,02
308,235	-59,22
308,449	59,56
308,663	12,46
308,877	59,56
309,091	-28,5
309,305	34,99
309,519	39,08
309,733	4,27
309,947	8,36
310,161	69,8
310,374	-32,6
310,588	28,84
310,802	-20,31
311,016	57,51
311,23	-14,17
311,444	10,41
311,658	-20,31
311,872	59,56
312,085	-71,51
312,299	-28,5
312,513	34,99
312,727	34,99
312,941	47,27
313,154	63,66
313,368	59,56
313,582	-32,6
313,796	16,55
314,009	12,46
314,223	4,27
314,437	26,79
314,651	45,23
314,864	22,7
315,078	26,79
315,292	24,75
315,505	2,22
315,719	6,31
315,933	6,31
316,146	-16,21
316,36	-22,36
316,573	39,08
316,787	16,55
317,001	-10,07
317,214	2,22
317,428	8,36
317,641	-22,36
317,855	6,31
318,068	28,84
318,282	-22,36
318,495	32,94
318,709	47,27
318,922	6,31
319,136	47,27
319,349	12,46
319,563	26,79
319,776	49,32
319,99	2,22
320,203	-81,75
320,417	53,42
320,63	41,13
320,843	-14,17
321,057	34,99
321,27	0,17
321,483	20,65
321,697	-32,6
321,91	16,55
322,124	24,75
322,337	-28,5
322,55	65,71
322,763	65,71
322,977	0,17
323,19	8,36
323,403	12,46
323,617	2,22
323,83	-38,74
324,043	59,56
324,256	-16,21
324,469	67,75
324,683	-20,31
324,896	-5,97
325,109	-8,02
325,322	-28,5
325,535	-40,79
325,748	6,31
325,962	4,27
326,175	-32,6
326,388	0,17
326,601	-10,07
326,814	-5,97
327,027	-3,93
327,24	75,95
327,453	-14,17
327,666	-10,07
327,879	28,84
328,092	43,18
328,305	-22,36
328,518	34,99
328,731	18,6
328,944	6,31
329,157	-3,93
329,37	-44,88
329,583	30,89
329,796	-48,98
330,009	53,42
330,222	84,14
330,435	-34,64
330,648	24,75
330,861	-30,55
331,073	-8,02
331,286	61,61
331,499	16,55
331,712	-30,55
331,925	28,84
332,138	102,57
332,35	10,41
332,563	20,65
332,776	0,17
332,989	-14,17
333,202	-22,36
333,414	49,32
333,627	51,37
333,84	-16,21
334,053	-32,6
334,265	22,7
334,478	-28,5
334,691	-16,21
334,903	6,31
335,116	0,17
335,329	-8,02
335,541	-18,26
335,754	-38,74
335,966	26,79
336,179	-24,4
336,392	6,31
336,604	10,41
336,817	-81,75
337,029	-12,12
337,242	-42,84
337,454	32,94
337,667	10,41
337,88	-20,31
338,092	2,22
338,305	-120,66
338,517	45,23
338,729	-22,36
338,942	-30,55
339,154	16,55
339,367	28,84
339,579	-71,51
339,792	-38,74
340,004	0,17
340,217	10,41
340,429	4,27
340,641	14,51
340,854	-32,6
341,066	-57,17
341,278	24,75
341,491	-28,5
341,703	-26,45
341,915	65,71
342,128	32,94
342,34	-30,55
342,552	0,17
342,764	26,79
342,977	8,36
343,189	28,84
343,401	0,17
343,613	-53,08
343,826	34,99
344,038	0,17
344,25	-10,07
344,462	18,6
344,674	-24,4
344,886	24,75
345,099	-63,32
345,311	65,71
345,523	-16,21
345,735	34,99
345,947	26,79
346,159	37,03
346,371	-89,94
346,583	16,55
346,795	82,09
347,007	16,55
347,219	10,41
347,431	18,6
347,643	-5,97
347,855	32,94
348,067	6,31
348,279	10,41
348,491	-14,17
348,703	47,27
348,915	53,42
349,127	39,08
349,339	4,27
349,551	73,9
349,763	10,41
349,975	37,03
350,187	8,36
350,399	10,41
350,61	34,99
350,822	-14,17
351,034	-12,12
351,246	-77,65
351,458	49,32
351,669	34,99
351,881	63,66
352,093	0,17
352,305	4,27
352,517	-1,88
352,728	-46,93
352,94	16,55
353,152	8,36
353,363	88,23
353,575	41,13
353,787	-71,51
353,999	-57,17
354,21	59,56
354,422	67,75
354,633	14,51
354,845	-26,45
355,057	-5,97
355,268	16,55
355,48	-10,07
355,692	24,75
355,903	-8,02
356,115	59,56
356,326	34,99
356,538	-3,93
356,749	43,18
356,961	34,99
357,172	43,18
357,384	26,79
357,595	41,13
357,807	-24,4
358,018	20,65
358,23	-18,26
358,441	-36,69
358,653	-44,88
358,864	0,17
359,075	0,17
359,287	-34,64
359,498	26,79
359,709	-20,31
359,921	-26,45
360,132	-8,02
360,344	-34,64
360,555	-30,55
360,766	-8,02
360,977	-8,02
361,189	57,51
361,4	-63,32
361,611	32,94
361,823	59,56
362,034	34,99
362,245	-30,55
362,456	65,71
362,667	-65,36
362,879	41,13
363,09	-3,93
363,301	41,13
363,512	53,42
363,723	53,42
363,935	-30,55
364,146	41,13
364,357	8,36
364,568	-3,93
364,779	8,36
364,99	-22,36
365,201	-26,45
365,412	-28,5
365,623	-12,12
365,834	-8,02
366,045	-61,27
366,256	-10,07
366,467	24,75
366,678	8,36
366,889	-61,27
367,1	-8,02
367,311	-8,02
367,522	73,9
367,733	6,31
367,944	45,23
368,155	57,51
368,366	65,71
368,577	-22,36
368,788	-3,93
368,999	-40,79
369,209	-61,27
369,42	-38,74
369,631	16,55
369,842	10,41
370,053	12,46
370,264	-5,97
370,474	32,94
370,685	-10,07
370,896	30,89
371,107	-24,4
371,317	55,47
371,528	-16,21
371,739	8,36
371,95	-16,21
372,16	-16,21
372,371	-30,55
372,582	-16,21
372,792	18,6
373,003	90,28
373,214	-3,93
373,424	2,22
373,635	-18,26
373,846	-22,36
374,056	24,75
374,267	2,22
374,477	0,17
374,688	24,75
374,898	-34,64
375,109	0,17
375,319	20,65
375,53	59,56
375,74	69,8
375,951	61,61
376,161	-46,93
376,372	-5,97
376,582	-20,31
376,793	-1,88
377,003	-3,93
377,214	-18,26
377,424	53,42
377,635	-38,74
377,845	-5,97
378,055	-36,69
378,266	-3,93
378,476	-5,97
378,686	-24,4
378,897	30,89
379,107	2,22
379,317	65,71
379,528	0,17
379,738	14,51
379,948	-32,6
380,158	30,89
380,369	65,71
380,579	51,37
380,789	28,84
380,999	-3,93
381,21	86,19
381,42	28,84
381,63	2,22
381,84	65,71
382,05	-46,93
382,261	106,67
382,471	53,42
382,681	-3,93
382,891	49,32
383,101	-32,6
383,311	32,94
383,521	51,37
383,731	-8,02
383,941	30,89
384,151	-65,36
384,361	32,94
384,571	-22,36
384,781	22,7
384,991	30,89
385,201	-14,17
385,411	32,94
385,621	-32,6
385,831	-34,64
386,041	18,6
386,251	-63,32
386,461	32,94
386,671	-22,36
386,881	-36,69
387,091	24,75
387,301	28,84
387,511	-26,45
387,72	41,13
387,93	22,7
388,14	0,17
388,35	-85,84
388,56	65,71
388,769	-3,93
388,979	26,79
389,189	-3,93
389,399	6,31
389,609	-40,79
389,818	12,46
390,028	28,84
390,238	-61,27
390,447	49,32
390,657	24,75
390,867	-40,79
391,076	-34,64
391,286	-14,17
391,496	-12,12
391,705	-30,55
391,915	41,13
392,125	-40,79
392,334	57,51
392,544	-16,21
392,753	-30,55
392,963	2,22
393,172	26,79
393,382	0,17
393,591	32,94
393,801	-8,02
394,01	-36,69
394,22	16,55
394,429	-34,64
394,639	-51,03
394,848	82,09
395,058	14,51
395,267	16,55
395,477	22,7
395,686	32,94
395,895	24,75
396,105	16,55
396,314	14,51
396,524	-16,21
396,733	-94,04
396,942	69,8
397,152	49,32
397,361	22,7
397,57	-5,97
397,78	-57,17
397,989	24,75
398,198	0,17
398,407	-16,21
398,617	-16,21
398,826	34,99
399,035	20,65
399,244	20,65
399,453	53,42
399,663	-40,79
399,872	55,47
400,081	-20,31
400,29	41,13
400,499	2,22
400,708	-8,02
400,917	-16,21
401,127	0,17
401,336	4,27
401,545	34,99
401,754	-24,4
401,963	10,41
402,172	63,66
402,381	12,46
402,59	-5,97
402,799	71,85
403,008	-32,6
403,217	-40,79
403,426	10,41
403,635	30,89
403,844	-12,12
404,053	30,89
404,262	10,41
404,471	65,71
404,68	-8,02
404,888	0,17
405,097	0,17
405,306	24,75
405,515	22,7
405,724	41,13
405,933	26,79
406,142	45,23
406,35	37,03
406,559	12,46
406,768	6,31
406,977	2,22
407,185	-22,36
407,394	51,37
407,603	-24,4
407,812	80,04
408,02	24,75
408,229	4,27
408,438	-8,02
408,646	-32,6
408,855	4,27
409,064	-12,12
409,272	2,22
409,481	47,27
409,69	-16,21
409,898	-36,69
410,107	-14,17
410,315	43,18
410,524	-14,17
410,733	-32,6
410,941	-44,88
411,15	59,56
411,358	-30,55
411,567	-26,45
411,775	-34,64
411,984	57,51
412,192	10,41
412,401	32,94
412,609	8,36
412,818	80,04
413,026	32,94
413,234	16,55
413,443	37,03
413,651	12,46
413,86	61,61
414,068	71,85
414,276	-5,97
414,485	20,65
414,693	2,22
414,901	-1,88
415,11	41,13
415,318	28,84
415,526	-46,93
415,734	10,41
415,943	-20,31
416,151	88,23
416,359	-1,88
416,567	0,17
416,776	-8,02
416,984	-44,88
417,192	-85,84
417,4	-46,93
417,608	18,6
417,817	-16,21
418,025	0,17
418,233	-36,69
418,441	-36,69
418,649	-46,93
418,857	20,65
419,065	-14,17
419,273	-16,21
419,481	30,89
419,689	-12,12
419,897	-5,97
420,105	-20,31
420,313	59,56
420,521	2,22
420,729	32,94
420,937	12,46
421,145	-40,79
421,353	-16,21
421,561	65,71
421,769	20,65
421,977	32,94
422,185	24,75
422,393	65,71
422,601	-5,97
422,809	41,13
423,017	16,55
423,224	32,94
423,432	-20,31
423,64	-12,12
423,848	-20,31
424,056	63,66
424,263	-5,97
424,471	22,7
424,679	24,75
424,887	2,22
425,094	14,51
425,302	41,13
425,51	32,94
425,718	-16,21
425,925	8,36
426,133	98,47
426,341	0,17
426,548	-40,79
426,756	0,17
426,964	41,13
427,171	-8,02
427,379	-8,02
427,586	-36,69
427,794	-24,4
428,001	57,51
428,209	24,75
428,417	-14,17
428,624	61,61
428,832	-59,22
429,039	63,66
429,247	-40,79
429,454	-40,79
429,662	-38,74
429,869	-32,6
430,076	49,32
430,284	8,36
430,491	-53,08
430,699	-81,75
430,906	41,13
431,114	16,55
431,321	6,31
431,528	26,79
431,736	34,99
431,943	43,18
432,15	43,18
432,358	37,03
432,565	45,23
432,772	49,32
432,979	10,41
433,187	-38,74
433,394	-24,4
433,601	-8,02
433,808	2,22
434,016	-24,4
434,223	-28,5
434,43	8,36
434,637	-44,88
434,844	0,17
435,052	34,99
435,259	53,42
435,466	18,6
435,673	12,46
435,88	12,46
436,087	-22,36
436,294	-53,08
436,501	-28,5
436,708	32,94
436,915	-5,97
437,122	22,7
437,329	34,99
437,537	34,99
437,743	39,08
437,95	-8,02
438,157	86,19
438,364	-5,97
438,571	-12,12
438,778	-5,97
438,985	-8,02
439,192	-55,12
439,399	-12,12
439,606	-24,4
439,813	24,75
440,02	8,36
440,227	-18,26
440,433	28,84
440,64	18,6
440,847	71,85
441,054	82,09
441,261	-20,31
441,467	88,23
441,674	8,36
441,881	-34,64
442,088	57,51
442,294	-22,36
442,501	-8,02
442,708	26,79
442,914	-12,12
443,121	12,46
443,328	24,75
443,534	18,6
443,741	100,52
443,948	-38,74
444,154	75,95
444,361	14,51
444,568	8,36
444,774	18,6
444,981	32,94
445,187	6,31
445,394	24,75
445,6	49,32
445,807	16,55
446,013	28,84
446,22	24,75
446,426	94,38
446,633	-10,07
446,839	51,37
447,046	-16,21
447,252	-8,02
447,459	34,99
447,665	-12,12
447,871	24,75
448,078	41,13
448,284	24,75
448,491	8,36
448,697	8,36
448,903	8,36
449,11	-12,12
449,316	8,36
449,522	-30,55
449,728	51,37
449,935	-16,21
450,141	82,09
450,347	-34,64
450,553	0,17
450,76	-20,31
450,966	77,99
451,172	-18,26
451,378	67,75
451,584	26,79
451,791	45,23
451,997	-61,27
452,203	-34,64
452,409	26,79
452,615	-22,36
452,821	-14,17
453,027	4,27
453,233	-3,93
453,44	69,8
453,646	37,03
453,852	2,22
454,058	-57,17
454,264	12,46
454,47	73,9
454,676	-14,17
454,882	67,75
455,088	16,55
455,294	8,36
455,5	84,14
455,705	24,75
455,911	-24,4
456,117	-24,4
456,323	8,36
456,529	2,22
456,735	18,6
456,941	71,85
457,147	94,38
457,352	24,75
457,558	8,36
457,764	-89,94
457,97	110,76
458,176	18,6
458,381	32,94
458,587	43,18
458,793	43,18
458,999	-30,55
459,204	-28,5
459,41	-5,97
459,616	45,23
459,821	2,22
460,027	4,27
460,233	22,7
460,438	20,65
460,644	-32,6
460,85	24,75
461,055	37,03
461,261	24,75
461,466	20,65
461,672	-5,97
461,878	16,55
462,083	-44,88
462,289	4,27
462,494	-10,07
462,7	4,27
462,905	20,65
463,111	-1,88
463,316	63,66
463,522	24,75
463,727	77,99
463,932	-61,27
464,138	51,37
464,343	-8,02
464,549	59,56
464,754	26,79
464,959	12,46
465,165	90,28
465,37	24,75
465,575	22,7
465,781	8,36
465,986	67,75
466,191	26,79
466,397	8,36
466,602	16,55
466,807	-20,31
467,012	24,75
467,218	-16,21
467,423	6,31
467,628	75,95
467,833	8,36
468,038	-10,07
468,244	10,41
468,449	-12,12
468,654	0,17
468,859	-69,46
469,064	-3,93
469,269	-8,02
469,474	-5,97
469,679	10,41
469,885	-40,79
470,09	-22,36
470,295	24,75
470,5	0,17
470,705	49,32
470,91	-40,79
471,115	73,9
471,32	-24,4
471,525	28,84
471,73	10,41
471,935	61,61
472,139	8,36
472,344	-22,36
472,549	-1,88
472,754	57,51
472,959	51,37
473,164	-3,93
473,369	-12,12
473,574	59,56
473,778	20,65
473,983	77,99
474,188	22,7
474,393	0,17
474,598	10,41
474,802	-28,5
475,007	-10,07
475,212	14,51
475,417	34,99
475,621	37,03
475,826	41,13
476,031	24,75
476,235	-14,17
476,44	51,37
476,645	-1,88
476,849	2,22
477,054	0,17
477,259	-40,79
477,463	-1,88
477,668	24,75
477,872	37,03
478,077	-26,45
478,282	-38,74
478,486	-32,6
478,691	32,94
478,895	-14,17
479,1	-8,02
479,304	55,47
479,509	10,41
479,713	69,8
479,918	55,47
480,122	8,36
480,326	-24,4
480,531	-5,97
480,735	4,27
480,94	12,46
481,144	39,08
481,348	20,65
481,553	24,75
481,757	18,6
481,961	34,99
482,166	-51,03
482,37	-44,88
482,574	47,27
482,778	6,31
482,983	59,56
483,187	110,76
483,391	0,17
483,595	43,18
483,8	53,42
484,004	32,94
484,208	20,65
484,412	51,37
484,616	10,41
484,821	-16,21
485,025	53,42
485,229	26,79
485,433	24,75
485,637	12,46
485,841	16,55
486,045	4,27
486,249	8,36
486,453	34,99
486,657	12,46
486,861	-14,17
487,065	8,36
487,269	43,18
487,473	80,04
487,677	-28,5
487,881	-1,88
488,085	20,65
488,289	8,36
488,493	-51,03
488,697	28,84
488,901	6,31
489,105	57,51
489,309	10,41
489,512	139,43
489,716	8,36
489,92	-3,93
490,124	-40,79
490,328	24,75
490,531	-8,02
490,735	-14,17
490,939	16,55
491,143	32,94
491,346	-18,26
491,55	16,55
491,754	10,41
491,958	59,56
492,161	-3,93
492,365	22,7
492,569	-18,26
492,772	-26,45
492,976	-24,4
493,18	8,36
493,383	16,55
493,587	32,94
493,79	32,94
493,994	4,27
494,197	24,75
494,401	82,09
494,605	22,7
494,808	14,51
495,012	-16,21
495,215	32,94
495,419	8,36
495,622	51,37
495,825	-1,88
496,029	18,6
496,232	14,51
496,436	24,75
496,639	39,08
496,843	59,56
497,046	-55,12
497,249	65,71
497,453	32,94
497,656	18,6
497,859	14,51
498,063	26,79
498,266	-28,5
498,469	57,51
498,673	28,84
498,876	59,56
499,079	-28,5
499,282	10,41
499,485	-63,32
499,689	-55,12
499,892	39,08
500,095	18,6
500,298	-57,17
500,501	-24,4
500,705	26,79
500,908	45,23
501,111	-102,23
501,314	32,94
501,517	41,13
501,72	41,13
501,923	-8,02
502,126	-59,22
502,329	28,84
502,532	10,41
502,735	-24,4
502,938	53,42
503,141	53,42
503,344	-8,02
503,547	34,99
503,75	2,22
503,953	-12,12
504,156	4,27
504,359	-32,6
504,562	-14,17
504,765	100,52
504,968	8,36
505,17	45,23
505,373	49,32
505,576	-40,79
505,779	24,75
505,982	-38,74
506,185	51,37
506,387	-128,85
506,59	28,84
506,793	-38,74
506,996	73,9
507,198	39,08
507,401	43,18
507,604	-28,5
507,807	-36,69
508,009	-53,08
508,212	16,55
508,415	10,41
508,617	-5,97
508,82	18,6
509,022	-32,6
509,225	-16,21
509,428	47,27
509,63	41,13
509,833	-44,88
510,035	49,32
510,238	-46,93
510,44	6,31
510,643	-18,26
510,845	-44,88
511,048	20,65
511,25	16,55
511,453	12,46
511,655	-5,97
511,858	12,46
512,06	49,32
512,262	30,89
512,465	14,51
512,667	37,03
512,87	-12,12
513,072	-20,31
513,274	-5,97
513,477	20,65
513,679	8,36
513,881	16,55
514,084	-24,4
514,286	-3,93
514,488	20,65
514,69	37,03
514,893	-12,12
515,095	-14,17
515,297	32,94
515,499	-12,12
515,701	4,27
515,904	8,36
516,106	20,65
516,308	22,7
516,51	-16,21
516,712	114,86
516,914	-61,27
517,116	24,75
517,318	-20,31
517,52	22,7
517,722	16,55
517,925	16,55
518,127	6,31
518,329	37,03
518,531	-61,27
518,733	-12,12
518,935	2,22
519,136	18,6
519,338	24,75
519,54	-3,93
519,742	-38,74
519,944	69,8
520,146	41,13
520,348	82,09
520,55	8,36
520,752	16,55
520,954	-5,97
521,155	24,75
521,357	24,75
521,559	30,89
521,761	28,84
521,963	10,41
522,164	43,18
522,366	26,79
522,568	-44,88
522,77	41,13
522,971	4,27
523,173	-24,4
523,375	106,67
523,576	-30,55
523,778	-10,07
523,98	26,79
524,181	32,94
524,383	-57,17
524,584	4,27
524,786	-40,79
524,988	22,7
525,189	22,7
525,391	45,23
525,592	8,36
525,794	34,99
525,995	43,18
526,197	65,71
526,398	53,42
526,6	0,17
526,801	37,03
527,003	28,84
527,204	-5,97
527,406	-38,74
527,607	43,18
527,808	51,37
528,01	20,65
528,211	-16,21
528,412	45,23
528,614	0,17
528,815	32,94
529,016	45,23
529,218	41,13
529,419	0,17
529,62	-48,98
529,822	20,65
530,023	-38,74
530,224	-46,93
530,425	6,31
530,626	-5,97
530,828	59,56
531,029	-12,12
531,23	59,56
531,431	32,94
531,632	10,41
531,833	39,08
532,035	16,55
532,236	-5,97
532,437	32,94
532,638	-38,74
532,839	-5,97
533,04	24,75
533,241	16,55
533,442	45,23
533,643	53,42
533,844	18,6
534,045	-22,36
534,246	-1,88
534,447	69,8
534,648	41,13
534,849	-22,36
535,05	45,23
535,251	55,47
535,451	2,22
535,652	-38,74
535,853	32,94
536,054	16,55
536,255	24,75
536,456	49,32
536,657	12,46
536,857	102,57
537,058	-24,4
537,259	51,37
537,46	41,13
537,66	-24,4
537,861	2,22
538,062	-16,21
538,263	32,94
538,463	-46,93
538,664	20,65
538,865	39,08
539,065	0,17
539,266	67,75
539,466	69,8
539,667	-5,97
539,868	-44,88
540,068	16,55
540,269	-40,79
540,469	-44,88
540,67	-16,21
540,87	6,31
541,071	26,79
541,271	24,75
541,472	41,13
541,672	4,27
541,873	43,18
542,073	82,09
542,274	0,17
542,474	24,75
542,675	4,27
542,875	-14,17
543,075	26,79
543,276	34,99
543,476	-24,4
543,676	57,51
543,877	-79,7
544,077	63,66
544,277	43,18
544,478	6,31
544,678	-8,02
544,878	32,94
545,078	39,08
545,279	16,55
545,479	55,47
545,679	-16,21
545,879	51,37
546,079	28,84
546,28	100,52
546,48	51,37
546,68	49,32
546,88	-3,93
547,08	37,03
547,28	-3,93
547,48	-22,36
547,68	-10,07
547,88	-28,5
548,081	-24,4
548,281	41,13
548,481	-44,88
548,681	45,23
548,881	-20,31
549,081	-28,5
549,28	65,71
549,48	-100,18
549,68	-24,4
549,88	73,9
550,08	28,84
550,28	53,42
550,48	12,46
550,68	8,36
550,88	20,65
551,08	-12,12
551,279	-69,46
551,479	-75,6
551,679	65,71
551,879	0,17
552,079	8,36
552,278	-32,6
552,478	82,09
552,678	-3,93
552,878	12,46
553,077	-36,69
553,277	16,55
553,477	28,84
553,676	20,65
553,876	26,79
554,076	-3,93
554,275	22,7
554,475	-65,36
554,674	-3,93
554,874	8,36
555,074	61,61
555,273	-12,12
555,473	-1,88
555,672	32,94
555,872	-8,02
556,071	32,94
556,271	6,31
556,47	16,55
556,67	20,65
556,869	-10,07
557,068	30,89
557,268	32,94
557,467	-38,74
557,667	37,03
557,866	6,31
558,065	12,46
558,265	-20,31
558,464	-5,97
558,663	57,51
558,863	-71,51
559,062	20,65
559,261	32,94
559,461	-28,5
559,66	-12,12
559,859	-36,69
560,058	-18,26
560,258	8,36
560,457	-30,55
560,656	100,52
560,855	20,65
561,054	94,38
561,253	0,17
561,453	-32,6
561,652	65,71
561,851	14,51
562,05	-28,5
562,249	-26,45
562,448	-20,31
562,647	4,27
562,846	-32,6
563,045	-65,36
563,244	41,13
563,443	-8,02
563,642	65,71
563,841	-24,4
564,04	45,23
564,239	24,75
564,438	28,84
564,637	30,89
564,836	2,22
565,035	43,18
565,234	41,13
565,432	59,56
565,631	-26,45
565,83	-63,32
566,029	41,13
566,228	-22,36
566,427	49,32
566,625	49,32
566,824	34,99
567,023	32,94
567,222	90,28
567,42	-3,93
567,619	-14,17
567,818	-16,21
568,016	51,37
568,215	82,09
568,414	73,9
568,612	43,18
568,811	102,57
569,01	135,34
569,208	247,97
569,407	323,75
569,605	647,33
569,804	1214,62
570,002	1757,33
570,201	2504,84
570,4	3514,49
570,598	4690,02
570,797	6205,52
570,995	8138,8
571,193	9855
571,392	12419,05
571,59	14839,75
571,789	18292,63
571,987	21208,94
572,186	24727,35
572,384	28081,92
572,582	32382,65
572,781	35714,7
572,979	38559,33
573,177	42155,56
573,376	44977,66
573,574	46796,26
573,772	50077,1
573,971	51238,3
574,169	52538,76
574,367	53949,81
574,565	56089,94
574,763	55897,43
574,962	56847,69
575,16	56954,18
575,358	58459,44
575,556	57953,59
575,754	59385,12
575,952	58514,73
576,151	59401,5
576,349	59317,54
576,547	60103,96
576,745	60169,49
576,943	60124,44
577,141	60554,51
577,339	60839,18
577,537	60357,91
577,735	60476,69
577,933	60050,71
578,131	60286,23
578,329	59454,75
578,527	59127,08
578,725	58750,25
578,923	58492,21
579,121	57421,12
579,319	56409,42
579,516	55797,08
579,714	54637,93
579,912	52891,01
580,11	51115,42
580,308	49675,7
580,506	47633,88
580,704	44277,26
580,901	41936,43
581,099	39229,01
581,297	35962,5
581,495	32648,89
581,692	29779,68
581,89	26085,15
582,088	23408,45
582,285	20086,65
582,483	17880,99
582,681	15138,76
582,878	12939,24
583,076	10842,12
583,274	9087,01
583,471	7145,53
583,669	5990,48
583,866	4487,27
584,064	3745,91
584,262	2588,8
584,459	1742,99
584,657	1388,69
584,854	729,25
585,052	493,73
585,249	352,42
585,447	262,31
585,644	118,95
585,841	69,8
586,039	149,67
586,236	188,58
586,434	53,42
586,631	59,56
586,828	59,56
587,026	-8,02
587,223	-12,12
587,42	106,67
587,618	51,37
587,815	129,19
588,012	-14,17
588,21	18,6
588,407	34,99
588,604	82,09
588,801	-5,97
588,999	125,1
589,196	-32,6
589,393	28,84
589,59	-14,17
589,787	73,9
589,984	8,36
590,182	24,75
590,379	0,17
590,576	53,42
590,773	-46,93
590,97	8,36
591,167	24,75
591,364	69,8
591,561	-24,4
591,758	59,56
591,955	24,75
592,152	-5,97
592,349	53,42
592,546	20,65
592,743	-14,17
592,94	-20,31
593,137	2,22
593,334	24,75
593,531	55,47
593,727	4,27
593,924	-1,88
594,121	59,56
594,318	12,46
594,515	6,31
594,712	34,99
594,908	-16,21
595,105	51,37
595,302	30,89
595,499	26,79
595,696	30,89
595,892	49,32
596,089	57,51
596,286	49,32
596,482	30,89
596,679	32,94
596,876	6,31
597,072	20,65
597,269	-16,21
597,466	57,51
597,662	-1,88
597,859	-8,02
598,055	18,6
598,252	-16,21
598,448	-38,74
598,645	16,55
598,841	-30,55
599,038	53,42
599,234	-20,31
599,431	24,75
599,627	20,65
599,824	-34,64
600,02	-5,97
600,217	67,75
600,413	-20,31
600,609	-8,02
600,806	-1,88
601,002	34,99
601,198	20,65
601,395	32,94
601,591	16,55
601,787	61,61
601,984	24,75
602,18	16,55
602,376	59,56
602,572	-1,88
602,769	-16,21
602,965	6,31
603,161	49,32
603,357	37,03
603,553	20,65
603,75	-10,07
603,946	43,18
604,142	-28,5
604,338	-83,8
604,534	6,31
604,73	12,46
604,926	118,95
605,122	37,03
605,318	2,22
605,514	-24,4
605,71	57,51
605,906	82,09
606,102	-16,21
606,298	8,36
606,494	45,23
606,69	90,28
606,886	-22,36
607,082	8,36
607,278	-18,26
607,474	16,55
607,67	0,17
607,866	10,41
608,062	-16,21
608,257	39,08
608,453	49,32
608,649	26,79
608,845	34,99
609,041	16,55
609,236	10,41
609,432	-40,79
609,628	65,71
609,824	28,84
610,019	-24,4
610,215	18,6
610,411	-26,45
610,606	45,23
610,802	28,84
610,998	-24,4
611,193	20,65
611,389	34,99
611,584	16,55
611,78	55,47
611,976	4,27
612,171	106,67
612,367	20,65
612,562	28,84
612,758	80,04
612,953	82,09
613,149	-102,23
613,344	37,03
613,539	-16,21
613,735	14,51
613,93	24,75
614,126	0,17
614,321	2,22
614,517	57,51
614,712	71,85
614,907	34,99
615,103	20,65
615,298	-16,21
615,493	-22,36
615,688	37,03
615,884	22,7
616,079	-1,88
616,274	-14,17
616,47	-3,93
616,665	-48,98
616,86	-24,4
617,055	28,84
617,25	82,09
617,445	-46,93
617,641	22,7
617,836	32,94
618,031	2,22
618,226	6,31
618,421	73,9
618,616	-22,36
618,811	41,13
619,006	-46,93
619,201	-5,97
619,396	-38,74
619,591	-14,17
619,786	-30,55
619,981	-12,12
620,176	0,17
620,371	82,09
620,566	26,79
620,761	30,89
620,956	-14,17
621,151	49,32
621,346	4,27
621,541	43,18
621,735	0,17
621,93	28,84
622,125	41,13
622,32	34,99
622,515	-5,97
622,709	26,79
622,904	59,56
623,099	41,13
623,294	12,46
623,488	-8,02
623,683	-5,97
623,878	-3,93
624,072	16,55
624,267	16,55
624,462	-8,02
624,656	24,75
624,851	53,42
625,046	43,18
625,24	32,94
625,435	18,6
625,629	30,89
625,824	-40,79
626,018	-12,12
626,213	12,46
626,407	18,6
626,602	65,71
626,796	-57,17
626,991	4,27
627,185	28,84
627,38	12,46
627,574	-30,55
627,768	-14,17
627,963	-3,93
628,157	-14,17
628,352	41,13
628,546	-87,89
628,74	32,94
628,935	63,66
629,129	-32,6
629,323	24,75
629,517	-18,26
629,712	-3,93
629,906	12,46
630,1	-40,79
630,294	-26,45
630,489	6,31
630,683	2,22
630,877	4,27
631,071	65,71
631,265	14,51
631,459	73,9
631,653	-38,74
631,848	49,32
632,042	8,36
632,236	18,6
632,43	24,75
632,624	0,17
632,818	47,27
633,012	39,08
633,206	30,89
633,4	10,41
633,594	34,99
633,788	-16,21
633,982	34,99
634,176	26,79
634,369	45,23
634,563	2,22
634,757	-14,17
634,951	75,95
635,145	57,51
635,339	26,79
635,533	39,08
635,726	24,75
635,92	-30,55
636,114	-16,21
636,308	34,99
636,501	71,85
636,695	-16,21
636,889	-12,12
637,083	-1,88
637,276	-40,79
637,47	-32,6
637,664	-42,84
637,857	12,46
638,051	41,13
638,244	2,22
638,438	61,61
638,632	53,42
638,825	49,32
639,019	45,23
639,212	8,36
639,406	43,18
639,599	12,46
639,793	-20,31
639,986	-36,69
640,18	16,55
640,373	26,79
640,567	0,17
640,76	90,28
640,954	28,84
641,147	-12,12
641,34	-40,79
641,534	32,94
641,727	18,6
641,92	43,18
642,114	49,32
642,307	12,46
642,5	75,95
642,694	-30,55
642,887	24,75
643,08	24,75
643,273	24,75
643,467	-46,93
643,66	-8,02
643,853	-1,88
644,046	59,56
644,239	22,7
644,432	-14,17
644,626	45,23
644,819	90,28
645,012	4,27
645,205	71,85
645,398	32,94
645,591	-16,21
645,784	24,75
645,977	49,32
646,17	34,99
646,363	34,99
646,556	28,84
646,749	-48,98
646,942	-102,23
647,135	22,7
647,328	10,41
647,521	-28,5
647,714	-26,45
647,907	12,46
648,099	-24,4
648,292	4,27
648,485	12,46
648,678	65,71
648,871	-24,4
649,064	32,94
649,256	-34,64
649,449	32,94
649,642	65,71
649,835	10,41
650,027	-32,6
650,22	-42,84
650,413	-32,6
650,605	32,94
650,798	49,32
650,991	6,31
651,183	-12,12
651,376	43,18
651,568	-22,36
651,761	22,7
651,954	-8,02
652,146	12,46
652,339	86,19
652,531	-5,97
652,724	26,79
652,916	49,32
653,109	-18,26
653,301	-30,55
653,494	-5,97
653,686	-32,6
653,879	65,71
654,071	-16,21
654,263	-44,88
654,456	-12,12
654,648	-28,5
654,84	57,51
655,033	16,55
655,225	26,79
655,417	6,31
655,61	-34,64
655,802	0,17
655,994	-32,6
656,186	10,41
656,379	4,27
656,571	34,99
656,763	-8,02
656,955	-46,93
657,148	34,99
657,34	16,55
657,532	32,94
657,724	-10,07
657,916	43,18
658,108	43,18
658,3	-10,07
658,492	6,31
658,684	45,23
658,876	22,7
659,068	4,27
659,26	-16,21
659,452	57,51
659,644	-20,31
659,836	-12,12
660,028	-46,93
660,22	63,66
660,412	4,27
660,604	73,9
660,796	32,94
660,988	57,51
661,18	4,27
661,372	0,17
661,563	-28,5
661,755	-18,26
661,947	-16,21
662,139	-8,02
662,331	-36,69
662,522	73,9
662,714	6,31
662,906	30,89
663,097	10,41
663,289	53,42
663,481	86,19
663,673	32,94
663,864	0,17
664,056	26,79
664,247	16,55
664,439	18,6
664,631	4,27
664,822	-24,4
665,014	-71,51
665,205	55,47
665,397	-57,17
665,588	45,23
665,78	-32,6
665,971	22,7
666,163	49,32
666,354	26,79
666,546	-40,79
666,737	-10,07
666,929	-5,97
667,12	-55,12
667,311	-5,97
667,503	80,04
667,694	34,99
667,885	-44,88
668,077	-34,64
668,268	26,79
668,459	16,55
668,651	2,22
668,842	-32,6
669,033	-24,4
669,224	6,31
669,416	18,6
669,607	14,51
669,798	8,36
669,989	-18,26
670,18	34,99
670,371	26,79
670,563	-26,45
670,754	-8,02
670,945	-14,17
671,136	61,61
671,327	-28,5
671,518	-3,93
671,709	0,17
671,9	-24,4
672,091	-16,21
672,282	59,56
672,473	57,51
672,664	61,61
672,855	57,51
673,046	8,36
673,237	51,37
673,428	4,27
673,619	24,75
673,809	2,22
674	-48,98
674,191	20,65
674,382	-32,6
674,573	41,13
674,764	-10,07
674,954	16,55
675,145	24,75
675,336	65,71
675,527	-14,17
675,717	-3,93
675,908	8,36
676,099	-53,08
676,289	41,13
676,48	6,31
676,671	12,46
676,861	-34,64
677,052	22,7
677,243	41,13
677,433	32,94
677,624	0,17
677,814	20,65
678,005	-16,21
678,195	0,17
678,386	4,27
678,576	49,32
678,767	24,75
678,957	22,7
679,148	47,27
679,338	-96,08
679,529	-51,03
679,719	51,37
679,909	-59,22
680,1	0,17
680,29	-32,6
680,481	6,31
680,671	-8,02
680,861	51,37
681,052	-3,93
681,242	-48,98
681,432	24,75
681,622	67,75
681,813	-24,4
682,003	53,42
682,193	32,94
682,383	0,17
682,573	-40,79
682,764	49,32
682,954	-36,69
683,144	-73,56
683,334	-30,55
683,524	6,31
683,714	-3,93
683,904	0,17
684,094	-10,07
684,284	39,08
684,474	-28,5
684,664	-16,21
684,854	2,22
685,044	37,03
685,234	0,17
685,424	43,18
685,614	-24,4
685,804	2,22
685,994	-3,93
686,184	-24,4
686,374	-46,93
686,564	47,27
686,753	-32,6
686,943	53,42
687,133	-32,6
687,323	-48,98
687,513	16,55
687,702	8,36
687,892	20,65
688,082	8,36
688,272	-8,02
688,461	12,46
688,651	2,22
688,841	-30,55
689,03	-38,74
689,22	12,46
689,41	-40,79
689,599	-40,79
689,789	-12,12
689,979	45,23
690,168	32,94
690,358	-14,17
690,547	-73,56
690,737	0,17
690,926	14,51
691,116	4,27
691,305	-5,97
691,495	-46,93
691,684	-24,4
691,874	20,65
692,063	-59,22
692,252	41,13
692,442	-38,74
692,631	-16,21
692,82	-32,6
693,01	2,22
693,199	41,13
693,388	55,47
693,578	51,37
693,767	-16,21
693,956	32,94
694,146	43,18
694,335	-24,4
694,524	77,99
694,713	-59,22
694,902	59,56
695,092	-63,32
695,281	24,75
695,47	-28,5
695,659	10,41
695,848	2,22
696,037	37,03
696,226	45,23
696,415	16,55
696,604	8,36
696,793	14,51
696,982	-34,64
697,171	14,51
697,36	-16,21
697,549	0,17
697,738	12,46
697,927	12,46
698,116	-57,17
698,305	-10,07
698,494	92,33
698,683	41,13
698,872	-40,79
699,061	12,46
699,25	-28,5
699,438	2,22
699,627	-81,75
699,816	-28,5
700,005	-98,13
700,193	49,32
700,382	30,89
700,571	-10,07
700,76	-24,4
700,948	-42,84
701,137	2,22
701,326	-8,02
701,514	49,32
701,703	-3,93
701,892	-48,98
702,08	-63,32
702,269	53,42
702,457	-28,5
702,646	-14,17
702,834	53,42
703,023	0,17
703,212	-24,4
703,4	-24,4
703,589	75,95
703,777	-14,17
703,965	57,51
704,154	69,8
704,342	26,79
704,531	-51,03
704,719	-30,55
704,907	69,8
705,096	82,09
705,284	-10,07
705,472	37,03
705,661	18,6
705,849	-22,36
706,037	34,99
706,226	-20,31
706,414	30,89
706,602	0,17
706,79	8,36
706,979	41,13
707,167	45,23
707,355	16,55
707,543	-16,21
707,731	45,23
707,919	0,17
708,107	-30,55
708,296	-8,02
708,484	6,31
708,672	8,36
708,86	41,13
709,048	0,17
709,236	18,6
709,424	51,37
709,612	-24,4
709,8	26,79
709,988	34,99
710,176	-26,45
710,364	-16,21
710,551	10,41
710,739	18,6
710,927	-20,31
711,115	-42,84
711,303	65,71
711,491	-57,17
711,679	41,13
711,866	57,51
712,054	-3,93
712,242	84,14
712,43	55,47
712,617	-14,17
712,805	2,22
712,993	0,17
713,181	-5,97
713,368	0,17
713,556	6,31
713,744	43,18
713,931	2,22
714,119	-20,31
714,306	2,22
714,494	-40,79
714,682	-44,88
714,869	-8,02
715,057	8,36
715,244	2,22
715,432	-65,36
715,619	22,7
715,807	-40,79
715,994	20,65
716,182	0,17
716,369	-57,17
716,556	41,13
716,744	-24,4
716,931	12,46
717,119	28,84
717,306	-16,21
717,493	20,65
717,681	34,99
717,868	-46,93
718,055	-28,5
718,242	98,47
718,43	14,51
718,617	6,31
718,804	-79,7
718,991	34,99
719,179	45,23
719,366	63,66
719,553	-59,22
719,74	0,17
719,927	84,14
720,114	-10,07
720,301	-40,79
720,488	28,84
720,676	49,32
720,863	-16,21
721,05	41,13
721,237	12,46
721,424	-1,88
721,611	73,9
721,798	-10,07
721,985	41,13
722,172	-83,8
722,358	-32,6
722,545	8,36
722,732	51,37
722,919	-12,12
723,106	28,84
723,293	0,17
723,48	82,09
723,667	-30,55
723,853	20,65
724,04	-24,4
724,227	-51,03
724,414	-16,21
724,6	41,13
724,787	0,17
724,974	18,6
725,161	43,18
725,347	8,36
725,534	-36,69
725,72	51,37
725,907	100,52
726,094	8,36
726,28	-40,79
726,467	59,56
726,653	24,75
726,84	-34,64
727,027	20,65
727,213	71,85
727,4	26,79
727,586	65,71
727,773	53,42
727,959	-16,21
728,145	0,17
728,332	4,27
728,518	-10,07
728,705	-8,02
728,891	-40,79
729,077	-3,93
729,264	28,84
729,45	-16,21
729,636	26,79
729,823	39,08
730,009	-87,89
730,195	0,17
730,382	4,27
730,568	6,31
730,754	-48,98
730,94	16,55
731,126	-53,08
731,313	-3,93
731,499	-8,02
731,685	37,03
731,871	-1,88
732,057	-53,08
732,243	4,27
732,429	34,99
732,615	14,51
732,801	0,17
732,987	16,55
733,173	26,79
733,359	75,95
733,545	24,75
733,731	16,55
733,917	73,9
734,103	18,6
734,289	0,17
734,475	20,65
734,661	98,47
734,847	18,6
735,033	43,18
735,219	-22,36
735,404	86,19
735,59	24,75
735,776	-5,97
735,962	53,42
736,148	22,7
736,333	102,57
736,519	24,75
736,705	4,27
736,89	-10,07
737,076	10,41
737,262	-20,31
737,447	63,66
737,633	49,32
737,819	0,17
738,004	65,71
738,19	-57,17
738,375	-5,97
738,561	24,75
738,747	92,33
738,932	-26,45
739,118	43,18
739,303	-46,93
739,489	12,46
739,674	32,94
739,859	73,9
740,045	24,75
740,23	41,13
740,416	24,75
740,601	61,61
740,786	-26,45
740,972	-61,27
741,157	8,36
741,342	28,84
741,528	-8,02
741,713	4,27
741,898	4,27
742,084	-65,36
742,269	0,17
742,454	57,51
742,639	24,75
742,824	45,23
743,01	-16,21
743,195	-3,93
743,38	10,41
743,565	-22,36
743,75	-20,31
743,935	45,23
744,12	-44,88
744,305	-10,07
744,49	-48,98
744,675	57,51
744,86	-57,17
745,045	41,13
745,23	-12,12
745,415	24,75
745,6	-42,84
745,785	63,66
745,97	-24,4
746,155	-14,17
746,34	-32,6
746,525	-1,88
746,71	86,19
746,895	24,75
747,079	-16,21
747,264	-16,21
747,449	-22,36
747,634	24,75
747,819	12,46
748,003	51,37
748,188	-10,07
748,373	22,7
748,557	-73,56
748,742	26,79
748,927	4,27
749,111	-1,88
749,296	47,27
749,481	37,03
749,665	-3,93
749,85	-30,55
750,034	-1,88
750,219	34,99
750,404	32,94
750,588	-36,69
750,773	-14,17
750,957	-57,17
751,141	4,27
751,326	-85,84
751,51	8,36
751,695	-5,97
751,879	6,31
752,064	-32,6
752,248	49,32
752,432	37,03
752,617	61,61
752,801	10,41
752,985	28,84
753,17	92,33
753,354	-46,93
753,538	-24,4
753,722	63,66
753,907	-32,6
754,091	-14,17
754,275	-55,12
754,459	-16,21
754,643	0,17
754,828	41,13
755,012	6,31
755,196	-14,17
755,38	-26,45
755,564	-16,21
755,748	-8,02
755,932	-5,97
756,116	59,56
756,3	16,55
756,484	45,23
756,668	-16,21
756,852	0,17
757,036	45,23
757,22	8,36
757,404	-18,26
757,588	0,17
757,772	37,03
757,956	-32,6
758,14	-40,79
758,323	53,42
758,507	12,46
758,691	34,99
758,875	-48,98
759,059	8,36
759,242	-22,36
759,426	49,32
759,61	20,65
759,794	37,03
759,977	77,99
760,161	-18,26
760,345	-40,79
760,528	10,41
760,712	0,17
760,895	61,61
761,079	-53,08
761,263	-24,4
761,446	-28,5
761,63	67,75
761,813	-40,79
761,997	51,37
762,18	22,7
762,364	8,36
762,547	49,32
762,731	-18,26
762,914	32,94
763,098	32,94
763,281	-18,26
763,464	-5,97
763,648	49,32
763,831	-20,31
764,015	32,94
764,198	49,32
764,381	51,37
764,564	-16,21
764,748	24,75
764,931	-40,79
765,114	4,27
765,297	45,23
765,481	73,9
765,664	-8,02
765,847	-3,93
766,03	-3,93
766,213	-65,36
766,397	-12,12
766,58	-8,02
766,763	12,46
766,946	-98,13
767,129	-20,31
767,312	-36,69
767,495	77,99
767,678	-42,84
767,861	92,33
768,044	57,51
768,227	2,22
768,41	-36,69
768,593	24,75
768,776	41,13
768,959	8,36
769,142	-65,36
769,324	26,79
769,507	-65,36
769,69	59,56
769,873	71,85
770,056	53,42
770,239	-8,02
770,421	-32,6
770,604	-3,93
770,787	37,03
770,97	34,99
771,152	-57,17
771,335	-12,12
771,518	0,17
771,7	53,42
771,883	-14,17
772,066	-63,32
772,248	34,99
772,431	30,89
772,613	18,6
772,796	37,03
772,978	-42,84
773,161	80,04
773,343	20,65
773,526	-46,93
773,708	16,55
773,891	32,94
774,073	14,51
774,256	-22,36
774,438	49,32
774,621	96,43
774,803	26,79
774,985	-32,6
775,168	37,03
775,35	8,36
775,532	63,66
775,715	4,27
775,897	0,17
776,079	49,32
776,261	-16,21
776,444	0,17
776,626	8,36
776,808	41,13
776,99	12,46
777,173	-48,98
777,355	49,32
777,537	-24,4
777,719	20,65
777,901	-14,17
778,083	65,71
778,265	32,94
778,447	57,51
778,629	-3,93
778,811	2,22
778,993	49,32
779,175	28,84
779,357	53,42
779,539	0,17
779,721	0,17
779,903	16,55
780,085	8,36
780,267	65,71
780,449	-38,74
780,631	-46,93
780,812	-30,55
780,994	16,55
781,176	-16,21
781,358	24,75
781,54	16,55
781,721	34,99
781,903	-51,03
782,085	51,37
782,267	82,09
782,448	24,75
782,63	-5,97
782,812	-28,5
782,993	2,22
783,175	45,23
783,357	-8,02
783,538	30,89
783,72	55,47
783,901	61,61
784,083	-40,79
784,264	20,65
784,446	59,56
784,627	37,03
784,809	53,42
784,99	28,84
785,172	32,94
785,353	-20,31
785,535	-14,17
785,716	16,55
785,897	65,71
786,079	16,55
786,26	12,46
786,441	28,84
786,623	-40,79
786,804	20,65
786,985	-22,36
787,167	34,99
787,348	28,84
787,529	18,6
787,71	-10,07
787,891	26,79
788,073	-36,69
788,254	47,27
788,435	-3,93
788,616	65,71
788,797	-94,04
788,978	-3,93
789,159	-20,31
789,34	34,99
789,522	-16,21
789,703	-28,5
789,884	-8,02
790,065	24,75
790,246	-5,97
790,427	-94,04
790,607	-22,36
790,788	16,55
790,969	-30,55
791,15	4,27
791,331	34,99
791,512	32,94
791,693	16,55
791,874	34,99
792,054	-57,17
792,235	-28,5
792,416	24,75
792,597	8,36
792,778	-22,36
792,958	49,32
793,139	80,04
793,32	8,36
793,5	-32,6
793,681	20,65
793,862	18,6
794,042	10,41
794,223	-16,21
794,404	0,17
794,584	-53,08
794,765	32,94
794,945	73,9
795,126	102,57
795,306	2,22
795,487	49,32
795,667	20,65
795,848	94,38
796,028	63,66
796,209	51,37
796,389	53,42
796,57	57,51
796,75	2,22
796,93	55,47
797,111	4,27
797,291	-3,93
797,471	43,18
797,652	0,17
797,832	49,32
798,012	-22,36
798,192	67,75
798,373	0,17
798,553	65,71
798,733	24,75
798,913	-81,75
799,093	37,03
799,274	22,7
799,454	37,03
799,634	28,84
799,814	26,79
799,994	24,75
800,174	10,41
800,354	-12,12
800,534	-26,45
800,714	0,17
800,894	-28,5
801,074	49,32
801,254	-24,4
801,434	16,55
801,614	57,51
801,794	59,56
801,974	-18,26
802,154	20,65
802,334	51,37
802,514	-8,02
802,693	41,13
802,873	12,46
803,053	30,89
803,233	16,55
803,413	4,27
803,592	28,84
803,772	69,8
803,952	4,27
804,131	16,55
804,311	-5,97
804,491	20,65
804,67	4,27
804,85	14,51
805,03	-69,46
805,209	-16,21
805,389	-16,21
805,568	30,89
805,748	-10,07
805,928	-10,07
806,107	-8,02
806,287	-71,51
806,466	20,65
806,646	12,46
806,825	-8,02
807,004	-40,79
807,184	43,18
807,363	-28,5
807,543	16,55
807,722	-110,42
807,901	-16,21
808,081	-26,45
808,26	8,36
808,439	-16,21
808,619	-16,21
808,798	32,94
808,977	-10,07
809,156	24,75
809,336	-44,88
809,515	41,13
809,694	10,41
809,873	-8,02
810,052	-24,4
810,231	-3,93
810,411	57,51
810,59	-55,12
810,769	-3,93
810,948	84,14
811,127	-87,89
811,306	-38,74
811,485	24,75
811,664	-18,26
811,843	-38,74
812,022	75,95
812,201	-24,4
812,38	-40,79
812,559	47,27
812,737	41,13
812,916	57,51
813,095	-20,31
813,274	-48,98
813,453	4,27
813,632	71,85
813,811	-57,17
813,989	26,79
814,168	49,32
814,347	30,89
814,526	16,55
814,704	-14,17
814,883	41,13
815,062	26,79
815,24	-46,93
815,419	49,32
815,598	8,36
815,776	-3,93
815,955	32,94
816,133	20,65
816,312	8,36
816,49	-10,07
816,669	-16,21
816,847	0,17
817,026	-20,31
817,204	20,65
817,383	-34,64
817,561	-20,31
817,74	84,14
817,918	20,65
818,097	-10,07
818,275	-8,02
818,453	-46,93
818,632	-22,36
818,81	8,36
818,988	-38,74
819,167	-14,17
819,345	12,46
819,523	53,42
819,701	14,51
819,879	-5,97
820,058	-42,84
820,236	-48,98
820,414	-83,8
820,592	-22,36
820,77	-48,98
820,948	-46,93
821,127	10,41
821,305	-46,93
821,483	12,46
821,661	28,84
821,839	-10,07
822,017	59,56
822,195	26,79
822,373	49,32
822,551	-32,6
822,729	34,99
822,907	2,22
823,085	43,18
823,262	61,61
823,44	86,19
823,618	20,65
823,796	-40,79
823,974	-26,45
824,152	14,51
824,329	-46,93
824,507	-55,12
824,685	-3,93
824,863	-44,88
825,04	-14,17
825,218	28,84
825,396	-53,08
825,574	49,32
825,751	-44,88
825,929	-16,21
826,107	-44,88
826,284	-8,02
826,462	-10,07
826,639	24,75
826,817	-24,4
826,994	16,55
827,172	4,27
827,349	24,75
827,527	-20,31
827,704	-24,4
827,882	-34,64
828,059	-46,93
828,237	37,03
828,414	53,42
828,591	18,6
828,769	57,51
828,946	-5,97
829,124	61,61
829,301	-73,56
829,478	-16,21
829,655	4,27
829,833	32,94
830,01	-3,93
830,187	57,51
830,364	43,18
830,542	-40,79
830,719	-14,17
830,896	12,46
831,073	34,99
831,25	-22,36
831,427	16,55
831,604	4,27
831,782	-3,93
831,959	0,17
832,136	-20,31
832,313	61,61
832,49	0,17
832,667	-5,97
832,844	-20,31
833,021	43,18
833,198	20,65
833,374	-12,12
833,551	16,55
833,728	24,75
833,905	12,46
834,082	24,75
834,259	16,55
834,436	18,6
834,612	22,7
834,789	-12,12
834,966	0,17
835,143	-20,31
835,319	-67,41
835,496	-14,17
835,673	18,6
835,85	26,79
836,026	0,17
836,203	2,22
836,38	10,41
836,556	10,41
836,733	-26,45
836,909	2,22
837,086	-28,5
837,262	2,22
837,439	8,36
837,616	-32,6
837,792	24,75
837,968	53,42
838,145	-22,36
838,321	-40,79
838,498	57,51
838,674	90,28
838,851	-44,88
839,027	-24,4
839,203	12,46
839,38	65,71
839,556	-26,45
839,732	24,75
839,909	-3,93
840,085	-55,12
840,261	10,41
840,437	34,99
840,614	51,37
840,79	-30,55
840,966	-30,55
841,142	-85,84
841,318	-8,02
841,494	37,03
841,671	41,13
841,847	-24,4
842,023	-32,6
842,199	32,94
842,375	41,13
842,551	73,9
842,727	-10,07
842,903	51,37
843,079	24,75
843,255	-48,98
843,431	28,84
843,607	24,75
843,783	2,22
843,959	4,27
844,134	-44,88
844,31	10,41
844,486	26,79
844,662	-40,79
844,838	-57,17
845,013	37,03
845,189	-20,31
845,365	32,94
845,541	4,27
845,716	-8,02
845,892	34,99
846,068	-5,97
846,244	-24,4
846,419	32,94
846,595	-61,27
846,77	26,79
846,946	34,99
847,122	-38,74
847,297	-5,97
847,473	61,61
847,648	26,79
847,824	32,94
847,999	20,65
848,175	8,36
848,35	0,17
848,526	20,65
848,701	57,51
848,876	-38,74
849,052	-40,79
849,227	-3,93
849,403	43,18
849,578	10,41
849,753	-28,5
849,929	4,27
850,104	14,51
850,279	57,51
850,454	-42,84
850,63	45,23
850,805	12,46
850,98	-8,02
851,155	-40,79
851,33	-79,7
851,505	-51,03
851,681	41,13
851,856	41,13
852,031	24,75
852,206	-38,74
852,381	84,14
852,556	4,27
852,731	57,51
852,906	24,75
853,081	4,27
853,256	43,18
853,431	88,23
853,606	-12,12
853,781	-16,21
853,956	32,94
854,131	-57,17
854,305	28,84
854,48	28,84
854,655	-5,97
854,83	-51,03
855,005	-5,97
855,18	12,46
855,354	-44,88
855,529	32,94
855,704	39,08
855,879	-53,08
856,053	24,75
856,228	24,75
856,403	0,17
856,577	-71,51
856,752	-48,98
856,926	8,36
857,101	-10,07
857,276	14,51
857,45	-16,21
857,625	39,08
857,799	0,17
857,974	32,94
858,148	10,41
858,323	-3,93
858,497	30,89
858,672	-40,79
858,846	-85,84
859,02	41,13
859,195	32,94
859,369	67,75
859,543	43,18
859,718	51,37
859,892	20,65
860,066	-44,88
860,241	-89,94
860,415	-24,4
860,589	-20,31
860,763	0,17
860,938	10,41
861,112	14,51
861,286	53,42
861,46	18,6
861,634	-3,93
861,808	2,22
861,982	-30,55
862,157	0,17
862,331	20,65
862,505	37,03
862,679	28,84
862,853	-5,97
863,027	0,17
863,201	41,13
863,375	26,79
863,549	-48,98
863,722	22,7
863,896	73,9
864,07	28,84
864,244	4,27
864,418	22,7
864,592	-44,88
864,766	26,79
864,939	-8,02
865,113	32,94
865,287	4,27
865,461	32,94
865,634	-8,02
865,808	28,84
865,982	10,41
866,156	39,08
866,329	-8,02
866,503	-1,88
866,676	49,32
866,85	63,66
867,024	59,56
867,197	-14,17
867,371	86,19
867,544	18,6
867,718	-5,97
867,891	34,99
868,065	22,7
868,238	41,13
868,412	-1,88
868,585	24,75
868,759	49,32
868,932	43,18
869,105	12,46
869,279	51,37
869,452	71,85
869,625	-36,69
869,799	22,7
869,972	18,6
870,145	-3,93
870,319	82,09
870,492	-1,88
870,665	32,94
870,838	43,18
871,011	2,22
871,185	-30,55
871,358	-16,21
871,531	30,89
871,704	-75,6
871,877	-8,02
872,05	28,84
872,223	4,27
872,396	-63,32
872,569	24,75
872,742	6,31
872,915	2,22
873,088	-38,74
873,261	100,52
873,434	-8,02
873,607	-46,93
873,78	-8,02
873,953	28,84
874,126	-3,93
874,299	-8,02
874,471	-44,88
874,644	41,13
874,817	-5,97
874,99	-12,12
875,163	69,8
875,335	10,41
875,508	41,13
875,681	22,7
875,853	112,81
876,026	-8,02
876,199	16,55
876,371	47,27
876,544	-85,84
876,717	24,75
876,889	-3,93
877,062	-22,36
877,234	65,71
877,407	39,08
877,579	8,36
877,752	30,89
877,924	-28,5
878,097	65,71
878,269	67,75
878,442	108,71
878,614	73,9
878,786	4,27
878,959	-12,12
879,131	73,9
879,303	-12,12
879,476	16,55
879,648	24,75
879,82	-5,97
879,993	-51,03
880,165	0,17
880,337	-14,17
880,509	26,79
880,681	10,41
880,854	-24,4
881,026	-30,55
881,198	47,27
881,37	32,94
881,542	39,08
881,714	26,79
881,886	-61,27
882,058	8,36
882,23	-38,74
882,402	8,36
882,574	12,46
882,746	10,41
882,918	108,71
883,09	-53,08
883,262	-20,31
883,434	-14,17
883,606	-32,6
883,778	-16,21
883,95	0,17
884,122	2,22
884,293	-16,21
884,465	-5,97
884,637	-24,4
884,809	34,99
884,98	28,84
885,152	2,22
885,324	59,56
885,496	-16,21
885,667	-24,4
885,839	47,27
886,011	-8,02
886,182	24,75
886,354	-36,69
886,525	-34,64
886,697	37,03
886,869	-36,69
887,04	53,42
887,212	26,79
887,383	53,42
887,555	34,99
887,726	28,84
887,897	-83,8
888,069	18,6
888,24	-18,26
888,412	94,38
888,583	43,18
888,754	16,55
888,926	65,71
889,097	2,22
889,268	-38,74
889,44	65,71
889,611	34,99
889,782	-40,79
889,953	-46,93
890,125	-20,31
890,296	2,22
890,467	-22,36
890,638	-26,45
890,809	-20,31
890,98	-38,74
891,151	-14,17
891,323	63,66
891,494	49,32
891,665	18,6
891,836	-44,88
892,007	-20,31
892,178	-14,17
892,349	2,22
892,52	63,66
892,691	-30,55
892,862	8,36
893,032	-10,07
893,203	10,41
893,374	-5,97
893,545	30,89
893,716	0,17
893,887	20,65
894,057	-16,21
894,228	24,75
894,399	41,13
894,57	110,76
894,74	-20,31
894,911	32,94
895,082	6,31
895,253	14,51
895,423	-16,21
895,594	14,51
895,764	18,6
895,935	6,31
896,106	32,94
896,276	16,55
896,447	-3,93
896,617	0,17
896,788	4,27
896,958	71,85
897,129	-3,93
897,299	12,46
897,47	-14,17
897,64	10,41
897,81	2,22
897,981	-18,26
898,151	49,32
898,322	12,46
898,492	26,79
898,662	28,84
898,832	-16,21
899,003	16,55
899,173	12,46
899,343	6,31
899,513	41,13
