Data from filtre 577_USB4F104151__3__12-00-10-687.txt Node

Date: Wed Apr 15 12:00:10 EDT 2026
User: LaboPhy
Spectrometer: USB4F10415
Trigger mode: 4
Integration Time (sec): 2,000000E-3
Scans to average: 1
Electric dark correction enabled: true
Nonlinearity correction enabled: false
Boxcar width: 0
XAxis mode: Wavelengths
Number of Pixels in Spectrum: 3648
>>>>>Begin Spectral Data<<<<<
178,204	4,1
178,424	4,1
178,644	4,1
178,864	24,58
179,084	4,1
179,304	-26,62
179,524	18,43
179,744	-34,82
179,964	47,1
180,184	10,24
180,404	-4,1
180,624	-4,1
180,844	2,05
181,064	-6,14
181,283	40,96
181,503	-32,77
181,723	-10,24
181,943	-36,86
182,163	79,87
182,383	28,67
182,602	-40,96
182,822	51,2
183,042	30,72
183,262	43,01
183,482	30,72
183,701	6,14
183,921	-30,72
184,141	-12,29
184,361	-18,43
184,58	-20,48
184,8	-18,43
185,02	-65,54
185,239	36,86
185,459	-26,62
185,679	8,19
185,898	2,05
186,118	-26,62
186,338	-14,34
186,557	-22,53
186,777	-59,39
186,997	-18,43
187,216	-30,72
187,436	-2,05
187,655	-6,14
187,875	-10,24
188,095	14,34
188,314	-34,82
188,534	-69,63
188,753	12,29
188,973	59,39
189,192	0
189,412	34,82
189,631	-38,91
189,851	-38,91
190,07	8,19
190,29	45,06
190,509	75,77
190,729	6,14
190,948	-6,14
191,168	47,1
191,387	34,82
191,607	-8,19
191,826	55,3
192,045	-16,38
192,265	34,82
192,484	6,14
192,704	-2,05
192,923	-24,58
193,142	43,01
193,362	-26,62
193,581	18,43
193,8	45,06
194,02	104,45
194,239	-71,68
194,458	-18,43
194,678	45,06
194,897	-28,67
195,116	-4,1
195,335	-79,87
195,555	-4,1
195,774	22,53
195,993	-36,86
196,212	14,34
196,432	18,43
196,651	12,29
196,87	-14,34
197,089	61,44
197,308	34,82
197,528	-30,72
197,747	77,82
197,966	-45,06
198,185	45,06
198,404	-47,1
198,623	51,2
198,842	12,29
199,062	45,06
199,281	-30,72
199,5	-6,14
199,719	-20,48
199,938	-20,48
200,157	73,73
200,376	-14,34
200,595	26,62
200,814	-14,34
201,033	14,34
201,252	-30,72
201,471	43,01
201,69	40,96
201,909	-4,1
202,128	55,3
202,347	-43,01
202,566	61,44
202,785	-8,19
203,004	20,48
203,223	-38,91
203,442	18,43
203,661	-12,29
203,879	-55,3
204,098	18,43
204,317	6,14
204,536	18,43
204,755	45,06
204,974	-14,34
205,193	-4,1
205,411	18,43
205,63	-20,48
205,849	20,48
206,068	-2,05
206,287	10,24
206,505	-14,34
206,724	-43,01
206,943	-6,14
207,162	-30,72
207,381	-12,29
207,599	43,01
207,818	-22,53
208,037	63,49
208,255	-22,53
208,474	-57,34
208,693	-71,68
208,911	6,14
209,13	12,29
209,349	2,05
209,567	-36,86
209,786	-22,53
210,005	2,05
210,223	20,48
210,442	-8,19
210,661	-47,1
210,879	36,86
211,098	18,43
211,316	-51,2
211,535	4,1
211,753	-22,53
211,972	-6,14
212,191	-22,53
212,409	67,58
212,628	-47,1
212,846	12,29
213,065	-34,82
213,283	20,48
213,502	59,39
213,72	34,82
213,938	-2,05
214,157	-14,34
214,375	47,1
214,594	6,14
214,812	-59,39
215,031	-6,14
215,249	16,38
215,467	38,91
215,686	16,38
215,904	-51,2
216,122	10,24
216,341	-26,62
216,559	28,67
216,778	-8,19
216,996	-36,86
217,214	43,01
217,432	-47,1
217,651	24,58
217,869	-14,34
218,087	-6,14
218,306	12,29
218,524	-6,14
218,742	-18,43
218,96	47,1
219,179	14,34
219,397	-47,1
219,615	-22,53
219,833	-36,86
220,051	-34,82
220,27	73,73
220,488	18,43
220,706	-8,19
220,924	12,29
221,142	-30,72
221,36	-6,14
221,578	-47,1
221,796	-16,38
222,015	-6,14
222,233	45,06
222,451	20,48
222,669	22,53
222,887	26,62
223,105	-28,67
223,323	10,24
223,541	-14,34
223,759	16,38
223,977	38,91
224,195	34,82
224,413	47,1
224,631	-51,2
224,849	-47,1
225,067	36,86
225,285	-4,1
225,503	86,01
225,721	-57,34
225,939	-18,43
226,157	30,72
226,375	-6,14
226,592	-4,1
226,81	38,91
227,028	-6,14
227,246	4,1
227,464	-10,24
227,682	0
227,9	32,77
228,117	-28,67
228,335	38,91
228,553	-40,96
228,771	-30,72
228,989	4,1
229,206	-6,14
229,424	22,53
229,642	0
229,86	-40,96
230,077	43,01
230,295	-20,48
230,513	69,63
230,731	-24,58
230,948	-16,38
231,166	-12,29
231,384	61,44
231,601	51,2
231,819	6,14
232,037	26,62
232,254	-26,62
232,472	-45,06
232,689	10,24
232,907	18,43
233,125	34,82
233,342	-20,48
233,56	6,14
233,777	2,05
233,995	-10,24
234,213	14,34
234,43	69,63
234,648	-14,34
234,865	10,24
235,083	-26,62
235,3	-2,05
235,518	51,2
235,735	-22,53
235,953	6,14
236,17	2,05
236,388	18,43
236,605	-6,14
236,822	-26,62
237,04	4,1
237,257	-6,14
237,475	-30,72
237,692	61,44
237,909	-6,14
238,127	26,62
238,344	-10,24
238,562	8,19
238,779	-8,19
238,996	-2,05
239,214	-2,05
239,431	24,58
239,648	-102,4
239,865	-36,86
240,083	28,67
240,3	2,05
240,517	20,48
240,735	4,1
240,952	20,48
241,169	6,14
241,386	22,53
241,603	-8,19
241,821	-55,3
242,038	67,58
242,255	22,53
242,472	-6,14
242,689	-22,53
242,907	53,25
243,124	30,72
243,341	-67,58
243,558	-14,34
243,775	59,39
243,992	-10,24
244,209	-12,29
244,426	75,77
244,643	8,19
244,86	-36,86
245,078	-36,86
245,295	-18,43
245,512	-14,34
245,729	-6,14
245,946	-45,06
246,163	-2,05
246,38	22,53
246,597	12,29
246,814	40,96
247,031	38,91
247,248	61,44
247,464	49,15
247,681	-26,62
247,898	12,29
248,115	4,1
248,332	22,53
248,549	2,05
248,766	18,43
248,983	26,62
249,2	-57,34
249,417	-30,72
249,633	12,29
249,85	34,82
250,067	18,43
250,284	71,68
250,501	12,29
250,717	-14,34
250,934	-20,48
251,151	63,49
251,368	24,58
251,585	26,62
251,801	-24,58
252,018	-24,58
252,235	-4,1
252,451	32,77
252,668	32,77
252,885	-28,67
253,102	-18,43
253,318	18,43
253,535	0
253,752	-43,01
253,968	-71,68
254,185	104,45
254,401	-32,77
254,618	18,43
254,835	12,29
255,051	61,44
255,268	-69,63
255,484	73,73
255,701	63,49
255,917	4,1
256,134	-4,1
256,351	-30,72
256,567	-36,86
256,784	4,1
257	14,34
257,217	49,15
257,433	-47,1
257,65	-20,48
257,866	-18,43
258,082	53,25
258,299	63,49
258,515	-14,34
258,732	-30,72
258,948	26,62
259,165	10,24
259,381	6,14
259,597	-30,72
259,814	-61,44
260,03	26,62
260,246	10,24
260,463	-40,96
260,679	6,14
260,895	67,58
261,112	-6,14
261,328	-69,63
261,544	-38,91
261,761	34,82
261,977	43,01
262,193	20,48
262,409	8,19
262,626	6,14
262,842	65,53
263,058	-34,82
263,274	-12,29
263,49	-30,72
263,707	-38,91
263,923	-45,06
264,139	-6,14
264,355	30,72
264,571	-34,82
264,787	-22,53
265,004	12,29
265,22	-18,43
265,436	47,1
265,652	40,96
265,868	-40,96
266,084	-22,53
266,3	-6,14
266,516	71,68
266,732	12,29
266,948	38,91
267,164	14,34
267,38	-40,96
267,596	51,2
267,812	-12,29
268,028	-20,48
268,244	-22,53
268,46	53,25
268,676	-59,39
268,892	-18,43
269,108	-4,1
269,324	28,67
269,54	-36,86
269,756	18,43
269,972	-32,77
270,188	6,14
270,403	6,14
270,619	40,96
270,835	8,19
271,051	0
271,267	-4,1
271,483	-20,48
271,698	47,1
271,914	-90,11
272,13	-18,43
272,346	-45,06
272,562	18,43
272,777	-36,86
272,993	-38,91
273,209	22,53
273,425	-69,63
273,64	-12,29
273,856	61,44
274,072	30,72
274,287	-10,24
274,503	0
274,719	-14,34
274,934	20,48
275,15	88,06
275,366	-34,82
275,581	69,63
275,797	-28,67
276,012	-47,1
276,228	-45,06
276,444	-2,05
276,659	-14,34
276,875	-55,3
277,09	18,43
277,306	-6,14
277,521	49,15
277,737	2,05
277,952	12,29
278,168	-38,91
278,383	26,62
278,599	-98,3
278,814	10,24
279,03	-4,1
279,245	-26,62
279,461	-8,19
279,676	-6,14
279,892	-34,82
280,107	-14,34
280,322	-55,3
280,538	-43,01
280,753	6,14
280,969	51,2
281,184	-59,39
281,399	8,19
281,615	36,86
281,83	-20,48
282,045	-4,1
282,26	-28,67
282,476	8,19
282,691	16,38
282,906	-61,44
283,122	-12,29
283,337	-38,91
283,552	2,05
283,767	81,92
283,983	75,77
284,198	-16,38
284,413	-10,24
284,628	40,96
284,843	34,82
285,058	61,44
285,274	-6,14
285,489	-43,01
285,704	26,62
285,919	-20,48
286,134	-2,05
286,349	-4,1
286,564	-63,49
286,779	36,86
286,995	14,34
287,21	-65,54
287,425	-24,58
287,64	-14,34
287,855	-22,53
288,07	-26,62
288,285	22,53
288,5	-18,43
288,715	36,86
288,93	2,05
289,145	-61,44
289,36	30,72
289,575	63,49
289,79	61,44
290,004	45,06
290,219	-28,67
290,434	20,48
290,649	-10,24
290,864	24,58
291,079	47,1
291,294	18,43
291,509	-12,29
291,724	26,62
291,938	49,15
292,153	59,39
292,368	30,72
292,583	32,77
292,798	24,58
293,012	77,82
293,227	-55,3
293,442	-28,67
293,657	16,38
293,871	6,14
294,086	-30,72
294,301	43,01
294,516	-8,19
294,73	49,15
294,945	8,19
295,16	26,62
295,374	28,67
295,589	-45,06
295,804	49,15
296,018	59,39
296,233	-61,44
296,447	40,96
296,662	22,53
296,877	-20,48
297,091	67,58
297,306	12,29
297,52	-16,38
297,735	2,05
297,949	30,72
298,164	34,82
298,378	-51,2
298,593	2,05
298,807	-12,29
299,022	-14,34
299,236	-40,96
299,451	57,34
299,665	-63,49
299,88	10,24
300,094	-26,62
300,309	38,91
300,523	-10,24
300,737	28,67
300,952	43,01
301,166	43,01
301,381	79,87
301,595	16,38
301,809	32,77
302,024	10,24
302,238	10,24
302,452	-6,14
302,667	-47,1
302,881	59,39
303,095	14,34
303,309	-38,91
303,524	6,14
303,738	-10,24
303,952	6,14
304,166	-4,1
304,381	-43,01
304,595	36,86
304,809	-30,72
305,023	0
305,237	45,06
305,452	86,01
305,666	28,67
305,88	-38,91
306,094	2,05
306,308	-28,67
306,522	-22,53
306,736	67,58
306,95	6,14
307,164	-43,01
307,379	61,44
307,593	-36,86
307,807	-65,54
308,021	40,96
308,235	24,58
308,449	-16,38
308,663	-40,96
308,877	36,86
309,091	-55,3
309,305	-12,29
309,519	36,86
309,733	12,29
309,947	24,58
310,161	40,96
310,374	-6,14
310,588	75,77
310,802	-38,91
311,016	51,2
311,23	-38,91
311,444	30,72
311,658	-10,24
311,872	-22,53
312,085	4,1
312,299	-49,15
312,513	45,06
312,727	30,72
312,941	10,24
313,154	-22,53
313,368	40,96
313,582	34,82
313,796	-2,05
314,009	36,86
314,223	-30,72
314,437	6,14
314,651	18,43
314,864	67,58
315,078	-4,1
315,292	18,43
315,505	-4,1
315,719	61,44
315,933	-47,1
316,146	47,1
316,36	22,53
316,573	49,15
316,787	38,91
317,001	6,14
317,214	6,14
317,428	-61,44
317,641	10,24
317,855	-2,05
318,068	-34,82
318,282	-55,3
318,495	-28,67
318,709	49,15
318,922	45,06
319,136	-28,67
319,349	18,43
319,563	12,29
319,776	14,34
319,99	24,58
320,203	4,1
320,417	-2,05
320,63	-100,35
320,843	53,25
321,057	-12,29
321,27	-8,19
321,483	2,05
321,697	-6,14
321,91	-22,53
322,124	22,53
322,337	-6,14
322,55	-4,1
322,763	-55,3
322,977	26,62
323,19	-28,67
323,403	18,43
323,617	-4,1
323,83	-30,72
324,043	49,15
324,256	16,38
324,469	10,24
324,683	59,39
324,896	79,87
325,109	71,68
325,322	-2,05
325,535	-16,38
325,748	6,14
325,962	18,43
326,175	-24,58
326,388	55,3
326,601	-4,1
326,814	20,48
327,027	-18,43
327,24	28,67
327,453	-22,53
327,666	8,19
327,879	-26,62
328,092	22,53
328,305	14,34
328,518	20,48
328,731	28,67
328,944	26,62
329,157	-38,91
329,37	-18,43
329,583	30,72
329,796	53,25
330,009	2,05
330,222	26,62
330,435	30,72
330,648	28,67
330,861	30,72
331,073	51,2
331,286	-55,3
331,499	-43,01
331,712	18,43
331,925	-22,53
332,138	4,1
332,35	24,58
332,563	40,96
332,776	-16,38
332,989	-14,34
333,202	36,86
333,414	-51,2
333,627	47,1
333,84	18,43
334,053	18,43
334,265	-77,82
334,478	-14,34
334,691	51,2
334,903	-14,34
335,116	20,48
335,329	14,34
335,541	18,43
335,754	28,67
335,966	2,05
336,179	-4,1
336,392	8,19
336,604	34,82
336,817	4,1
337,029	2,05
337,242	43,01
337,454	-32,77
337,667	-12,29
337,88	4,1
338,092	-45,06
338,305	55,3
338,517	4,1
338,729	-12,29
338,942	0
339,154	6,14
339,367	-4,1
339,579	-4,1
339,792	-10,24
340,004	-14,34
340,217	24,58
340,429	2,05
340,641	43,01
340,854	61,44
341,066	4,1
341,278	-24,58
341,491	28,67
341,703	69,63
341,915	-38,91
342,128	45,06
342,34	-6,14
342,552	43,01
342,764	75,77
342,977	26,62
343,189	10,24
343,401	-32,77
343,613	-2,05
343,826	28,67
344,038	-20,48
344,25	14,34
344,462	-14,34
344,674	-20,48
344,886	47,1
345,099	24,58
345,311	16,38
345,523	45,06
345,735	14,34
345,947	49,15
346,159	-49,15
346,371	18,43
346,583	-51,2
346,795	-34,82
347,007	16,38
347,219	20,48
347,431	6,14
347,643	-30,72
347,855	-12,29
348,067	-34,82
348,279	20,48
348,491	2,05
348,703	116,73
348,915	-36,86
349,127	-4,1
349,339	-51,2
349,551	-57,34
349,763	-12,29
349,975	-32,77
350,187	-47,1
350,399	-8,19
350,61	-20,48
350,822	2,05
351,034	-6,14
351,246	16,38
351,458	-2,05
351,669	36,86
351,881	12,29
352,093	-14,34
352,305	-10,24
352,517	14,34
352,728	18,43
352,94	-94,21
353,152	-6,14
353,363	-57,34
353,575	53,25
353,787	-51,2
353,999	-49,15
354,21	51,2
354,422	6,14
354,633	-4,1
354,845	8,19
355,057	-30,72
355,268	12,29
355,48	53,25
355,692	10,24
355,903	-14,34
356,115	-32,77
356,326	10,24
356,538	14,34
356,749	-55,3
356,961	71,68
357,172	92,16
357,384	71,68
357,595	10,24
357,807	6,14
358,018	-18,43
358,23	10,24
358,441	-6,14
358,653	4,1
358,864	34,82
359,075	20,48
359,287	-28,67
359,498	10,24
359,709	-53,25
359,921	-26,62
360,132	-36,86
360,344	0
360,555	67,58
360,766	-6,14
360,977	16,38
361,189	-8,19
361,4	32,77
361,611	-8,19
361,823	34,82
362,034	2,05
362,245	22,53
362,456	-20,48
362,667	-12,29
362,879	61,44
363,09	32,77
363,301	14,34
363,512	-4,1
363,723	-51,2
363,935	4,1
364,146	26,62
364,357	-49,15
364,568	20,48
364,779	30,72
364,99	-51,2
365,201	43,01
365,412	-30,72
365,623	-20,48
365,834	43,01
366,045	-6,14
366,256	30,72
366,467	30,72
366,678	-49,15
366,889	36,86
367,1	-67,58
367,311	26,62
367,522	59,39
367,733	43,01
367,944	14,34
368,155	-28,67
368,366	4,1
368,577	10,24
368,788	4,1
368,999	-16,38
369,209	51,2
369,42	51,2
369,631	10,24
369,842	-28,67
370,053	-2,05
370,264	-24,58
370,474	14,34
370,685	16,38
370,896	-43,01
371,107	-2,05
371,317	34,82
371,528	6,14
371,739	-34,82
371,95	-16,38
372,16	40,96
372,371	-12,29
372,582	-20,48
372,792	10,24
373,003	-18,43
373,214	10,24
373,424	6,14
373,635	18,43
373,846	-45,06
374,056	-51,2
374,267	59,39
374,477	79,87
374,688	12,29
374,898	10,24
375,109	2,05
375,319	45,06
375,53	14,34
375,74	22,53
375,951	20,48
376,161	-36,86
376,372	-65,54
376,582	36,86
376,793	-18,43
377,003	22,53
377,214	32,77
377,424	18,43
377,635	69,63
377,845	-20,48
378,055	-8,19
378,266	-12,29
378,476	59,39
378,686	-6,14
378,897	-2,05
379,107	45,06
379,317	-6,14
379,528	28,67
379,738	-34,82
379,948	0
380,158	30,72
380,369	-32,77
380,579	14,34
380,789	4,1
380,999	-18,43
381,21	20,48
381,42	59,39
381,63	-12,29
381,84	28,67
382,05	4,1
382,261	-6,14
382,471	40,96
382,681	-26,62
382,891	28,67
383,101	108,54
383,311	-28,67
383,521	51,2
383,731	45,06
383,941	-22,53
384,151	-14,34
384,361	-38,91
384,571	10,24
384,781	36,86
384,991	-2,05
385,201	36,86
385,411	45,06
385,621	57,34
385,831	20,48
386,041	12,29
386,251	-12,29
386,461	6,14
386,671	-10,24
386,881	-36,86
387,091	-57,34
387,301	10,24
387,511	28,67
387,72	-59,39
387,93	-14,34
388,14	-40,96
388,35	32,77
388,56	-8,19
388,769	26,62
388,979	2,05
389,189	-22,53
389,399	10,24
389,609	-6,14
389,818	-104,45
390,028	51,2
390,238	34,82
390,447	14,34
390,657	26,62
390,867	4,1
391,076	-45,06
391,286	-12,29
391,496	6,14
391,705	-22,53
391,915	24,58
392,125	-22,53
392,334	-10,24
392,544	20,48
392,753	43,01
392,963	-40,96
393,172	-18,43
393,382	22,53
393,591	-38,91
393,801	30,72
394,01	-38,91
394,22	-24,58
394,429	20,48
394,639	-16,38
394,848	26,62
395,058	-83,97
395,267	-26,62
395,477	-24,58
395,686	59,39
395,895	-34,82
396,105	36,86
396,314	-12,29
396,524	34,82
396,733	-4,1
396,942	-28,67
397,152	-73,73
397,361	-30,72
397,57	6,14
397,78	-24,58
397,989	77,82
398,198	14,34
398,407	51,2
398,617	-14,34
398,826	-32,77
399,035	32,77
399,244	30,72
399,453	2,05
399,663	-75,77
399,872	26,62
400,081	-12,29
400,29	77,82
400,499	-8,19
400,708	22,53
400,917	-20,48
401,127	4,1
401,336	-14,34
401,545	36,86
401,754	2,05
401,963	-36,86
402,172	36,86
402,381	-63,49
402,59	6,14
402,799	16,38
403,008	53,25
403,217	-4,1
403,426	-4,1
403,635	-45,06
403,844	-26,62
404,053	77,82
404,262	8,19
404,471	6,14
404,68	2,05
404,888	63,49
405,097	-20,48
405,306	-22,53
405,515	-4,1
405,724	12,29
405,933	-8,19
406,142	-22,53
406,35	30,72
406,559	-2,05
406,768	-36,86
406,977	-110,59
407,185	55,3
407,394	20,48
407,603	-28,67
407,812	-28,67
408,02	-49,15
408,229	57,34
408,438	-6,14
408,646	22,53
408,855	-22,53
409,064	20,48
409,272	-38,91
409,481	-40,96
409,69	-10,24
409,898	36,86
410,107	16,38
410,315	-12,29
410,524	-30,72
410,733	18,43
410,941	-45,06
411,15	-30,72
411,358	32,77
411,567	10,24
411,775	2,05
411,984	-14,34
412,192	61,44
412,401	-16,38
412,609	45,06
412,818	77,82
413,026	-2,05
413,234	34,82
413,443	-38,91
413,651	26,62
413,86	-6,14
414,068	55,3
414,276	53,25
414,485	34,82
414,693	43,01
414,901	-28,67
415,11	-73,73
415,318	-36,86
415,526	20,48
415,734	18,43
415,943	2,05
416,151	43,01
416,359	8,19
416,567	59,39
416,776	22,53
416,984	-10,24
417,192	34,82
417,4	2,05
417,608	18,43
417,817	32,77
418,025	6,14
418,233	14,34
418,441	-43,01
418,649	55,3
418,857	-45,06
419,065	51,2
419,273	18,43
419,481	28,67
419,689	-28,67
419,897	-2,05
420,105	69,63
420,313	12,29
420,521	53,25
420,729	-40,96
420,937	2,05
421,145	30,72
421,353	-4,1
421,561	0
421,769	4,1
421,977	12,29
422,185	2,05
422,393	2,05
422,601	-12,29
422,809	10,24
423,017	4,1
423,224	30,72
423,432	43,01
423,64	-6,14
423,848	-61,44
424,056	2,05
424,263	8,19
424,471	-36,86
424,679	-43,01
424,887	6,14
425,094	-4,1
425,302	26,62
425,51	22,53
425,718	-12,29
425,925	-6,14
426,133	18,43
426,341	77,82
426,548	49,15
426,756	-34,82
426,964	12,29
427,171	-106,49
427,379	43,01
427,586	-20,48
427,794	34,82
428,001	-73,73
428,209	-88,06
428,417	-18,43
428,624	-61,44
428,832	-8,19
429,039	53,25
429,247	-26,62
429,454	4,1
429,662	57,34
429,869	69,63
430,076	-34,82
430,284	-40,96
430,491	51,2
430,699	34,82
430,906	-34,82
431,114	-6,14
431,321	-12,29
431,528	18,43
431,736	-38,91
431,943	30,72
432,15	-18,43
432,358	12,29
432,565	30,72
432,772	43,01
432,979	-12,29
433,187	-38,91
433,394	10,24
433,601	73,73
433,808	-22,53
434,016	-8,19
434,223	-49,15
434,43	-26,62
434,637	-2,05
434,844	-26,62
435,052	-6,14
435,259	-6,14
435,466	-53,25
435,673	34,82
435,88	45,06
436,087	-18,43
436,294	30,72
436,501	22,53
436,708	-20,48
436,915	71,68
437,122	55,3
437,329	53,25
437,537	-40,96
437,743	0
437,95	-14,34
438,157	-12,29
438,364	-32,77
438,571	18,43
438,778	-16,38
438,985	-18,43
439,192	2,05
439,399	-43,01
439,606	-118,78
439,813	75,77
440,02	83,97
440,227	14,34
440,433	24,58
440,64	-51,2
440,847	18,43
441,054	4,1
441,261	-26,62
441,467	30,72
441,674	30,72
441,881	-22,53
442,088	-22,53
442,294	-12,29
442,501	-55,3
442,708	-28,67
442,914	6,14
443,121	43,01
443,328	10,24
443,534	-77,82
443,741	14,34
443,948	34,82
444,154	2,05
444,361	-77,82
444,568	-69,63
444,774	63,49
444,981	-34,82
445,187	-53,25
445,394	34,82
445,6	-34,82
445,807	10,24
446,013	61,44
446,22	-10,24
446,426	36,86
446,633	43,01
446,839	69,63
447,046	53,25
447,252	34,82
447,459	-38,91
447,665	36,86
447,871	2,05
448,078	-6,14
448,284	67,58
448,491	34,82
448,697	12,29
448,903	83,97
449,11	24,58
449,316	36,86
449,522	-6,14
449,728	18,43
449,935	-49,15
450,141	-4,1
450,347	-53,25
450,553	34,82
450,76	18,43
450,966	-55,3
451,172	61,44
451,378	49,15
451,584	2,05
451,791	-2,05
451,997	53,25
452,203	-6,14
452,409	81,92
452,615	6,14
452,821	43,01
453,027	12,29
453,233	20,48
453,44	16,38
453,646	-32,77
453,852	-28,67
454,058	-47,1
454,264	0
454,47	22,53
454,676	73,73
454,882	4,1
455,088	-67,58
455,294	-2,05
455,5	-32,77
455,705	-12,29
455,911	-28,67
456,117	30,72
456,323	96,25
456,529	12,29
456,735	28,67
456,941	-14,34
457,147	51,2
457,352	47,1
457,558	-8,19
457,764	-2,05
457,97	-55,3
458,176	-10,24
458,381	30,72
458,587	26,62
458,793	-4,1
458,999	36,86
459,204	20,48
459,41	20,48
459,616	18,43
459,821	63,49
460,027	16,38
460,233	14,34
460,438	43,01
460,644	-6,14
460,85	-36,86
461,055	47,1
461,261	-69,63
461,466	59,39
461,672	-38,91
461,878	36,86
462,083	30,72
462,289	38,91
462,494	24,58
462,7	-55,3
462,905	59,39
463,111	30,72
463,316	34,82
463,522	-47,1
463,727	-53,25
463,932	22,53
464,138	57,34
464,343	6,14
464,549	75,77
464,754	14,34
464,959	12,29
465,165	-14,34
465,37	-18,43
465,575	-28,67
465,781	55,3
465,986	34,82
466,191	10,24
466,397	-22,53
466,602	14,34
466,807	18,43
467,012	2,05
467,218	51,2
467,423	-8,19
467,628	-38,91
467,833	32,77
468,038	28,67
468,244	16,38
468,449	-47,1
468,654	10,24
468,859	2,05
469,064	2,05
469,269	26,62
469,474	12,29
469,679	14,34
469,885	22,53
470,09	2,05
470,295	-30,72
470,5	-14,34
470,705	-2,05
470,91	10,24
471,115	43,01
471,32	-20,48
471,525	20,48
471,73	-10,24
471,935	-12,29
472,139	-2,05
472,344	12,29
472,549	-28,67
472,754	30,72
472,959	-32,77
473,164	16,38
473,369	12,29
473,574	24,58
473,778	-36,86
473,983	-4,1
474,188	10,24
474,393	36,86
474,598	-10,24
474,802	79,87
475,007	10,24
475,212	73,73
475,417	-102,4
475,621	8,19
475,826	38,91
476,031	34,82
476,235	-53,25
476,44	2,05
476,645	-2,05
476,849	20,48
477,054	-36,86
477,259	22,53
477,463	-75,77
477,668	-57,34
477,872	18,43
478,077	36,86
478,282	-12,29
478,486	18,43
478,691	26,62
478,895	26,62
479,1	-26,62
479,304	-24,58
479,509	-45,06
479,713	18,43
479,918	-34,82
480,122	-26,62
480,326	2,05
480,531	34,82
480,735	-45,06
480,94	86,01
481,144	16,38
481,348	26,62
481,553	-8,19
481,757	20,48
481,961	-4,1
482,166	-77,82
482,37	-12,29
482,574	28,67
482,778	-34,82
482,983	26,62
483,187	12,29
483,391	6,14
483,595	-22,53
483,8	-16,38
484,004	20,48
484,208	-79,87
484,412	-73,73
484,616	-10,24
484,821	67,58
485,025	18,43
485,229	-20,48
485,433	-22,53
485,637	51,2
485,841	6,14
486,045	-34,82
486,249	34,82
486,453	-59,39
486,657	51,2
486,861	-10,24
487,065	-6,14
487,269	16,38
487,473	8,19
487,677	-20,48
487,881	110,59
488,085	-6,14
488,289	-6,14
488,493	-81,92
488,697	-28,67
488,901	12,29
489,105	-22,53
489,309	34,82
489,512	43,01
489,716	-22,53
489,92	-30,72
490,124	-20,48
490,328	-18,43
490,531	14,34
490,735	-2,05
490,939	-16,38
491,143	98,3
491,346	-55,3
491,55	45,06
491,754	86,01
491,958	53,25
492,161	2,05
492,365	-38,91
492,569	-8,19
492,772	-53,25
492,976	-28,67
493,18	10,24
493,383	51,2
493,587	16,38
493,79	-43,01
493,994	-26,62
494,197	-55,3
494,401	65,53
494,605	16,38
494,808	-47,1
495,012	53,25
495,215	22,53
495,419	-28,67
495,622	79,87
495,825	-4,1
496,029	-2,05
496,232	38,91
496,436	63,49
496,639	32,77
496,843	43,01
497,046	-40,96
497,249	14,34
497,453	-20,48
497,656	12,29
497,859	-47,1
498,063	4,1
498,266	14,34
498,469	-22,53
498,673	57,34
498,876	22,53
499,079	26,62
499,282	36,86
499,485	-26,62
499,689	-18,43
499,892	69,63
500,095	26,62
500,298	6,14
500,501	-6,14
500,705	-45,06
500,908	100,35
501,111	-22,53
501,314	4,1
501,517	10,24
501,72	-38,91
501,923	36,86
502,126	61,44
502,329	59,39
502,532	47,1
502,735	-10,24
502,938	79,87
503,141	94,21
503,344	83,97
503,547	-4,1
503,75	-65,54
503,953	-2,05
504,156	10,24
504,359	-20,48
504,562	24,58
504,765	-55,3
504,968	47,1
505,17	4,1
505,373	6,14
505,576	-45,06
505,779	18,43
505,982	-24,58
506,185	-26,62
506,387	10,24
506,59	34,82
506,793	-45,06
506,996	83,97
507,198	-34,82
507,401	-14,34
507,604	4,1
507,807	61,44
508,009	-12,29
508,212	28,67
508,415	18,43
508,617	-30,72
508,82	-18,43
509,022	24,58
509,225	2,05
509,428	-63,49
509,63	63,49
509,833	-18,43
510,035	57,34
510,238	-4,1
510,44	61,44
510,643	-36,86
510,845	30,72
511,048	-20,48
511,25	-55,3
511,453	-6,14
511,655	-47,1
511,858	-16,38
512,06	26,62
512,262	-8,19
512,465	-18,43
512,667	28,67
512,87	28,67
513,072	51,2
513,274	32,77
513,477	36,86
513,679	-22,53
513,881	-22,53
514,084	-22,53
514,286	18,43
514,488	4,1
514,69	-51,2
514,893	-47,1
515,095	43,01
515,297	-4,1
515,499	12,29
515,701	-45,06
515,904	49,15
516,106	0
516,308	-34,82
516,51	-8,19
516,712	-2,05
516,914	43,01
517,116	14,34
517,318	12,29
517,52	53,25
517,722	12,29
517,925	36,86
518,127	-26,62
518,329	-36,86
518,531	-53,25
518,733	-49,15
518,935	-12,29
519,136	-12,29
519,338	-10,24
519,54	28,67
519,742	22,53
519,944	69,63
520,146	-16,38
520,348	47,1
520,55	-14,34
520,752	-53,25
520,954	-40,96
521,155	20,48
521,357	18,43
521,559	-38,91
521,761	-14,34
521,963	10,24
522,164	2,05
522,366	61,44
522,568	34,82
522,77	32,77
522,971	-2,05
523,173	51,2
523,375	18,43
523,576	-30,72
523,778	18,43
523,98	-22,53
524,181	-18,43
524,383	6,14
524,584	12,29
524,786	10,24
524,988	-18,43
525,189	-24,58
525,391	14,34
525,592	10,24
525,794	-67,58
525,995	30,72
526,197	36,86
526,398	53,25
526,6	26,62
526,801	59,39
527,003	-51,2
527,204	51,2
527,406	28,67
527,607	10,24
527,808	18,43
528,01	-14,34
528,211	22,53
528,412	38,91
528,614	-10,24
528,815	73,73
529,016	8,19
529,218	26,62
529,419	-47,1
529,62	-36,86
529,822	-36,86
530,023	-67,58
530,224	10,24
530,425	67,58
530,626	-12,29
530,828	-88,06
531,029	-26,62
531,23	32,77
531,431	-55,3
531,632	45,06
531,833	-12,29
532,035	-51,2
532,236	-14,34
532,437	-49,15
532,638	-14,34
532,839	-10,24
533,04	10,24
533,241	-4,1
533,442	-55,3
533,643	2,05
533,844	16,38
534,045	55,3
534,246	-24,58
534,447	-63,49
534,648	2,05
534,849	53,25
535,05	28,67
535,251	-34,82
535,451	-12,29
535,652	-2,05
535,853	-57,34
536,054	55,3
536,255	-22,53
536,456	45,06
536,657	6,14
536,857	-38,91
537,058	12,29
537,259	38,91
537,46	0
537,66	20,48
537,861	22,53
538,062	26,62
538,263	-40,96
538,463	-28,67
538,664	43,01
538,865	30,72
539,065	-14,34
539,266	65,53
539,466	-22,53
539,667	47,1
539,868	14,34
540,068	20,48
540,269	-28,67
540,469	104,45
540,67	28,67
540,87	36,86
541,071	110,59
541,271	-47,1
541,472	-28,67
541,672	8,19
541,873	-22,53
542,073	34,82
542,274	10,24
542,474	4,1
542,675	55,3
542,875	-4,1
543,075	-8,19
543,276	16,38
543,476	-59,39
543,676	-47,1
543,877	-10,24
544,077	32,77
544,277	-38,91
544,478	12,29
544,678	26,62
544,878	65,53
545,078	-8,19
545,279	-36,86
545,479	63,49
545,679	26,62
545,879	34,82
546,079	-40,96
546,28	-22,53
546,48	-106,49
546,68	4,1
546,88	-47,1
547,08	14,34
547,28	59,39
547,48	-65,54
547,68	18,43
547,88	-83,97
548,081	-14,34
548,281	10,24
548,481	10,24
548,681	10,24
548,881	-14,34
549,081	26,62
549,28	-6,14
549,48	-2,05
549,68	55,3
549,88	-30,72
550,08	10,24
550,28	51,2
550,48	2,05
550,68	-16,38
550,88	67,58
551,08	-6,14
551,279	14,34
551,479	26,62
551,679	14,34
551,879	-28,67
552,079	-43,01
552,278	-2,05
552,478	63,49
552,678	-47,1
552,878	51,2
553,077	28,67
553,277	-2,05
553,477	-12,29
553,676	14,34
553,876	10,24
554,076	10,24
554,275	-43,01
554,475	-6,14
554,674	-4,1
554,874	-24,58
555,074	-61,44
555,273	10,24
555,473	-12,29
555,672	61,44
555,872	-34,82
556,071	14,34
556,271	-22,53
556,47	0
556,67	45,06
556,869	-45,06
557,068	8,19
557,268	-22,53
557,467	-18,43
557,667	16,38
557,866	-30,72
558,065	-30,72
558,265	-22,53
558,464	4,1
558,663	30,72
558,863	2,05
559,062	-38,91
559,261	67,58
559,461	-2,05
559,66	-28,67
559,859	-34,82
560,058	-6,14
560,258	-47,1
560,457	-10,24
560,656	26,62
560,855	-47,1
561,054	-14,34
561,253	12,29
561,453	-2,05
561,652	-8,19
561,851	4,1
562,05	-6,14
562,249	-16,38
562,448	-20,48
562,647	-30,72
562,846	18,43
563,045	30,72
563,244	73,73
563,443	34,82
563,642	38,91
563,841	-26,62
564,04	34,82
564,239	22,53
564,438	22,53
564,637	-47,1
564,836	43,01
565,035	10,24
565,234	-30,72
565,432	-47,1
565,631	71,68
565,83	-26,62
566,029	63,49
566,228	-53,25
566,427	26,62
566,625	-57,34
566,824	47,1
567,023	4,1
567,222	-6,14
567,42	53,25
567,619	59,39
567,818	55,3
568,016	34,82
568,215	51,2
568,414	92,16
568,612	63,49
568,811	92,16
569,01	159,74
569,208	235,52
569,407	378,87
569,605	575,48
569,804	1210,35
570,002	1603,56
570,201	2623,45
570,4	3510,22
570,598	4962,23
570,797	6117,28
570,995	8134,53
571,193	10045,29
571,392	12756,8
571,59	15163,16
571,789	18171,63
571,987	21292,73
572,186	24985,22
572,384	28175,95
572,582	32019,99
572,781	35352,04
572,979	38485,43
573,177	42130,81
573,376	45233,49
573,574	46228,8
573,772	49806,6
573,971	51365,1
574,169	52798,68
574,367	53263,57
574,565	55399,6
574,763	56044,71
574,962	56505,51
575,16	57117,85
575,358	58049,67
575,556	57834,64
575,754	59477,11
575,952	58670,21
576,151	59993,2
576,349	59425,91
576,547	60128,36
576,745	60148,84
576,943	60603,49
577,141	60503,14
577,339	60851,3
577,537	60497
577,735	60722,27
577,933	59561,08
578,131	60236,9
578,329	59530,36
578,527	58872,96
578,725	58596,48
578,923	58463,36
579,121	57367,7
579,319	56259,75
579,516	56040,62
579,714	54305,99
579,912	53185,75
580,11	51399,92
580,308	49446,16
580,506	47686,95
580,704	44191,07
580,901	41966,98
581,099	38995,37
581,297	35626,46
581,495	32224,79
581,692	29793,85
581,89	26205,81
582,088	23357,08
582,285	20289,23
582,483	17694,45
582,681	15327
582,878	12920,63
583,076	10725,21
583,274	9035,64
583,471	7251,86
583,669	6213,54
583,866	4632,51
584,064	3727,3
584,262	2568,15
584,459	2045,92
584,657	1214,45
584,854	790,52
585,052	516,09
585,249	307,2
585,447	231,42
585,644	145,41
585,841	116,73
586,039	145,41
586,236	86,01
586,434	92,16
586,631	106,49
586,828	75,77
587,026	43,01
587,223	59,39
587,42	83,97
587,618	-43,01
587,815	-18,43
588,012	-14,34
588,21	26,62
588,407	10,24
588,604	47,1
588,801	30,72
588,999	94,21
589,196	34,82
589,393	118,78
589,59	34,82
589,787	32,77
589,984	-34,82
590,182	2,05
590,379	69,63
590,576	51,2
590,773	-34,82
590,97	2,05
591,167	-6,14
591,364	30,72
591,561	94,21
591,758	36,86
591,955	-6,14
592,152	75,77
592,349	34,82
592,546	45,06
592,743	2,05
592,94	-4,1
593,137	83,97
593,334	6,14
593,531	83,97
593,727	69,63
593,924	-4,1
594,121	55,3
594,318	4,1
594,515	32,77
594,712	26,62
594,908	32,77
595,105	77,82
595,302	34,82
595,499	-94,21
595,696	14,34
595,892	57,34
596,089	22,53
596,286	90,11
596,482	-38,91
596,679	-10,24
596,876	18,43
597,072	-2,05
597,269	53,25
597,466	88,06
597,662	34,82
597,859	63,49
598,055	43,01
598,252	-6,14
598,448	45,06
598,645	12,29
598,841	-4,1
599,038	16,38
599,234	2,05
599,431	6,14
599,627	24,58
599,824	-2,05
600,02	26,62
600,217	53,25
600,413	-6,14
600,609	-67,58
600,806	45,06
601,002	22,53
601,198	30,72
601,395	-57,34
601,591	-26,62
601,787	45,06
601,984	36,86
602,18	36,86
602,376	-20,48
602,572	-16,38
602,769	-6,14
602,965	18,43
603,161	32,77
603,357	-12,29
603,553	20,48
603,75	20,48
603,946	-20,48
604,142	53,25
604,338	-14,34
604,534	0
604,73	16,38
604,926	30,72
605,122	12,29
605,318	-4,1
605,514	20,48
605,71	18,43
605,906	43,01
606,102	43,01
606,298	-6,14
606,494	-61,44
606,69	-81,92
606,886	-36,86
607,082	-28,67
607,278	-47,1
607,474	-4,1
607,67	2,05
607,866	63,49
608,062	-83,97
608,257	-2,05
608,453	-10,24
608,649	40,96
608,845	-4,1
609,041	18,43
609,236	14,34
609,432	-24,58
609,628	0
609,824	-45,06
610,019	2,05
610,215	30,72
610,411	30,72
610,606	-10,24
610,802	18,43
610,998	12,29
611,193	-24,58
611,389	-18,43
611,584	2,05
611,78	-18,43
611,976	59,39
612,171	-14,34
612,367	55,3
612,562	79,87
612,758	8,19
612,953	18,43
613,149	49,15
613,344	24,58
613,539	10,24
613,735	102,4
613,93	-55,3
614,126	-22,53
614,321	53,25
614,517	-43,01
614,712	28,67
614,907	32,77
615,103	43,01
615,298	2,05
615,493	6,14
615,688	-2,05
615,884	-83,97
616,079	20,48
616,274	-59,39
616,47	14,34
616,665	24,58
616,86	-20,48
617,055	12,29
617,25	63,49
617,445	30,72
617,641	-59,39
617,836	-12,29
618,031	81,92
618,226	-14,34
618,421	-6,14
618,616	-45,06
618,811	12,29
619,006	-14,34
619,201	26,62
619,396	12,29
619,591	-24,58
619,786	-6,14
619,981	4,1
620,176	20,48
620,371	34,82
620,566	69,63
620,761	94,21
620,956	-28,67
621,151	-24,58
621,346	-24,58
621,541	-2,05
621,735	-14,34
621,93	-12,29
622,125	10,24
622,32	-26,62
622,515	2,05
622,709	69,63
622,904	-28,67
623,099	12,29
623,294	51,2
623,488	-43,01
623,683	-49,15
623,878	22,53
624,072	14,34
624,267	8,19
624,462	-14,34
624,656	-22,53
624,851	-2,05
625,046	-30,72
625,24	-36,86
625,435	-6,14
625,629	34,82
625,824	28,67
626,018	10,24
626,213	-53,25
626,407	77,82
626,602	51,2
626,796	-4,1
626,991	34,82
627,185	-75,77
627,38	45,06
627,574	-4,1
627,768	-2,05
627,963	34,82
628,157	28,67
628,352	-45,06
628,546	6,14
628,74	26,62
628,935	-22,53
629,129	-45,06
629,323	108,54
629,517	-43,01
629,712	32,77
629,906	16,38
630,1	49,15
630,294	38,91
630,489	-2,05
630,683	-4,1
630,877	-51,2
631,071	43,01
631,265	-14,34
631,459	51,2
631,653	-4,1
631,848	30,72
632,042	2,05
632,236	-20,48
632,43	59,39
632,624	-38,91
632,818	-36,86
633,012	16,38
633,206	-45,06
633,4	18,43
633,594	-34,82
633,788	-12,29
633,982	20,48
634,176	12,29
634,369	-26,62
634,563	-10,24
634,757	-112,64
634,951	-18,43
635,145	51,2
635,339	4,1
635,533	-18,43
635,726	-36,86
635,92	51,2
636,114	8,19
636,308	12,29
636,501	55,3
636,695	26,62
636,889	-18,43
637,083	-22,53
637,276	-43,01
637,47	20,48
637,664	-26,62
637,857	8,19
638,051	14,34
638,244	-49,15
638,438	-114,69
638,632	-22,53
638,825	14,34
639,019	-6,14
639,212	-14,34
639,406	34,82
639,599	65,53
639,793	-14,34
639,986	59,39
640,18	51,2
640,373	-14,34
640,567	30,72
640,76	14,34
640,954	43,01
641,147	-22,53
641,34	94,21
641,534	-8,19
641,727	-2,05
641,92	59,39
642,114	-94,21
642,307	75,77
642,5	-59,39
642,694	-14,34
642,887	-57,34
643,08	51,2
643,273	94,21
643,467	-45,06
643,66	43,01
643,853	0
644,046	47,1
644,239	-4,1
644,432	12,29
644,626	-75,77
644,819	14,34
645,012	-69,63
645,205	36,86
645,398	-47,1
645,591	20,48
645,784	12,29
645,977	2,05
646,17	-18,43
646,363	32,77
646,556	49,15
646,749	-4,1
646,942	-14,34
647,135	26,62
647,328	36,86
647,521	8,19
647,714	83,97
647,907	28,67
648,099	-45,06
648,292	-63,49
648,485	-4,1
648,678	-22,53
648,871	-43,01
649,064	-2,05
649,256	14,34
649,449	38,91
649,642	-49,15
649,835	38,91
650,027	8,19
650,22	49,15
650,413	-24,58
650,605	36,86
650,798	-71,68
650,991	4,1
651,183	-45,06
651,376	55,3
651,568	16,38
651,761	-34,82
651,954	-38,91
652,146	14,34
652,339	51,2
652,531	-6,14
652,724	14,34
652,916	14,34
653,109	-12,29
653,301	77,82
653,494	57,34
653,686	16,38
653,879	-75,77
654,071	38,91
654,263	26,62
654,456	-12,29
654,648	0
654,84	-4,1
655,033	-73,73
655,225	20,48
655,417	20,48
655,61	-36,86
655,802	26,62
655,994	-4,1
656,186	26,62
656,379	34,82
656,571	-16,38
656,763	18,43
656,955	30,72
657,148	-61,44
657,34	69,63
657,532	22,53
657,724	45,06
657,916	-10,24
658,108	-36,86
658,3	36,86
658,492	-65,54
658,684	-36,86
658,876	-10,24
659,068	49,15
659,26	34,82
659,452	-26,62
659,644	-18,43
659,836	-10,24
660,028	45,06
660,22	6,14
660,412	67,58
660,604	102,4
660,796	-67,58
660,988	94,21
661,18	0
661,372	67,58
661,563	63,49
661,755	-28,67
661,947	40,96
662,139	-14,34
662,331	22,53
662,522	-28,67
662,714	43,01
662,906	53,25
663,097	51,2
663,289	-30,72
663,481	-40,96
663,673	4,1
663,864	-18,43
664,056	53,25
664,247	26,62
664,439	-20,48
664,631	28,67
664,822	26,62
665,014	-28,67
665,205	10,24
665,397	-30,72
665,588	-61,44
665,78	20,48
665,971	90,11
666,163	-63,49
666,354	-10,24
666,546	-14,34
666,737	30,72
666,929	24,58
667,12	4,1
667,311	-34,82
667,503	-30,72
667,694	18,43
667,885	49,15
668,077	-10,24
668,268	57,34
668,459	16,38
668,651	-45,06
668,842	18,43
669,033	-6,14
669,224	-55,3
669,416	-12,29
669,607	34,82
669,798	47,1
669,989	-12,29
670,18	67,58
670,371	28,67
670,563	92,16
670,754	45,06
670,945	12,29
671,136	4,1
671,327	-38,91
671,518	-14,34
671,709	47,1
671,9	-10,24
672,091	-2,05
672,282	-22,53
672,473	-18,43
672,664	26,62
672,855	-22,53
673,046	26,62
673,237	-57,34
673,428	-30,72
673,619	-12,29
673,809	28,67
674	-16,38
674,191	26,62
674,382	-22,53
674,573	61,44
674,764	-4,1
674,954	36,86
675,145	92,16
675,336	-14,34
675,527	43,01
675,717	-18,43
675,908	-26,62
676,099	28,67
676,289	59,39
676,48	-61,44
676,671	8,19
676,861	10,24
677,052	22,53
677,243	-2,05
677,433	14,34
677,624	8,19
677,814	22,53
678,005	51,2
678,195	71,68
678,386	10,24
678,576	75,77
678,767	26,62
678,957	-47,1
679,148	73,73
679,338	69,63
679,529	18,43
679,719	-2,05
679,909	-49,15
680,1	38,91
680,29	-14,34
680,481	30,72
680,671	65,53
680,861	28,67
681,052	-112,64
681,242	24,58
681,432	-22,53
681,622	51,2
681,813	-24,58
682,003	45,06
682,193	-38,91
682,383	45,06
682,573	-14,34
682,764	-14,34
682,954	-20,48
683,144	30,72
683,334	10,24
683,524	4,1
683,714	-106,49
683,904	36,86
684,094	34,82
684,284	100,35
684,474	-12,29
684,664	-24,58
684,854	-4,1
685,044	0
685,234	8,19
685,424	-22,53
685,614	-38,91
685,804	-30,72
685,994	28,67
686,184	49,15
686,374	-10,24
686,564	6,14
686,753	28,67
686,943	-30,72
687,133	0
687,323	12,29
687,513	-6,14
687,702	26,62
687,892	-28,67
688,082	88,06
688,272	-30,72
688,461	4,1
688,651	30,72
688,841	34,82
689,03	-20,48
689,22	12,29
689,41	28,67
689,599	-28,67
689,789	0
689,979	2,05
690,168	49,15
690,358	-2,05
690,547	34,82
690,737	-14,34
690,926	-63,49
691,116	6,14
691,305	6,14
691,495	-12,29
691,684	-12,29
691,874	-12,29
692,063	-30,72
692,252	108,54
692,442	10,24
692,631	-86,01
692,82	6,14
693,01	10,24
693,199	10,24
693,388	-43,01
693,578	4,1
693,767	57,34
693,956	28,67
694,146	2,05
694,335	-38,91
694,524	-8,19
694,713	-47,1
694,902	77,82
695,092	-14,34
695,281	20,48
695,47	14,34
695,659	51,2
695,848	47,1
696,037	-6,14
696,226	18,43
696,415	-12,29
696,604	16,38
696,793	-51,2
696,982	-51,2
697,171	-34,82
697,36	45,06
697,549	10,24
697,738	-2,05
697,927	49,15
698,116	28,67
698,305	112,64
698,494	2,05
698,683	10,24
698,872	26,62
699,061	12,29
699,25	2,05
699,438	38,91
699,627	-30,72
699,816	-12,29
700,005	4,1
700,193	14,34
700,382	-43,01
700,571	-36,86
700,76	-6,14
700,948	43,01
701,137	-4,1
701,326	-18,43
701,514	59,39
701,703	-45,06
701,892	-22,53
702,08	-10,24
702,269	-45,06
702,457	-4,1
702,646	-32,77
702,834	28,67
703,023	0
703,212	0
703,4	-14,34
703,589	-47,1
703,777	-69,63
703,965	59,39
704,154	34,82
704,342	36,86
704,531	26,62
704,719	8,19
704,907	-8,19
705,096	32,77
705,284	20,48
705,472	-14,34
705,661	22,53
705,849	18,43
706,037	-34,82
706,226	40,96
706,414	-4,1
706,602	-32,77
706,79	-32,77
706,979	-59,39
707,167	53,25
707,355	61,44
707,543	-14,34
707,731	26,62
707,919	69,63
708,107	-28,67
708,296	-22,53
708,484	-36,86
708,672	-14,34
708,86	18,43
709,048	-26,62
709,236	38,91
709,424	-18,43
709,612	49,15
709,8	-14,34
709,988	-6,14
710,176	36,86
710,364	53,25
710,551	-30,72
710,739	-6,14
710,927	-14,34
711,115	22,53
711,303	-51,2
711,491	98,3
711,679	6,14
711,866	-20,48
712,054	-18,43
712,242	20,48
712,43	-22,53
712,617	26,62
712,805	8,19
712,993	0
713,181	79,87
713,368	16,38
713,556	-53,25
713,744	-12,29
713,931	22,53
714,119	-22,53
714,306	12,29
714,494	108,54
714,682	-22,53
714,869	40,96
715,057	12,29
715,244	4,1
715,432	-43,01
715,619	4,1
715,807	-38,91
715,994	45,06
716,182	-6,14
716,369	10,24
716,556	-32,77
716,744	38,91
716,931	16,38
717,119	49,15
717,306	-20,48
717,493	4,1
717,681	-6,14
717,868	-2,05
718,055	8,19
718,242	14,34
718,43	47,1
718,617	-26,62
718,804	-40,96
718,991	38,91
719,179	-26,62
719,366	59,39
719,553	40,96
719,74	-26,62
719,927	-77,82
720,114	14,34
720,301	38,91
720,488	8,19
720,676	-24,58
720,863	28,67
721,05	26,62
721,237	-4,1
721,424	-63,49
721,611	32,77
721,798	-77,82
721,985	-38,91
722,172	-4,1
722,358	-4,1
722,545	-45,06
722,732	-16,38
722,919	-16,38
723,106	51,2
723,293	10,24
723,48	92,16
723,667	18,43
723,853	-30,72
724,04	6,14
724,227	34,82
724,414	-16,38
724,6	-10,24
724,787	-10,24
724,974	59,39
725,161	22,53
725,347	59,39
725,534	2,05
725,72	-26,62
725,907	28,67
726,094	12,29
726,28	12,29
726,467	-8,19
726,653	63,49
726,84	0
727,027	-6,14
727,213	61,44
727,4	10,24
727,586	4,1
727,773	57,34
727,959	-6,14
728,145	-16,38
728,332	-49,15
728,518	-40,96
728,705	10,24
728,891	47,1
729,077	-2,05
729,264	-22,53
729,45	0
729,636	-45,06
729,823	79,87
730,009	38,91
730,195	-49,15
730,382	4,1
730,568	43,01
730,754	4,1
730,94	57,34
731,126	86,01
731,313	-28,67
731,499	26,62
731,685	18,43
731,871	-71,68
732,057	38,91
732,243	59,39
732,429	10,24
732,615	12,29
732,801	45,06
732,987	-28,67
733,173	26,62
733,359	0
733,545	65,53
733,731	-36,86
733,917	47,1
734,103	-53,25
734,289	51,2
734,475	-45,06
734,661	10,24
734,847	18,43
735,033	2,05
735,219	16,38
735,404	45,06
735,59	2,05
735,776	38,91
735,962	18,43
736,148	65,53
736,333	43,01
736,519	26,62
736,705	-6,14
736,89	26,62
737,076	0
737,262	2,05
737,447	-22,53
737,633	30,72
737,819	2,05
738,004	-26,62
738,19	2,05
738,375	-14,34
738,561	34,82
738,747	-6,14
738,932	-47,1
739,118	-10,24
739,303	-55,3
739,489	-2,05
739,674	-26,62
739,859	79,87
740,045	36,86
740,23	-6,14
740,416	-53,25
740,601	18,43
740,786	20,48
740,972	10,24
741,157	40,96
741,342	-71,68
741,528	-51,2
741,713	79,87
741,898	-2,05
742,084	79,87
742,269	-34,82
742,454	30,72
742,639	-59,39
742,824	-26,62
743,01	28,67
743,195	-32,77
743,38	38,91
743,565	51,2
743,75	24,58
743,935	47,1
744,12	0
744,305	114,69
744,49	-26,62
744,675	69,63
744,86	-34,82
745,045	34,82
745,23	26,62
745,415	-6,14
745,6	6,14
745,785	40,96
745,97	-16,38
746,155	36,86
746,34	-18,43
746,525	47,1
746,71	38,91
746,895	-38,91
747,079	26,62
747,264	-45,06
747,449	18,43
747,634	-38,91
747,819	30,72
748,003	-30,72
748,188	-53,25
748,373	34,82
748,557	-6,14
748,742	-28,67
748,927	20,48
749,111	18,43
749,296	16,38
749,481	28,67
749,665	51,2
749,85	6,14
750,034	-10,24
750,219	14,34
750,404	14,34
750,588	-14,34
750,773	38,91
750,957	28,67
751,141	34,82
751,326	79,87
751,51	-6,14
751,695	-10,24
751,879	12,29
752,064	-43,01
752,248	-36,86
752,432	34,82
752,617	-30,72
752,801	65,53
752,985	34,82
753,17	4,1
753,354	26,62
753,538	-28,67
753,722	12,29
753,907	-18,43
754,091	22,53
754,275	36,86
754,459	-40,96
754,643	-47,1
754,828	51,2
755,012	-34,82
755,196	-16,38
755,38	43,01
755,564	-36,86
755,748	61,44
755,932	30,72
756,116	59,39
756,3	18,43
756,484	2,05
756,668	-2,05
756,852	36,86
757,036	-24,58
757,22	-45,06
757,404	47,1
757,588	-34,82
757,772	0
757,956	2,05
758,14	-10,24
758,323	67,58
758,507	-4,1
758,691	-53,25
758,875	-18,43
759,059	51,2
759,242	-51,2
759,426	69,63
759,61	4,1
759,794	-34,82
759,977	-69,63
760,161	26,62
760,345	53,25
760,528	36,86
760,712	26,62
760,895	26,62
761,079	28,67
761,263	-26,62
761,446	-12,29
761,63	14,34
761,813	-6,14
761,997	2,05
762,18	-22,53
762,364	-26,62
762,547	8,19
762,731	12,29
762,914	-10,24
763,098	14,34
763,281	16,38
763,464	-40,96
763,648	20,48
763,831	-30,72
764,015	28,67
764,198	-65,54
764,381	-57,34
764,564	4,1
764,748	18,43
764,931	26,62
765,114	-2,05
765,297	34,82
765,481	43,01
765,664	-22,53
765,847	22,53
766,03	36,86
766,213	2,05
766,397	-22,53
766,58	-38,91
766,763	-22,53
766,946	-57,34
767,129	0
767,312	43,01
767,495	20,48
767,678	-14,34
767,861	12,29
768,044	-8,19
768,227	34,82
768,41	6,14
768,593	-2,05
768,776	-67,58
768,959	0
769,142	0
769,324	-22,53
769,507	6,14
769,69	18,43
769,873	77,82
770,056	18,43
770,239	-26,62
770,421	4,1
770,604	-12,29
770,787	-20,48
770,97	16,38
771,152	-112,64
771,335	28,67
771,518	53,25
771,7	12,29
771,883	-10,24
772,066	8,19
772,248	18,43
772,431	-6,14
772,613	-28,67
772,796	2,05
772,978	4,1
773,161	-28,67
773,343	4,1
773,526	-10,24
773,708	-83,97
773,891	-22,53
774,073	-14,34
774,256	26,62
774,438	6,14
774,621	47,1
774,803	-6,14
774,985	-47,1
775,168	-67,58
775,35	18,43
775,532	43,01
775,715	-38,91
775,897	6,14
776,079	-12,29
776,261	0
776,444	0
776,626	-8,19
776,808	45,06
776,99	10,24
777,173	-14,34
777,355	-2,05
777,537	14,34
777,719	-18,43
777,901	49,15
778,083	47,1
778,265	30,72
778,447	34,82
778,629	-6,14
778,811	38,91
778,993	-20,48
779,175	-22,53
779,357	-40,96
779,539	24,58
779,721	-22,53
779,903	51,2
780,085	-51,2
780,267	26,62
780,449	-10,24
780,631	4,1
780,812	-26,62
780,994	36,86
781,176	10,24
781,358	34,82
781,54	6,14
781,721	-20,48
781,903	-63,49
782,085	8,19
782,267	-34,82
782,448	-43,01
782,63	-28,67
782,812	-30,72
782,993	-18,43
783,175	51,2
783,357	12,29
783,538	100,35
783,72	-30,72
783,901	34,82
784,083	-2,05
784,264	-30,72
784,446	-20,48
784,627	-79,87
784,809	59,39
784,99	30,72
785,172	34,82
785,353	18,43
785,535	14,34
785,716	-14,34
785,897	-26,62
786,079	67,58
786,26	-10,24
786,441	10,24
786,623	26,62
786,804	55,3
786,985	47,1
787,167	-4,1
787,348	-4,1
787,529	18,43
787,71	22,53
787,891	49,15
788,073	12,29
788,254	30,72
788,435	28,67
788,616	-38,91
788,797	-69,63
788,978	-8,19
789,159	51,2
789,34	38,91
789,522	18,43
789,703	2,05
789,884	8,19
790,065	51,2
790,246	-22,53
790,427	24,58
790,607	45,06
790,788	43,01
790,969	-43,01
791,15	-28,67
791,331	-6,14
791,512	2,05
791,693	26,62
791,874	12,29
792,054	45,06
792,235	-16,38
792,416	-20,48
792,597	28,67
792,778	34,82
792,958	2,05
793,139	20,48
793,32	-14,34
793,5	30,72
793,681	38,91
793,862	12,29
794,042	-20,48
794,223	16,38
794,404	-51,2
794,584	-38,91
794,765	51,2
794,945	69,63
795,126	-30,72
795,306	81,92
795,487	34,82
795,667	18,43
795,848	75,77
796,028	-36,86
796,209	28,67
796,389	34,82
796,57	4,1
796,75	-32,77
796,93	53,25
797,111	-20,48
797,291	86,01
797,471	18,43
797,652	-24,58
797,832	2,05
798,012	-22,53
798,192	36,86
798,373	-20,48
798,553	-30,72
798,733	14,34
798,913	26,62
799,093	55,3
799,274	71,68
799,454	32,77
799,634	-47,1
799,814	-12,29
799,994	4,1
800,174	20,48
800,354	40,96
800,534	55,3
800,714	18,43
800,894	-30,72
801,074	43,01
801,254	59,39
801,434	-83,97
801,614	-28,67
801,794	-16,38
801,974	79,87
802,154	-59,39
802,334	45,06
802,514	4,1
802,693	-30,72
802,873	26,62
803,053	-61,44
803,233	8,19
803,413	-26,62
803,592	4,1
803,772	43,01
803,952	30,72
804,131	30,72
804,311	2,05
804,491	-30,72
804,67	-30,72
804,85	40,96
805,03	-16,38
805,209	47,1
805,389	-2,05
805,568	-10,24
805,748	-22,53
805,928	-4,1
806,107	-12,29
806,287	26,62
806,466	-55,3
806,646	2,05
806,825	-6,14
807,004	-4,1
807,184	22,53
807,363	-53,25
807,543	18,43
807,722	-28,67
807,901	-30,72
808,081	53,25
808,26	45,06
808,439	-4,1
808,619	-94,21
808,798	-43,01
808,977	-12,29
809,156	43,01
809,336	-45,06
809,515	22,53
809,694	-26,62
809,873	2,05
810,052	28,67
810,231	45,06
810,411	-6,14
810,59	26,62
810,769	18,43
810,948	10,24
811,127	-57,34
811,306	-45,06
811,485	-51,2
811,664	24,58
811,843	34,82
812,022	6,14
812,201	-18,43
812,38	10,24
812,559	-6,14
812,737	67,58
812,916	67,58
813,095	34,82
813,274	-4,1
813,453	-38,91
813,632	-10,24
813,811	-22,53
813,989	-14,34
814,168	-53,25
814,347	2,05
814,526	45,06
814,704	-10,24
814,883	-92,16
815,062	59,39
815,24	28,67
815,419	-57,34
815,598	40,96
815,776	26,62
815,955	4,1
816,133	24,58
816,312	-6,14
816,49	-2,05
816,669	75,77
816,847	-59,39
817,026	81,92
817,204	12,29
817,383	10,24
817,561	-30,72
817,74	-10,24
817,918	34,82
818,097	10,24
818,275	2,05
818,453	-49,15
818,632	-104,45
818,81	-14,34
818,988	8,19
819,167	26,62
819,345	-14,34
819,523	38,91
819,701	-28,67
819,879	20,48
820,058	20,48
820,236	77,82
820,414	22,53
820,592	-53,25
820,77	-14,34
820,948	16,38
821,127	49,15
821,305	-14,34
821,483	75,77
821,661	12,29
821,839	-2,05
822,017	-12,29
822,195	-59,39
822,373	10,24
822,551	-38,91
822,729	26,62
822,907	-71,68
823,085	4,1
823,262	2,05
823,44	-40,96
823,618	-18,43
823,796	36,86
823,974	-6,14
824,152	2,05
824,329	26,62
824,507	30,72
824,685	34,82
824,863	30,72
825,04	26,62
825,218	-18,43
825,396	-26,62
825,574	38,91
825,751	-38,91
825,929	-20,48
826,107	20,48
826,284	38,91
826,462	18,43
826,639	-86,01
826,817	-12,29
826,994	-16,38
827,172	4,1
827,349	-34,82
827,527	-43,01
827,704	51,2
827,882	16,38
828,059	-10,24
828,237	2,05
828,414	32,77
828,591	10,24
828,769	47,1
828,946	-30,72
829,124	45,06
829,301	59,39
829,478	-22,53
829,655	32,77
829,833	4,1
830,01	36,86
830,187	-30,72
830,364	-2,05
830,542	43,01
830,719	6,14
830,896	8,19
831,073	47,1
831,25	-53,25
831,427	86,01
831,604	26,62
831,782	0
831,959	53,25
832,136	14,34
832,313	77,82
832,49	-47,1
832,667	24,58
832,844	4,1
833,021	24,58
833,198	-49,15
833,374	-22,53
833,551	40,96
833,728	-12,29
833,905	-63,49
834,082	-32,77
834,259	-20,48
834,436	63,49
834,612	2,05
834,789	-22,53
834,966	51,2
835,143	-22,53
835,319	-43,01
835,496	59,39
835,673	-30,72
835,85	51,2
836,026	40,96
836,203	45,06
836,38	-22,53
836,556	-49,15
836,733	22,53
836,909	26,62
837,086	-10,24
837,262	2,05
837,439	-28,67
837,616	-10,24
837,792	-28,67
837,968	-59,39
838,145	61,44
838,321	55,3
838,498	-24,58
838,674	38,91
838,851	-63,49
839,027	22,53
839,203	-28,67
839,38	-6,14
839,556	6,14
839,732	-22,53
839,909	-6,14
840,085	38,91
840,261	-83,97
840,437	12,29
840,614	6,14
840,79	2,05
840,966	-18,43
841,142	-12,29
841,318	14,34
841,494	-4,1
841,671	-12,29
841,847	61,44
842,023	-22,53
842,199	18,43
842,375	-51,2
842,551	53,25
842,727	40,96
842,903	34,82
843,079	10,24
843,255	-63,49
843,431	-30,72
843,607	-12,29
843,783	-36,86
843,959	4,1
844,134	-8,19
844,31	79,87
844,486	-10,24
844,662	34,82
844,838	2,05
845,013	-16,38
845,189	86,01
845,365	-26,62
845,541	26,62
845,716	-26,62
845,892	-61,44
846,068	12,29
846,244	51,2
846,419	-51,2
846,595	24,58
846,77	-28,67
846,946	-30,72
847,122	-22,53
847,297	34,82
847,473	28,67
847,648	14,34
847,824	4,1
847,999	-16,38
848,175	-28,67
848,35	-77,82
848,526	22,53
848,701	-14,34
848,876	-6,14
849,052	36,86
849,227	-14,34
849,403	-14,34
849,578	30,72
849,753	2,05
849,929	-18,43
850,104	-59,39
850,279	-4,1
850,454	12,29
850,63	2,05
850,805	-40,96
850,98	-14,34
851,155	-75,77
851,33	26,62
851,505	-67,58
851,681	-20,48
851,856	-20,48
852,031	20,48
852,206	-38,91
852,381	12,29
852,556	-18,43
852,731	20,48
852,906	-28,67
853,081	-30,72
853,256	8,19
853,431	-26,62
853,606	12,29
853,781	14,34
853,956	2,05
854,131	24,58
854,305	-141,31
854,48	4,1
854,655	-45,06
854,83	28,67
855,005	4,1
855,18	40,96
855,354	0
855,529	-30,72
855,704	-14,34
855,879	-4,1
856,053	-18,43
856,228	-45,06
856,403	4,1
856,577	20,48
856,752	-63,49
856,926	26,62
857,101	-12,29
857,276	-63,49
857,45	34,82
857,625	43,01
857,799	26,62
857,974	-20,48
858,148	32,77
858,323	43,01
858,497	-12,29
858,672	36,86
858,846	-65,54
859,02	-14,34
859,195	2,05
859,369	24,58
859,543	4,1
859,718	12,29
859,892	92,16
860,066	-10,24
860,241	28,67
860,415	4,1
860,589	47,1
860,763	8,19
860,938	-4,1
861,112	18,43
861,286	24,58
861,46	4,1
861,634	-18,43
861,808	-24,58
861,982	16,38
862,157	69,63
862,331	-10,24
862,505	10,24
862,679	-18,43
862,853	53,25
863,027	-79,87
863,201	-2,05
863,375	-30,72
863,549	38,91
863,722	6,14
863,896	18,43
864,07	10,24
864,244	43,01
864,418	49,15
864,592	-67,58
864,766	-12,29
864,939	51,2
865,113	-4,1
865,287	2,05
865,461	-51,2
865,634	45,06
865,808	108,54
865,982	16,38
866,156	-45,06
866,329	59,39
866,503	40,96
866,676	51,2
866,85	43,01
867,024	-2,05
867,197	14,34
867,371	-2,05
867,544	-36,86
867,718	-16,38
867,891	-14,34
868,065	57,34
868,238	-6,14
868,412	-26,62
868,585	-71,68
868,759	32,77
868,932	-12,29
869,105	6,14
869,279	14,34
869,452	75,77
869,625	-18,43
869,799	47,1
869,972	-2,05
870,145	2,05
870,319	61,44
870,492	-55,3
870,665	67,58
870,838	69,63
871,011	51,2
871,185	-53,25
871,358	-38,91
871,531	18,43
871,704	-47,1
871,877	22,53
872,05	30,72
872,223	6,14
872,396	24,58
872,569	-2,05
872,742	-18,43
872,915	-14,34
873,088	-59,39
873,261	-53,25
873,434	12,29
873,607	-53,25
873,78	16,38
873,953	6,14
874,126	-61,44
874,299	22,53
874,471	-36,86
874,644	18,43
874,817	-4,1
874,99	-12,29
875,163	-6,14
875,335	-59,39
875,508	-8,19
875,681	-36,86
875,853	-43,01
876,026	-24,58
876,199	-45,06
876,371	-8,19
876,544	-6,14
876,717	18,43
876,889	10,24
877,062	-47,1
877,234	2,05
877,407	34,82
877,579	102,4
877,752	63,49
877,924	-4,1
878,097	-51,2
878,269	0
878,442	-2,05
878,614	10,24
878,786	51,2
878,959	0
879,131	43,01
879,303	-36,86
879,476	26,62
879,648	10,24
879,82	20,48
879,993	20,48
880,165	-55,3
880,337	-30,72
880,509	-30,72
880,681	30,72
880,854	112,64
881,026	-10,24
881,198	45,06
881,37	26,62
881,542	-6,14
881,714	-28,67
881,886	67,58
882,058	-43,01
882,23	18,43
882,402	-20,48
882,574	22,53
882,746	-30,72
882,918	-2,05
883,09	16,38
883,262	2,05
883,434	8,19
883,606	-6,14
883,778	34,82
883,95	-30,72
884,122	-67,58
884,293	4,1
884,465	6,14
884,637	-12,29
884,809	-30,72
884,98	47,1
885,152	28,67
885,324	88,06
885,496	14,34
885,667	26,62
885,839	-4,1
886,011	-4,1
886,182	55,3
886,354	-6,14
886,525	-12,29
886,697	-43,01
886,869	-47,1
887,04	57,34
887,212	-30,72
887,383	-14,34
887,555	73,73
887,726	-4,1
887,897	47,1
888,069	4,1
888,24	59,39
888,412	22,53
888,583	-38,91
888,754	49,15
888,926	6,14
889,097	24,58
889,268	-43,01
889,44	12,29
889,611	-20,48
889,782	88,06
889,953	22,53
890,125	20,48
890,296	-6,14
890,467	18,43
890,638	-26,62
890,809	83,97
890,98	8,19
891,151	47,1
891,323	4,1
891,494	83,97
891,665	-10,24
891,836	51,2
892,007	-14,34
892,178	55,3
892,349	-14,34
892,52	12,29
892,691	-30,72
892,862	38,91
893,032	-71,68
893,203	38,91
893,374	-30,72
893,545	-36,86
893,716	-6,14
893,887	36,86
894,057	26,62
894,228	-45,06
894,399	2,05
894,57	16,38
894,74	4,1
894,911	10,24
895,082	88,06
895,253	0
895,423	-30,72
895,594	-34,82
895,764	81,92
895,935	12,29
896,106	18,43
896,276	32,77
896,447	-10,24
896,617	-16,38
896,788	12,29
896,958	-4,1
897,129	2,05
897,299	49,15
897,47	30,72
897,64	45,06
897,81	34,82
897,981	-8,19
898,151	22,53
898,322	18,43
898,492	14,34
898,662	6,14
898,832	-45,06
899,003	10,24
899,173	10,24
899,343	122,88
899,513	34,82
