Data from filtre 577_USB4F104151__5__12-00-10-717.txt Node

Date: Wed Apr 15 12:00:10 EDT 2026
User: LaboPhy
Spectrometer: USB4F10415
Trigger mode: 4
Integration Time (sec): 2,000000E-3
Scans to average: 1
Electric dark correction enabled: true
Nonlinearity correction enabled: false
Boxcar width: 0
XAxis mode: Wavelengths
Number of Pixels in Spectrum: 3648
>>>>>Begin Spectral Data<<<<<
178,204	52,91
178,424	52,91
178,644	52,91
178,864	-0,34
179,084	38,57
179,304	30,38
179,524	-18,77
179,744	26,28
179,964	18,09
180,184	11,95
180,404	-24,92
180,624	-12,63
180,844	28,33
181,064	34,47
181,283	-67,92
181,503	5,8
181,723	-31,06
181,943	-0,34
182,163	7,85
182,383	40,62
182,602	-35,16
182,822	5,8
183,042	40,62
183,262	20,14
183,482	-24,92
183,701	63,15
183,921	69,29
184,141	13,99
184,361	40,62
184,58	22,19
184,8	-2,39
185,02	42,67
185,239	40,62
185,459	-6,49
185,679	-45,4
185,898	-8,53
186,118	42,67
186,338	11,95
186,557	-0,34
186,777	-2,39
186,997	-29,01
187,216	-45,4
187,436	22,19
187,655	-33,11
187,875	61,1
188,095	-14,68
188,314	-29,01
188,534	11,95
188,753	28,33
188,973	-39,25
189,192	-20,82
189,412	11,95
189,631	69,29
189,851	69,29
190,07	-45,4
190,29	32,43
190,509	-26,96
190,729	-8,53
190,948	22,19
191,168	30,38
191,387	-12,63
191,607	26,28
191,826	5,8
192,045	-41,3
192,265	-10,58
192,484	-12,63
192,704	-31,06
192,923	-53,59
193,142	3,75
193,362	-24,92
193,581	20,14
193,8	-18,77
194,02	-18,77
194,239	26,28
194,458	44,71
194,678	-26,96
194,897	13,99
195,116	-37,2
195,335	46,76
195,555	-26,96
195,774	3,75
195,993	85,67
196,212	-18,77
196,432	-26,96
196,651	22,19
196,87	13,99
197,089	63,15
197,308	9,9
197,528	46,76
197,747	-61,78
197,966	-4,44
198,185	-35,16
198,404	83,63
198,623	-8,53
198,842	3,75
199,062	61,1
199,281	16,04
199,5	-14,68
199,719	22,19
199,938	-20,82
200,157	36,52
200,376	71,34
200,595	87,72
200,814	20,14
201,033	-8,53
201,252	50,86
201,471	-53,59
201,69	89,77
201,909	44,71
202,128	22,19
202,347	-29,01
202,566	38,57
202,785	-14,68
203,004	11,95
203,223	-12,63
203,442	-16,73
203,661	-20,82
203,879	54,95
204,098	110,25
204,317	38,57
204,536	44,71
204,755	20,14
204,974	54,95
205,193	65,19
205,411	59,05
205,63	34,47
205,849	75,43
206,068	11,95
206,287	57
206,505	9,9
206,724	-12,63
206,943	-22,87
207,162	-2,39
207,381	-18,77
207,599	44,71
207,818	-29,01
208,037	69,29
208,255	3,75
208,474	52,91
208,693	87,72
208,911	-6,49
209,13	50,86
209,349	-8,53
209,567	-2,39
209,786	-2,39
210,005	-10,58
210,223	22,19
210,442	36,52
210,661	-4,44
210,879	-61,78
211,098	-61,78
211,316	-80,21
211,535	44,71
211,753	-20,82
211,972	13,99
212,191	52,91
212,409	-69,97
212,628	36,52
212,846	61,1
213,065	24,23
213,283	13,99
213,502	28,33
213,72	-74,07
213,938	54,95
214,157	16,04
214,375	-8,53
214,594	65,19
214,812	71,34
215,031	-29,01
215,249	46,76
215,467	28,33
215,686	38,57
215,904	52,91
216,122	11,95
216,341	34,47
216,559	57
216,778	36,52
216,996	-10,58
217,214	-76,12
217,432	9,9
217,651	22,19
217,869	-16,73
218,087	-33,11
218,306	-2,39
218,524	22,19
218,742	20,14
218,96	-0,34
219,179	-14,68
219,397	36,52
219,615	44,71
219,833	-24,92
220,051	13,99
220,27	-20,82
220,488	85,67
220,706	44,71
220,924	-20,82
221,142	11,95
221,36	-16,73
221,578	9,9
221,796	-37,2
222,015	-22,87
222,233	30,38
222,451	11,95
222,669	-2,39
222,887	57
223,105	-18,77
223,323	67,24
223,541	-29,01
223,759	13,99
223,977	18,09
224,195	3,75
224,413	-10,58
224,631	-37,2
224,849	-12,63
225,067	7,85
225,285	59,05
225,503	16,04
225,721	52,91
225,939	26,28
226,157	-0,34
226,375	1,71
226,592	-55,64
226,81	22,19
227,028	-6,49
227,246	-26,96
227,464	30,38
227,682	-4,44
227,9	-16,73
228,117	5,8
228,335	11,95
228,553	36,52
228,771	-43,35
228,989	11,95
229,206	46,76
229,424	16,04
229,642	1,71
229,86	73,39
230,077	-8,53
230,295	42,67
230,513	-55,64
230,731	42,67
230,948	50,86
231,166	20,14
231,384	54,95
231,601	20,14
231,819	54,95
232,037	75,43
232,254	57
232,472	1,71
232,689	52,91
232,907	32,43
233,125	-8,53
233,342	3,75
233,56	-39,25
233,777	-8,53
233,995	-63,83
234,213	44,71
234,43	-41,3
234,648	46,76
234,865	-24,92
235,083	13,99
235,3	-104,79
235,518	-20,82
235,735	24,23
235,953	61,1
236,17	-26,96
236,388	-26,96
236,605	-24,92
236,822	-0,34
237,04	36,52
237,257	-10,58
237,475	-53,59
237,692	-2,39
237,909	7,85
238,127	-4,44
238,344	-33,11
238,562	3,75
238,779	52,91
238,996	-2,39
239,214	-8,53
239,431	11,95
239,648	28,33
239,865	36,52
240,083	24,23
240,3	-8,53
240,517	-26,96
240,735	-26,96
240,952	-4,44
241,169	13,99
241,386	13,99
241,603	38,57
241,821	-31,06
242,038	-35,16
242,255	30,38
242,472	52,91
242,689	-22,87
242,907	40,62
243,124	32,43
243,341	-47,44
243,558	5,8
243,775	73,39
243,992	-18,77
244,209	52,91
244,426	-6,49
244,643	-12,63
244,86	5,8
245,078	11,95
245,295	3,75
245,512	1,71
245,729	18,09
245,946	11,95
246,163	9,9
246,38	54,95
246,597	13,99
246,814	16,04
247,031	-0,34
247,248	40,62
247,464	16,04
247,681	-10,58
247,898	16,04
248,115	16,04
248,332	-16,73
248,549	-12,63
248,766	52,91
248,983	-4,44
249,2	-12,63
249,417	24,23
249,633	22,19
249,85	-6,49
250,067	-20,82
250,284	5,8
250,501	-8,53
250,717	5,8
250,934	-31,06
251,151	69,29
251,368	28,33
251,585	-49,49
251,801	85,67
252,018	34,47
252,235	95,91
252,451	16,04
252,668	57
252,885	18,09
253,102	38,57
253,318	-26,96
253,535	-45,4
253,752	18,09
253,968	-4,44
254,185	-8,53
254,401	50,86
254,618	32,43
254,835	-57,68
255,051	20,14
255,268	-53,59
255,484	-10,58
255,701	36,52
255,917	-8,53
256,134	-4,44
256,351	-29,01
256,567	30,38
256,784	-35,16
257	-41,3
257,217	13,99
257,433	34,47
257,65	-12,63
257,866	36,52
258,082	-10,58
258,299	79,53
258,515	46,76
258,732	-14,68
258,948	1,71
259,165	22,19
259,381	69,29
259,597	73,39
259,814	-39,25
260,03	-22,87
260,246	-29,01
260,463	30,38
260,679	11,95
260,895	-96,6
261,112	69,29
261,328	24,23
261,544	-29,01
261,761	32,43
261,977	-37,2
262,193	-45,4
262,409	57
262,626	-18,77
262,842	63,15
263,058	-33,11
263,274	46,76
263,49	-12,63
263,707	36,52
263,923	-18,77
264,139	38,57
264,355	44,71
264,571	-2,39
264,787	-14,68
265,004	-12,63
265,22	5,8
265,436	7,85
265,652	46,76
265,868	9,9
266,084	-4,44
266,3	52,91
266,516	-18,77
266,732	-20,82
266,948	18,09
267,164	3,75
267,38	-12,63
267,596	30,38
267,812	5,8
268,028	16,04
268,244	44,71
268,46	48,81
268,676	32,43
268,892	69,29
269,108	34,47
269,324	-0,34
269,54	42,67
269,756	30,38
269,972	-45,4
270,188	52,91
270,403	16,04
270,619	36,52
270,835	38,57
271,051	40,62
271,267	-24,92
271,483	3,75
271,698	16,04
271,914	3,75
272,13	40,62
272,346	48,81
272,562	-20,82
272,777	44,71
272,993	61,1
273,209	44,71
273,425	-53,59
273,64	38,57
273,856	3,75
274,072	9,9
274,287	-10,58
274,503	13,99
274,719	16,04
274,934	-12,63
275,15	-29,01
275,366	-84,31
275,581	-10,58
275,797	-14,68
276,012	-8,53
276,228	77,48
276,444	-12,63
276,659	50,86
276,875	-20,82
277,09	91,82
277,306	44,71
277,521	-33,11
277,737	-12,63
277,952	16,04
278,168	30,38
278,383	46,76
278,599	-33,11
278,814	30,38
279,03	-8,53
279,245	-18,77
279,461	46,76
279,676	-10,58
279,892	-20,82
280,107	32,43
280,322	-45,4
280,538	61,1
280,753	-33,11
280,969	38,57
281,184	52,91
281,399	-12,63
281,615	87,72
281,83	7,85
282,045	-0,34
282,26	9,9
282,476	-4,44
282,691	22,19
282,906	126,63
283,122	-61,78
283,337	102,06
283,552	79,53
283,767	57
283,983	-12,63
284,198	77,48
284,413	44,71
284,628	13,99
284,843	46,76
285,058	-49,49
285,274	28,33
285,489	-14,68
285,704	57
285,919	20,14
286,134	61,1
286,349	30,38
286,564	20,14
286,779	-31,06
286,995	-33,11
287,21	26,28
287,425	-16,73
287,64	-26,96
287,855	-4,44
288,07	13,99
288,285	100,01
288,5	44,71
288,715	-22,87
288,93	34,47
289,145	11,95
289,36	34,47
289,575	67,24
289,79	40,62
290,004	-49,49
290,219	26,28
290,434	-4,44
290,649	71,34
290,864	30,38
291,079	1,71
291,294	28,33
291,509	-0,34
291,724	44,71
291,938	61,1
292,153	-0,34
292,368	-29,01
292,583	34,47
292,798	-0,34
293,012	-8,53
293,227	5,8
293,442	3,75
293,657	30,38
293,871	11,95
294,086	7,85
294,301	-8,53
294,516	-26,96
294,73	44,71
294,945	-4,44
295,16	-6,49
295,374	40,62
295,589	69,29
295,804	83,63
296,018	-10,58
296,233	5,8
296,447	-26,96
296,662	-29,01
296,877	11,95
297,091	-41,3
297,306	61,1
297,52	7,85
297,735	48,81
297,949	13,99
298,164	65,19
298,378	-16,73
298,593	-18,77
298,807	-20,82
299,022	46,76
299,236	30,38
299,451	69,29
299,665	1,71
299,88	48,81
300,094	71,34
300,309	-39,25
300,523	-69,97
300,737	3,75
300,952	24,23
301,166	-41,3
301,381	28,33
301,595	44,71
301,809	44,71
302,024	-35,16
302,238	30,38
302,452	-12,63
302,667	-12,63
302,881	61,1
303,095	11,95
303,309	-20,82
303,524	30,38
303,738	22,19
303,952	26,28
304,166	-29,01
304,381	30,38
304,595	20,14
304,809	-26,96
305,023	3,75
305,237	36,52
305,452	20,14
305,666	32,43
305,88	-2,39
306,094	42,67
306,308	-12,63
306,522	-39,25
306,736	46,76
306,95	-12,63
307,164	28,33
307,379	42,67
307,593	-2,39
307,807	83,63
308,021	57
308,235	38,57
308,449	24,23
308,663	-4,44
308,877	-4,44
309,091	-24,92
309,305	-41,3
309,519	28,33
309,733	71,34
309,947	54,95
310,161	28,33
310,374	16,04
310,588	-12,63
310,802	-12,63
311,016	52,91
311,23	22,19
311,444	7,85
311,658	22,19
311,872	-12,63
312,085	-2,39
312,299	-53,59
312,513	-4,44
312,727	3,75
312,941	18,09
313,154	-24,92
313,368	-33,11
313,582	69,29
313,796	30,38
314,009	57
314,223	32,43
314,437	5,8
314,651	-29,01
314,864	-37,2
315,078	40,62
315,292	50,86
315,505	18,09
315,719	48,81
315,933	18,09
316,146	16,04
316,36	1,71
316,573	16,04
316,787	7,85
317,001	13,99
317,214	-51,54
317,428	30,38
317,641	9,9
317,855	7,85
318,068	-24,92
318,282	13,99
318,495	7,85
318,709	-4,44
318,922	-10,58
319,136	5,8
319,349	-2,39
319,563	36,52
319,776	1,71
319,99	5,8
320,203	52,91
320,417	-47,44
320,63	20,14
320,843	-69,97
321,057	24,23
321,27	69,29
321,483	28,33
321,697	44,71
321,91	28,33
322,124	13,99
322,337	-18,77
322,55	-22,87
322,763	36,52
322,977	-35,16
323,19	30,38
323,403	-0,34
323,617	18,09
323,83	30,38
324,043	3,75
324,256	75,43
324,469	-43,35
324,683	36,52
324,896	30,38
325,109	61,1
325,322	28,33
325,535	-29,01
325,748	30,38
325,962	-37,2
326,175	57
326,388	73,39
326,601	71,34
326,814	3,75
327,027	-29,01
327,24	22,19
327,453	11,95
327,666	44,71
327,879	63,15
328,092	18,09
328,305	-33,11
328,518	11,95
328,731	11,95
328,944	-104,79
329,157	26,28
329,37	11,95
329,583	-39,25
329,796	-35,16
330,009	40,62
330,222	83,63
330,435	-4,44
330,648	5,8
330,861	-47,44
331,073	-4,44
331,286	-18,77
331,499	-10,58
331,712	67,24
331,925	50,86
332,138	28,33
332,35	28,33
332,563	-63,83
332,776	81,58
332,989	-10,58
333,202	-20,82
333,414	-2,39
333,627	-59,73
333,84	32,43
334,053	5,8
334,265	-10,58
334,478	28,33
334,691	5,8
334,903	-55,64
335,116	67,24
335,329	77,48
335,541	-4,44
335,754	-8,53
335,966	-45,4
336,179	-0,34
336,392	-14,68
336,604	28,33
336,817	1,71
337,029	42,67
337,242	-55,64
337,454	1,71
337,667	28,33
337,88	44,71
338,092	46,76
338,305	77,48
338,517	-29,01
338,729	-16,73
338,942	-0,34
339,154	-29,01
339,367	28,33
339,579	-12,63
339,792	-49,49
340,004	-39,25
340,217	-22,87
340,429	30,38
340,641	-0,34
340,854	-2,39
341,066	28,33
341,278	-16,73
341,491	44,71
341,703	5,8
341,915	52,91
342,128	22,19
342,34	5,8
342,552	-26,96
342,764	65,19
342,977	44,71
343,189	-14,68
343,401	-8,53
343,613	-20,82
343,826	16,04
344,038	7,85
344,25	11,95
344,462	-26,96
344,674	79,53
344,886	7,85
345,099	-20,82
345,311	20,14
345,523	65,19
345,735	-4,44
345,947	7,85
346,159	11,95
346,371	48,81
346,583	38,57
346,795	67,24
347,007	-18,77
347,219	-33,11
347,431	40,62
347,643	3,75
347,855	-41,3
348,067	57
348,279	-20,82
348,491	-4,44
348,703	-6,49
348,915	22,19
349,127	-67,92
349,339	32,43
349,551	-10,58
349,763	54,95
349,975	-18,77
350,187	3,75
350,399	-8,53
350,61	-26,96
350,822	38,57
351,034	36,52
351,246	24,23
351,458	44,71
351,669	-67,92
351,881	22,19
352,093	-12,63
352,305	30,38
352,517	-6,49
352,728	13,99
352,94	-37,2
353,152	54,95
353,363	-29,01
353,575	-53,59
353,787	11,95
353,999	-33,11
354,21	20,14
354,422	-16,73
354,633	85,67
354,845	-24,92
355,057	9,9
355,268	59,05
355,48	-8,53
355,692	30,38
355,903	-33,11
356,115	3,75
356,326	9,9
356,538	46,76
356,749	-31,06
356,961	-16,73
357,172	11,95
357,384	38,57
357,595	28,33
357,807	91,82
358,018	-20,82
358,23	63,15
358,441	22,19
358,653	5,8
358,864	11,95
359,075	48,81
359,287	34,47
359,498	-2,39
359,709	18,09
359,921	3,75
360,132	3,75
360,344	24,23
360,555	-69,97
360,766	32,43
360,977	20,14
361,189	-6,49
361,4	36,52
361,611	48,81
361,823	5,8
362,034	-6,49
362,245	-2,39
362,456	30,38
362,667	20,14
362,879	83,63
363,09	-18,77
363,301	36,52
363,512	-55,64
363,723	24,23
363,935	-45,4
364,146	30,38
364,357	30,38
364,568	18,09
364,779	-8,53
364,99	46,76
365,201	75,43
365,412	-4,44
365,623	1,71
365,834	85,67
366,045	40,62
366,256	24,23
366,467	28,33
366,678	38,57
366,889	44,71
367,1	40,62
367,311	5,8
367,522	5,8
367,733	38,57
367,944	5,8
368,155	73,39
368,366	-12,63
368,577	11,95
368,788	1,71
368,999	-24,92
369,209	71,34
369,42	40,62
369,631	79,53
369,842	-55,64
370,053	-33,11
370,264	-29,01
370,474	-4,44
370,685	22,19
370,896	52,91
371,107	38,57
371,317	13,99
371,528	-8,53
371,739	3,75
371,95	32,43
372,16	16,04
372,371	-12,63
372,582	57
372,792	-51,54
373,003	38,57
373,214	11,95
373,424	46,76
373,635	-16,73
373,846	52,91
374,056	28,33
374,267	28,33
374,477	3,75
374,688	36,52
374,898	-2,39
375,109	20,14
375,319	-51,54
375,53	77,48
375,74	3,75
375,951	-26,96
376,161	-6,49
376,372	-10,58
376,582	-26,96
376,793	38,57
377,003	24,23
377,214	30,38
377,424	16,04
377,635	44,71
377,845	-26,96
378,055	75,43
378,266	44,71
378,476	7,85
378,686	48,81
378,897	40,62
379,107	11,95
379,317	30,38
379,528	1,71
379,738	16,04
379,948	-10,58
380,158	42,67
380,369	81,58
380,579	-12,63
380,789	85,67
380,999	-6,49
381,21	44,71
381,42	11,95
381,63	-12,63
381,84	36,52
382,05	3,75
382,261	22,19
382,471	11,95
382,681	36,52
382,891	-61,78
383,101	44,71
383,311	-12,63
383,521	42,67
383,731	-26,96
383,941	32,43
384,151	20,14
384,361	-0,34
384,571	-43,35
384,781	-8,53
384,991	3,75
385,201	30,38
385,411	-18,77
385,621	-22,87
385,831	-29,01
386,041	-45,4
386,251	11,95
386,461	1,71
386,671	67,24
386,881	52,91
387,091	38,57
387,301	5,8
387,511	22,19
387,72	32,43
387,93	30,38
388,14	32,43
388,35	108,2
388,56	30,38
388,769	16,04
388,979	-10,58
389,189	1,71
389,399	22,19
389,609	87,72
389,818	-49,49
390,028	-45,4
390,238	-12,63
390,447	-24,92
390,657	-35,16
390,867	-35,16
391,076	9,9
391,286	32,43
391,496	59,05
391,705	-49,49
391,915	85,67
392,125	-74,07
392,334	40,62
392,544	28,33
392,753	112,3
392,963	24,23
393,172	3,75
393,382	-8,53
393,591	44,71
393,801	-10,58
394,01	40,62
394,22	89,77
394,429	20,14
394,639	-37,2
394,848	16,04
395,058	-12,63
395,267	42,67
395,477	7,85
395,686	69,29
395,895	44,71
396,105	73,39
396,314	85,67
396,524	63,15
396,733	-33,11
396,942	63,15
397,152	-35,16
397,361	11,95
397,57	13,99
397,78	-12,63
397,989	7,85
398,198	18,09
398,407	77,48
398,617	63,15
398,826	36,52
399,035	-57,68
399,244	28,33
399,453	32,43
399,663	-20,82
399,872	36,52
400,081	24,23
400,29	5,8
400,499	26,28
400,708	44,71
400,917	38,57
401,127	59,05
401,336	13,99
401,545	40,62
401,754	30,38
401,963	1,71
402,172	11,95
402,381	85,67
402,59	-39,25
402,799	28,33
403,008	42,67
403,217	-43,35
403,426	50,86
403,635	7,85
403,844	30,38
404,053	3,75
404,262	38,57
404,471	22,19
404,68	3,75
404,888	42,67
405,097	16,04
405,306	77,48
405,515	-35,16
405,724	83,63
405,933	7,85
406,142	85,67
406,35	5,8
406,559	3,75
406,768	11,95
406,977	-78,16
407,185	-41,3
407,394	13,99
407,603	-0,34
407,812	7,85
408,02	13,99
408,229	57
408,438	44,71
408,646	28,33
408,855	22,19
409,064	11,95
409,272	67,24
409,481	-24,92
409,69	16,04
409,898	-4,44
410,107	-110,93
410,315	85,67
410,524	-20,82
410,733	32,43
410,941	30,38
411,15	-69,97
411,358	-4,44
411,567	26,28
411,775	18,09
411,984	20,14
412,192	-4,44
412,401	-4,44
412,609	-0,34
412,818	16,04
413,026	26,28
413,234	7,85
413,443	-12,63
413,651	11,95
413,86	22,19
414,068	-26,96
414,276	30,38
414,485	-4,44
414,693	24,23
414,901	7,85
415,11	3,75
415,318	24,23
415,526	-4,44
415,734	18,09
415,943	44,71
416,151	3,75
416,359	5,8
416,567	-20,82
416,776	-12,63
416,984	22,19
417,192	-8,53
417,4	5,8
417,608	-6,49
417,817	13,99
418,025	11,95
418,233	71,34
418,441	-53,59
418,649	20,14
418,857	30,38
419,065	-18,77
419,273	-49,49
419,481	42,67
419,689	-53,59
419,897	11,95
420,105	5,8
420,313	65,19
420,521	116,39
420,729	87,72
420,937	18,09
421,145	40,62
421,353	-6,49
421,561	-0,34
421,769	-86,36
421,977	-2,39
422,185	3,75
422,393	30,38
422,601	-49,49
422,809	3,75
423,017	-67,92
423,224	26,28
423,432	40,62
423,64	44,71
423,848	36,52
424,056	87,72
424,263	-47,44
424,471	40,62
424,679	-0,34
424,887	44,71
425,094	-16,73
425,302	-59,73
425,51	20,14
425,718	48,81
425,925	20,14
426,133	5,8
426,341	3,75
426,548	13,99
426,756	-12,63
426,964	5,8
427,171	-18,77
427,379	-37,2
427,586	73,39
427,794	28,33
428,001	7,85
428,209	28,33
428,417	81,58
428,624	-0,34
428,832	20,14
429,039	11,95
429,247	-12,63
429,454	54,95
429,662	38,57
429,869	20,14
430,076	-2,39
430,284	28,33
430,491	16,04
430,699	38,57
430,906	5,8
431,114	-6,49
431,321	-20,82
431,528	95,91
431,736	-20,82
431,943	85,67
432,15	69,29
432,358	-12,63
432,565	22,19
432,772	3,75
432,979	-0,34
433,187	22,19
433,394	-8,53
433,601	63,15
433,808	-12,63
434,016	16,04
434,223	11,95
434,43	26,28
434,637	36,52
434,844	-26,96
435,052	-65,88
435,259	7,85
435,466	-39,25
435,673	18,09
435,88	3,75
436,087	44,71
436,294	3,75
436,501	7,85
436,708	26,28
436,915	24,23
437,122	-8,53
437,329	9,9
437,537	-24,92
437,743	46,76
437,95	-6,49
438,157	-51,54
438,364	-49,49
438,571	3,75
438,778	-2,39
438,985	77,48
439,192	18,09
439,399	46,76
439,606	-20,82
439,813	-20,82
440,02	73,39
440,227	-2,39
440,433	11,95
440,64	-57,68
440,847	42,67
441,054	-8,53
441,261	-33,11
441,467	32,43
441,674	13,99
441,881	-18,77
442,088	-2,39
442,294	3,75
442,501	11,95
442,708	50,86
442,914	-8,53
443,121	-12,63
443,328	-10,58
443,534	61,1
443,741	38,57
443,948	9,9
444,154	34,47
444,361	5,8
444,568	-14,68
444,774	24,23
444,981	-33,11
445,187	30,38
445,394	-33,11
445,6	81,58
445,807	-4,44
446,013	104,11
446,22	30,38
446,426	9,9
446,633	20,14
446,839	40,62
447,046	-67,92
447,252	52,91
447,459	-0,34
447,665	69,29
447,871	-26,96
448,078	42,67
448,284	48,81
448,491	57
448,697	13,99
448,903	-2,39
449,11	-37,2
449,316	-29,01
449,522	-31,06
449,728	18,09
449,935	-4,44
450,141	-6,49
450,347	13,99
450,553	61,1
450,76	46,76
450,966	-33,11
451,172	13,99
451,378	13,99
451,584	24,23
451,791	-0,34
451,997	-2,39
452,203	3,75
452,409	-8,53
452,615	5,8
452,821	-35,16
453,027	5,8
453,233	-24,92
453,44	-20,82
453,646	61,1
453,852	7,85
454,058	-18,77
454,264	7,85
454,47	-12,63
454,676	38,57
454,882	-63,83
455,088	22,19
455,294	67,24
455,5	22,19
455,705	79,53
455,911	-45,4
456,117	34,47
456,323	77,48
456,529	40,62
456,735	22,19
456,941	11,95
457,147	-63,83
457,352	67,24
457,558	20,14
457,764	67,24
457,97	-10,58
458,176	16,04
458,381	11,95
458,587	69,29
458,793	-4,44
458,999	13,99
459,204	54,95
459,41	-10,58
459,616	11,95
459,821	61,1
460,027	-12,63
460,233	3,75
460,438	71,34
460,644	59,05
460,85	-12,63
461,055	-0,34
461,261	-0,34
461,466	20,14
461,672	-47,44
461,878	-59,73
462,083	1,71
462,289	-0,34
462,494	26,28
462,7	-55,64
462,905	52,91
463,111	79,53
463,316	11,95
463,522	-0,34
463,727	-51,54
463,932	-18,77
464,138	89,77
464,343	-33,11
464,549	-6,49
464,754	-8,53
464,959	11,95
465,165	5,8
465,37	46,76
465,575	11,95
465,781	24,23
465,986	30,38
466,191	5,8
466,397	7,85
466,602	-49,49
466,807	42,67
467,012	-12,63
467,218	-22,87
467,423	13,99
467,628	7,85
467,833	77,48
468,038	13,99
468,244	44,71
468,449	9,9
468,654	-0,34
468,859	44,71
469,064	20,14
469,269	-18,77
469,474	-37,2
469,679	11,95
469,885	57
470,09	30,38
470,295	124,58
470,5	30,38
470,705	-2,39
470,91	83,63
471,115	100,01
471,32	-2,39
471,525	28,33
471,73	65,19
471,935	59,05
472,139	63,15
472,344	36,52
472,549	40,62
472,754	46,76
472,959	-18,77
473,164	5,8
473,369	77,48
473,574	-18,77
473,778	11,95
473,983	42,67
474,188	50,86
474,393	28,33
474,598	-12,63
474,802	-16,73
475,007	22,19
475,212	34,47
475,417	-24,92
475,621	26,28
475,826	-26,96
476,031	-78,16
476,235	38,57
476,44	24,23
476,645	97,96
476,849	52,91
477,054	-29,01
477,259	-24,92
477,463	-57,68
477,668	-2,39
477,872	28,33
478,077	-2,39
478,282	16,04
478,486	28,33
478,691	22,19
478,895	44,71
479,1	20,14
479,304	81,58
479,509	28,33
479,713	11,95
479,918	30,38
480,122	5,8
480,326	-12,63
480,531	-43,35
480,735	-6,49
480,94	57
481,144	-6,49
481,348	20,14
481,553	20,14
481,757	20,14
481,961	9,9
482,166	50,86
482,37	-22,87
482,574	-49,49
482,778	20,14
482,983	11,95
483,187	30,38
483,391	81,58
483,595	48,81
483,8	-4,44
484,004	7,85
484,208	-35,16
484,412	-2,39
484,616	3,75
484,821	-35,16
485,025	-12,63
485,229	-4,44
485,433	-53,59
485,637	48,81
485,841	36,52
486,045	50,86
486,249	20,14
486,453	-12,63
486,657	73,39
486,861	-6,49
487,065	34,47
487,269	52,91
487,473	36,52
487,677	20,14
487,881	11,95
488,085	44,71
488,289	3,75
488,493	-65,88
488,697	48,81
488,901	7,85
489,105	26,28
489,309	22,19
489,512	20,14
489,716	-33,11
489,92	-18,77
490,124	54,95
490,328	20,14
490,531	-8,53
490,735	13,99
490,939	20,14
491,143	16,04
491,346	3,75
491,55	32,43
491,754	7,85
491,958	3,75
492,161	-26,96
492,365	50,86
492,569	-20,82
492,772	11,95
492,976	30,38
493,18	52,91
493,383	22,19
493,587	-10,58
493,79	7,85
493,994	-22,87
494,197	73,39
494,401	30,38
494,605	26,28
494,808	57
495,012	-33,11
495,215	79,53
495,419	65,19
495,622	3,75
495,825	-18,77
496,029	40,62
496,232	77,48
496,436	3,75
496,639	13,99
496,843	28,33
497,046	20,14
497,249	32,43
497,453	20,14
497,656	73,39
497,859	57
498,063	61,1
498,266	-16,73
498,469	50,86
498,673	11,95
498,876	3,75
499,079	3,75
499,282	57
499,485	24,23
499,689	42,67
499,892	-2,39
500,095	59,05
500,298	40,62
500,501	16,04
500,705	-18,77
500,908	-12,63
501,111	-35,16
501,314	11,95
501,517	36,52
501,72	13,99
501,923	-18,77
502,126	30,38
502,329	-43,35
502,532	3,75
502,735	71,34
502,938	3,75
503,141	9,9
503,344	-29,01
503,547	-18,77
503,75	54,95
503,953	24,23
504,156	-78,16
504,359	16,04
504,562	22,19
504,765	34,47
504,968	5,8
505,17	22,19
505,373	69,29
505,576	-29,01
505,779	-2,39
505,982	46,76
506,185	20,14
506,387	3,75
506,59	59,05
506,793	52,91
506,996	57
507,198	-59,73
507,401	20,14
507,604	54,95
507,807	50,86
508,009	13,99
508,212	16,04
508,415	26,28
508,617	3,75
508,82	-12,63
509,022	77,48
509,225	-20,82
509,428	-76,12
509,63	85,67
509,833	-67,92
510,035	20,14
510,238	-8,53
510,44	-33,11
510,643	69,29
510,845	-43,35
511,048	-61,78
511,25	40,62
511,453	11,95
511,655	-20,82
511,858	52,91
512,06	-29,01
512,262	-18,77
512,465	11,95
512,667	5,8
512,87	65,19
513,072	102,06
513,274	-10,58
513,477	11,95
513,679	30,38
513,881	-4,44
514,084	73,39
514,286	-47,44
514,488	9,9
514,69	11,95
514,893	22,19
515,095	32,43
515,297	13,99
515,499	85,67
515,701	-49,49
515,904	11,95
516,106	1,71
516,308	-8,53
516,51	50,86
516,712	61,1
516,914	-16,73
517,116	-12,63
517,318	71,34
517,52	42,67
517,722	16,04
517,925	42,67
518,127	36,52
518,329	18,09
518,531	50,86
518,733	-67,92
518,935	-51,54
519,136	-31,06
519,338	79,53
519,54	57
519,742	28,33
519,944	13,99
520,146	-86,36
520,348	-10,58
520,55	3,75
520,752	61,1
520,954	-74,07
521,155	5,8
521,357	46,76
521,559	28,33
521,761	34,47
521,963	3,75
522,164	-4,44
522,366	22,19
522,568	-16,73
522,77	38,57
522,971	38,57
523,173	44,71
523,375	-6,49
523,576	-51,54
523,778	-41,3
523,98	36,52
524,181	11,95
524,383	3,75
524,584	-4,44
524,786	28,33
524,988	1,71
525,189	28,33
525,391	13,99
525,592	-53,59
525,794	-12,63
525,995	-35,16
526,197	34,47
526,398	28,33
526,6	3,75
526,801	13,99
527,003	1,71
527,204	24,23
527,406	-12,63
527,607	-2,39
527,808	3,75
528,01	32,43
528,211	-57,68
528,412	5,8
528,614	-24,92
528,815	18,09
529,016	40,62
529,218	-29,01
529,419	20,14
529,62	48,81
529,822	-12,63
530,023	-12,63
530,224	-4,44
530,425	77,48
530,626	-10,58
530,828	48,81
531,029	36,52
531,23	57
531,431	3,75
531,632	-18,77
531,833	61,1
532,035	-0,34
532,236	7,85
532,437	36,52
532,638	24,23
532,839	46,76
533,04	32,43
533,241	28,33
533,442	7,85
533,643	-2,39
533,844	-26,96
534,045	36,52
534,246	-0,34
534,447	59,05
534,648	11,95
534,849	34,47
535,05	11,95
535,251	63,15
535,451	-49,49
535,652	38,57
535,853	-4,44
536,054	40,62
536,255	-37,2
536,456	73,39
536,657	-55,64
536,857	50,86
537,058	89,77
537,259	-26,96
537,46	44,71
537,66	32,43
537,861	20,14
538,062	1,71
538,263	-78,16
538,463	-43,35
538,664	7,85
538,865	-24,92
539,065	-4,44
539,266	-16,73
539,466	65,19
539,667	-2,39
539,868	-12,63
540,068	-12,63
540,269	50,86
540,469	-10,58
540,67	-26,96
540,87	20,14
541,071	-41,3
541,271	-63,83
541,472	-61,78
541,672	48,81
541,873	-72,02
542,073	67,24
542,274	3,75
542,474	38,57
542,675	26,28
542,875	5,8
543,075	-16,73
543,276	1,71
543,476	32,43
543,676	67,24
543,877	28,33
544,077	32,43
544,277	-12,63
544,478	-78,16
544,678	9,9
544,878	7,85
545,078	-12,63
545,279	-16,73
545,479	22,19
545,679	40,62
545,879	-8,53
546,079	3,75
546,28	-8,53
546,48	-6,49
546,68	-20,82
546,88	20,14
547,08	11,95
547,28	-16,73
547,48	77,48
547,68	40,62
547,88	32,43
548,081	20,14
548,281	13,99
548,481	7,85
548,681	-26,96
548,881	30,38
549,081	-20,82
549,28	32,43
549,48	36,52
549,68	16,04
549,88	-2,39
550,08	-31,06
550,28	75,43
550,48	46,76
550,68	36,52
550,88	28,33
551,08	-29,01
551,279	26,28
551,479	7,85
551,679	5,8
551,879	18,09
552,079	120,49
552,278	1,71
552,478	13,99
552,678	-20,82
552,878	-20,82
553,077	30,38
553,277	11,95
553,477	71,34
553,676	22,19
553,876	-4,44
554,076	-10,58
554,275	-29,01
554,475	-20,82
554,674	13,99
554,874	9,9
555,074	13,99
555,273	28,33
555,473	-6,49
555,672	-14,68
555,872	5,8
556,071	54,95
556,271	11,95
556,47	118,44
556,67	71,34
556,869	69,29
557,068	11,95
557,268	69,29
557,467	-10,58
557,667	20,14
557,866	71,34
558,065	-6,49
558,265	-0,34
558,464	9,9
558,663	-41,3
558,863	-51,54
559,062	-20,82
559,261	40,62
559,461	44,71
559,66	-43,35
559,859	-4,44
560,058	20,14
560,258	52,91
560,457	-20,82
560,656	26,28
560,855	-0,34
561,054	34,47
561,253	-35,16
561,453	44,71
561,652	89,77
561,851	-2,39
562,05	3,75
562,249	44,71
562,448	-22,87
562,647	30,38
562,846	42,67
563,045	69,29
563,244	7,85
563,443	20,14
563,642	5,8
563,841	18,09
564,04	-29,01
564,239	59,05
564,438	32,43
564,637	5,8
564,836	93,87
565,035	5,8
565,234	3,75
565,432	28,33
565,631	-4,44
565,83	81,58
566,029	57
566,228	-31,06
566,427	-31,06
566,625	16,04
566,824	48,81
567,023	67,24
567,222	-12,63
567,42	-16,73
567,619	1,71
567,818	32,43
568,016	30,38
568,215	-41,3
568,414	20,14
568,612	71,34
568,811	114,34
569,01	118,44
569,208	265,89
569,407	390,82
569,605	607,91
569,804	1027,74
570,002	1461,91
570,201	2700,93
570,4	3442,29
570,598	4855,39
570,797	6147,66
570,995	8130,09
571,193	9752,09
571,392	12529,13
571,59	14822,86
571,789	18019,74
571,987	21323,11
572,186	24841,52
572,384	28226,81
572,582	32160,96
572,781	35581,07
572,979	38544,48
573,177	42388,52
573,376	45108,22
573,574	46918,62
573,772	49511,35
573,971	51164,06
574,169	52534,15
574,367	53611,38
574,565	55606,11
574,763	55589,72
574,962	56421,2
575,16	56781,64
575,358	58196,79
575,556	58389,3
575,754	59560,73
575,952	58743,59
576,151	59974,42
576,349	59493,15
576,547	60259,09
576,745	60480,27
576,943	60965,64
577,141	60758,8
577,339	60881,67
577,537	60089,11
577,735	60447,5
577,933	59816,73
578,131	60375,83
578,329	59482,91
578,527	59300,64
578,725	58489,65
578,923	58024,76
579,121	57387,84
579,319	56720,2
579,516	55858,01
579,714	54582,12
579,912	53052,29
580,11	51430,3
580,308	49191,87
580,506	47412,18
580,704	44133,39
580,901	42228,77
581,099	39298,13
581,297	35773,58
581,495	32767,16
581,692	29947,11
581,89	26123,55
582,088	23430,47
582,285	20106,62
582,483	17749,4
582,681	15187,39
582,878	12783,08
583,076	10702,34
583,274	9049,63
583,471	7122,49
583,669	6071,89
583,866	4615,78
584,064	3567,22
584,262	2518,66
584,459	1953,42
584,657	1255,06
584,854	839,33
585,052	489,12
585,249	384,68
585,447	239,27
585,644	216,74
585,841	181,93
586,039	110,25
586,236	118,44
586,434	48,81
586,631	40,62
586,828	36,52
587,026	89,77
587,223	67,24
587,42	61,1
587,618	18,09
587,815	87,72
588,012	48,81
588,21	-43,35
588,407	83,63
588,604	40,62
588,801	-18,77
588,999	77,48
589,196	106,15
589,393	52,91
589,59	20,14
589,787	81,58
589,984	97,96
590,182	-2,39
590,379	-45,4
590,576	28,33
590,773	85,67
590,97	46,76
591,167	-10,58
591,364	32,43
591,561	52,91
591,758	24,23
591,955	-4,44
592,152	44,71
592,349	16,04
592,546	69,29
592,743	5,8
592,94	69,29
593,137	-53,59
593,334	36,52
593,531	42,67
593,727	-12,63
593,924	44,71
594,121	61,1
594,318	50,86
594,515	44,71
594,712	69,29
594,908	-8,53
595,105	-6,49
595,302	3,75
595,499	61,1
595,696	59,05
595,892	-33,11
596,089	77,48
596,286	26,28
596,482	36,52
596,679	44,71
596,876	3,75
597,072	44,71
597,269	22,19
597,466	-20,82
597,662	67,24
597,859	-29,01
598,055	-37,2
598,252	57
598,448	26,28
598,645	54,95
598,841	22,19
599,038	79,53
599,234	69,29
599,431	-31,06
599,627	3,75
599,824	3,75
600,02	63,15
600,217	-37,2
600,413	57
600,609	-8,53
600,806	48,81
601,002	-2,39
601,198	65,19
601,395	13,99
601,591	-14,68
601,787	20,14
601,984	95,91
602,18	46,76
602,376	83,63
602,572	100,01
602,769	61,1
602,965	36,52
603,161	-51,54
603,357	26,28
603,553	-67,92
603,75	28,33
603,946	26,28
604,142	-4,44
604,338	16,04
604,534	-6,49
604,73	5,8
604,926	-76,12
605,122	30,38
605,318	-12,63
605,514	-29,01
605,71	-37,2
605,906	16,04
606,102	13,99
606,298	40,62
606,494	-10,58
606,69	32,43
606,886	26,28
607,082	-49,49
607,278	42,67
607,474	44,71
607,67	-53,59
607,866	7,85
608,062	-4,44
608,257	-37,2
608,453	26,28
608,649	52,91
608,845	48,81
609,041	11,95
609,236	16,04
609,432	5,8
609,628	-26,96
609,824	7,85
610,019	-12,63
610,215	7,85
610,411	-12,63
610,606	128,68
610,802	20,14
610,998	61,1
611,193	71,34
611,389	24,23
611,584	65,19
611,78	5,8
611,976	5,8
612,171	-67,92
612,367	24,23
612,562	48,81
612,758	-16,73
612,953	11,95
613,149	-6,49
613,344	-8,53
613,539	-53,59
613,735	69,29
613,93	22,19
614,126	36,52
614,321	1,71
614,517	-12,63
614,712	63,15
614,907	65,19
615,103	28,33
615,298	13,99
615,493	75,43
615,688	-16,73
615,884	5,8
616,079	-29,01
616,274	38,57
616,47	3,75
616,665	-29,01
616,86	57
617,055	3,75
617,25	-4,44
617,445	3,75
617,641	11,95
617,836	3,75
618,031	28,33
618,226	-37,2
618,421	7,85
618,616	-53,59
618,811	-35,16
619,006	61,1
619,201	-57,68
619,396	-2,39
619,591	5,8
619,786	-8,53
619,981	67,24
620,176	-8,53
620,371	36,52
620,566	-18,77
620,761	22,19
620,956	24,23
621,151	46,76
621,346	-33,11
621,541	59,05
621,735	52,91
621,93	87,72
622,125	-37,2
622,32	36,52
622,515	-20,82
622,709	24,23
622,904	87,72
623,099	28,33
623,294	28,33
623,488	52,91
623,683	16,04
623,878	-24,92
624,072	57
624,267	-51,54
624,462	-12,63
624,656	26,28
624,851	61,1
625,046	48,81
625,24	32,43
625,435	-2,39
625,629	-22,87
625,824	52,91
626,018	46,76
626,213	-43,35
626,407	7,85
626,602	-20,82
626,796	-29,01
626,991	52,91
627,185	-2,39
627,38	-24,92
627,574	44,71
627,768	50,86
627,963	57
628,157	-61,78
628,352	32,43
628,546	-18,77
628,74	40,62
628,935	42,67
629,129	18,09
629,323	30,38
629,517	-0,34
629,712	38,57
629,906	13,99
630,1	7,85
630,294	24,23
630,489	-18,77
630,683	-12,63
630,877	59,05
631,071	28,33
631,265	-12,63
631,459	32,43
631,653	65,19
631,848	-26,96
632,042	71,34
632,236	71,34
632,43	83,63
632,624	-55,64
632,818	44,71
633,012	20,14
633,206	-8,53
633,4	-41,3
633,594	36,52
633,788	-49,49
633,982	-12,63
634,176	-41,3
634,369	28,33
634,563	9,9
634,757	-43,35
634,951	61,1
635,145	44,71
635,339	79,53
635,533	-29,01
635,726	-22,87
635,92	-37,2
636,114	-29,01
636,308	44,71
636,501	3,75
636,695	20,14
636,889	-20,82
637,083	42,67
637,276	61,1
637,47	79,53
637,664	122,54
637,857	124,58
638,051	38,57
638,244	65,19
638,438	16,04
638,632	-8,53
638,825	36,52
639,019	61,1
639,212	-4,44
639,406	57
639,599	-6,49
639,793	46,76
639,986	-10,58
640,18	-31,06
640,373	1,71
640,567	11,95
640,76	-10,58
640,954	63,15
641,147	-2,39
641,34	-2,39
641,534	-26,96
641,727	3,75
641,92	40,62
642,114	30,38
642,307	-8,53
642,5	-35,16
642,694	-37,2
642,887	16,04
643,08	24,23
643,273	-29,01
643,467	-0,34
643,66	-4,44
643,853	-20,82
644,046	-29,01
644,239	-18,77
644,432	-43,35
644,626	-45,4
644,819	87,72
645,012	44,71
645,205	-8,53
645,398	71,34
645,591	-18,77
645,784	-29,01
645,977	-47,44
646,17	22,19
646,363	-2,39
646,556	18,09
646,749	7,85
646,942	-2,39
647,135	-12,63
647,328	40,62
647,521	-26,96
647,714	16,04
647,907	28,33
648,099	22,19
648,292	-20,82
648,485	7,85
648,678	48,81
648,871	11,95
649,064	61,1
649,256	5,8
649,449	-45,4
649,642	-12,63
649,835	52,91
650,027	52,91
650,22	52,91
650,413	11,95
650,605	13,99
650,798	28,33
650,991	77,48
651,183	24,23
651,376	22,19
651,568	-29,01
651,761	-43,35
651,954	-4,44
652,146	22,19
652,339	-10,58
652,531	-2,39
652,724	24,23
652,916	24,23
653,109	-20,82
653,301	77,48
653,494	81,58
653,686	26,28
653,879	-84,31
654,071	20,14
654,263	57
654,456	-43,35
654,648	11,95
654,84	-18,77
655,033	-29,01
655,225	-12,63
655,417	16,04
655,61	-12,63
655,802	-35,16
655,994	20,14
656,186	44,71
656,379	7,85
656,571	79,53
656,763	24,23
656,955	89,77
657,148	24,23
657,34	7,85
657,532	16,04
657,724	-6,49
657,916	13,99
658,108	5,8
658,3	7,85
658,492	50,86
658,684	7,85
658,876	34,47
659,068	-18,77
659,26	63,15
659,452	13,99
659,644	40,62
659,836	-37,2
660,028	-10,58
660,22	52,91
660,412	-20,82
660,604	48,81
660,796	40,62
660,988	36,52
661,18	-4,44
661,372	-20,82
661,563	24,23
661,755	44,71
661,947	48,81
662,139	65,19
662,331	-35,16
662,522	36,52
662,714	13,99
662,906	-61,78
663,097	-2,39
663,289	-41,3
663,481	46,76
663,673	-14,68
663,864	-51,54
664,056	89,77
664,247	38,57
664,439	85,67
664,631	11,95
664,822	-47,44
665,014	11,95
665,205	48,81
665,397	-12,63
665,588	81,58
665,78	46,76
665,971	1,71
666,163	-18,77
666,354	28,33
666,546	85,67
666,737	22,19
666,929	-59,73
667,12	3,75
667,311	-18,77
667,503	52,91
667,694	-39,25
667,885	7,85
668,077	-2,39
668,268	-61,78
668,459	20,14
668,651	40,62
668,842	-6,49
669,033	11,95
669,224	28,33
669,416	-8,53
669,607	3,75
669,798	28,33
669,989	-12,63
670,18	46,76
670,371	18,09
670,563	-26,96
670,754	26,28
670,945	-41,3
671,136	30,38
671,327	46,76
671,518	34,47
671,709	-24,92
671,9	-41,3
672,091	77,48
672,282	5,8
672,473	44,71
672,664	48,81
672,855	30,38
673,046	-63,83
673,237	20,14
673,428	26,28
673,619	-35,16
673,809	22,19
674	36,52
674,191	-39,25
674,382	-6,49
674,573	-37,2
674,764	22,19
674,954	44,71
675,145	7,85
675,336	63,15
675,527	28,33
675,717	36,52
675,908	20,14
676,099	-18,77
676,289	7,85
676,48	-29,01
676,671	1,71
676,861	-20,82
677,052	52,91
677,243	71,34
677,433	48,81
677,624	40,62
677,814	36,52
678,005	-10,58
678,195	-16,73
678,386	-41,3
678,576	24,23
678,767	-6,49
678,957	3,75
679,148	-45,4
679,338	24,23
679,529	-51,54
679,719	75,43
679,909	-8,53
680,1	-20,82
680,29	-53,59
680,481	3,75
680,671	-18,77
680,861	11,95
681,052	-88,4
681,242	13,99
681,432	7,85
681,622	7,85
681,813	42,67
682,003	36,52
682,193	11,95
682,383	-2,39
682,573	54,95
682,764	9,9
682,954	32,43
683,144	-6,49
683,334	-41,3
683,524	7,85
683,714	1,71
683,904	-12,63
684,094	3,75
684,284	44,71
684,474	20,14
684,664	61,1
684,854	61,1
685,044	-29,01
685,234	-8,53
685,424	-6,49
685,614	46,76
685,804	85,67
685,994	-35,16
686,184	34,47
686,374	13,99
686,564	-8,53
686,753	-29,01
686,943	-29,01
687,133	-55,64
687,323	20,14
687,513	52,91
687,702	81,58
687,892	57
688,082	106,15
688,272	-14,68
688,461	54,95
688,651	3,75
688,841	-61,78
689,03	22,19
689,22	59,05
689,41	-26,96
689,599	-37,2
689,789	28,33
689,979	-2,39
690,168	30,38
690,358	52,91
690,547	30,38
690,737	20,14
690,926	-29,01
691,116	13,99
691,305	40,62
691,495	16,04
691,684	38,57
691,874	-33,11
692,063	28,33
692,252	13,99
692,442	-16,73
692,631	-37,2
692,82	-12,63
693,01	36,52
693,199	20,14
693,388	20,14
693,578	-6,49
693,767	11,95
693,956	30,38
694,146	-35,16
694,335	-0,34
694,524	46,76
694,713	28,33
694,902	-37,2
695,092	-24,92
695,281	34,47
695,47	28,33
695,659	106,15
695,848	13,99
696,037	36,52
696,226	36,52
696,415	22,19
696,604	-2,39
696,793	30,38
696,982	63,15
697,171	-31,06
697,36	20,14
697,549	69,29
697,738	-49,49
697,927	-22,87
698,116	22,19
698,305	52,91
698,494	1,71
698,683	91,82
698,872	22,19
699,061	57
699,25	77,48
699,438	28,33
699,627	-16,73
699,816	-10,58
700,005	42,67
700,193	-24,92
700,382	20,14
700,571	11,95
700,76	-51,54
700,948	5,8
701,137	-53,59
701,326	57
701,514	20,14
701,703	-2,39
701,892	42,67
702,08	-41,3
702,269	-49,49
702,457	-20,82
702,646	11,95
702,834	-18,77
703,023	-41,3
703,212	-2,39
703,4	38,57
703,589	-2,39
703,777	24,23
703,965	97,96
704,154	13,99
704,342	18,09
704,531	-29,01
704,719	97,96
704,907	57
705,096	143,02
705,284	-41,3
705,472	42,67
705,661	28,33
705,849	36,52
706,037	-24,92
706,226	81,58
706,414	-14,68
706,602	1,71
706,79	-6,49
706,979	13,99
707,167	16,04
707,355	85,67
707,543	3,75
707,731	20,14
707,919	-4,44
708,107	71,34
708,296	30,38
708,484	3,75
708,672	7,85
708,86	40,62
709,048	18,09
709,236	-8,53
709,424	59,05
709,612	-20,82
709,8	13,99
709,988	-24,92
710,176	-53,59
710,364	32,43
710,551	5,8
710,739	-16,73
710,927	-37,2
711,115	30,38
711,303	-31,06
711,491	11,95
711,679	-45,4
711,866	-12,63
712,054	-16,73
712,242	36,52
712,43	-0,34
712,617	-20,82
712,805	89,77
712,993	-20,82
713,181	-20,82
713,368	36,52
713,556	5,8
713,744	46,76
713,931	50,86
714,119	22,19
714,306	-22,87
714,494	81,58
714,682	38,57
714,869	28,33
715,057	77,48
715,244	38,57
715,432	-10,58
715,619	1,71
715,807	46,76
715,994	-6,49
716,182	71,34
716,369	36,52
716,556	48,81
716,744	-47,44
716,931	1,71
717,119	36,52
717,306	-2,39
717,493	38,57
717,681	28,33
717,868	3,75
718,055	20,14
718,242	46,76
718,43	13,99
718,617	-12,63
718,804	-29,01
718,991	-24,92
719,179	22,19
719,366	-4,44
719,553	-45,4
719,74	16,04
719,927	11,95
720,114	73,39
720,301	48,81
720,488	34,47
720,676	11,95
720,863	52,91
721,05	61,1
721,237	65,19
721,424	-102,74
721,611	-10,58
721,798	-35,16
721,985	11,95
722,172	1,71
722,358	38,57
722,545	16,04
722,732	48,81
722,919	16,04
723,106	-4,44
723,293	85,67
723,48	5,8
723,667	-41,3
723,853	54,95
724,04	-12,63
724,227	11,95
724,414	-16,73
724,6	46,76
724,787	52,91
724,974	61,1
725,161	-51,54
725,347	40,62
725,534	-4,44
725,72	22,19
725,907	52,91
726,094	18,09
726,28	-12,63
726,467	30,38
726,653	-24,92
726,84	-8,53
727,027	-16,73
727,213	7,85
727,4	-41,3
727,586	-12,63
727,773	-37,2
727,959	9,9
728,145	-45,4
728,332	11,95
728,518	-35,16
728,705	54,95
728,891	1,71
729,077	24,23
729,264	61,1
729,45	48,81
729,636	85,67
729,823	-37,2
730,009	9,9
730,195	44,71
730,382	-6,49
730,568	3,75
730,754	-26,96
730,94	44,71
731,126	-6,49
731,313	61,1
731,499	-57,68
731,685	20,14
731,871	22,19
732,057	65,19
732,243	-53,59
732,429	13,99
732,615	-18,77
732,801	11,95
732,987	-24,92
733,173	7,85
733,359	24,23
733,545	54,95
733,731	40,62
733,917	89,77
734,103	22,19
734,289	16,04
734,475	-37,2
734,661	-10,58
734,847	20,14
735,033	20,14
735,219	34,47
735,404	3,75
735,59	5,8
735,776	-49,49
735,962	22,19
736,148	28,33
736,333	9,9
736,519	24,23
736,705	-59,73
736,89	32,43
737,076	26,28
737,262	57
737,447	16,04
737,633	18,09
737,819	1,71
738,004	3,75
738,19	-12,63
738,375	106,15
738,561	-16,73
738,747	-12,63
738,932	85,67
739,118	46,76
739,303	46,76
739,489	-22,87
739,674	7,85
739,859	30,38
740,045	-33,11
740,23	26,28
740,416	-59,73
740,601	77,48
740,786	38,57
740,972	48,81
741,157	-24,92
741,342	-4,44
741,528	1,71
741,713	7,85
741,898	30,38
742,084	20,14
742,269	16,04
742,454	54,95
742,639	48,81
742,824	-41,3
743,01	30,38
743,195	-4,44
743,38	75,43
743,565	-6,49
743,75	-16,73
743,935	22,19
744,12	-18,77
744,305	57
744,49	36,52
744,675	-8,53
744,86	5,8
745,045	38,57
745,23	-16,73
745,415	-45,4
745,6	-41,3
745,785	-10,58
745,97	36,52
746,155	7,85
746,34	-74,07
746,525	11,95
746,71	110,25
746,895	36,52
747,079	5,8
747,264	16,04
747,449	-26,96
747,634	61,1
747,819	26,28
748,003	26,28
748,188	38,57
748,373	36,52
748,557	1,71
748,742	46,76
748,927	30,38
749,111	-49,49
749,296	30,38
749,481	-12,63
749,665	-94,55
749,85	3,75
750,034	-12,63
750,219	59,05
750,404	38,57
750,588	13,99
750,773	46,76
750,957	20,14
751,141	22,19
751,326	13,99
751,51	-20,82
751,695	11,95
751,879	18,09
752,064	-26,96
752,248	22,19
752,432	-33,11
752,617	13,99
752,801	48,81
752,985	3,75
753,17	32,43
753,354	18,09
753,538	-2,39
753,722	22,19
753,907	-18,77
754,091	24,23
754,275	50,86
754,459	-94,55
754,643	22,19
754,828	-26,96
755,012	1,71
755,196	9,9
755,38	3,75
755,564	40,62
755,748	11,95
755,932	-18,77
756,116	-29,01
756,3	63,15
756,484	3,75
756,668	20,14
756,852	-45,4
757,036	38,57
757,22	13,99
757,404	48,81
757,588	16,04
757,772	-20,82
757,956	-14,68
758,14	-8,53
758,323	52,91
758,507	24,23
758,691	44,71
758,875	16,04
759,059	-4,44
759,242	106,15
759,426	-0,34
759,61	16,04
759,794	34,47
759,977	28,33
760,161	13,99
760,345	-20,82
760,528	-0,34
760,712	-24,92
760,895	50,86
761,079	46,76
761,263	52,91
761,446	30,38
761,63	38,57
761,813	-14,68
761,997	46,76
762,18	-37,2
762,364	73,39
762,547	7,85
762,731	9,9
762,914	11,95
763,098	65,19
763,281	-22,87
763,464	-16,73
763,648	11,95
763,831	5,8
764,015	11,95
764,198	61,1
764,381	36,52
764,564	20,14
764,748	-33,11
764,931	34,47
765,114	46,76
765,297	5,8
765,481	-12,63
765,664	-4,44
765,847	-45,4
766,03	7,85
766,213	-6,49
766,397	46,76
766,58	57
766,763	40,62
766,946	16,04
767,129	-12,63
767,312	-57,68
767,495	36,52
767,678	-29,01
767,861	52,91
768,044	30,38
768,227	-4,44
768,41	5,8
768,593	52,91
768,776	16,04
768,959	-78,16
769,142	48,81
769,324	71,34
769,507	-84,31
769,69	-53,59
769,873	-92,5
770,056	5,8
770,239	102,06
770,421	3,75
770,604	85,67
770,787	3,75
770,97	-37,2
771,152	-16,73
771,335	7,85
771,518	32,43
771,7	32,43
771,883	46,76
772,066	20,14
772,248	-12,63
772,431	-45,4
772,613	9,9
772,796	-6,49
772,978	-61,78
773,161	-10,58
773,343	42,67
773,526	40,62
773,708	18,09
773,891	-12,63
774,073	28,33
774,256	-86,36
774,438	38,57
774,621	1,71
774,803	7,85
774,985	38,57
775,168	9,9
775,35	20,14
775,532	40,62
775,715	1,71
775,897	-26,96
776,079	-51,54
776,261	-10,58
776,444	-18,77
776,626	61,1
776,808	-8,53
776,99	-8,53
777,173	54,95
777,355	-14,68
777,537	34,47
777,719	11,95
777,901	-29,01
778,083	-0,34
778,265	-0,34
778,447	95,91
778,629	24,23
778,811	34,47
778,993	44,71
779,175	59,05
779,357	-24,92
779,539	-51,54
779,721	-4,44
779,903	-16,73
780,085	102,06
780,267	-0,34
780,449	3,75
780,631	28,33
780,812	-29,01
780,994	24,23
781,176	93,87
781,358	32,43
781,54	30,38
781,721	-18,77
781,903	-2,39
782,085	28,33
782,267	-6,49
782,448	24,23
782,63	16,04
782,812	20,14
782,993	-45,4
783,175	20,14
783,357	20,14
783,538	13,99
783,72	30,38
783,901	44,71
784,083	-0,34
784,264	38,57
784,446	20,14
784,627	-20,82
784,809	24,23
784,99	-35,16
785,172	36,52
785,353	-8,53
785,535	-0,34
785,716	-8,53
785,897	-16,73
786,079	16,04
786,26	73,39
786,441	85,67
786,623	-31,06
786,804	11,95
786,985	44,71
787,167	-20,82
787,348	54,95
787,529	-55,64
787,71	28,33
787,891	11,95
788,073	-2,39
788,254	-4,44
788,435	40,62
788,616	16,04
788,797	-31,06
788,978	28,33
789,159	-4,44
789,34	9,9
789,522	-22,87
789,703	3,75
789,884	-18,77
790,065	54,95
790,246	-12,63
790,427	-29,01
790,607	85,67
790,788	-35,16
790,969	36,52
791,15	16,04
791,331	-14,68
791,512	-8,53
791,693	-8,53
791,874	89,77
792,054	61,1
792,235	9,9
792,416	-12,63
792,597	89,77
792,778	-24,92
792,958	54,95
793,139	22,19
793,32	30,38
793,5	40,62
793,681	63,15
793,862	50,86
794,042	26,28
794,223	42,67
794,404	-24,92
794,584	26,28
794,765	7,85
794,945	-37,2
795,126	40,62
795,306	18,09
795,487	77,48
795,667	87,72
795,848	57
796,028	69,29
796,209	-29,01
796,389	11,95
796,57	-4,44
796,75	22,19
796,93	-24,92
797,111	-14,68
797,291	-12,63
797,471	-29,01
797,652	67,24
797,832	-8,53
798,012	13,99
798,192	11,95
798,373	65,19
798,553	42,67
798,733	-37,2
798,913	28,33
799,093	28,33
799,274	-31,06
799,454	-20,82
799,634	-4,44
799,814	-43,35
799,994	-4,44
800,174	61,1
800,354	-43,35
800,534	3,75
800,714	63,15
800,894	75,43
801,074	-41,3
801,254	-16,73
801,434	-10,58
801,614	81,58
801,794	-8,53
801,974	11,95
802,154	-20,82
802,334	-10,58
802,514	52,91
802,693	20,14
802,873	-2,39
803,053	38,57
803,233	-4,44
803,413	22,19
803,592	65,19
803,772	28,33
803,952	7,85
804,131	34,47
804,311	11,95
804,491	57
804,67	-49,49
804,85	5,8
805,03	20,14
805,209	-45,4
805,389	-24,92
805,568	-74,07
805,748	-12,63
805,928	32,43
806,107	36,52
806,287	44,71
806,466	3,75
806,646	-2,39
806,825	-94,55
807,004	13,99
807,184	20,14
807,363	-2,39
807,543	75,43
807,722	22,19
807,901	44,71
808,081	-8,53
808,26	-26,96
808,439	44,71
808,619	-4,44
808,798	22,19
808,977	40,62
809,156	52,91
809,336	30,38
809,515	13,99
809,694	3,75
809,873	-0,34
810,052	-61,78
810,231	7,85
810,411	-16,73
810,59	28,33
810,769	22,19
810,948	79,53
811,127	-67,92
811,306	73,39
811,485	38,57
811,664	32,43
811,843	-51,54
812,022	57
812,201	44,71
812,38	-6,49
812,559	-4,44
812,737	67,24
812,916	38,57
813,095	-16,73
813,274	3,75
813,453	3,75
813,632	28,33
813,811	-41,3
813,989	34,47
814,168	-18,77
814,347	44,71
814,526	-26,96
814,704	34,47
814,883	44,71
815,062	-55,64
815,24	-51,54
815,419	-6,49
815,598	16,04
815,776	52,91
815,955	-16,73
816,133	26,28
816,312	20,14
816,49	-12,63
816,669	7,85
816,847	32,43
817,026	-26,96
817,204	22,19
817,383	-12,63
817,561	-35,16
817,74	-69,97
817,918	7,85
818,097	30,38
818,275	-22,87
818,453	-10,58
818,632	30,38
818,81	-31,06
818,988	-2,39
819,167	-41,3
819,345	-24,92
819,523	44,71
819,701	5,8
819,879	-35,16
820,058	-0,34
820,236	1,71
820,414	3,75
820,592	26,28
820,77	28,33
820,948	-4,44
821,127	36,52
821,305	-24,92
821,483	-10,58
821,661	30,38
821,839	3,75
822,017	16,04
822,195	20,14
822,373	-14,68
822,551	52,91
822,729	28,33
822,907	-26,96
823,085	24,23
823,262	-49,49
823,44	24,23
823,618	30,38
823,796	48,81
823,974	46,76
824,152	-35,16
824,329	20,14
824,507	61,1
824,685	40,62
824,863	30,38
825,04	-33,11
825,218	20,14
825,396	1,71
825,574	18,09
825,751	63,15
825,929	-14,68
826,107	46,76
826,284	-37,2
826,462	1,71
826,639	-2,39
826,817	63,15
826,994	-55,64
827,172	44,71
827,349	52,91
827,527	95,91
827,704	52,91
827,882	-29,01
828,059	22,19
828,237	-18,77
828,414	38,57
828,591	44,71
828,769	57
828,946	20,14
829,124	87,72
829,301	-2,39
829,478	-0,34
829,655	73,39
829,833	22,19
830,01	22,19
830,187	44,71
830,364	-12,63
830,542	-0,34
830,719	-8,53
830,896	3,75
831,073	11,95
831,25	30,38
831,427	-41,3
831,604	20,14
831,782	-12,63
831,959	-12,63
832,136	36,52
832,313	46,76
832,49	75,43
832,667	-43,35
832,844	61,1
833,021	-20,82
833,198	26,28
833,374	30,38
833,551	57
833,728	-10,58
833,905	79,53
834,082	59,05
834,259	16,04
834,436	13,99
834,612	52,91
834,789	20,14
834,966	42,67
835,143	48,81
835,319	67,24
835,496	-20,82
835,673	28,33
835,85	28,33
836,026	28,33
836,203	-49,49
836,38	28,33
836,556	-18,77
836,733	-37,2
836,909	22,19
837,086	11,95
837,262	13,99
837,439	20,14
837,616	46,76
837,792	59,05
837,968	3,75
838,145	7,85
838,321	-8,53
838,498	-24,92
838,674	11,95
838,851	-14,68
839,027	65,19
839,203	7,85
839,38	-6,49
839,556	-74,07
839,732	-35,16
839,909	13,99
840,085	-12,63
840,261	-29,01
840,437	-110,93
840,614	52,91
840,79	-61,78
840,966	36,52
841,142	61,1
841,318	-39,25
841,494	-37,2
841,671	-45,4
841,847	-8,53
842,023	5,8
842,199	38,57
842,375	-53,59
842,551	11,95
842,727	-0,34
842,903	3,75
843,079	36,52
843,255	22,19
843,431	26,28
843,607	30,38
843,783	-10,58
843,959	16,04
844,134	-20,82
844,31	-59,73
844,486	20,14
844,662	11,95
844,838	-8,53
845,013	11,95
845,189	20,14
845,365	-33,11
845,541	13,99
845,716	57
845,892	54,95
846,068	11,95
846,244	-16,73
846,419	-0,34
846,595	20,14
846,77	40,62
846,946	32,43
847,122	44,71
847,297	-26,96
847,473	87,72
847,648	-20,82
847,824	-4,44
847,999	3,75
848,175	3,75
848,35	61,1
848,526	-4,44
848,701	3,75
848,876	46,76
849,052	57
849,227	13,99
849,403	-6,49
849,578	-8,53
849,753	1,71
849,929	-51,54
850,104	-6,49
850,279	-20,82
850,454	20,14
850,63	-20,82
850,805	24,23
850,98	38,57
851,155	-67,92
851,33	-59,73
851,505	40,62
851,681	-78,16
851,856	20,14
852,031	-37,2
852,206	79,53
852,381	18,09
852,556	-12,63
852,731	-80,21
852,906	-12,63
853,081	11,95
853,256	1,71
853,431	24,23
853,606	5,8
853,781	5,8
853,956	20,14
854,131	97,96
854,305	-53,59
854,48	-41,3
854,655	44,71
854,83	46,76
855,005	3,75
855,18	16,04
855,354	-20,82
855,529	38,57
855,704	22,19
855,879	-10,58
856,053	-45,4
856,228	63,15
856,403	-51,54
856,577	46,76
856,752	-6,49
856,926	34,47
857,101	-18,77
857,276	30,38
857,45	28,33
857,625	-72,02
857,799	-2,39
857,974	-33,11
858,148	3,75
858,323	-29,01
858,497	-31,06
858,672	-14,68
858,846	13,99
859,02	-12,63
859,195	77,48
859,369	54,95
859,543	65,19
859,718	50,86
859,892	38,57
860,066	11,95
860,241	44,71
860,415	16,04
860,589	3,75
860,763	3,75
860,938	-29,01
861,112	18,09
861,286	28,33
861,46	69,29
861,634	7,85
861,808	38,57
861,982	-29,01
862,157	73,39
862,331	63,15
862,505	-49,49
862,679	-22,87
862,853	-24,92
863,027	20,14
863,201	-39,25
863,375	22,19
863,549	38,57
863,722	-49,49
863,896	5,8
864,07	42,67
864,244	65,19
864,418	36,52
864,592	-67,92
864,766	7,85
864,939	-31,06
865,113	13,99
865,287	-20,82
865,461	7,85
865,634	-31,06
865,808	13,99
865,982	-67,92
866,156	-57,68
866,329	36,52
866,503	-12,63
866,676	30,38
866,85	57
867,024	-24,92
867,197	-16,73
867,371	36,52
867,544	30,38
867,718	28,33
867,891	-16,73
868,065	-2,39
868,238	44,71
868,412	36,52
868,585	-20,82
868,759	54,95
868,932	-18,77
869,105	-12,63
869,279	-6,49
869,452	100,01
869,625	-59,73
869,799	9,9
869,972	30,38
870,145	-18,77
870,319	34,47
870,492	-6,49
870,665	-39,25
870,838	46,76
871,011	-24,92
871,185	-6,49
871,358	44,71
871,531	13,99
871,704	7,85
871,877	65,19
872,05	7,85
872,223	77,48
872,396	-59,73
872,569	-31,06
872,742	-94,55
872,915	-2,39
873,088	48,81
873,261	-4,44
873,434	-43,35
873,607	50,86
873,78	-47,44
873,953	46,76
874,126	52,91
874,299	42,67
874,471	36,52
874,644	-37,2
874,817	-26,96
874,99	-6,49
875,163	-61,78
875,335	77,48
875,508	-74,07
875,681	102,06
875,853	16,04
876,026	40,62
876,199	-12,63
876,371	77,48
876,544	18,09
876,717	44,71
876,889	13,99
877,062	-26,96
877,234	67,24
877,407	112,3
877,579	3,75
877,752	22,19
877,924	65,19
878,097	36,52
878,269	46,76
878,442	22,19
878,614	48,81
878,786	-24,92
878,959	32,43
879,131	-18,77
879,303	102,06
879,476	9,9
879,648	3,75
879,82	-29,01
879,993	-12,63
880,165	38,57
880,337	52,91
880,509	32,43
880,681	40,62
880,854	-31,06
881,026	26,28
881,198	-51,54
881,37	-8,53
881,542	54,95
881,714	-35,16
881,886	20,14
882,058	1,71
882,23	30,38
882,402	-65,88
882,574	-61,78
882,746	-51,54
882,918	100,01
883,09	-65,88
883,262	3,75
883,434	-20,82
883,606	16,04
883,778	5,8
883,95	-4,44
884,122	-8,53
884,293	-31,06
884,465	30,38
884,637	57
884,809	1,71
884,98	-2,39
885,152	5,8
885,324	-29,01
885,496	11,95
885,667	-41,3
885,839	-16,73
886,011	40,62
886,182	-31,06
886,354	24,23
886,525	28,33
886,697	1,71
886,869	81,58
887,04	-0,34
887,212	16,04
887,383	5,8
887,555	5,8
887,726	30,38
887,897	71,34
888,069	102,06
888,24	-4,44
888,412	7,85
888,583	-12,63
888,754	69,29
888,926	44,71
889,097	30,38
889,268	126,63
889,44	-0,34
889,611	-10,58
889,782	20,14
889,953	81,58
890,125	79,53
890,296	-67,92
890,467	22,19
890,638	16,04
890,809	28,33
890,98	22,19
891,151	13,99
891,323	-12,63
891,494	-26,96
891,665	59,05
891,836	13,99
892,007	28,33
892,178	54,95
892,349	1,71
892,52	5,8
892,691	42,67
892,862	54,95
893,032	-0,34
893,203	67,24
893,374	-29,01
893,545	-45,4
893,716	-2,39
893,887	20,14
894,057	28,33
894,228	-4,44
894,399	11,95
894,57	-2,39
894,74	13,99
894,911	22,19
895,082	-16,73
895,253	-6,49
895,423	-37,2
895,594	44,71
895,764	11,95
895,935	44,71
896,106	18,09
896,276	-0,34
896,447	-102,74
896,617	52,91
896,788	42,67
896,958	-22,87
897,129	9,9
897,299	67,24
897,47	11,95
897,64	69,29
897,81	24,23
897,981	30,38
898,151	13,99
898,322	-18,77
898,492	18,09
898,662	-24,92
898,832	36,52
899,003	11,95
899,173	-10,58
899,343	-37,2
899,513	48,81
