Data from filtre 577_USB4F104151__4__12-00-10-703.txt Node

Date: Wed Apr 15 12:00:10 EDT 2026
User: LaboPhy
Spectrometer: USB4F10415
Trigger mode: 4
Integration Time (sec): 2,000000E-3
Scans to average: 1
Electric dark correction enabled: true
Nonlinearity correction enabled: false
Boxcar width: 0
XAxis mode: Wavelengths
Number of Pixels in Spectrum: 3648
>>>>>Begin Spectral Data<<<<<
178,204	-49,83
178,424	-49,83
178,644	-49,83
178,864	-15,02
179,084	3,41
179,304	36,18
179,524	-10,92
179,744	21,85
179,964	-6,83
180,184	-66,22
180,404	-33,45
180,624	-4,78
180,844	17,75
181,064	-45,74
181,283	48,47
181,503	30,04
181,723	13,65
181,943	60,76
182,163	11,61
182,383	44,37
182,602	15,7
182,822	3,41
183,042	21,85
183,262	5,46
183,482	30,04
183,701	9,56
183,921	-10,92
184,141	-21,16
184,361	48,47
184,58	-12,97
184,8	3,41
185,02	9,56
185,239	32,08
185,459	25,94
185,679	48,47
185,898	25,94
186,118	-15,02
186,338	-37,55
186,557	118,1
186,777	3,41
186,997	99,67
187,216	-10,92
187,436	-2,73
187,655	-6,83
187,875	62,8
188,095	3,41
188,314	32,08
188,534	36,18
188,753	52,56
188,973	40,28
189,192	-19,11
189,412	60,76
189,631	66,9
189,851	-41,64
190,07	-12,97
190,29	-4,78
190,509	-25,26
190,729	32,08
190,948	27,99
191,168	48,47
191,387	54,61
191,607	-12,97
191,826	19,8
192,045	19,8
192,265	11,61
192,484	-4,78
192,704	38,23
192,923	-37,55
193,142	71
193,362	-6,83
193,581	25,94
193,8	-27,31
194,02	-33,45
194,239	-2,73
194,458	-0,68
194,678	7,51
194,897	36,18
195,116	-2,73
195,335	56,66
195,555	-15,02
195,774	3,41
195,993	40,28
196,212	-10,92
196,432	27,99
196,651	68,95
196,87	-66,22
197,089	23,89
197,308	-25,26
197,528	56,66
197,747	-15,02
197,966	30,04
198,185	64,85
198,404	73,04
198,623	23,89
198,842	60,76
199,062	34,13
199,281	21,85
199,5	40,28
199,719	5,46
199,938	19,8
200,157	-58,03
200,376	27,99
200,595	44,37
200,814	-27,31
201,033	46,42
201,252	21,85
201,471	21,85
201,69	-27,31
201,909	93,52
202,128	-0,68
202,347	19,8
202,566	-17,07
202,785	40,28
203,004	-8,87
203,223	-0,68
203,442	17,75
203,661	-4,78
203,879	87,38
204,098	-35,5
204,317	64,85
204,536	40,28
204,755	-4,78
204,974	21,85
205,193	11,61
205,411	99,67
205,63	56,66
205,849	-51,88
206,068	1,37
206,287	75,09
206,505	46,42
206,724	25,94
206,943	-4,78
207,162	3,41
207,381	44,37
207,599	-39,59
207,818	-60,07
208,037	34,13
208,255	-45,74
208,474	19,8
208,693	114
208,911	36,18
209,13	44,37
209,349	-12,97
209,567	-8,87
209,786	34,13
210,005	-10,92
210,223	38,23
210,442	-4,78
210,661	7,51
210,879	34,13
211,098	19,8
211,316	-6,83
211,535	-4,78
211,753	5,46
211,972	-4,78
212,191	-25,26
212,409	-72,36
212,628	9,56
212,846	30,04
213,065	11,61
213,283	36,18
213,502	-27,31
213,72	3,41
213,938	11,61
214,157	-39,59
214,375	46,42
214,594	-39,59
214,812	38,23
215,031	46,42
215,249	-0,68
215,467	-17,07
215,686	5,46
215,904	32,08
216,122	44,37
216,341	-12,97
216,559	5,46
216,778	64,85
216,996	-10,92
217,214	97,62
217,432	-29,35
217,651	-0,68
217,869	15,7
218,087	52,56
218,306	44,37
218,524	-0,68
218,742	21,85
218,96	15,7
219,179	13,65
219,397	36,18
219,615	38,23
219,833	5,46
220,051	-8,87
220,27	-4,78
220,488	-0,68
220,706	30,04
220,924	75,09
221,142	3,41
221,36	50,52
221,578	68,95
221,796	25,94
222,015	3,41
222,233	11,61
222,451	44,37
222,669	62,8
222,887	-21,16
223,105	46,42
223,323	13,65
223,541	27,99
223,759	21,85
223,977	40,28
224,195	7,51
224,413	-49,83
224,631	11,61
224,849	3,41
225,067	87,38
225,285	48,47
225,503	5,46
225,721	68,95
225,939	11,61
226,157	60,76
226,375	-2,73
226,592	44,37
226,81	-29,35
227,028	27,99
227,246	-17,07
227,464	21,85
227,682	7,51
227,9	-23,21
228,117	46,42
228,335	-19,11
228,553	11,61
228,771	-0,68
228,989	36,18
229,206	-15,02
229,424	19,8
229,642	81,24
229,86	48,47
230,077	27,99
230,295	38,23
230,513	75,09
230,731	-4,78
230,948	-43,69
231,166	71
231,384	13,65
231,601	7,51
231,819	27,99
232,037	-8,87
232,254	46,42
232,472	-8,87
232,689	-29,35
232,907	-8,87
233,125	19,8
233,342	-10,92
233,56	9,56
233,777	71
233,995	3,41
234,213	36,18
234,43	25,94
234,648	64,85
234,865	54,61
235,083	-25,26
235,3	-45,74
235,518	19,8
235,735	27,99
235,953	-37,55
236,17	93,52
236,388	60,76
236,605	-2,73
236,822	44,37
237,04	15,7
237,257	17,75
237,475	42,32
237,692	11,61
237,909	77,14
238,127	52,56
238,344	68,95
238,562	-27,31
238,779	-19,11
238,996	118,1
239,214	21,85
239,431	5,46
239,648	-4,78
239,865	52,56
240,083	40,28
240,3	-23,21
240,517	-12,97
240,735	21,85
240,952	11,61
241,169	77,14
241,386	71
241,603	25,94
241,821	-29,35
242,038	13,65
242,255	21,85
242,472	30,04
242,689	17,75
242,907	-27,31
243,124	7,51
243,341	58,71
243,558	36,18
243,775	5,46
243,992	-17,07
244,209	71
244,426	60,76
244,643	5,46
244,86	-21,16
245,078	68,95
245,295	-2,73
245,512	3,41
245,729	48,47
245,946	75,09
246,163	-10,92
246,38	87,38
246,597	58,71
246,814	15,7
247,031	36,18
247,248	81,24
247,464	15,7
247,681	-8,87
247,898	30,04
248,115	-0,68
248,332	-2,73
248,549	66,9
248,766	-12,97
248,983	5,46
249,2	46,42
249,417	54,61
249,633	-4,78
249,85	32,08
250,067	-0,68
250,284	21,85
250,501	-15,02
250,717	60,76
250,934	34,13
251,151	-2,73
251,368	-0,68
251,585	54,61
251,801	-8,87
252,018	9,56
252,235	36,18
252,451	-2,73
252,668	40,28
252,885	21,85
253,102	9,56
253,318	64,85
253,535	-0,68
253,752	44,37
253,968	-53,93
254,185	62,8
254,401	3,41
254,618	93,52
254,835	34,13
255,051	-25,26
255,268	1,37
255,484	44,37
255,701	42,32
255,917	38,23
256,134	-8,87
256,351	36,18
256,567	1,37
256,784	54,61
257	23,89
257,217	-10,92
257,433	13,65
257,65	62,8
257,866	-27,31
258,082	79,19
258,299	-2,73
258,515	42,32
258,732	46,42
258,948	13,65
259,165	36,18
259,381	48,47
259,597	79,19
259,814	-12,97
260,03	27,99
260,246	5,46
260,463	38,23
260,679	-8,87
260,895	64,85
261,112	52,56
261,328	23,89
261,544	40,28
261,761	89,43
261,977	19,8
262,193	46,42
262,409	-12,97
262,626	7,51
262,842	15,7
263,058	48,47
263,274	60,76
263,49	21,85
263,707	-33,45
263,923	32,08
264,139	19,8
264,355	-37,55
264,571	32,08
264,787	-25,26
265,004	15,7
265,22	3,41
265,436	52,56
265,652	-45,74
265,868	60,76
266,084	11,61
266,3	13,65
266,516	17,75
266,732	79,19
266,948	23,89
267,164	46,42
267,38	-47,79
267,596	11,61
267,812	48,47
268,028	-33,45
268,244	75,09
268,46	23,89
268,676	25,94
268,892	36,18
269,108	9,56
269,324	68,95
269,54	21,85
269,756	19,8
269,972	38,23
270,188	118,1
270,403	-41,64
270,619	38,23
270,835	93,52
271,051	-47,79
271,267	44,37
271,483	30,04
271,698	-4,78
271,914	44,37
272,13	-76,46
272,346	25,94
272,562	27,99
272,777	30,04
272,993	9,56
273,209	3,41
273,425	44,37
273,64	27,99
273,856	-17,07
274,072	60,76
274,287	36,18
274,503	30,04
274,719	-68,27
274,934	36,18
275,15	-29,35
275,366	30,04
275,581	54,61
275,797	30,04
276,012	-12,97
276,228	-4,78
276,444	27,99
276,659	-0,68
276,875	3,41
277,09	9,56
277,306	5,46
277,521	-49,83
277,737	-51,88
277,952	68,95
278,168	77,14
278,383	30,04
278,599	32,08
278,814	32,08
279,03	32,08
279,245	34,13
279,461	36,18
279,676	32,08
279,892	-37,55
280,107	62,8
280,322	7,51
280,538	15,7
280,753	19,8
280,969	3,41
281,184	71
281,399	97,62
281,615	64,85
281,83	79,19
282,045	-0,68
282,26	-47,79
282,476	36,18
282,691	81,24
282,906	15,7
283,122	95,57
283,337	48,47
283,552	93,52
283,767	19,8
283,983	99,67
284,198	3,41
284,413	-31,4
284,628	-15,02
284,843	5,46
285,058	-4,78
285,274	11,61
285,489	27,99
285,704	40,28
285,919	5,46
286,134	-35,5
286,349	-4,78
286,564	11,61
286,779	-4,78
286,995	19,8
287,21	34,13
287,425	30,04
287,64	54,61
287,855	3,41
288,07	36,18
288,285	32,08
288,5	-0,68
288,715	13,65
288,93	38,23
289,145	48,47
289,36	-86,7
289,575	-27,31
289,79	44,37
290,004	56,66
290,219	77,14
290,434	75,09
290,649	46,42
290,864	19,8
291,079	34,13
291,294	-2,73
291,509	23,89
291,724	-31,4
291,938	34,13
292,153	73,04
292,368	44,37
292,583	15,7
292,798	46,42
293,012	-2,73
293,227	9,56
293,442	38,23
293,657	-8,87
293,871	103,76
294,086	-27,31
294,301	42,32
294,516	27,99
294,73	-8,87
294,945	34,13
295,16	5,46
295,374	5,46
295,589	-17,07
295,804	-45,74
296,018	-0,68
296,233	-19,11
296,447	27,99
296,662	-51,88
296,877	34,13
297,091	27,99
297,306	46,42
297,52	52,56
297,735	3,41
297,949	32,08
298,164	89,43
298,378	-17,07
298,593	40,28
298,807	13,65
299,022	-4,78
299,236	77,14
299,451	1,37
299,665	19,8
299,88	81,24
300,094	52,56
300,309	13,65
300,523	-10,92
300,737	48,47
300,952	25,94
301,166	11,61
301,381	-8,87
301,595	34,13
301,809	66,9
302,024	44,37
302,238	27,99
302,452	54,61
302,667	71
302,881	56,66
303,095	36,18
303,309	52,56
303,524	21,85
303,738	-51,88
303,952	-2,73
304,166	32,08
304,381	5,46
304,595	101,72
304,809	-21,16
305,023	89,43
305,237	-10,92
305,452	40,28
305,666	-37,55
305,88	-10,92
306,094	15,7
306,308	38,23
306,522	-29,35
306,736	19,8
306,95	7,51
307,164	52,56
307,379	77,14
307,593	66,9
307,807	1,37
308,021	15,7
308,235	56,66
308,449	3,41
308,663	-49,83
308,877	13,65
309,091	-49,83
309,305	126,29
309,519	-17,07
309,733	23,89
309,947	9,56
310,161	64,85
310,374	93,52
310,588	9,56
310,802	44,37
311,016	62,8
311,23	44,37
311,444	-8,87
311,658	-45,74
311,872	91,48
312,085	-4,78
312,299	11,61
312,513	-0,68
312,727	101,72
312,941	-29,35
313,154	11,61
313,368	15,7
313,582	52,56
313,796	71
314,009	-53,93
314,223	-37,55
314,437	114
314,651	46,42
314,864	-29,35
315,078	68,95
315,292	52,56
315,505	-37,55
315,719	17,75
315,933	-0,68
316,146	-17,07
316,36	71
316,573	91,48
316,787	-4,78
317,001	9,56
317,214	11,61
317,428	68,95
317,641	-12,97
317,855	36,18
318,068	-37,55
318,282	15,7
318,495	5,46
318,709	32,08
318,922	38,23
319,136	36,18
319,349	-10,92
319,563	40,28
319,776	19,8
319,99	-27,31
320,203	101,72
320,417	48,47
320,63	15,7
320,843	62,8
321,057	13,65
321,27	66,9
321,483	101,72
321,697	60,76
321,91	-8,87
322,124	27,99
322,337	36,18
322,55	23,89
322,763	-12,97
322,977	3,41
323,19	64,85
323,403	15,7
323,617	44,37
323,83	30,04
324,043	-10,92
324,256	15,7
324,469	-29,35
324,683	-12,97
324,896	-62,12
325,109	50,52
325,322	3,41
325,535	44,37
325,748	40,28
325,962	-0,68
326,175	-12,97
326,388	34,13
326,601	-4,78
326,814	-2,73
327,027	1,37
327,24	19,8
327,453	9,56
327,666	40,28
327,879	-21,16
328,092	77,14
328,305	-23,21
328,518	44,37
328,731	36,18
328,944	81,24
329,157	-6,83
329,37	-70,31
329,583	1,37
329,796	32,08
330,009	7,51
330,222	3,41
330,435	52,56
330,648	52,56
330,861	48,47
331,073	60,76
331,286	19,8
331,499	93,52
331,712	15,7
331,925	5,46
332,138	-4,78
332,35	25,94
332,563	73,04
332,776	40,28
332,989	-8,87
333,202	3,41
333,414	-17,07
333,627	36,18
333,84	40,28
334,053	11,61
334,265	71
334,478	-19,11
334,691	-12,97
334,903	30,04
335,116	64,85
335,329	9,56
335,541	36,18
335,754	83,28
335,966	11,61
336,179	-15,02
336,392	68,95
336,604	68,95
336,817	9,56
337,029	38,23
337,242	93,52
337,454	105,81
337,667	23,89
337,88	21,85
338,092	17,75
338,305	54,61
338,517	-17,07
338,729	60,76
338,942	-45,74
339,154	42,32
339,367	-33,45
339,579	30,04
339,792	40,28
340,004	7,51
340,217	-53,93
340,429	-12,97
340,641	23,89
340,854	-25,26
341,066	44,37
341,278	101,72
341,491	52,56
341,703	-4,78
341,915	7,51
342,128	44,37
342,34	-29,35
342,552	23,89
342,764	42,32
342,977	34,13
343,189	-2,73
343,401	11,61
343,613	3,41
343,826	93,52
344,038	21,85
344,25	-29,35
344,462	27,99
344,674	97,62
344,886	3,41
345,099	-12,97
345,311	1,37
345,523	44,37
345,735	-0,68
345,947	11,61
346,159	-17,07
346,371	-29,35
346,583	-39,59
346,795	23,89
347,007	83,28
347,219	-4,78
347,431	71
347,643	85,33
347,855	3,41
348,067	-21,16
348,279	-8,87
348,491	58,71
348,703	60,76
348,915	-68,27
349,127	-43,69
349,339	27,99
349,551	5,46
349,763	23,89
349,975	1,37
350,187	87,38
350,399	-70,31
350,61	44,37
350,822	30,04
351,034	54,61
351,246	34,13
351,458	-21,16
351,669	-43,69
351,881	15,7
352,093	-27,31
352,305	93,52
352,517	13,65
352,728	52,56
352,94	27,99
353,152	-60,07
353,363	-4,78
353,575	19,8
353,787	-0,68
353,999	19,8
354,21	34,13
354,422	30,04
354,633	107,86
354,845	62,8
355,057	-80,55
355,268	40,28
355,48	21,85
355,692	30,04
355,903	-17,07
356,115	17,75
356,326	60,76
356,538	3,41
356,749	44,37
356,961	19,8
357,172	21,85
357,384	73,04
357,595	36,18
357,807	3,41
358,018	-51,88
358,23	32,08
358,441	-58,03
358,653	-10,92
358,864	-21,16
359,075	56,66
359,287	46,42
359,498	46,42
359,709	54,61
359,921	62,8
360,132	11,61
360,344	68,95
360,555	46,42
360,766	54,61
360,977	3,41
361,189	-35,5
361,4	27,99
361,611	-31,4
361,823	5,46
362,034	-0,68
362,245	71
362,456	21,85
362,667	-4,78
362,879	144,72
363,09	66,9
363,301	79,19
363,512	40,28
363,723	15,7
363,935	11,61
364,146	9,56
364,357	-35,5
364,568	15,7
364,779	-4,78
364,99	15,7
365,201	7,51
365,412	46,42
365,623	44,37
365,834	77,14
366,045	-12,97
366,256	58,71
366,467	142,68
366,678	27,99
366,889	-41,64
367,1	27,99
367,311	1,37
367,522	111,96
367,733	1,37
367,944	-35,5
368,155	-37,55
368,366	-21,16
368,577	-10,92
368,788	25,94
368,999	44,37
369,209	-21,16
369,42	3,41
369,631	15,7
369,842	27,99
370,053	-17,07
370,264	-21,16
370,474	9,56
370,685	13,65
370,896	89,43
371,107	-35,5
371,317	132,44
371,528	3,41
371,739	46,42
371,95	38,23
372,16	36,18
372,371	-17,07
372,582	23,89
372,792	-12,97
373,003	30,04
373,214	-17,07
373,424	54,61
373,635	27,99
373,846	79,19
374,056	-4,78
374,267	122,2
374,477	-0,68
374,688	1,37
374,898	50,52
375,109	77,14
375,319	23,89
375,53	27,99
375,74	-27,31
375,951	17,75
376,161	83,28
376,372	44,37
376,582	3,41
376,793	23,89
377,003	44,37
377,214	-2,73
377,424	48,47
377,635	-25,26
377,845	111,96
378,055	50,52
378,266	71
378,476	60,76
378,686	17,75
378,897	42,32
379,107	52,56
379,317	-19,11
379,528	-60,07
379,738	3,41
379,948	-43,69
380,158	52,56
380,369	27,99
380,579	9,56
380,789	38,23
380,999	25,94
381,21	-8,87
381,42	30,04
381,63	30,04
381,84	44,37
382,05	23,89
382,261	15,7
382,471	-39,59
382,681	11,61
382,891	-21,16
383,101	36,18
383,311	3,41
383,521	48,47
383,731	27,99
383,941	5,46
384,151	-12,97
384,361	-10,92
384,571	-58,03
384,781	-2,73
384,991	5,46
385,201	56,66
385,411	-2,73
385,621	46,42
385,831	1,37
386,041	-41,64
386,251	15,7
386,461	-23,21
386,671	-2,73
386,881	-4,78
387,091	-53,93
387,301	23,89
387,511	58,71
387,72	-0,68
387,93	-10,92
388,14	38,23
388,35	62,8
388,56	23,89
388,769	19,8
388,979	68,95
389,189	-12,97
389,399	-33,45
389,609	36,18
389,818	83,28
390,028	-2,73
390,238	11,61
390,447	7,51
390,657	40,28
390,867	-60,07
391,076	21,85
391,286	36,18
391,496	-21,16
391,705	-21,16
391,915	23,89
392,125	-35,5
392,334	40,28
392,544	7,51
392,753	-0,68
392,963	64,85
393,172	-29,35
393,382	46,42
393,591	40,28
393,801	19,8
394,01	11,61
394,22	23,89
394,429	-23,21
394,639	66,9
394,848	79,19
395,058	-12,97
395,267	15,7
395,477	105,81
395,686	25,94
395,895	23,89
396,105	77,14
396,314	60,76
396,524	48,47
396,733	7,51
396,942	1,37
397,152	9,56
397,361	-4,78
397,57	17,75
397,78	9,56
397,989	19,8
398,198	36,18
398,407	87,38
398,617	75,09
398,826	21,85
399,035	38,23
399,244	3,41
399,453	3,41
399,663	-12,97
399,872	73,04
400,081	48,47
400,29	60,76
400,499	44,37
400,708	-25,26
400,917	-37,55
401,127	-6,83
401,336	50,52
401,545	-31,4
401,754	-19,11
401,963	15,7
402,172	-10,92
402,381	64,85
402,59	-0,68
402,799	21,85
403,008	-47,79
403,217	62,8
403,426	-33,45
403,635	-12,97
403,844	34,13
404,053	-21,16
404,262	73,04
404,471	99,67
404,68	15,7
404,888	38,23
405,097	40,28
405,306	77,14
405,515	30,04
405,724	34,13
405,933	64,85
406,142	77,14
406,35	44,37
406,559	-49,83
406,768	32,08
406,977	38,23
407,185	36,18
407,394	5,46
407,603	-68,27
407,812	-23,21
408,02	-35,5
408,229	19,8
408,438	7,51
408,646	44,37
408,855	-41,64
409,064	40,28
409,272	-29,35
409,481	5,46
409,69	-15,02
409,898	13,65
410,107	-47,79
410,315	3,41
410,524	-31,4
410,733	-15,02
410,941	52,56
411,15	-19,11
411,358	36,18
411,567	44,37
411,775	71
411,984	15,7
412,192	-15,02
412,401	-33,45
412,609	-62,12
412,818	36,18
413,026	-10,92
413,234	30,04
413,443	-33,45
413,651	62,8
413,86	-31,4
414,068	126,29
414,276	3,41
414,485	71
414,693	73,04
414,901	27,99
415,11	64,85
415,318	5,46
415,526	5,46
415,734	-0,68
415,943	48,47
416,151	-6,83
416,359	52,56
416,567	81,24
416,776	-21,16
416,984	114
417,192	15,7
417,4	-23,21
417,608	-37,55
417,817	38,23
418,025	44,37
418,233	46,42
418,441	-8,87
418,649	27,99
418,857	34,13
419,065	48,47
419,273	85,33
419,481	25,94
419,689	3,41
419,897	23,89
420,105	11,61
420,313	32,08
420,521	27,99
420,729	-12,97
420,937	-19,11
421,145	101,72
421,353	-53,93
421,561	-2,73
421,769	38,23
421,977	11,61
422,185	44,37
422,393	66,9
422,601	52,56
422,809	-33,45
423,017	11,61
423,224	52,56
423,432	40,28
423,64	54,61
423,848	103,76
424,056	-21,16
424,263	-8,87
424,471	11,61
424,679	-37,55
424,887	60,76
425,094	-37,55
425,302	-37,55
425,51	5,46
425,718	3,41
425,925	30,04
426,133	7,51
426,341	40,28
426,548	15,7
426,756	17,75
426,964	-25,26
427,171	36,18
427,379	30,04
427,586	-41,64
427,794	32,08
428,001	27,99
428,209	11,61
428,417	-21,16
428,624	79,19
428,832	79,19
429,039	-2,73
429,247	13,65
429,454	-4,78
429,662	-12,97
429,869	-31,4
430,076	13,65
430,284	1,37
430,491	15,7
430,699	-35,5
430,906	-0,68
431,114	71
431,321	36,18
431,528	71
431,736	13,65
431,943	23,89
432,15	-19,11
432,358	11,61
432,565	54,61
432,772	34,13
432,979	62,8
433,187	46,42
433,394	15,7
433,601	-2,73
433,808	-8,87
434,016	-8,87
434,223	48,47
434,43	27,99
434,637	-41,64
434,844	38,23
435,052	3,41
435,259	3,41
435,466	54,61
435,673	30,04
435,88	19,8
436,087	7,51
436,294	27,99
436,501	-2,73
436,708	-49,83
436,915	3,41
437,122	44,37
437,329	44,37
437,537	48,47
437,743	23,89
437,95	105,81
438,157	48,47
438,364	15,7
438,571	-4,78
438,778	85,33
438,985	38,23
439,192	27,99
439,399	25,94
439,606	101,72
439,813	1,37
440,02	-10,92
440,227	77,14
440,433	-0,68
440,64	73,04
440,847	-25,26
441,054	99,67
441,261	5,46
441,467	89,43
441,674	15,7
441,881	60,76
442,088	7,51
442,294	-12,97
442,501	-4,78
442,708	-0,68
442,914	71
443,121	73,04
443,328	15,7
443,534	142,68
443,741	3,41
443,948	17,75
444,154	21,85
444,361	25,94
444,568	-33,45
444,774	11,61
444,981	36,18
445,187	62,8
445,394	-12,97
445,6	-19,11
445,807	-4,78
446,013	-4,78
446,22	13,65
446,426	3,41
446,633	-4,78
446,839	38,23
447,046	89,43
447,252	23,89
447,459	50,52
447,665	-2,73
447,871	-33,45
448,078	44,37
448,284	79,19
448,491	-37,55
448,697	-29,35
448,903	52,56
449,11	11,61
449,316	44,37
449,522	21,85
449,728	11,61
449,935	50,52
450,141	-0,68
450,347	-47,79
450,553	11,61
450,76	40,28
450,966	-17,07
451,172	-17,07
451,378	23,89
451,584	-51,88
451,791	-15,02
451,997	-43,69
452,203	-68,27
452,409	5,46
452,615	52,56
452,821	1,37
453,027	13,65
453,233	21,85
453,44	-15,02
453,646	-17,07
453,852	-10,92
454,058	-27,31
454,264	-2,73
454,47	32,08
454,676	46,42
454,882	7,51
455,088	48,47
455,294	-25,26
455,5	7,51
455,705	77,14
455,911	11,61
456,117	32,08
456,323	68,95
456,529	-17,07
456,735	11,61
456,941	56,66
457,147	40,28
457,352	21,85
457,558	15,7
457,764	7,51
457,97	66,9
458,176	75,09
458,381	-43,69
458,587	11,61
458,793	71
458,999	38,23
459,204	93,52
459,41	3,41
459,616	27,99
459,821	40,28
460,027	-19,11
460,233	95,57
460,438	56,66
460,644	50,52
460,85	36,18
461,055	3,41
461,261	19,8
461,466	-35,5
461,672	93,52
461,878	32,08
462,083	5,46
462,289	40,28
462,494	27,99
462,7	-12,97
462,905	19,8
463,111	-0,68
463,316	77,14
463,522	-33,45
463,727	13,65
463,932	-2,73
464,138	11,61
464,343	-6,83
464,549	19,8
464,754	17,75
464,959	42,32
465,165	-2,73
465,37	44,37
465,575	5,46
465,781	-21,16
465,986	142,68
466,191	46,42
466,397	3,41
466,602	95,57
466,807	3,41
467,012	19,8
467,218	21,85
467,423	-23,21
467,628	56,66
467,833	-17,07
468,038	-25,26
468,244	3,41
468,449	56,66
468,654	56,66
468,859	7,51
469,064	-68,27
469,269	5,46
469,474	32,08
469,679	-25,26
469,885	46,42
470,09	44,37
470,295	48,47
470,5	27,99
470,705	36,18
470,91	3,41
471,115	-21,16
471,32	7,51
471,525	46,42
471,73	58,71
471,935	-45,74
472,139	11,61
472,344	79,19
472,549	-27,31
472,754	46,42
472,959	68,95
473,164	-23,21
473,369	40,28
473,574	54,61
473,778	52,56
473,983	-0,68
474,188	50,52
474,393	11,61
474,598	-23,21
474,802	38,23
475,007	19,8
475,212	38,23
475,417	30,04
475,621	-0,68
475,826	71
476,031	5,46
476,235	-53,93
476,44	11,61
476,645	27,99
476,849	21,85
477,054	13,65
477,259	-10,92
477,463	30,04
477,668	11,61
477,872	11,61
478,077	-12,97
478,282	66,9
478,486	23,89
478,691	19,8
478,895	27,99
479,1	-27,31
479,304	-0,68
479,509	-19,11
479,713	122,2
479,918	-6,83
480,122	27,99
480,326	42,32
480,531	40,28
480,735	-10,92
480,94	25,94
481,144	-25,26
481,348	19,8
481,553	-29,35
481,757	3,41
481,961	-29,35
482,166	-41,64
482,37	85,33
482,574	3,41
482,778	32,08
482,983	15,7
483,187	7,51
483,391	60,76
483,595	19,8
483,8	1,37
484,004	44,37
484,208	32,08
484,412	85,33
484,616	11,61
484,821	58,71
485,025	42,32
485,229	19,8
485,433	38,23
485,637	-0,68
485,841	17,75
486,045	-4,78
486,249	54,61
486,453	44,37
486,657	25,94
486,861	32,08
487,065	-8,87
487,269	19,8
487,473	71
487,677	7,51
487,881	11,61
488,085	44,37
488,289	19,8
488,493	17,75
488,697	50,52
488,901	19,8
489,105	48,47
489,309	-12,97
489,512	27,99
489,716	-15,02
489,92	11,61
490,124	21,85
490,328	46,42
490,531	7,51
490,735	21,85
490,939	71
491,143	-2,73
491,346	-19,11
491,55	21,85
491,754	-4,78
491,958	-0,68
492,161	-35,5
492,365	-10,92
492,569	11,61
492,772	56,66
492,976	34,13
493,18	5,46
493,383	13,65
493,587	62,8
493,79	-37,55
493,994	34,13
494,197	27,99
494,401	40,28
494,605	-10,92
494,808	34,13
495,012	-21,16
495,215	105,81
495,419	52,56
495,622	54,61
495,825	38,23
496,029	-45,74
496,232	-6,83
496,436	44,37
496,639	-78,51
496,843	38,23
497,046	27,99
497,249	71
497,453	36,18
497,656	73,04
497,859	42,32
498,063	15,7
498,266	3,41
498,469	-10,92
498,673	-33,45
498,876	38,23
499,079	40,28
499,282	87,38
499,485	46,42
499,689	68,95
499,892	25,94
500,095	19,8
500,298	-74,41
500,501	52,56
500,705	-12,97
500,908	-27,31
501,111	-10,92
501,314	3,41
501,517	19,8
501,72	68,95
501,923	71
502,126	44,37
502,329	111,96
502,532	62,8
502,735	21,85
502,938	7,51
503,141	71
503,344	23,89
503,547	50,52
503,75	-8,87
503,953	52,56
504,156	46,42
504,359	34,13
504,562	-4,78
504,765	-23,21
504,968	81,24
505,17	5,46
505,373	-43,69
505,576	-21,16
505,779	60,76
505,982	-12,97
506,185	25,94
506,387	5,46
506,59	-8,87
506,793	-12,97
506,996	5,46
507,198	-94,89
507,401	68,95
507,604	27,99
507,807	46,42
508,009	7,51
508,212	77,14
508,415	58,71
508,617	56,66
508,82	5,46
509,022	-33,45
509,225	-8,87
509,428	44,37
509,63	-68,27
509,833	32,08
510,035	-0,68
510,238	19,8
510,44	7,51
510,643	-2,73
510,845	9,56
511,048	32,08
511,25	-51,88
511,453	-10,92
511,655	-10,92
511,858	3,41
512,06	-8,87
512,262	21,85
512,465	-0,68
512,667	30,04
512,87	-33,45
513,072	68,95
513,274	7,51
513,477	-27,31
513,679	36,18
513,881	-12,97
514,084	85,33
514,286	17,75
514,488	27,99
514,69	44,37
514,893	-2,73
515,095	-31,4
515,297	-12,97
515,499	-2,73
515,701	-19,11
515,904	68,95
516,106	-37,55
516,308	38,23
516,51	36,18
516,712	44,37
516,914	-4,78
517,116	56,66
517,318	5,46
517,52	60,76
517,722	25,94
517,925	5,46
518,127	-4,78
518,329	-31,4
518,531	23,89
518,733	75,09
518,935	-21,16
519,136	25,94
519,338	62,8
519,54	44,37
519,742	-70,31
519,944	-12,97
520,146	7,51
520,348	-4,78
520,55	15,7
520,752	71
520,954	27,99
521,155	52,56
521,357	19,8
521,559	44,37
521,761	101,72
521,963	-45,74
522,164	52,56
522,366	36,18
522,568	46,42
522,77	32,08
522,971	21,85
523,173	13,65
523,375	-4,78
523,576	44,37
523,778	-25,26
523,98	44,37
524,181	3,41
524,383	-2,73
524,584	40,28
524,786	36,18
524,988	3,41
525,189	56,66
525,391	-17,07
525,592	44,37
525,794	21,85
525,995	77,14
526,197	-25,26
526,398	27,99
526,6	1,37
526,801	32,08
527,003	60,76
527,204	68,95
527,406	25,94
527,607	68,95
527,808	21,85
528,01	-53,93
528,211	9,56
528,412	-43,69
528,614	-15,02
528,815	-33,45
529,016	-15,02
529,218	46,42
529,419	27,99
529,62	7,51
529,822	77,14
530,023	71
530,224	-35,5
530,425	13,65
530,626	-35,5
530,828	15,7
531,029	-33,45
531,23	38,23
531,431	46,42
531,632	62,8
531,833	3,41
532,035	62,8
532,236	21,85
532,437	32,08
532,638	13,65
532,839	-17,07
533,04	103,76
533,241	32,08
533,442	3,41
533,643	-31,4
533,844	-19,11
534,045	-35,5
534,246	23,89
534,447	-49,83
534,648	19,8
534,849	-29,35
535,05	-10,92
535,251	44,37
535,451	124,24
535,652	-27,31
535,853	64,85
536,054	89,43
536,255	68,95
536,456	17,75
536,657	5,46
536,857	36,18
537,058	-0,68
537,259	-2,73
537,46	89,43
537,66	64,85
537,861	15,7
538,062	64,85
538,263	-8,87
538,463	38,23
538,664	68,95
538,865	-49,83
539,065	15,7
539,266	-19,11
539,466	19,8
539,667	64,85
539,868	30,04
540,068	-27,31
540,269	-64,17
540,469	77,14
540,67	52,56
540,87	-15,02
541,071	-58,03
541,271	-23,21
541,472	15,7
541,672	7,51
541,873	77,14
542,073	-6,83
542,274	64,85
542,474	52,56
542,675	87,38
542,875	52,56
543,075	23,89
543,276	101,72
543,476	-37,55
543,676	36,18
543,877	5,46
544,077	-12,97
544,277	3,41
544,478	30,04
544,678	36,18
544,878	64,85
545,078	62,8
545,279	56,66
545,479	81,24
545,679	-33,45
545,879	27,99
546,079	126,29
546,28	7,51
546,48	-2,73
546,68	1,37
546,88	32,08
547,08	-0,68
547,28	13,65
547,48	13,65
547,68	11,61
547,88	32,08
548,081	56,66
548,281	30,04
548,481	19,8
548,681	19,8
548,881	1,37
549,081	27,99
549,28	32,08
549,48	56,66
549,68	-10,92
549,88	40,28
550,08	73,04
550,28	54,61
550,48	-27,31
550,68	19,8
550,88	-6,83
551,08	-2,73
551,279	36,18
551,479	54,61
551,679	19,8
551,879	109,91
552,079	19,8
552,278	56,66
552,478	1,37
552,678	-15,02
552,878	17,75
553,077	-51,88
553,277	-31,4
553,477	23,89
553,676	93,52
553,876	-2,73
554,076	85,33
554,275	-0,68
554,475	11,61
554,674	-4,78
554,874	68,95
555,074	15,7
555,273	50,52
555,473	-33,45
555,672	11,61
555,872	48,47
556,071	-49,83
556,271	-0,68
556,47	38,23
556,67	3,41
556,869	13,65
557,068	15,7
557,268	7,51
557,467	-19,11
557,667	48,47
557,866	81,24
558,065	25,94
558,265	54,61
558,464	54,61
558,663	40,28
558,863	44,37
559,062	-82,6
559,261	21,85
559,461	-27,31
559,66	46,42
559,859	-66,22
560,058	27,99
560,258	-21,16
560,457	36,18
560,656	-45,74
560,855	27,99
561,054	27,99
561,253	50,52
561,453	-60,07
561,652	38,23
561,851	-21,16
562,05	-47,79
562,249	32,08
562,448	85,33
562,647	60,76
562,846	-2,73
563,045	21,85
563,244	21,85
563,443	7,51
563,642	-12,97
563,841	-12,97
564,04	93,52
564,239	89,43
564,438	60,76
564,637	38,23
564,836	66,9
565,035	-4,78
565,234	30,04
565,432	-33,45
565,631	64,85
565,83	9,56
566,029	13,65
566,228	-35,5
566,427	40,28
566,625	-4,78
566,824	11,61
567,023	27,99
567,222	50,52
567,42	-12,97
567,619	79,19
567,818	-19,11
568,016	62,8
568,215	46,42
568,414	93,52
568,612	126,29
568,811	79,19
569,01	163,15
569,208	257,36
569,407	431,44
569,605	660,81
569,804	1213,76
570,002	1535,29
570,201	2485,55
570,4	3429,66
570,598	4721,93
570,797	6212,85
570,995	8172,76
571,193	10009,79
571,392	12530,84
571,59	15139,95
571,789	17869,89
571,987	21466,13
572,186	24888,28
572,384	28119,98
572,582	31761,26
572,781	35502,9
572,979	38730,5
573,177	42027,73
573,376	44853,93
573,574	46383,76
573,772	49836,64
573,971	51323,46
574,169	52867,63
574,367	53713,44
574,565	55433,74
574,763	55599,62
574,962	56709,62
575,16	56617,46
575,358	58290,65
575,556	58075,62
575,754	59630,02
575,952	58841,56
576,151	59847,11
576,349	59926,98
576,547	60350,91
576,745	60520,89
576,943	60801,46
577,141	60856,76
577,339	60791,22
577,537	60678,58
577,735	60662,2
577,933	59879,88
578,131	60449,21
578,329	59441,61
578,527	59290,06
578,725	58538,46
578,923	58434,01
579,121	57002,48
579,319	56842,74
579,516	55769,6
579,714	54438,42
579,912	53213,74
580,11	51380,81
580,308	49564,26
580,506	47516,29
580,704	44079,8
580,901	42416,85
581,099	38980,35
581,297	35719,99
581,495	32533,35
581,692	29844,37
581,89	26123,21
582,088	23727,08
582,285	20460,57
582,483	17767,49
582,681	15150,19
582,878	12995,73
583,076	10745,01
583,274	9012,43
583,471	7202,02
583,669	5934,33
583,866	4568,34
584,064	3595,55
584,262	2499,89
584,459	2051,38
584,657	1099,08
584,854	804,17
585,052	578,89
585,249	406,86
585,447	193,87
585,644	152,91
585,841	109,91
586,039	111,96
586,236	97,62
586,434	122,2
586,631	101,72
586,828	64,85
587,026	27,99
587,223	95,57
587,42	38,23
587,618	58,71
587,815	93,52
588,012	107,86
588,21	3,41
588,407	62,8
588,604	101,72
588,801	73,04
588,999	62,8
589,196	73,04
589,393	109,91
589,59	77,14
589,787	126,29
589,984	64,85
590,182	36,18
590,379	60,76
590,576	56,66
590,773	-31,4
590,97	7,51
591,167	11,61
591,364	83,28
591,561	5,46
591,758	-4,78
591,955	-12,97
592,152	85,33
592,349	-70,31
592,546	27,99
592,743	13,65
592,94	3,41
593,137	111,96
593,334	19,8
593,531	48,47
593,727	30,04
593,924	52,56
594,121	42,32
594,318	38,23
594,515	73,04
594,712	27,99
594,908	-29,35
595,105	-29,35
595,302	5,46
595,499	3,41
595,696	44,37
595,892	11,61
596,089	13,65
596,286	36,18
596,482	68,95
596,679	-21,16
596,876	48,47
597,072	30,04
597,269	27,99
597,466	46,42
597,662	64,85
597,859	30,04
598,055	19,8
598,252	36,18
598,448	25,94
598,645	-21,16
598,841	-23,21
599,038	52,56
599,234	64,85
599,431	-12,97
599,627	75,09
599,824	62,8
600,02	34,13
600,217	-60,07
600,413	48,47
600,609	15,7
600,806	-35,5
601,002	-101,03
601,198	54,61
601,395	79,19
601,591	15,7
601,787	-27,31
601,984	114
602,18	27,99
602,376	101,72
602,572	85,33
602,769	5,46
602,965	15,7
603,161	27,99
603,357	-33,45
603,553	19,8
603,75	66,9
603,946	-12,97
604,142	21,85
604,338	38,23
604,534	36,18
604,73	79,19
604,926	7,51
605,122	42,32
605,318	64,85
605,514	3,41
605,71	3,41
605,906	7,51
606,102	5,46
606,298	44,37
606,494	19,8
606,69	3,41
606,886	-0,68
607,082	42,32
607,278	44,37
607,474	21,85
607,67	-8,87
607,866	93,52
608,062	1,37
608,257	11,61
608,453	3,41
608,649	-31,4
608,845	34,13
609,041	30,04
609,236	3,41
609,432	85,33
609,628	5,46
609,824	52,56
610,019	-4,78
610,215	27,99
610,411	54,61
610,606	71
610,802	17,75
610,998	5,46
611,193	30,04
611,389	-21,16
611,584	-19,11
611,78	5,46
611,976	-66,22
612,171	36,18
612,367	68,95
612,562	44,37
612,758	11,61
612,953	38,23
613,149	11,61
613,344	42,32
613,539	5,46
613,735	-10,92
613,93	-15,02
614,126	36,18
614,321	36,18
614,517	27,99
614,712	58,71
614,907	-29,35
615,103	7,51
615,298	21,85
615,493	42,32
615,688	19,8
615,884	-4,78
616,079	66,9
616,274	13,65
616,47	7,51
616,665	-19,11
616,86	-8,87
617,055	38,23
617,25	3,41
617,445	32,08
617,641	-4,78
617,836	7,51
618,031	1,37
618,226	25,94
618,421	9,56
618,616	44,37
618,811	60,76
619,006	-37,55
619,201	73,04
619,396	30,04
619,591	40,28
619,786	-10,92
619,981	36,18
620,176	38,23
620,371	-0,68
620,566	19,8
620,761	52,56
620,956	7,51
621,151	77,14
621,346	-21,16
621,541	15,7
621,735	-37,55
621,93	-0,68
622,125	-29,35
622,32	-29,35
622,515	32,08
622,709	15,7
622,904	17,75
623,099	13,65
623,294	-29,35
623,488	5,46
623,683	38,23
623,878	9,56
624,072	-23,21
624,267	64,85
624,462	-4,78
624,656	-12,97
624,851	-29,35
625,046	19,8
625,24	44,37
625,435	-6,83
625,629	-12,97
625,824	11,61
626,018	-12,97
626,213	3,41
626,407	40,28
626,602	73,04
626,796	3,41
626,991	95,57
627,185	-0,68
627,38	3,41
627,574	50,52
627,768	11,61
627,963	46,42
628,157	56,66
628,352	38,23
628,546	21,85
628,74	52,56
628,935	52,56
629,129	5,46
629,323	73,04
629,517	34,13
629,712	58,71
629,906	15,7
630,1	68,95
630,294	-41,64
630,489	68,95
630,683	19,8
630,877	27,99
631,071	73,04
631,265	19,8
631,459	-19,11
631,653	3,41
631,848	23,89
632,042	-25,26
632,236	52,56
632,43	19,8
632,624	-12,97
632,818	-12,97
633,012	40,28
633,206	58,71
633,4	-33,45
633,594	-33,45
633,788	-84,65
633,982	-10,92
634,176	-2,73
634,369	44,37
634,563	-6,83
634,757	-29,35
634,951	71
635,145	64,85
635,339	50,52
635,533	-27,31
635,726	23,89
635,92	19,8
636,114	27,99
636,308	11,61
636,501	17,75
636,695	64,85
636,889	11,61
637,083	-21,16
637,276	11,61
637,47	38,23
637,664	-17,07
637,857	-10,92
638,051	19,8
638,244	-17,07
638,438	32,08
638,632	-0,68
638,825	23,89
639,019	1,37
639,212	17,75
639,406	-4,78
639,599	11,61
639,793	50,52
639,986	27,99
640,18	23,89
640,373	-19,11
640,567	3,41
640,76	27,99
640,954	-33,45
641,147	34,13
641,34	-41,64
641,534	77,14
641,727	44,37
641,92	79,19
642,114	36,18
642,307	71
642,5	-27,31
642,694	-0,68
642,887	3,41
643,08	38,23
643,273	13,65
643,467	30,04
643,66	19,8
643,853	-29,35
644,046	-12,97
644,239	36,18
644,432	-21,16
644,626	60,76
644,819	50,52
645,012	-60,07
645,205	-8,87
645,398	15,7
645,591	77,14
645,784	-29,35
645,977	85,33
646,17	25,94
646,363	36,18
646,556	21,85
646,749	5,46
646,942	40,28
647,135	50,52
647,328	27,99
647,521	58,71
647,714	27,99
647,907	-21,16
648,099	27,99
648,292	52,56
648,485	3,41
648,678	-2,73
648,871	21,85
649,064	38,23
649,256	-8,87
649,449	19,8
649,642	13,65
649,835	62,8
650,027	11,61
650,22	-47,79
650,413	-31,4
650,605	-4,78
650,798	-2,73
650,991	-41,64
651,183	-0,68
651,376	48,47
651,568	-2,73
651,761	36,18
651,954	3,41
652,146	73,04
652,339	56,66
652,531	50,52
652,724	38,23
652,916	-8,87
653,109	-33,45
653,301	36,18
653,494	15,7
653,686	32,08
653,879	19,8
654,071	-29,35
654,263	5,46
654,456	68,95
654,648	97,62
654,84	68,95
655,033	27,99
655,225	58,71
655,417	46,42
655,61	27,99
655,802	23,89
655,994	-17,07
656,186	25,94
656,379	36,18
656,571	13,65
656,763	54,61
656,955	32,08
657,148	-66,22
657,34	38,23
657,532	64,85
657,724	36,18
657,916	-19,11
658,108	42,32
658,3	-2,73
658,492	64,85
658,684	15,7
658,876	58,71
659,068	-35,5
659,26	-2,73
659,452	15,7
659,644	32,08
659,836	3,41
660,028	27,99
660,22	-33,45
660,412	9,56
660,604	-6,83
660,796	64,85
660,988	71
661,18	11,61
661,372	13,65
661,563	93,52
661,755	54,61
661,947	54,61
662,139	-0,68
662,331	-47,79
662,522	52,56
662,714	13,65
662,906	-49,83
663,097	-25,26
663,289	5,46
663,481	-4,78
663,673	19,8
663,864	11,61
664,056	19,8
664,247	91,48
664,439	-4,78
664,631	-25,26
664,822	42,32
665,014	93,52
665,205	105,81
665,397	25,94
665,588	77,14
665,78	-0,68
665,971	68,95
666,163	-21,16
666,354	36,18
666,546	-25,26
666,737	-4,78
666,929	11,61
667,12	46,42
667,311	27,99
667,503	-12,97
667,694	48,47
667,885	-10,92
668,077	34,13
668,268	-4,78
668,459	-25,26
668,651	-29,35
668,842	-27,31
669,033	36,18
669,224	58,71
669,416	56,66
669,607	46,42
669,798	54,61
669,989	-4,78
670,18	-19,11
670,371	-6,83
670,563	38,23
670,754	-12,97
670,945	36,18
671,136	32,08
671,327	23,89
671,518	-82,6
671,709	19,8
671,9	9,56
672,091	32,08
672,282	19,8
672,473	-37,55
672,664	3,41
672,855	19,8
673,046	9,56
673,237	40,28
673,428	-66,22
673,619	46,42
673,809	5,46
674	-6,83
674,191	-70,31
674,382	5,46
674,573	54,61
674,764	38,23
674,954	30,04
675,145	3,41
675,336	32,08
675,527	19,8
675,717	-6,83
675,908	3,41
676,099	77,14
676,289	7,51
676,48	-12,97
676,671	122,2
676,861	3,41
677,052	-15,02
677,243	-35,5
677,433	27,99
677,624	-4,78
677,814	-62,12
678,005	42,32
678,195	50,52
678,386	19,8
678,576	52,56
678,767	-23,21
678,957	38,23
679,148	-8,87
679,338	19,8
679,529	23,89
679,719	93,52
679,909	27,99
680,1	85,33
680,29	-12,97
680,481	68,95
680,671	-12,97
680,861	-0,68
681,052	44,37
681,242	-2,73
681,432	1,37
681,622	48,47
681,813	-21,16
682,003	-25,26
682,193	52,56
682,383	62,8
682,573	-21,16
682,764	-70,31
682,954	40,28
683,144	19,8
683,334	-33,45
683,524	64,85
683,714	52,56
683,904	-29,35
684,094	44,37
684,284	23,89
684,474	11,61
684,664	58,71
684,854	44,37
685,044	23,89
685,234	3,41
685,424	60,76
685,614	15,7
685,804	38,23
685,994	3,41
686,184	85,33
686,374	27,99
686,564	-8,87
686,753	40,28
686,943	5,46
687,133	9,56
687,323	52,56
687,513	-12,97
687,702	21,85
687,892	-27,31
688,082	62,8
688,272	-17,07
688,461	3,41
688,651	13,65
688,841	64,85
689,03	30,04
689,22	93,52
689,41	-0,68
689,599	13,65
689,789	-12,97
689,979	44,37
690,168	109,91
690,358	54,61
690,547	1,37
690,737	38,23
690,926	32,08
691,116	83,28
691,305	30,04
691,495	81,24
691,684	5,46
691,874	44,37
692,063	58,71
692,252	-15,02
692,442	-39,59
692,631	21,85
692,82	93,52
693,01	54,61
693,199	27,99
693,388	-19,11
693,578	64,85
693,767	5,46
693,956	15,7
694,146	60,76
694,335	19,8
694,524	19,8
694,713	32,08
694,902	54,61
695,092	97,62
695,281	-0,68
695,47	34,13
695,659	54,61
695,848	21,85
696,037	-12,97
696,226	71
696,415	27,99
696,604	-2,73
696,793	19,8
696,982	-21,16
697,171	75,09
697,36	-12,97
697,549	-19,11
697,738	25,94
697,927	36,18
698,116	40,28
698,305	68,95
698,494	36,18
698,683	17,75
698,872	11,61
699,061	60,76
699,25	36,18
699,438	27,99
699,627	46,42
699,816	60,76
700,005	17,75
700,193	126,29
700,382	27,99
700,571	21,85
700,76	19,8
700,948	-23,21
701,137	3,41
701,326	-4,78
701,514	-12,97
701,703	11,61
701,892	30,04
702,08	-8,87
702,269	-86,7
702,457	-19,11
702,646	-37,55
702,834	-8,87
703,023	21,85
703,212	25,94
703,4	-33,45
703,589	5,46
703,777	-12,97
703,965	62,8
704,154	36,18
704,342	30,04
704,531	30,04
704,719	85,33
704,907	-4,78
705,096	-21,16
705,284	93,52
705,472	-4,78
705,661	-17,07
705,849	-12,97
706,037	11,61
706,226	21,85
706,414	62,8
706,602	60,76
706,79	36,18
706,979	19,8
707,167	9,56
707,355	-17,07
707,543	56,66
707,731	38,23
707,919	77,14
708,107	13,65
708,296	11,61
708,484	27,99
708,672	-60,07
708,86	-8,87
709,048	3,41
709,236	-45,74
709,424	77,14
709,612	36,18
709,8	62,8
709,988	15,7
710,176	30,04
710,364	58,71
710,551	3,41
710,739	27,99
710,927	-10,92
711,115	-10,92
711,303	-10,92
711,491	13,65
711,679	27,99
711,866	3,41
712,054	3,41
712,242	48,47
712,43	-25,26
712,617	68,95
712,805	52,56
712,993	105,81
713,181	-19,11
713,368	-4,78
713,556	50,52
713,744	9,56
713,931	21,85
714,119	11,61
714,306	89,43
714,494	66,9
714,682	15,7
714,869	1,37
715,057	1,37
715,244	-68,27
715,432	3,41
715,619	19,8
715,807	15,7
715,994	27,99
716,182	3,41
716,369	56,66
716,556	23,89
716,744	32,08
716,931	-10,92
717,119	42,32
717,306	42,32
717,493	15,7
717,681	7,51
717,868	-29,35
718,055	-2,73
718,242	5,46
718,43	-17,07
718,617	-19,11
718,804	-27,31
718,991	-0,68
719,179	17,75
719,366	21,85
719,553	-35,5
719,74	81,24
719,927	13,65
720,114	21,85
720,301	85,33
720,488	60,76
720,676	66,9
720,863	-39,59
721,05	60,76
721,237	52,56
721,424	32,08
721,611	46,42
721,798	27,99
721,985	19,8
722,172	-29,35
722,358	7,51
722,545	-43,69
722,732	60,76
722,919	-29,35
723,106	-6,83
723,293	52,56
723,48	25,94
723,667	-4,78
723,853	87,38
724,04	27,99
724,227	50,52
724,414	11,61
724,6	27,99
724,787	19,8
724,974	54,61
725,161	13,65
725,347	19,8
725,534	-0,68
725,72	-12,97
725,907	77,14
726,094	17,75
726,28	83,28
726,467	62,8
726,653	36,18
726,84	19,8
727,027	34,13
727,213	13,65
727,4	7,51
727,586	81,24
727,773	-60,07
727,959	46,42
728,145	7,51
728,332	44,37
728,518	25,94
728,705	32,08
728,891	19,8
729,077	15,7
729,264	-0,68
729,45	11,61
729,636	-4,78
729,823	21,85
730,009	27,99
730,195	38,23
730,382	126,29
730,568	-4,78
730,754	-23,21
730,94	46,42
731,126	30,04
731,313	95,57
731,499	32,08
731,685	101,72
731,871	13,65
732,057	58,71
732,243	-0,68
732,429	21,85
732,615	-25,26
732,801	19,8
732,987	15,7
733,173	-4,78
733,359	-37,55
733,545	46,42
733,731	13,65
733,917	13,65
734,103	-0,68
734,289	-19,11
734,475	-17,07
734,661	5,46
734,847	3,41
735,033	44,37
735,219	64,85
735,404	9,56
735,59	-12,97
735,776	73,04
735,962	-0,68
736,148	17,75
736,333	-10,92
736,519	40,28
736,705	-4,78
736,89	68,95
737,076	1,37
737,262	71
737,447	-43,69
737,633	-12,97
737,819	5,46
738,004	-12,97
738,19	60,76
738,375	71
738,561	77,14
738,747	7,51
738,932	34,13
739,118	54,61
739,303	15,7
739,489	30,04
739,674	11,61
739,859	-60,07
740,045	48,47
740,23	5,46
740,416	9,56
740,601	56,66
740,786	42,32
740,972	44,37
741,157	36,18
741,342	91,48
741,528	68,95
741,713	81,24
741,898	-21,16
742,084	11,61
742,269	48,47
742,454	36,18
742,639	48,47
742,824	71
743,01	19,8
743,195	30,04
743,38	9,56
743,565	-10,92
743,75	-4,78
743,935	34,13
744,12	68,95
744,305	34,13
744,49	-21,16
744,675	-27,31
744,86	-25,26
745,045	30,04
745,23	-10,92
745,415	40,28
745,6	30,04
745,785	15,7
745,97	-4,78
746,155	17,75
746,34	46,42
746,525	68,95
746,71	27,99
746,895	54,61
747,079	85,33
747,264	73,04
747,449	-4,78
747,634	3,41
747,819	19,8
748,003	11,61
748,188	25,94
748,373	-70,31
748,557	-37,55
748,742	-23,21
748,927	-0,68
749,111	21,85
749,296	23,89
749,481	5,46
749,665	54,61
749,85	103,76
750,034	60,76
750,219	32,08
750,404	-12,97
750,588	38,23
750,773	7,51
750,957	27,99
751,141	71
751,326	-15,02
751,51	42,32
751,695	34,13
751,879	-33,45
752,064	9,56
752,248	64,85
752,432	66,9
752,617	62,8
752,801	27,99
752,985	-6,83
753,17	62,8
753,354	-6,83
753,538	62,8
753,722	40,28
753,907	30,04
754,091	60,76
754,275	87,38
754,459	30,04
754,643	3,41
754,828	73,04
755,012	-12,97
755,196	15,7
755,38	38,23
755,564	25,94
755,748	34,13
755,932	-19,11
756,116	36,18
756,3	48,47
756,484	7,51
756,668	11,61
756,852	-4,78
757,036	103,76
757,22	-2,73
757,404	60,76
757,588	77,14
757,772	23,89
757,956	-4,78
758,14	62,8
758,323	11,61
758,507	-12,97
758,691	13,65
758,875	1,37
759,059	93,52
759,242	5,46
759,426	77,14
759,61	54,61
759,794	27,99
759,977	-64,17
760,161	-29,35
760,345	32,08
760,528	97,62
760,712	71
760,895	23,89
761,079	19,8
761,263	3,41
761,446	62,8
761,63	-0,68
761,813	-31,4
761,997	13,65
762,18	75,09
762,364	60,76
762,547	-37,55
762,731	27,99
762,914	11,61
763,098	38,23
763,281	19,8
763,464	73,04
763,648	7,51
763,831	19,8
764,015	-29,35
764,198	46,42
764,381	-4,78
764,564	44,37
764,748	-8,87
764,931	7,51
765,114	40,28
765,297	56,66
765,481	38,23
765,664	23,89
765,847	-12,97
766,03	21,85
766,213	48,47
766,397	27,99
766,58	1,37
766,763	109,91
766,946	13,65
767,129	83,28
767,312	23,89
767,495	93,52
767,678	30,04
767,861	19,8
768,044	-4,78
768,227	99,67
768,41	27,99
768,593	50,52
768,776	-0,68
768,959	36,18
769,142	7,51
769,324	71
769,507	7,51
769,69	40,28
769,873	21,85
770,056	77,14
770,239	-10,92
770,421	3,41
770,604	5,46
770,787	101,72
770,97	-21,16
771,152	62,8
771,335	-19,11
771,518	21,85
771,7	-21,16
771,883	36,18
772,066	11,61
772,248	11,61
772,431	62,8
772,613	15,7
772,796	68,95
772,978	-31,4
773,161	46,42
773,343	1,37
773,526	27,99
773,708	5,46
773,891	101,72
774,073	-29,35
774,256	40,28
774,438	19,8
774,621	44,37
774,803	11,61
774,985	27,99
775,168	-37,55
775,35	3,41
775,532	-19,11
775,715	-12,97
775,897	-45,74
776,079	21,85
776,261	30,04
776,444	5,46
776,626	-10,92
776,808	101,72
776,99	27,99
777,173	-0,68
777,355	38,23
777,537	27,99
777,719	36,18
777,901	54,61
778,083	36,18
778,265	44,37
778,447	23,89
778,629	38,23
778,811	64,85
778,993	-31,4
779,175	32,08
779,357	15,7
779,539	-31,4
779,721	19,8
779,903	75,09
780,085	-19,11
780,267	11,61
780,449	-17,07
780,631	27,99
780,812	-35,5
780,994	9,56
781,176	56,66
781,358	54,61
781,54	58,71
781,721	79,19
781,903	44,37
782,085	52,56
782,267	85,33
782,448	-23,21
782,63	-58,03
782,812	48,47
782,993	56,66
783,175	60,76
783,357	77,14
783,538	11,61
783,72	36,18
783,901	40,28
784,083	-19,11
784,264	58,71
784,446	34,13
784,627	85,33
784,809	54,61
784,99	-66,22
785,172	15,7
785,353	73,04
785,535	15,7
785,716	19,8
785,897	13,65
786,079	21,85
786,26	40,28
786,441	30,04
786,623	48,47
786,804	-4,78
786,985	23,89
787,167	-66,22
787,348	-62,12
787,529	-31,4
787,71	7,51
787,891	-35,5
788,073	42,32
788,254	52,56
788,435	7,51
788,616	40,28
788,797	30,04
788,978	-2,73
789,159	3,41
789,34	-19,11
789,522	23,89
789,703	21,85
789,884	54,61
790,065	48,47
790,246	105,81
790,427	11,61
790,607	93,52
790,788	11,61
790,969	-6,83
791,15	42,32
791,331	64,85
791,512	34,13
791,693	9,56
791,874	11,61
792,054	50,52
792,235	42,32
792,416	62,8
792,597	-12,97
792,778	-45,74
792,958	19,8
793,139	-6,83
793,32	19,8
793,5	60,76
793,681	27,99
793,862	21,85
794,042	7,51
794,223	54,61
794,404	71
794,584	38,23
794,765	32,08
794,945	62,8
795,126	19,8
795,306	-43,69
795,487	3,41
795,667	40,28
795,848	7,51
796,028	50,52
796,209	-45,74
796,389	-2,73
796,57	-19,11
796,75	58,71
796,93	3,41
797,111	5,46
797,291	64,85
797,471	21,85
797,652	60,76
797,832	-49,83
798,012	68,95
798,192	66,9
798,373	3,41
798,553	3,41
798,733	15,7
798,913	-37,55
799,093	79,19
799,274	71
799,454	21,85
799,634	36,18
799,814	-53,93
799,994	89,43
800,174	40,28
800,354	-19,11
800,534	42,32
800,714	19,8
800,894	21,85
801,074	7,51
801,254	62,8
801,434	-2,73
801,614	-4,78
801,794	7,51
801,974	27,99
802,154	38,23
802,334	15,7
802,514	54,61
802,693	-4,78
802,873	23,89
803,053	-19,11
803,233	-10,92
803,413	34,13
803,592	85,33
803,772	81,24
803,952	15,7
804,131	-4,78
804,311	54,61
804,491	48,47
804,67	52,56
804,85	7,51
805,03	107,86
805,209	11,61
805,389	-4,78
805,568	-2,73
805,748	-45,74
805,928	17,75
806,107	-37,55
806,287	27,99
806,466	-2,73
806,646	25,94
806,825	19,8
807,004	36,18
807,184	-19,11
807,363	44,37
807,543	32,08
807,722	32,08
807,901	25,94
808,081	68,95
808,26	-19,11
808,439	-2,73
808,619	44,37
808,798	27,99
808,977	-4,78
809,156	-10,92
809,336	36,18
809,515	19,8
809,694	7,51
809,873	7,51
810,052	38,23
810,231	-17,07
810,411	50,52
810,59	93,52
810,769	30,04
810,948	13,65
811,127	3,41
811,306	48,47
811,485	-0,68
811,664	46,42
811,843	58,71
812,022	64,85
812,201	-12,97
812,38	27,99
812,559	13,65
812,737	5,46
812,916	27,99
813,095	7,51
813,274	58,71
813,453	-45,74
813,632	-21,16
813,811	36,18
813,989	-49,83
814,168	-21,16
814,347	15,7
814,526	36,18
814,704	48,47
814,883	36,18
815,062	21,85
815,24	58,71
815,419	32,08
815,598	48,47
815,776	25,94
815,955	32,08
816,133	11,61
816,312	19,8
816,49	-29,35
816,669	21,85
816,847	17,75
817,026	-19,11
817,204	-12,97
817,383	3,41
817,561	27,99
817,74	66,9
817,918	-86,7
818,097	60,76
818,275	-31,4
818,453	95,57
818,632	3,41
818,81	54,61
818,988	27,99
819,167	46,42
819,345	32,08
819,523	13,65
819,701	23,89
819,879	-4,78
820,058	-4,78
820,236	66,9
820,414	-8,87
820,592	-2,73
820,77	-4,78
820,948	21,85
821,127	27,99
821,305	81,24
821,483	-10,92
821,661	44,37
821,839	21,85
822,017	54,61
822,195	1,37
822,373	5,46
822,551	-6,83
822,729	9,56
822,907	-19,11
823,085	19,8
823,262	77,14
823,44	1,37
823,618	52,56
823,796	68,95
823,974	23,89
824,152	62,8
824,329	-12,97
824,507	5,46
824,685	19,8
824,863	-41,64
825,04	27,99
825,218	36,18
825,396	13,65
825,574	11,61
825,751	52,56
825,929	93,52
826,107	-2,73
826,284	-35,5
826,462	27,99
826,639	-4,78
826,817	-43,69
826,994	-25,26
827,172	-15,02
827,349	52,56
827,527	23,89
827,704	-0,68
827,882	30,04
828,059	3,41
828,237	9,56
828,414	36,18
828,591	19,8
828,769	52,56
828,946	-41,64
829,124	19,8
829,301	58,71
829,478	3,41
829,655	-41,64
829,833	-41,64
830,01	52,56
830,187	-45,74
830,364	44,37
830,542	-10,92
830,719	-19,11
830,896	-4,78
831,073	1,37
831,25	58,71
831,427	-45,74
831,604	38,23
831,782	46,42
831,959	83,28
832,136	46,42
832,313	-25,26
832,49	-37,55
832,667	68,95
832,844	7,51
833,021	60,76
833,198	5,46
833,374	75,09
833,551	27,99
833,728	30,04
833,905	62,8
834,082	7,51
834,259	71
834,436	3,41
834,612	32,08
834,789	30,04
834,966	19,8
835,143	17,75
835,319	21,85
835,496	36,18
835,673	54,61
835,85	87,38
836,026	38,23
836,203	23,89
836,38	23,89
836,556	-4,78
836,733	38,23
836,909	44,37
837,086	-10,92
837,262	79,19
837,439	93,52
837,616	50,52
837,792	-4,78
837,968	36,18
838,145	60,76
838,321	-4,78
838,498	-31,4
838,674	44,37
838,851	19,8
839,027	68,95
839,203	-4,78
839,38	3,41
839,556	13,65
839,732	44,37
839,909	34,13
840,085	-19,11
840,261	15,7
840,437	-21,16
840,614	73,04
840,79	-53,93
840,966	71
841,142	36,18
841,318	-0,68
841,494	54,61
841,671	27,99
841,847	50,52
842,023	56,66
842,199	54,61
842,375	-2,73
842,551	116,05
842,727	-37,55
842,903	52,56
843,079	-27,31
843,255	111,96
843,431	15,7
843,607	34,13
843,783	-12,97
843,959	-2,73
844,134	7,51
844,31	-21,16
844,486	-19,11
844,662	44,37
844,838	32,08
845,013	27,99
845,189	27,99
845,365	-29,35
845,541	87,38
845,716	-17,07
845,892	9,56
846,068	44,37
846,244	-17,07
846,419	36,18
846,595	56,66
846,77	42,32
846,946	17,75
847,122	5,46
847,297	-25,26
847,473	52,56
847,648	17,75
847,824	-0,68
847,999	-4,78
848,175	19,8
848,35	15,7
848,526	21,85
848,701	77,14
848,876	-17,07
849,052	-21,16
849,227	36,18
849,403	23,89
849,578	-10,92
849,753	-10,92
849,929	11,61
850,104	-4,78
850,279	93,52
850,454	32,08
850,63	27,99
850,805	-10,92
850,98	75,09
851,155	58,71
851,33	9,56
851,505	73,04
851,681	30,04
851,856	44,37
852,031	56,66
852,206	3,41
852,381	36,18
852,556	-4,78
852,731	79,19
852,906	103,76
853,081	44,37
853,256	-19,11
853,431	11,61
853,606	36,18
853,781	15,7
853,956	13,65
854,131	-12,97
854,305	46,42
854,48	81,24
854,655	9,56
854,83	56,66
855,005	5,46
855,18	-0,68
855,354	-19,11
855,529	21,85
855,704	42,32
855,879	87,38
856,053	1,37
856,228	3,41
856,403	75,09
856,577	5,46
856,752	19,8
856,926	21,85
857,101	-10,92
857,276	62,8
857,45	9,56
857,625	-19,11
857,799	-10,92
857,974	17,75
858,148	64,85
858,323	30,04
858,497	34,13
858,672	5,46
858,846	30,04
859,02	27,99
859,195	-8,87
859,369	93,52
859,543	13,65
859,718	-4,78
859,892	-4,78
860,066	7,51
860,241	50,52
860,415	13,65
860,589	36,18
860,763	25,94
860,938	-19,11
861,112	36,18
861,286	17,75
861,46	25,94
861,634	5,46
861,808	19,8
861,982	-12,97
862,157	97,62
862,331	60,76
862,505	95,57
862,679	-39,59
862,853	21,85
863,027	-8,87
863,201	62,8
863,375	-37,55
863,549	30,04
863,722	5,46
863,896	71
864,07	19,8
864,244	-0,68
864,418	23,89
864,592	32,08
864,766	40,28
864,939	36,18
865,113	1,37
865,287	44,37
865,461	13,65
865,634	-0,68
865,808	11,61
865,982	-51,88
866,156	21,85
866,329	32,08
866,503	38,23
866,676	34,13
866,85	19,8
867,024	66,9
867,197	42,32
867,371	30,04
867,544	23,89
867,718	93,52
867,891	3,41
868,065	-49,83
868,238	-60,07
868,412	3,41
868,585	-4,78
868,759	36,18
868,932	52,56
869,105	-23,21
869,279	48,47
869,452	36,18
869,625	15,7
869,799	75,09
869,972	21,85
870,145	-4,78
870,319	60,76
870,492	44,37
870,665	11,61
870,838	-25,26
871,011	71
871,185	36,18
871,358	73,04
871,531	13,65
871,704	11,61
871,877	30,04
872,05	48,47
872,223	1,37
872,396	19,8
872,569	56,66
872,742	79,19
872,915	75,09
873,088	9,56
873,261	85,33
873,434	30,04
873,607	-2,73
873,78	-15,02
873,953	23,89
874,126	32,08
874,299	-4,78
874,471	19,8
874,644	75,09
874,817	17,75
874,99	-8,87
875,163	15,7
875,335	11,61
875,508	79,19
875,681	54,61
875,853	-33,45
876,026	25,94
876,199	36,18
876,371	-8,87
876,544	21,85
876,717	3,41
876,889	-19,11
877,062	71
877,234	-12,97
877,407	79,19
877,579	-10,92
877,752	68,95
877,924	-25,26
878,097	56,66
878,269	-27,31
878,442	-17,07
878,614	27,99
878,786	36,18
878,959	79,19
879,131	19,8
879,303	19,8
879,476	1,37
879,648	34,13
879,82	60,76
879,993	54,61
880,165	42,32
880,337	-109,22
880,509	42,32
880,681	-21,16
880,854	7,51
881,026	-53,93
881,198	85,33
881,37	40,28
881,542	44,37
881,714	60,76
881,886	44,37
882,058	-0,68
882,23	27,99
882,402	9,56
882,574	50,52
882,746	-0,68
882,918	68,95
883,09	9,56
883,262	21,85
883,434	25,94
883,606	11,61
883,778	13,65
883,95	40,28
884,122	-4,78
884,293	60,76
884,465	62,8
884,637	-49,83
884,809	60,76
884,98	-12,97
885,152	-19,11
885,324	-12,97
885,496	19,8
885,667	-21,16
885,839	9,56
886,011	-15,02
886,182	23,89
886,354	36,18
886,525	-0,68
886,697	21,85
886,869	13,65
887,04	-12,97
887,212	52,56
887,383	56,66
887,555	19,8
887,726	5,46
887,897	23,89
888,069	19,8
888,24	46,42
888,412	71
888,583	-0,68
888,754	54,61
888,926	-21,16
889,097	81,24
889,268	-19,11
889,44	-4,78
889,611	21,85
889,782	13,65
889,953	52,56
890,125	27,99
890,296	3,41
890,467	21,85
890,638	5,46
890,809	21,85
890,98	-29,35
891,151	13,65
891,323	21,85
891,494	25,94
891,665	-0,68
891,836	-12,97
892,007	30,04
892,178	30,04
892,349	-6,83
892,52	64,85
892,691	27,99
892,862	-62,12
893,032	52,56
893,203	54,61
893,374	27,99
893,545	-25,26
893,716	-39,59
893,887	5,46
894,057	38,23
894,228	19,8
894,399	-8,87
894,57	-0,68
894,74	3,41
894,911	13,65
895,082	23,89
895,253	-39,59
895,423	40,28
895,594	17,75
895,764	-45,74
895,935	-17,07
896,106	44,37
896,276	-27,31
896,447	7,51
896,617	15,7
896,788	17,75
896,958	44,37
897,129	7,51
897,299	52,56
897,47	81,24
897,64	68,95
897,81	-21,16
897,981	36,18
898,151	-4,78
898,322	13,65
898,492	60,76
898,662	27,99
898,832	85,33
899,003	56,66
899,173	-53,93
899,343	-2,73
899,513	-27,31
