Data from filtre 577_USB4F104151__2__12-00-10-672.txt Node

Date: Wed Apr 15 12:00:10 EDT 2026
User: LaboPhy
Spectrometer: USB4F10415
Trigger mode: 4
Integration Time (sec): 2,000000E-3
Scans to average: 1
Electric dark correction enabled: true
Nonlinearity correction enabled: false
Boxcar width: 0
XAxis mode: Wavelengths
Number of Pixels in Spectrum: 3648
>>>>>Begin Spectral Data<<<<<
178,204	-25,09
178,424	-25,09
178,644	-25,09
178,864	48,64
179,084	52,74
179,304	28,16
179,524	-25,09
179,744	-51,71
179,964	28,16
180,184	28,16
180,404	71,17
180,624	-84,48
180,844	40,45
181,064	-16,9
181,283	50,69
181,503	-16,9
181,723	-51,71
181,943	5,63
182,163	-0,51
182,383	-8,7
182,602	-4,61
182,822	32,26
183,042	46,59
183,262	-6,66
183,482	-49,66
183,701	-25,09
183,921	-51,71
184,141	-12,8
184,361	44,54
184,58	7,68
184,8	13,82
185,02	32,26
185,239	28,16
185,459	-18,94
185,679	-8,7
185,898	24,06
186,118	44,54
186,338	-14,85
186,557	69,12
186,777	-4,61
186,997	30,21
187,216	11,78
187,436	32,26
187,655	54,78
187,875	19,97
188,095	-47,62
188,314	-18,94
188,534	28,16
188,753	-29,18
188,973	-14,85
189,192	-20,99
189,412	-37,38
189,631	65,02
189,851	15,87
190,07	19,97
190,29	11,78
190,509	-33,28
190,729	-4,61
190,948	-31,23
191,168	32,26
191,387	56,83
191,607	15,87
191,826	52,74
192,045	-55,81
192,265	-51,71
192,484	44,54
192,704	-53,76
192,923	-37,38
193,142	38,4
193,362	19,97
193,581	32,26
193,8	73,21
194,02	26,11
194,239	108,03
194,458	11,78
194,678	-35,33
194,897	-20,99
195,116	79,36
195,335	36,35
195,555	3,58
195,774	-14,85
195,993	50,69
196,212	-18,94
196,432	5,63
196,651	-23,04
196,87	-35,33
197,089	-6,66
197,308	48,64
197,528	-16,9
197,747	-113,15
197,966	5,63
198,185	-23,04
198,404	-35,33
198,623	91,65
198,842	28,16
199,062	13,82
199,281	-0,51
199,5	-12,8
199,719	-8,7
199,938	3,58
200,157	-2,56
200,376	-18,94
200,595	-20,99
200,814	13,82
201,033	28,16
201,252	-4,61
201,471	-4,61
201,69	5,63
201,909	11,78
202,128	1,54
202,347	81,41
202,566	-4,61
202,785	-16,9
203,004	-82,43
203,223	-55,81
203,442	69,12
203,661	-12,8
203,879	-12,8
204,098	-2,56
204,317	67,07
204,536	62,98
204,755	-37,38
204,974	44,54
205,193	65,02
205,411	1,54
205,63	-16,9
205,849	-41,47
206,068	77,31
206,287	60,93
206,505	-39,42
206,724	-10,75
206,943	52,74
207,162	44,54
207,381	-47,62
207,599	-78,33
207,818	-0,51
208,037	-12,8
208,255	-4,61
208,474	-45,57
208,693	-6,66
208,911	-51,71
209,13	-14,85
209,349	-4,61
209,567	-45,57
209,786	97,79
210,005	62,98
210,223	-12,8
210,442	-41,47
210,661	52,74
210,879	-68,09
211,098	-25,09
211,316	28,16
211,535	7,68
211,753	-29,18
211,972	87,55
212,191	-59,9
212,409	-4,61
212,628	-27,14
212,846	30,21
213,065	60,93
213,283	28,16
213,502	-29,18
213,72	3,58
213,938	-39,42
214,157	54,78
214,375	-43,52
214,594	-12,8
214,812	-51,71
215,031	44,54
215,249	1,54
215,467	134,65
215,686	38,4
215,904	56,83
216,122	32,26
216,341	30,21
216,559	5,63
216,778	-2,56
216,996	-14,85
217,214	85,5
217,432	13,82
217,651	3,58
217,869	-2,56
218,087	-43,52
218,306	-125,44
218,524	-0,51
218,742	5,63
218,96	24,06
219,179	15,87
219,397	38,4
219,615	73,21
219,833	-25,09
220,051	-10,75
220,27	-16,9
220,488	-49,66
220,706	52,74
220,924	75,26
221,142	36,35
221,36	28,16
221,578	69,12
221,796	-0,51
222,015	7,68
222,233	-37,38
222,451	79,36
222,669	9,73
222,887	-0,51
223,105	-61,95
223,323	-18,94
223,541	-41,47
223,759	-12,8
223,977	3,58
224,195	5,63
224,413	13,82
224,631	1,54
224,849	48,64
225,067	13,82
225,285	-25,09
225,503	-0,51
225,721	-4,61
225,939	38,4
226,157	17,92
226,375	11,78
226,592	-10,75
226,81	36,35
227,028	-29,18
227,246	30,21
227,464	-72,19
227,682	22,02
227,9	-12,8
228,117	11,78
228,335	-53,76
228,553	11,78
228,771	5,63
228,989	11,78
229,206	15,87
229,424	34,3
229,642	-27,14
229,86	19,97
230,077	-8,7
230,295	-20,99
230,513	-0,51
230,731	52,74
230,948	-49,66
231,166	7,68
231,384	22,02
231,601	-4,61
231,819	-0,51
232,037	-74,24
232,254	-0,51
232,472	22,02
232,689	-47,62
232,907	-2,56
233,125	28,16
233,342	36,35
233,56	-41,47
233,777	-0,51
233,995	42,5
234,213	3,58
234,43	58,88
234,648	38,4
234,865	-10,75
235,083	30,21
235,3	36,35
235,518	-53,76
235,735	-70,14
235,953	-12,8
236,17	11,78
236,388	32,26
236,605	13,82
236,822	44,54
237,04	52,74
237,257	30,21
237,475	-4,61
237,692	69,12
237,909	3,58
238,127	46,59
238,344	-18,94
238,562	-45,57
238,779	-80,38
238,996	52,74
239,214	3,58
239,431	-0,51
239,648	-16,9
239,865	32,26
240,083	-88,57
240,3	-25,09
240,517	-45,57
240,735	-92,67
240,952	-70,14
241,169	-18,94
241,386	9,73
241,603	52,74
241,821	1,54
242,038	-8,7
242,255	-4,61
242,472	28,16
242,689	-10,75
242,907	30,21
243,124	-16,9
243,341	24,06
243,558	28,16
243,775	40,45
243,992	42,5
244,209	-37,38
244,426	-20,99
244,643	62,98
244,86	-20,99
245,078	95,74
245,295	-10,75
245,512	71,17
245,729	48,64
245,946	40,45
246,163	69,12
246,38	-25,09
246,597	38,4
246,814	5,63
247,031	-61,95
247,248	50,69
247,464	3,58
247,681	42,5
247,898	-18,94
248,115	3,58
248,332	-8,7
248,549	34,3
248,766	-33,28
248,983	-4,61
249,2	-45,57
249,417	48,64
249,633	-45,57
249,85	101,89
250,067	-6,66
250,284	-25,09
250,501	-6,66
250,717	1,54
250,934	-27,14
251,151	36,35
251,368	34,3
251,585	-0,51
251,801	36,35
252,018	1,54
252,235	-33,28
252,451	52,74
252,668	-14,85
252,885	65,02
253,102	-8,7
253,318	-16,9
253,535	-16,9
253,752	62,98
253,968	-4,61
254,185	-6,66
254,401	-33,28
254,618	28,16
254,835	28,16
255,051	-14,85
255,268	-37,38
255,484	-20,99
255,701	52,74
255,917	-27,14
256,134	-12,8
256,351	32,26
256,567	19,97
256,784	7,68
257	-10,75
257,217	62,98
257,433	9,73
257,65	3,58
257,866	-20,99
258,082	15,87
258,299	5,63
258,515	28,16
258,732	5,63
258,948	-0,51
259,165	-64
259,381	-25,09
259,597	-10,75
259,814	17,92
260,03	7,68
260,246	13,82
260,463	-6,66
260,679	11,78
260,895	-4,61
261,112	11,78
261,328	-4,61
261,544	-74,24
261,761	22,02
261,977	7,68
262,193	15,87
262,409	81,41
262,626	-51,71
262,842	-12,8
263,058	-6,66
263,274	42,5
263,49	19,97
263,707	56,83
263,923	-43,52
264,139	-16,9
264,355	-10,75
264,571	13,82
264,787	44,54
265,004	-20,99
265,22	-35,33
265,436	7,68
265,652	-37,38
265,868	32,26
266,084	69,12
266,3	52,74
266,516	28,16
266,732	3,58
266,948	-14,85
267,164	-33,28
267,38	-18,94
267,596	-29,18
267,812	-4,61
268,028	19,97
268,244	-4,61
268,46	-2,56
268,676	32,26
268,892	36,35
269,108	7,68
269,324	22,02
269,54	-20,99
269,756	65,02
269,972	-25,09
270,188	-0,51
270,403	-16,9
270,619	103,93
270,835	3,58
271,051	-2,56
271,267	71,17
271,483	-43,52
271,698	-31,23
271,914	52,74
272,13	-8,7
272,346	3,58
272,562	58,88
272,777	-86,53
272,993	-10,75
273,209	50,69
273,425	5,63
273,64	44,54
273,856	-35,33
274,072	44,54
274,287	-70,14
274,503	-10,75
274,719	19,97
274,934	24,06
275,15	-86,53
275,366	-12,8
275,581	-37,38
275,797	-10,75
276,012	48,64
276,228	28,16
276,444	9,73
276,659	-0,51
276,875	-66,05
277,09	24,06
277,306	-10,75
277,521	-35,33
277,737	19,97
277,952	-43,52
278,168	24,06
278,383	7,68
278,599	-72,19
278,814	54,78
279,03	-16,9
279,245	30,21
279,461	-23,04
279,676	62,98
279,892	3,58
280,107	11,78
280,322	-27,14
280,538	-45,57
280,753	11,78
280,969	3,58
281,184	40,45
281,399	-59,9
281,615	-14,85
281,83	34,3
282,045	-59,9
282,26	28,16
282,476	-45,57
282,691	28,16
282,906	-4,61
283,122	26,11
283,337	-53,76
283,552	-49,66
283,767	-35,33
283,983	52,74
284,198	-18,94
284,413	44,54
284,628	-45,57
284,843	13,82
285,058	-35,33
285,274	62,98
285,489	-4,61
285,704	-29,18
285,919	26,11
286,134	13,82
286,349	9,73
286,564	36,35
286,779	-2,56
286,995	-4,61
287,21	-49,66
287,425	60,93
287,64	11,78
287,855	22,02
288,07	-16,9
288,285	-20,99
288,5	15,87
288,715	-2,56
288,93	24,06
289,145	69,12
289,36	-27,14
289,575	-14,85
289,79	65,02
290,004	46,59
290,219	-72,19
290,434	-27,14
290,649	-49,66
290,864	46,59
291,079	-68,09
291,294	58,88
291,509	17,92
291,724	-2,56
291,938	-2,56
292,153	-20,99
292,368	9,73
292,583	19,97
292,798	48,64
293,012	-4,61
293,227	28,16
293,442	-41,47
293,657	-51,71
293,871	11,78
294,086	19,97
294,301	22,02
294,516	22,02
294,73	-12,8
294,945	-18,94
295,16	-8,7
295,374	-45,57
295,589	5,63
295,804	-29,18
296,018	36,35
296,233	15,87
296,447	32,26
296,662	-53,76
296,877	-6,66
297,091	-8,7
297,306	-45,57
297,52	-16,9
297,735	-68,09
297,949	42,5
298,164	-25,09
298,378	44,54
298,593	-12,8
298,807	26,11
299,022	17,92
299,236	30,21
299,451	44,54
299,665	-4,61
299,88	52,74
300,094	-41,47
300,309	30,21
300,523	24,06
300,737	85,5
300,952	13,82
301,166	1,54
301,381	42,5
301,595	28,16
301,809	48,64
302,024	52,74
302,238	7,68
302,452	-33,28
302,667	-0,51
302,881	-4,61
303,095	22,02
303,309	-35,33
303,524	1,54
303,738	-20,99
303,952	44,54
304,166	24,06
304,381	32,26
304,595	30,21
304,809	9,73
305,023	-20,99
305,237	19,97
305,452	11,78
305,666	5,63
305,88	-41,47
306,094	15,87
306,308	122,37
306,522	-23,04
306,736	5,63
306,95	-72,19
307,164	-18,94
307,379	-20,99
307,593	28,16
307,807	67,07
308,021	69,12
308,235	38,4
308,449	38,4
308,663	-8,7
308,877	50,69
309,091	-49,66
309,305	-12,8
309,519	-0,51
309,733	5,63
309,947	13,82
310,161	5,63
310,374	36,35
310,588	32,26
310,802	40,45
311,016	36,35
311,23	-6,66
311,444	50,69
311,658	-43,52
311,872	5,63
312,085	-43,52
312,299	22,02
312,513	24,06
312,727	34,3
312,941	36,35
313,154	7,68
313,368	3,58
313,582	93,69
313,796	-49,66
314,009	17,92
314,223	24,06
314,437	30,21
314,651	-66,05
314,864	52,74
315,078	-51,71
315,292	28,16
315,505	32,26
315,719	3,58
315,933	-59,9
316,146	28,16
316,36	26,11
316,573	65,02
316,787	-10,75
317,001	38,4
317,214	-43,52
317,428	24,06
317,641	-6,66
317,855	3,58
318,068	40,45
318,282	-27,14
318,495	44,54
318,709	-37,38
318,922	19,97
319,136	5,63
319,349	3,58
319,563	58,88
319,776	-43,52
319,99	-53,76
320,203	52,74
320,417	-12,8
320,63	9,73
320,843	-12,8
321,057	15,87
321,27	-29,18
321,483	1,54
321,697	-39,42
321,91	46,59
322,124	-59,9
322,337	-29,18
322,55	-6,66
322,763	19,97
322,977	36,35
323,19	3,58
323,403	-27,14
323,617	-86,53
323,83	7,68
324,043	13,82
324,256	-33,28
324,469	-20,99
324,683	19,97
324,896	-27,14
325,109	-27,14
325,322	-47,62
325,535	-25,09
325,748	9,73
325,962	132,61
326,175	9,73
326,388	77,31
326,601	7,68
326,814	-37,38
327,027	17,92
327,24	9,73
327,453	-102,91
327,666	-4,61
327,879	71,17
328,092	34,3
328,305	-12,8
328,518	-37,38
328,731	5,63
328,944	-37,38
329,157	7,68
329,37	-20,99
329,583	-25,09
329,796	-31,23
330,009	22,02
330,222	28,16
330,435	-35,33
330,648	60,93
330,861	71,17
331,073	17,92
331,286	-27,14
331,499	17,92
331,712	-45,57
331,925	5,63
332,138	-0,51
332,35	19,97
332,563	-4,61
332,776	44,54
332,989	24,06
333,202	28,16
333,414	-10,75
333,627	28,16
333,84	-4,61
334,053	71,17
334,265	48,64
334,478	-59,9
334,691	-20,99
334,903	17,92
335,116	-29,18
335,329	-0,51
335,541	71,17
335,754	52,74
335,966	46,59
336,179	15,87
336,392	28,16
336,604	71,17
336,817	-53,76
337,029	22,02
337,242	-6,66
337,454	-35,33
337,667	-33,28
337,88	13,82
338,092	-16,9
338,305	5,63
338,517	-45,57
338,729	46,59
338,942	11,78
339,154	62,98
339,367	-20,99
339,579	34,3
339,792	-33,28
340,004	97,79
340,217	44,54
340,429	15,87
340,641	3,58
340,854	-12,8
341,066	-0,51
341,278	-20,99
341,491	15,87
341,703	-0,51
341,915	28,16
342,128	110,08
342,34	-20,99
342,552	38,4
342,764	-33,28
342,977	15,87
343,189	3,58
343,401	-29,18
343,613	-12,8
343,826	19,97
344,038	-20,99
344,25	-0,51
344,462	-16,9
344,674	-16,9
344,886	5,63
345,099	5,63
345,311	-41,47
345,523	-37,38
345,735	-37,38
345,947	1,54
346,159	-45,57
346,371	3,58
346,583	24,06
346,795	-47,62
347,007	46,59
347,219	-12,8
347,431	-25,09
347,643	46,59
347,855	-57,86
348,067	-23,04
348,279	15,87
348,491	3,58
348,703	-14,85
348,915	60,93
349,127	-25,09
349,339	19,97
349,551	36,35
349,763	36,35
349,975	13,82
350,187	-23,04
350,399	-25,09
350,61	-4,61
350,822	-6,66
351,034	38,4
351,246	22,02
351,458	38,4
351,669	-29,18
351,881	60,93
352,093	5,63
352,305	5,63
352,517	7,68
352,728	-59,9
352,94	42,5
353,152	-53,76
353,363	-53,76
353,575	36,35
353,787	-10,75
353,999	28,16
354,21	5,63
354,422	65,02
354,633	-4,61
354,845	22,02
355,057	22,02
355,268	-84,48
355,48	-55,81
355,692	22,02
355,903	26,11
356,115	28,16
356,326	13,82
356,538	-37,38
356,749	93,69
356,961	-45,57
357,172	-49,66
357,384	13,82
357,595	22,02
357,807	22,02
358,018	24,06
358,23	7,68
358,441	52,74
358,653	56,83
358,864	-33,28
359,075	38,4
359,287	-25,09
359,498	-20,99
359,709	-45,57
359,921	-61,95
360,132	85,5
360,344	13,82
360,555	-29,18
360,766	15,87
360,977	3,58
361,189	-10,75
361,4	-53,76
361,611	9,73
361,823	46,59
362,034	138,75
362,245	-33,28
362,456	52,74
362,667	-29,18
362,879	38,4
363,09	52,74
363,301	11,78
363,512	19,97
363,723	-53,76
363,935	19,97
364,146	-4,61
364,357	54,78
364,568	7,68
364,779	7,68
364,99	40,45
365,201	1,54
365,412	32,26
365,623	69,12
365,834	87,55
366,045	54,78
366,256	-53,76
366,467	-10,75
366,678	50,69
366,889	36,35
367,1	11,78
367,311	46,59
367,522	-37,38
367,733	15,87
367,944	62,98
368,155	-37,38
368,366	30,21
368,577	28,16
368,788	11,78
368,999	-8,7
369,209	-20,99
369,42	9,73
369,631	-25,09
369,842	-53,76
370,053	36,35
370,264	-29,18
370,474	-35,33
370,685	60,93
370,896	38,4
371,107	13,82
371,317	-64
371,528	-47,62
371,739	34,3
371,95	46,59
372,16	17,92
372,371	-53,76
372,582	-98,81
372,792	34,3
373,003	62,98
373,214	-41,47
373,424	-20,99
373,635	58,88
373,846	13,82
374,056	42,5
374,267	-37,38
374,477	-4,61
374,688	50,69
374,898	13,82
375,109	-6,66
375,319	-66,05
375,53	-8,7
375,74	-51,71
375,951	71,17
376,161	26,11
376,372	9,73
376,582	-2,56
376,793	-55,81
377,003	-72,19
377,214	38,4
377,424	44,54
377,635	-8,7
377,845	15,87
378,055	13,82
378,266	-49,66
378,476	-14,85
378,686	-4,61
378,897	28,16
379,107	83,45
379,317	3,58
379,528	-16,9
379,738	5,63
379,948	-27,14
380,158	32,26
380,369	-4,61
380,579	28,16
380,789	26,11
380,999	28,16
381,21	-20,99
381,42	44,54
381,63	-31,23
381,84	34,3
382,05	44,54
382,261	-4,61
382,471	-68,09
382,681	56,83
382,891	19,97
383,101	24,06
383,311	17,92
383,521	-6,66
383,731	-45,57
383,941	130,56
384,151	46,59
384,361	52,74
384,571	19,97
384,781	5,63
384,991	-2,56
385,201	19,97
385,411	-25,09
385,621	85,5
385,831	-20,99
386,041	5,63
386,251	3,58
386,461	28,16
386,671	-33,28
386,881	22,02
387,091	-27,14
387,301	19,97
387,511	-16,9
387,72	-53,76
387,93	15,87
388,14	11,78
388,35	-41,47
388,56	32,26
388,769	9,73
388,979	36,35
389,189	-39,42
389,399	19,97
389,609	-4,61
389,818	7,68
390,028	48,64
390,238	40,45
390,447	3,58
390,657	19,97
390,867	-37,38
391,076	11,78
391,286	-27,14
391,496	-27,14
391,705	-0,51
391,915	24,06
392,125	52,74
392,334	34,3
392,544	13,82
392,753	9,73
392,963	-12,8
393,172	60,93
393,382	3,58
393,591	-4,61
393,801	7,68
394,01	32,26
394,22	19,97
394,429	3,58
394,639	-4,61
394,848	-4,61
395,058	-14,85
395,267	-18,94
395,477	46,59
395,686	19,97
395,895	-27,14
396,105	-45,57
396,314	-4,61
396,524	-29,18
396,733	15,87
396,942	44,54
397,152	-2,56
397,361	-39,42
397,57	5,63
397,78	-53,76
397,989	1,54
398,198	15,87
398,407	-0,51
398,617	24,06
398,826	15,87
399,035	-16,9
399,244	-2,56
399,453	-14,85
399,663	-10,75
399,872	-20,99
400,081	19,97
400,29	-10,75
400,499	5,63
400,708	24,06
400,917	56,83
401,127	44,54
401,336	1,54
401,545	22,02
401,754	-31,23
401,963	7,68
402,172	7,68
402,381	15,87
402,59	-27,14
402,799	56,83
403,008	-53,76
403,217	3,58
403,426	54,78
403,635	-72,19
403,844	13,82
404,053	19,97
404,262	-20,99
404,471	89,6
404,68	-31,23
404,888	-20,99
405,097	97,79
405,306	30,21
405,515	-37,38
405,724	-4,61
405,933	-27,14
406,142	-2,56
406,35	5,63
406,559	46,59
406,768	54,78
406,977	11,78
407,185	50,69
407,394	-20,99
407,603	17,92
407,812	36,35
408,02	-57,86
408,229	13,82
408,438	5,63
408,646	-78,33
408,855	22,02
409,064	-14,85
409,272	-43,52
409,481	-16,9
409,69	65,02
409,898	3,58
410,107	-6,66
410,315	19,97
410,524	24,06
410,733	1,54
410,941	62,98
411,15	15,87
411,358	62,98
411,567	15,87
411,775	-14,85
411,984	-57,86
412,192	40,45
412,401	-41,47
412,609	34,3
412,818	32,26
413,026	-55,81
413,234	15,87
413,443	-61,95
413,651	46,59
413,86	-20,99
414,068	46,59
414,276	30,21
414,485	46,59
414,693	-14,85
414,901	-49,66
415,11	36,35
415,318	11,78
415,526	15,87
415,734	30,21
415,943	-57,86
416,151	7,68
416,359	11,78
416,567	-16,9
416,776	-10,75
416,984	-4,61
417,192	5,63
417,4	30,21
417,608	79,36
417,817	-47,62
418,025	-29,18
418,233	-27,14
418,441	19,97
418,649	38,4
418,857	-53,76
419,065	19,97
419,273	3,58
419,481	-4,61
419,689	5,63
419,897	71,17
420,105	-20,99
420,313	-20,99
420,521	-23,04
420,729	7,68
420,937	-2,56
421,145	81,41
421,353	-18,94
421,561	-29,18
421,769	28,16
421,977	-35,33
422,185	-16,9
422,393	46,59
422,601	40,45
422,809	-37,38
423,017	5,63
423,224	3,58
423,432	-82,43
423,64	-20,99
423,848	44,54
424,056	-27,14
424,263	-4,61
424,471	75,26
424,679	-10,75
424,887	75,26
425,094	1,54
425,302	-8,7
425,51	-74,24
425,718	44,54
425,925	26,11
426,133	28,16
426,341	34,3
426,548	5,63
426,756	-64
426,964	85,5
427,171	11,78
427,379	52,74
427,586	-20,99
427,794	-4,61
428,001	-20,99
428,209	-8,7
428,417	-0,51
428,624	-35,33
428,832	-0,51
429,039	15,87
429,247	54,78
429,454	38,4
429,662	-16,9
429,869	52,74
430,076	22,02
430,284	-20,99
430,491	54,78
430,699	-59,9
430,906	28,16
431,114	-4,61
431,321	-68,09
431,528	-45,57
431,736	-18,94
431,943	-4,61
432,15	93,69
432,358	71,17
432,565	-35,33
432,772	28,16
432,979	1,54
433,187	77,31
433,394	-39,42
433,601	110,08
433,808	-4,61
434,016	-20,99
434,223	13,82
434,43	3,58
434,637	9,73
434,844	30,21
435,052	-12,8
435,259	-16,9
435,466	101,89
435,673	42,5
435,88	-8,7
436,087	3,58
436,294	-35,33
436,501	7,68
436,708	30,21
436,915	81,41
437,122	-6,66
437,329	54,78
437,537	19,97
437,743	32,26
437,95	19,97
438,157	36,35
438,364	30,21
438,571	-6,66
438,778	-6,66
438,985	-25,09
439,192	-59,9
439,399	-25,09
439,606	60,93
439,813	1,54
440,02	-0,51
440,227	-2,56
440,433	13,82
440,64	34,3
440,847	-31,23
441,054	5,63
441,261	-2,56
441,467	32,26
441,674	-55,81
441,881	3,58
442,088	-12,8
442,294	28,16
442,501	28,16
442,708	-33,28
442,914	19,97
443,121	32,26
443,328	-47,62
443,534	1,54
443,741	-0,51
443,948	93,69
444,154	40,45
444,361	-25,09
444,568	22,02
444,774	15,87
444,981	-20,99
445,187	46,59
445,394	40,45
445,6	-4,61
445,807	19,97
446,013	24,06
446,22	40,45
446,426	3,58
446,633	-18,94
446,839	-29,18
447,046	-4,61
447,252	-12,8
447,459	44,54
447,665	-45,57
447,871	-45,57
448,078	-8,7
448,284	-55,81
448,491	-29,18
448,697	-2,56
448,903	19,97
449,11	-84,48
449,316	36,35
449,522	-8,7
449,728	1,54
449,935	48,64
450,141	28,16
450,347	15,87
450,553	-0,51
450,76	54,78
450,966	7,68
451,172	-6,66
451,378	-4,61
451,584	-20,99
451,791	28,16
451,997	11,78
452,203	-27,14
452,409	-53,76
452,615	-0,51
452,821	-12,8
453,027	40,45
453,233	32,26
453,44	32,26
453,646	-43,52
453,852	22,02
454,058	-12,8
454,264	-12,8
454,47	22,02
454,676	13,82
454,882	38,4
455,088	65,02
455,294	-8,7
455,5	17,92
455,705	-0,51
455,911	77,31
456,117	1,54
456,323	30,21
456,529	1,54
456,735	-20,99
456,941	13,82
457,147	19,97
457,352	-90,62
457,558	5,63
457,764	3,58
457,97	30,21
458,176	-2,56
458,381	-20,99
458,587	62,98
458,793	-51,71
458,999	-25,09
459,204	46,59
459,41	46,59
459,616	3,58
459,821	-51,71
460,027	50,69
460,233	7,68
460,438	-25,09
460,644	48,64
460,85	38,4
461,055	-20,99
461,261	-31,23
461,466	-35,33
461,672	22,02
461,878	13,82
462,083	15,87
462,289	-80,38
462,494	-35,33
462,7	-4,61
462,905	30,21
463,111	5,63
463,316	44,54
463,522	-16,9
463,727	77,31
463,932	-27,14
464,138	-16,9
464,343	-4,61
464,549	15,87
464,754	3,58
464,959	17,92
465,165	-47,62
465,37	-2,56
465,575	-14,85
465,781	-51,71
465,986	19,97
466,191	-37,38
466,397	105,98
466,602	28,16
466,807	-49,66
467,012	3,58
467,218	26,11
467,423	-10,75
467,628	-4,61
467,833	54,78
468,038	-18,94
468,244	15,87
468,449	11,78
468,654	19,97
468,859	5,63
469,064	3,58
469,269	5,63
469,474	13,82
469,679	-23,04
469,885	40,45
470,09	-8,7
470,295	11,78
470,5	-12,8
470,705	7,68
470,91	54,78
471,115	48,64
471,32	46,59
471,525	-20,99
471,73	-14,85
471,935	-23,04
472,139	11,78
472,344	-45,57
472,549	-4,61
472,754	-12,8
472,959	-47,62
473,164	44,54
473,369	-2,56
473,574	36,35
473,778	-27,14
473,983	-0,51
474,188	-4,61
474,393	-31,23
474,598	-41,47
474,802	-18,94
475,007	58,88
475,212	-29,18
475,417	-0,51
475,621	-33,28
475,826	-27,14
476,031	-20,99
476,235	3,58
476,44	28,16
476,645	62,98
476,849	7,68
477,054	-39,42
477,259	24,06
477,463	3,58
477,668	93,69
477,872	-20,99
478,077	54,78
478,282	28,16
478,486	-12,8
478,691	9,73
478,895	69,12
479,1	3,58
479,304	30,21
479,509	11,78
479,713	50,69
479,918	24,06
480,122	-59,9
480,326	30,21
480,531	28,16
480,735	-2,56
480,94	3,58
481,144	-0,51
481,348	52,74
481,553	-57,86
481,757	46,59
481,961	38,4
482,166	-51,71
482,37	19,97
482,574	-10,75
482,778	-4,61
482,983	-4,61
483,187	26,11
483,391	34,3
483,595	-18,94
483,8	-25,09
484,004	-25,09
484,208	-8,7
484,412	7,68
484,616	15,87
484,821	-33,28
485,025	69,12
485,229	28,16
485,433	-10,75
485,637	-27,14
485,841	-18,94
486,045	-20,99
486,249	30,21
486,453	26,11
486,657	1,54
486,861	42,5
487,065	5,63
487,269	-47,62
487,473	36,35
487,677	-8,7
487,881	54,78
488,085	-68,09
488,289	-45,57
488,493	-51,71
488,697	46,59
488,901	24,06
489,105	9,73
489,309	-14,85
489,512	-29,18
489,716	9,73
489,92	44,54
490,124	-18,94
490,328	54,78
490,531	22,02
490,735	19,97
490,939	-37,38
491,143	5,63
491,346	-39,42
491,55	32,26
491,754	-2,56
491,958	-12,8
492,161	3,58
492,365	-20,99
492,569	22,02
492,772	-57,86
492,976	48,64
493,18	13,82
493,383	-70,14
493,587	-2,56
493,79	-41,47
493,994	28,16
494,197	-12,8
494,401	22,02
494,605	-10,75
494,808	13,82
495,012	19,97
495,215	-72,19
495,419	36,35
495,622	34,3
495,825	5,63
496,029	-37,38
496,232	11,78
496,436	-0,51
496,639	101,89
496,843	44,54
497,046	22,02
497,249	22,02
497,453	-8,7
497,656	126,46
497,859	36,35
498,063	50,69
498,266	50,69
498,469	13,82
498,673	54,78
498,876	67,07
499,079	60,93
499,282	54,78
499,485	-25,09
499,689	-20,99
499,892	22,02
500,095	-0,51
500,298	22,02
500,501	-12,8
500,705	52,74
500,908	13,82
501,111	3,58
501,314	52,74
501,517	-27,14
501,72	-45,57
501,923	13,82
502,126	-12,8
502,329	-29,18
502,532	3,58
502,735	11,78
502,938	-61,95
503,141	32,26
503,344	54,78
503,547	-2,56
503,75	-16,9
503,953	-37,38
504,156	19,97
504,359	48,64
504,562	-23,04
504,765	-37,38
504,968	-2,56
505,17	11,78
505,373	-59,9
505,576	30,21
505,779	40,45
505,982	-4,61
506,185	7,68
506,387	-14,85
506,59	-10,75
506,793	-20,99
506,996	28,16
507,198	-31,23
507,401	5,63
507,604	-35,33
507,807	48,64
508,009	-2,56
508,212	38,4
508,415	-61,95
508,617	-43,52
508,82	32,26
509,022	60,93
509,225	-10,75
509,428	-20,99
509,63	36,35
509,833	34,3
510,035	48,64
510,238	26,11
510,44	-59,9
510,643	19,97
510,845	-29,18
511,048	46,59
511,25	44,54
511,453	83,45
511,655	-2,56
511,858	46,59
512,06	-2,56
512,262	11,78
512,465	-8,7
512,667	32,26
512,87	-29,18
513,072	9,73
513,274	24,06
513,477	38,4
513,679	-23,04
513,881	42,5
514,084	-23,04
514,286	48,64
514,488	-14,85
514,69	13,82
514,893	13,82
515,095	48,64
515,297	-55,81
515,499	22,02
515,701	-8,7
515,904	-33,28
516,106	9,73
516,308	22,02
516,51	52,74
516,712	34,3
516,914	11,78
517,116	13,82
517,318	-8,7
517,52	28,16
517,722	1,54
517,925	-37,38
518,127	-37,38
518,329	75,26
518,531	5,63
518,733	36,35
518,935	-0,51
519,136	42,5
519,338	-37,38
519,54	28,16
519,742	60,93
519,944	-31,23
520,146	17,92
520,348	95,74
520,55	5,63
520,752	71,17
520,954	11,78
521,155	-27,14
521,357	5,63
521,559	-12,8
521,761	-23,04
521,963	-6,66
522,164	-29,18
522,366	62,98
522,568	-12,8
522,77	9,73
522,971	-59,9
523,173	-4,61
523,375	52,74
523,576	60,93
523,778	-45,57
523,98	75,26
524,181	3,58
524,383	-0,51
524,584	-23,04
524,786	-8,7
524,988	-25,09
525,189	28,16
525,391	-6,66
525,592	-4,61
525,794	38,4
525,995	34,3
526,197	44,54
526,398	30,21
526,6	-35,33
526,801	-25,09
527,003	46,59
527,204	44,54
527,406	-12,8
527,607	28,16
527,808	7,68
528,01	-14,85
528,211	-0,51
528,412	7,68
528,614	-18,94
528,815	-43,52
529,016	32,26
529,218	52,74
529,419	-25,09
529,62	11,78
529,822	36,35
530,023	19,97
530,224	-16,9
530,425	30,21
530,626	-53,76
530,828	-37,38
531,029	-35,33
531,23	3,58
531,431	-49,66
531,632	28,16
531,833	3,58
532,035	28,16
532,236	-8,7
532,437	17,92
532,638	75,26
532,839	-0,51
533,04	40,45
533,241	50,69
533,442	28,16
533,643	-8,7
533,844	34,3
534,045	15,87
534,246	11,78
534,447	77,31
534,648	-35,33
534,849	54,78
535,05	-4,61
535,251	-45,57
535,451	7,68
535,652	-0,51
535,853	-8,7
536,054	15,87
536,255	32,26
536,456	40,45
536,657	11,78
536,857	32,26
537,058	28,16
537,259	11,78
537,46	69,12
537,66	44,54
537,861	-29,18
538,062	-4,61
538,263	22,02
538,463	-20,99
538,664	46,59
538,865	-2,56
539,065	54,78
539,266	79,36
539,466	-29,18
539,667	-41,47
539,868	26,11
540,068	60,93
540,269	5,63
540,469	-10,75
540,67	22,02
540,87	30,21
541,071	-37,38
541,271	-10,75
541,472	52,74
541,672	7,68
541,873	19,97
542,073	79,36
542,274	32,26
542,474	28,16
542,675	-16,9
542,875	-4,61
543,075	-25,09
543,276	-18,94
543,476	-33,28
543,676	-4,61
543,877	-10,75
544,077	19,97
544,277	42,5
544,478	54,78
544,678	-2,56
544,878	1,54
545,078	-10,75
545,279	22,02
545,479	-16,9
545,679	42,5
545,879	-8,7
546,079	69,12
546,28	-2,56
546,48	58,88
546,68	34,3
546,88	5,63
547,08	11,78
547,28	-53,76
547,48	-16,9
547,68	-20,99
547,88	-43,52
548,081	50,69
548,281	11,78
548,481	-18,94
548,681	-14,85
548,881	101,89
549,081	-57,86
549,28	28,16
549,48	46,59
549,68	3,58
549,88	-37,38
550,08	5,63
550,28	5,63
550,48	-16,9
550,68	13,82
550,88	54,78
551,08	5,63
551,279	7,68
551,479	-37,38
551,679	-23,04
551,879	-8,7
552,079	-10,75
552,278	5,63
552,478	44,54
552,678	13,82
552,878	48,64
553,077	28,16
553,277	-0,51
553,477	15,87
553,676	69,12
553,876	42,5
554,076	-41,47
554,275	-41,47
554,475	-0,51
554,674	9,73
554,874	1,54
555,074	-14,85
555,273	15,87
555,473	28,16
555,672	46,59
555,872	-12,8
556,071	48,64
556,271	-20,99
556,47	-4,61
556,67	-4,61
556,869	7,68
557,068	15,87
557,268	1,54
557,467	58,88
557,667	22,02
557,866	-37,38
558,065	5,63
558,265	-2,56
558,464	9,73
558,663	-25,09
558,863	-16,9
559,062	-35,33
559,261	13,82
559,461	44,54
559,66	46,59
559,859	7,68
560,058	5,63
560,258	-57,86
560,457	19,97
560,656	36,35
560,855	-37,38
561,054	38,4
561,253	26,11
561,453	-4,61
561,652	-23,04
561,851	-20,99
562,05	17,92
562,249	-29,18
562,448	-10,75
562,647	-29,18
562,846	-2,56
563,045	36,35
563,244	9,73
563,443	32,26
563,642	36,35
563,841	-29,18
564,04	-16,9
564,239	26,11
564,438	42,5
564,637	24,06
564,836	-12,8
565,035	5,63
565,234	5,63
565,432	9,73
565,631	-16,9
565,83	-43,52
566,029	48,64
566,228	11,78
566,427	40,45
566,625	77,31
566,824	28,16
567,023	73,21
567,222	28,16
567,42	-29,18
567,619	1,54
567,818	116,22
568,016	60,93
568,215	48,64
568,414	22,02
568,612	69,12
568,811	138,75
569,01	187,9
569,208	239,1
569,407	409,08
569,605	527,86
569,804	1033,71
570,002	1625,58
570,201	2577,88
570,4	3382,73
570,598	4752,82
570,797	6059,43
570,995	8203,65
571,193	9770,35
571,392	12631,36
571,59	14794,01
571,789	18078,96
571,987	21114,05
572,186	24788,1
572,384	28230,74
572,582	31966,23
572,781	35539,94
572,979	38478,77
573,177	42107,77
573,376	44841,81
573,574	46687,03
573,772	49529,61
573,971	51086,07
574,169	52867,8
574,367	53756,62
574,565	55333,56
574,763	55831,21
574,962	56640,16
575,16	56767,13
575,358	58184,33
575,556	57973,39
575,754	59431,54
575,952	58604,16
576,151	59394,68
576,349	59699,83
576,547	60064,36
576,745	60015,21
576,943	60662,37
577,141	60447,33
577,339	60686,95
577,537	60578,4
577,735	60625,51
577,933	60322,41
578,131	60064,36
578,329	59710,06
578,527	58724,99
578,725	58495,62
578,923	58405,51
579,121	57629,33
579,319	56734,37
579,516	56009,39
579,714	54956,73
579,912	52910,81
580,11	51249,91
580,308	49150,74
580,506	47561,51
580,704	44211,04
580,901	41859,97
581,099	39089,07
581,297	36004,83
581,495	32474,13
581,692	29733,95
581,89	26127,47
582,088	23485,59
582,285	20180,17
582,483	17747,19
582,681	15054,11
582,878	13014,33
583,076	10476,9
583,274	9178,48
583,471	7206,29
583,669	6010,28
583,866	4541,88
584,064	3792,33
584,262	2711
584,459	2047,46
584,657	1295,85
584,854	900,59
585,052	552,44
585,249	368,12
585,447	216,57
585,644	124,41
585,841	54,78
586,039	120,32
586,236	52,74
586,434	91,65
586,631	124,41
586,828	30,21
587,026	-20,99
587,223	5,63
587,42	85,5
587,618	83,45
587,815	5,63
588,012	-23,04
588,21	103,93
588,407	85,5
588,604	28,16
588,801	-16,9
588,999	48,64
589,196	48,64
589,393	-41,47
589,59	71,17
589,787	11,78
589,984	28,16
590,182	44,54
590,379	-25,09
590,576	50,69
590,773	9,73
590,97	36,35
591,167	32,26
591,364	-12,8
591,561	34,3
591,758	103,93
591,955	-29,18
592,152	36,35
592,349	62,98
592,546	28,16
592,743	3,58
592,94	38,4
593,137	-47,62
593,334	48,64
593,531	22,02
593,727	-18,94
593,924	-23,04
594,121	24,06
594,318	-2,56
594,515	73,21
594,712	1,54
594,908	26,11
595,105	40,45
595,302	40,45
595,499	30,21
595,696	19,97
595,892	36,35
596,089	48,64
596,286	-51,71
596,482	77,31
596,679	5,63
596,876	-27,14
597,072	69,12
597,269	28,16
597,466	54,78
597,662	44,54
597,859	7,68
598,055	60,93
598,252	28,16
598,448	11,78
598,645	9,73
598,841	46,59
599,038	28,16
599,234	-14,85
599,431	32,26
599,627	-8,7
599,824	-6,66
600,02	-33,28
600,217	-33,28
600,413	11,78
600,609	11,78
600,806	28,16
601,002	-8,7
601,198	17,92
601,395	-18,94
601,591	3,58
601,787	-2,56
601,984	-20,99
602,18	7,68
602,376	52,74
602,572	-0,51
602,769	5,63
602,965	-20,99
603,161	71,17
603,357	-8,7
603,553	-18,94
603,75	-23,04
603,946	-0,51
604,142	32,26
604,338	11,78
604,534	65,02
604,73	3,58
604,926	-12,8
605,122	52,74
605,318	13,82
605,514	44,54
605,71	26,11
605,906	110,08
606,102	1,54
606,298	9,73
606,494	24,06
606,69	52,74
606,886	3,58
607,082	3,58
607,278	30,21
607,474	15,87
607,67	5,63
607,866	36,35
608,062	-35,33
608,257	-4,61
608,453	3,58
608,649	-18,94
608,845	-18,94
609,041	-35,33
609,236	-6,66
609,432	58,88
609,628	3,58
609,824	-0,51
610,019	-12,8
610,215	-16,9
610,411	46,59
610,606	-4,61
610,802	5,63
610,998	52,74
611,193	-35,33
611,389	36,35
611,584	28,16
611,78	9,73
611,976	-20,99
612,171	-10,75
612,367	-8,7
612,562	15,87
612,758	-20,99
612,953	11,78
613,149	-20,99
613,344	65,02
613,539	11,78
613,735	19,97
613,93	-2,56
614,126	-59,9
614,321	3,58
614,517	-8,7
614,712	-6,66
614,907	3,58
615,103	-41,47
615,298	32,26
615,493	-12,8
615,688	-27,14
615,884	7,68
616,079	-8,7
616,274	56,83
616,47	32,26
616,665	-8,7
616,86	-59,9
617,055	-25,09
617,25	-4,61
617,445	52,74
617,641	-8,7
617,836	-18,94
618,031	71,17
618,226	-14,85
618,421	7,68
618,616	24,06
618,811	13,82
619,006	-0,51
619,201	9,73
619,396	-12,8
619,591	50,69
619,786	5,63
619,981	-4,61
620,176	30,21
620,371	11,78
620,566	-25,09
620,761	3,58
620,956	-20,99
621,151	62,98
621,346	38,4
621,541	7,68
621,735	-10,75
621,93	50,69
622,125	87,55
622,32	-0,51
622,515	-4,61
622,709	3,58
622,904	-53,76
623,099	69,12
623,294	17,92
623,488	17,92
623,683	-14,85
623,878	-20,99
624,072	-12,8
624,267	-8,7
624,462	-4,61
624,656	38,4
624,851	19,97
625,046	-4,61
625,24	48,64
625,435	30,21
625,629	-53,76
625,824	62,98
626,018	69,12
626,213	40,45
626,407	24,06
626,602	48,64
626,796	-8,7
626,991	-29,18
627,185	5,63
627,38	36,35
627,574	-23,04
627,768	-6,66
627,963	22,02
628,157	22,02
628,352	-70,14
628,546	-45,57
628,74	-37,38
628,935	-53,76
629,129	-8,7
629,323	-49,66
629,517	19,97
629,712	36,35
629,906	-4,61
630,1	30,21
630,294	60,93
630,489	-14,85
630,683	30,21
630,877	-47,62
631,071	-8,7
631,265	-4,61
631,459	-35,33
631,653	-16,9
631,848	32,26
632,042	-2,56
632,236	-12,8
632,43	-8,7
632,624	56,83
632,818	42,5
633,012	-72,19
633,206	-41,47
633,4	-16,9
633,594	-45,57
633,788	28,16
633,982	11,78
634,176	3,58
634,369	87,55
634,563	17,92
634,757	11,78
634,951	-20,99
635,145	-0,51
635,339	5,63
635,533	3,58
635,726	77,31
635,92	-33,28
636,114	28,16
636,308	-74,24
636,501	17,92
636,695	54,78
636,889	-2,56
637,083	15,87
637,276	-4,61
637,47	19,97
637,664	11,78
637,857	44,54
638,051	-70,14
638,244	-37,38
638,438	7,68
638,632	-61,95
638,825	-12,8
639,019	32,26
639,212	-2,56
639,406	-18,94
639,599	11,78
639,793	-27,14
639,986	-4,61
640,18	-27,14
640,373	-8,7
640,567	52,74
640,76	-2,56
640,954	-37,38
641,147	48,64
641,34	-20,99
641,534	11,78
641,727	-8,7
641,92	19,97
642,114	-43,52
642,307	17,92
642,5	30,21
642,694	-4,61
642,887	-8,7
643,08	-39,42
643,273	34,3
643,467	-12,8
643,66	-6,66
643,853	-2,56
644,046	-12,8
644,239	-33,28
644,432	1,54
644,626	28,16
644,819	38,4
645,012	-12,8
645,205	-27,14
645,398	-4,61
645,591	9,73
645,784	-18,94
645,977	36,35
646,17	-27,14
646,363	11,78
646,556	5,63
646,749	-64
646,942	48,64
647,135	81,41
647,328	32,26
647,521	17,92
647,714	5,63
647,907	-20,99
648,099	34,3
648,292	83,45
648,485	-27,14
648,678	-27,14
648,871	-49,66
649,064	-43,52
649,256	79,36
649,449	34,3
649,642	-27,14
649,835	-14,85
650,027	22,02
650,22	73,21
650,413	15,87
650,605	-4,61
650,798	-2,56
650,991	-37,38
651,183	56,83
651,376	-25,09
651,568	-35,33
651,761	13,82
651,954	-0,51
652,146	-27,14
652,339	-12,8
652,531	-10,75
652,724	-12,8
652,916	75,26
653,109	-82,43
653,301	-29,18
653,494	-18,94
653,686	-16,9
653,879	-35,33
654,071	48,64
654,263	15,87
654,456	3,58
654,648	32,26
654,84	67,07
655,033	-25,09
655,225	5,63
655,417	-4,61
655,61	-10,75
655,802	34,3
655,994	32,26
656,186	-45,57
656,379	-47,62
656,571	22,02
656,763	22,02
656,955	15,87
657,148	-12,8
657,34	-25,09
657,532	-10,75
657,724	-29,18
657,916	5,63
658,108	-45,57
658,3	-6,66
658,492	28,16
658,684	-35,33
658,876	32,26
659,068	42,5
659,26	-8,7
659,452	-18,94
659,644	-16,9
659,836	46,59
660,028	-33,28
660,22	9,73
660,412	-10,75
660,604	-33,28
660,796	-14,85
660,988	46,59
661,18	15,87
661,372	-18,94
661,563	19,97
661,755	-4,61
661,947	28,16
662,139	-6,66
662,331	-45,57
662,522	-61,95
662,714	-20,99
662,906	-27,14
663,097	-66,05
663,289	-0,51
663,481	-29,18
663,673	52,74
663,864	-70,14
664,056	22,02
664,247	3,58
664,439	13,82
664,631	13,82
664,822	-12,8
665,014	11,78
665,205	-16,9
665,397	-39,42
665,588	50,69
665,78	36,35
665,971	5,63
666,163	-55,81
666,354	75,26
666,546	-41,47
666,737	5,63
666,929	-20,99
667,12	28,16
667,311	-45,57
667,503	-0,51
667,694	-8,7
667,885	-4,61
668,077	71,17
668,268	-4,61
668,459	34,3
668,651	-20,99
668,842	-35,33
669,033	19,97
669,224	30,21
669,416	-23,04
669,607	-53,76
669,798	40,45
669,989	-35,33
670,18	-8,7
670,371	42,5
670,563	87,55
670,754	-25,09
670,945	19,97
671,136	-4,61
671,327	75,26
671,518	26,11
671,709	-12,8
671,9	5,63
672,091	28,16
672,282	26,11
672,473	-72,19
672,664	-20,99
672,855	87,55
673,046	-29,18
673,237	3,58
673,428	1,54
673,619	77,31
673,809	-37,38
674	-51,71
674,191	-10,75
674,382	48,64
674,573	-8,7
674,764	-27,14
674,954	24,06
675,145	-37,38
675,336	-45,57
675,527	-12,8
675,717	22,02
675,908	50,69
676,099	38,4
676,289	52,74
676,48	69,12
676,671	46,59
676,861	-20,99
677,052	69,12
677,243	-0,51
677,433	-12,8
677,624	-20,99
677,814	97,79
678,005	-2,56
678,195	11,78
678,386	60,93
678,576	-49,66
678,767	19,97
678,957	-0,51
679,148	42,5
679,338	42,5
679,529	-2,56
679,719	-27,14
679,909	15,87
680,1	32,26
680,29	-0,51
680,481	-10,75
680,671	-6,66
680,861	-18,94
681,052	-0,51
681,242	19,97
681,432	44,54
681,622	-35,33
681,813	46,59
682,003	-25,09
682,193	19,97
682,383	-12,8
682,573	9,73
682,764	17,92
682,954	54,78
683,144	36,35
683,334	22,02
683,524	62,98
683,714	-29,18
683,904	-20,99
684,094	-35,33
684,284	-0,51
684,474	-45,57
684,664	-18,94
684,854	32,26
685,044	-4,61
685,234	-59,9
685,424	5,63
685,614	-35,33
685,804	-41,47
685,994	-41,47
686,184	40,45
686,374	-53,76
686,564	73,21
686,753	15,87
686,943	-20,99
687,133	7,68
687,323	-4,61
687,513	-18,94
687,702	48,64
687,892	-53,76
688,082	-6,66
688,272	28,16
688,461	69,12
688,651	-12,8
688,841	-41,47
689,03	5,63
689,22	22,02
689,41	48,64
689,599	44,54
689,789	-4,61
689,979	19,97
690,168	-33,28
690,358	-8,7
690,547	-8,7
690,737	-25,09
690,926	11,78
691,116	60,93
691,305	30,21
691,495	62,98
691,684	40,45
691,874	11,78
692,063	-31,23
692,252	-51,71
692,442	5,63
692,631	13,82
692,82	-53,76
693,01	15,87
693,199	-57,86
693,388	56,83
693,578	-49,66
693,767	60,93
693,956	13,82
694,146	-0,51
694,335	17,92
694,524	11,78
694,713	30,21
694,902	3,58
695,092	22,02
695,281	11,78
695,47	-27,14
695,659	11,78
695,848	-18,94
696,037	-49,66
696,226	-16,9
696,415	11,78
696,604	44,54
696,793	28,16
696,982	38,4
697,171	50,69
697,36	3,58
697,549	-12,8
697,738	11,78
697,927	30,21
698,116	-8,7
698,305	13,82
698,494	79,36
698,683	38,4
698,872	15,87
699,061	40,45
699,25	58,88
699,438	-18,94
699,627	-20,99
699,816	46,59
700,005	-16,9
700,193	30,21
700,382	36,35
700,571	-43,52
700,76	11,78
700,948	-20,99
701,137	-12,8
701,326	22,02
701,514	77,31
701,703	-33,28
701,892	30,21
702,08	65,02
702,269	44,54
702,457	19,97
702,646	19,97
702,834	-27,14
703,023	-86,53
703,212	28,16
703,4	40,45
703,589	48,64
703,777	24,06
703,965	-10,75
704,154	-53,76
704,342	7,68
704,531	-25,09
704,719	69,12
704,907	22,02
705,096	-8,7
705,284	-33,28
705,472	-45,57
705,661	-41,47
705,849	-37,38
706,037	40,45
706,226	36,35
706,414	-16,9
706,602	-4,61
706,79	11,78
706,979	-4,61
707,167	-6,66
707,355	-4,61
707,543	7,68
707,731	-76,29
707,919	-12,8
708,107	54,78
708,296	-39,42
708,484	87,55
708,672	19,97
708,86	69,12
709,048	-6,66
709,236	69,12
709,424	-29,18
709,612	-92,67
709,8	24,06
709,988	19,97
710,176	32,26
710,364	-18,94
710,551	40,45
710,739	60,93
710,927	-31,23
711,115	7,68
711,303	52,74
711,491	3,58
711,679	-2,56
711,866	-33,28
712,054	-12,8
712,242	1,54
712,43	17,92
712,617	-35,33
712,805	-61,95
712,993	-37,38
713,181	38,4
713,368	19,97
713,556	-4,61
713,744	11,78
713,931	-10,75
714,119	7,68
714,306	60,93
714,494	-8,7
714,682	60,93
714,869	-16,9
715,057	77,31
715,244	48,64
715,432	-12,8
715,619	-2,56
715,807	-8,7
715,994	50,69
716,182	-4,61
716,369	-29,18
716,556	5,63
716,744	-78,33
716,931	32,26
717,119	-4,61
717,306	-0,51
717,493	32,26
717,681	-37,38
717,868	-27,14
718,055	46,59
718,242	36,35
718,43	44,54
718,617	-20,99
718,804	-12,8
718,991	-4,61
719,179	-14,85
719,366	-18,94
719,553	-53,76
719,74	-2,56
719,927	44,54
720,114	19,97
720,301	5,63
720,488	34,3
720,676	-33,28
720,863	28,16
721,05	-20,99
721,237	-78,33
721,424	52,74
721,611	-2,56
721,798	19,97
721,985	3,58
722,172	-25,09
722,358	5,63
722,545	-4,61
722,732	5,63
722,919	19,97
723,106	-23,04
723,293	-27,14
723,48	56,83
723,667	-25,09
723,853	-35,33
724,04	-4,61
724,227	44,54
724,414	62,98
724,6	36,35
724,787	7,68
724,974	22,02
725,161	-0,51
725,347	-20,99
725,534	-84,48
725,72	-27,14
725,907	-82,43
726,094	22,02
726,28	-51,71
726,467	52,74
726,653	-12,8
726,84	-10,75
727,027	-10,75
727,213	46,59
727,4	-27,14
727,586	-12,8
727,773	9,73
727,959	83,45
728,145	136,7
728,332	48,64
728,518	3,58
728,705	24,06
728,891	40,45
729,077	40,45
729,264	-33,28
729,45	-12,8
729,636	9,73
729,823	42,5
730,009	52,74
730,195	-12,8
730,382	-20,99
730,568	-0,51
730,754	-10,75
730,94	19,97
731,126	34,3
731,313	11,78
731,499	-51,71
731,685	-6,66
731,871	-41,47
732,057	52,74
732,243	-47,62
732,429	-35,33
732,615	-49,66
732,801	85,5
732,987	46,59
733,173	19,97
733,359	19,97
733,545	24,06
733,731	-20,99
733,917	32,26
734,103	11,78
734,289	-0,51
734,475	13,82
734,661	-6,66
734,847	-18,94
735,033	46,59
735,219	30,21
735,404	-2,56
735,59	15,87
735,776	-61,95
735,962	30,21
736,148	7,68
736,333	-76,29
736,519	9,73
736,705	26,11
736,89	-12,8
737,076	-6,66
737,262	-18,94
737,447	-0,51
737,633	19,97
737,819	32,26
738,004	3,58
738,19	48,64
738,375	30,21
738,561	22,02
738,747	-41,47
738,932	-59,9
739,118	69,12
739,303	5,63
739,489	-37,38
739,674	52,74
739,859	38,4
740,045	-16,9
740,23	19,97
740,416	5,63
740,601	-6,66
740,786	-6,66
740,972	40,45
741,157	-33,28
741,342	-18,94
741,528	40,45
741,713	79,36
741,898	28,16
742,084	-37,38
742,269	-49,66
742,454	-20,99
742,639	-6,66
742,824	-33,28
743,01	-4,61
743,195	110,08
743,38	56,83
743,565	-12,8
743,75	-8,7
743,935	-27,14
744,12	-66,05
744,305	46,59
744,49	93,69
744,675	-6,66
744,86	19,97
745,045	-61,95
745,23	42,5
745,415	-16,9
745,6	-27,14
745,785	11,78
745,97	28,16
746,155	17,92
746,34	26,11
746,525	48,64
746,71	-20,99
746,895	-45,57
747,079	-6,66
747,264	44,54
747,449	44,54
747,634	40,45
747,819	5,63
748,003	11,78
748,188	-23,04
748,373	13,82
748,557	-16,9
748,742	50,69
748,927	30,21
749,111	11,78
749,296	40,45
749,481	56,83
749,665	17,92
749,85	-76,29
750,034	-12,8
750,219	65,02
750,404	-64
750,588	-20,99
750,773	-6,66
750,957	-14,85
751,141	52,74
751,326	-29,18
751,51	-18,94
751,695	-27,14
751,879	34,3
752,064	-33,28
752,248	15,87
752,432	11,78
752,617	9,73
752,801	44,54
752,985	-27,14
753,17	81,41
753,354	-37,38
753,538	-2,56
753,722	-6,66
753,907	24,06
754,091	-37,38
754,275	-23,04
754,459	-66,05
754,643	-20,99
754,828	-27,14
755,012	44,54
755,196	3,58
755,38	5,63
755,564	-2,56
755,748	-29,18
755,932	-12,8
756,116	28,16
756,3	-78,33
756,484	30,21
756,668	34,3
756,852	38,4
757,036	-2,56
757,22	3,58
757,404	-14,85
757,588	24,06
757,772	-16,9
757,956	15,87
758,14	44,54
758,323	-27,14
758,507	67,07
758,691	5,63
758,875	-29,18
759,059	7,68
759,242	60,93
759,426	11,78
759,61	-33,28
759,794	-4,61
759,977	5,63
760,161	38,4
760,345	42,5
760,528	50,69
760,712	-16,9
760,895	-29,18
761,079	22,02
761,263	22,02
761,446	77,31
761,63	-10,75
761,813	-12,8
761,997	5,63
762,18	-18,94
762,364	1,54
762,547	19,97
762,731	-117,25
762,914	36,35
763,098	-2,56
763,281	-43,52
763,464	-2,56
763,648	-29,18
763,831	52,74
764,015	11,78
764,198	-12,8
764,381	11,78
764,564	40,45
764,748	-51,71
764,931	7,68
765,114	-35,33
765,297	60,93
765,481	-12,8
765,664	-33,28
765,847	-27,14
766,03	-33,28
766,213	-64
766,397	-12,8
766,58	-8,7
766,763	-20,99
766,946	15,87
767,129	46,59
767,312	-45,57
767,495	19,97
767,678	69,12
767,861	-2,56
768,044	-41,47
768,227	19,97
768,41	-66,05
768,593	13,82
768,776	46,59
768,959	-18,94
769,142	7,68
769,324	56,83
769,507	-20,99
769,69	22,02
769,873	-8,7
770,056	-18,94
770,239	-31,23
770,421	9,73
770,604	-31,23
770,787	-16,9
770,97	69,12
771,152	-27,14
771,335	19,97
771,518	-0,51
771,7	-45,57
771,883	28,16
772,066	-18,94
772,248	22,02
772,431	-0,51
772,613	-23,04
772,796	19,97
772,978	3,58
773,161	-23,04
773,343	-0,51
773,526	-35,33
773,708	1,54
773,891	-47,62
774,073	30,21
774,256	46,59
774,438	-16,9
774,621	-43,52
774,803	28,16
774,985	1,54
775,168	73,21
775,35	3,58
775,532	69,12
775,715	-35,33
775,897	42,5
776,079	73,21
776,261	-43,52
776,444	69,12
776,626	-16,9
776,808	-16,9
776,99	-135,68
777,173	11,78
777,355	30,21
777,537	-20,99
777,719	30,21
777,901	15,87
778,083	13,82
778,265	3,58
778,447	-23,04
778,629	-6,66
778,811	9,73
778,993	-45,57
779,175	-78,33
779,357	32,26
779,539	11,78
779,721	-47,62
779,903	-45,57
780,085	-12,8
780,267	-18,94
780,449	56,83
780,631	7,68
780,812	-10,75
780,994	-10,75
781,176	1,54
781,358	-59,9
781,54	-37,38
781,721	54,78
781,903	-51,71
782,085	17,92
782,267	-2,56
782,448	3,58
782,63	-10,75
782,812	65,02
782,993	-43,52
783,175	-10,75
783,357	1,54
783,538	-37,38
783,72	77,31
783,901	-0,51
784,083	65,02
784,264	-4,61
784,446	48,64
784,627	-10,75
784,809	-16,9
784,99	-0,51
785,172	-2,56
785,353	3,58
785,535	-12,8
785,716	-4,61
785,897	60,93
786,079	46,59
786,26	56,83
786,441	38,4
786,623	28,16
786,804	-88,57
786,985	11,78
787,167	28,16
787,348	-49,66
787,529	13,82
787,71	3,58
787,891	-20,99
788,073	3,58
788,254	-16,9
788,435	-59,9
788,616	36,35
788,797	-20,99
788,978	38,4
789,159	13,82
789,34	24,06
789,522	60,93
789,703	-4,61
789,884	-12,8
790,065	-43,52
790,246	60,93
790,427	54,78
790,607	-12,8
790,788	5,63
790,969	17,92
791,15	87,55
791,331	-14,85
791,512	17,92
791,693	-12,8
791,874	-2,56
792,054	-23,04
792,235	46,59
792,416	-23,04
792,597	26,11
792,778	9,73
792,958	-43,52
793,139	17,92
793,32	40,45
793,5	-37,38
793,681	-43,52
793,862	-47,62
794,042	-14,85
794,223	30,21
794,404	-8,7
794,584	-70,14
794,765	-20,99
794,945	-6,66
795,126	46,59
795,306	34,3
795,487	13,82
795,667	-33,28
795,848	40,45
796,028	-86,53
796,209	-18,94
796,389	13,82
796,57	30,21
796,75	5,63
796,93	24,06
797,111	11,78
797,291	3,58
797,471	-53,76
797,652	-29,18
797,832	-57,86
798,012	-0,51
798,192	-51,71
798,373	-76,29
798,553	9,73
798,733	28,16
798,913	19,97
799,093	-2,56
799,274	-31,23
799,454	-20,99
799,634	24,06
799,814	-35,33
799,994	3,58
800,174	38,4
800,354	-16,9
800,534	-37,38
800,714	-70,14
800,894	5,63
801,074	-14,85
801,254	-61,95
801,434	34,3
801,614	11,78
801,794	44,54
801,974	-12,8
802,154	15,87
802,334	44,54
802,514	-25,09
802,693	42,5
802,873	-35,33
803,053	-29,18
803,233	3,58
803,413	36,35
803,592	-4,61
803,772	13,82
803,952	-10,75
804,131	34,3
804,311	5,63
804,491	83,45
804,67	-70,14
804,85	15,87
805,03	17,92
805,209	15,87
805,389	-57,86
805,568	-4,61
805,748	-8,7
805,928	-20,99
806,107	-4,61
806,287	-12,8
806,466	22,02
806,646	-14,85
806,825	-41,47
807,004	60,93
807,184	19,97
807,363	5,63
807,543	-25,09
807,722	73,21
807,901	-23,04
808,081	-16,9
808,26	-18,94
808,439	30,21
808,619	-0,51
808,798	-16,9
808,977	9,73
809,156	62,98
809,336	-2,56
809,515	26,11
809,694	-4,61
809,873	11,78
810,052	-6,66
810,231	44,54
810,411	36,35
810,59	-10,75
810,769	24,06
810,948	-18,94
811,127	-37,38
811,306	-94,72
811,485	62,98
811,664	19,97
811,843	-23,04
812,022	-31,23
812,201	-49,66
812,38	9,73
812,559	-25,09
812,737	36,35
812,916	-68,09
813,095	22,02
813,274	-49,66
813,453	52,74
813,632	60,93
813,811	19,97
813,989	9,73
814,168	-59,9
814,347	-51,71
814,526	-49,66
814,704	7,68
814,883	-16,9
815,062	-20,99
815,24	52,74
815,419	44,54
815,598	-6,66
815,776	-37,38
815,955	11,78
816,133	-47,62
816,312	36,35
816,49	-109,05
816,669	79,36
816,847	-45,57
817,026	-0,51
817,204	40,45
817,383	7,68
817,561	15,87
817,74	-6,66
817,918	-39,42
818,097	-25,09
818,275	-18,94
818,453	5,63
818,632	5,63
818,81	-4,61
818,988	-12,8
819,167	-4,61
819,345	-6,66
819,523	-20,99
819,701	3,58
819,879	9,73
820,058	1,54
820,236	-8,7
820,414	40,45
820,592	5,63
820,77	-35,33
820,948	40,45
821,127	38,4
821,305	-18,94
821,483	-20,99
821,661	7,68
821,839	24,06
822,017	-29,18
822,195	-8,7
822,373	38,4
822,551	19,97
822,729	-45,57
822,907	5,63
823,085	-20,99
823,262	15,87
823,44	48,64
823,618	65,02
823,796	-66,05
823,974	28,16
824,152	-16,9
824,329	-20,99
824,507	19,97
824,685	15,87
824,863	-78,33
825,04	-8,7
825,218	71,17
825,396	-27,14
825,574	-16,9
825,751	15,87
825,929	38,4
826,107	11,78
826,284	17,92
826,462	5,63
826,639	11,78
826,817	-35,33
826,994	28,16
827,172	42,5
827,349	3,58
827,527	60,93
827,704	7,68
827,882	-45,57
828,059	-0,51
828,237	-16,9
828,414	-64
828,591	17,92
828,769	19,97
828,946	-0,51
829,124	28,16
829,301	60,93
829,478	-16,9
829,655	-12,8
829,833	15,87
830,01	-27,14
830,187	-51,71
830,364	19,97
830,542	-29,18
830,719	-31,23
830,896	-57,86
831,073	38,4
831,25	3,58
831,427	-0,51
831,604	-6,66
831,782	-35,33
831,959	48,64
832,136	-0,51
832,313	-14,85
832,49	-70,14
832,667	-16,9
832,844	7,68
833,021	-12,8
833,198	-57,86
833,374	-14,85
833,551	3,58
833,728	-18,94
833,905	-57,86
834,082	-68,09
834,259	-0,51
834,436	56,83
834,612	9,73
834,789	22,02
834,966	32,26
835,143	-2,56
835,319	-20,99
835,496	3,58
835,673	5,63
835,85	-29,18
836,026	-12,8
836,203	-29,18
836,38	36,35
836,556	-23,04
836,733	28,16
836,909	-70,14
837,086	-16,9
837,262	-35,33
837,439	40,45
837,616	11,78
837,792	-12,8
837,968	44,54
838,145	-51,71
838,321	24,06
838,498	-16,9
838,674	-12,8
838,851	48,64
839,027	44,54
839,203	-29,18
839,38	19,97
839,556	-51,71
839,732	-6,66
839,909	30,21
840,085	3,58
840,261	-6,66
840,437	-27,14
840,614	13,82
840,79	-8,7
840,966	-8,7
841,142	48,64
841,318	52,74
841,494	44,54
841,671	-27,14
841,847	-39,42
842,023	-33,28
842,199	7,68
842,375	-10,75
842,551	3,58
842,727	-66,05
842,903	-29,18
843,079	-18,94
843,255	-43,52
843,431	-4,61
843,607	-29,18
843,783	54,78
843,959	13,82
844,134	-8,7
844,31	-27,14
844,486	7,68
844,662	-0,51
844,838	38,4
845,013	-35,33
845,189	15,87
845,365	40,45
845,541	15,87
845,716	62,98
845,892	42,5
846,068	5,63
846,244	-31,23
846,419	-10,75
846,595	60,93
846,77	-29,18
846,946	-8,7
847,122	-12,8
847,297	-35,33
847,473	67,07
847,648	-33,28
847,824	26,11
847,999	-16,9
848,175	44,54
848,35	-61,95
848,526	-18,94
848,701	-10,75
848,876	5,63
849,052	-0,51
849,227	11,78
849,403	3,58
849,578	36,35
849,753	5,63
849,929	73,21
850,104	3,58
850,279	36,35
850,454	-20,99
850,63	13,82
850,805	-20,99
850,98	24,06
851,155	34,3
851,33	38,4
851,505	-4,61
851,681	38,4
851,856	-0,51
852,031	-31,23
852,206	-20,99
852,381	-59,9
852,556	-27,14
852,731	11,78
852,906	5,63
853,081	-2,56
853,256	-6,66
853,431	44,54
853,606	36,35
853,781	-39,42
853,956	-10,75
854,131	85,5
854,305	-4,61
854,48	3,58
854,655	38,4
854,83	-16,9
855,005	-31,23
855,18	79,36
855,354	-10,75
855,529	7,68
855,704	7,68
855,879	-33,28
856,053	-25,09
856,228	3,58
856,403	67,07
856,577	85,5
856,752	144,89
856,926	36,35
857,101	7,68
857,276	22,02
857,45	-37,38
857,625	28,16
857,799	17,92
857,974	50,69
858,148	-4,61
858,323	-20,99
858,497	-37,38
858,672	28,16
858,846	19,97
859,02	-43,52
859,195	-131,58
859,369	52,74
859,543	7,68
859,718	24,06
859,892	-43,52
860,066	3,58
860,241	40,45
860,415	-16,9
860,589	-4,61
860,763	46,59
860,938	101,89
861,112	69,12
861,286	-25,09
861,46	-35,33
861,634	11,78
861,808	-10,75
861,982	-39,42
862,157	28,16
862,331	-12,8
862,505	5,63
862,679	-78,33
862,853	-43,52
863,027	15,87
863,201	30,21
863,375	-37,38
863,549	-23,04
863,722	-27,14
863,896	-43,52
864,07	-10,75
864,244	30,21
864,418	-41,47
864,592	19,97
864,766	-70,14
864,939	11,78
865,113	62,98
865,287	-78,33
865,461	28,16
865,634	-29,18
865,808	-20,99
865,982	-4,61
866,156	-33,28
866,329	30,21
866,503	-4,61
866,676	24,06
866,85	-35,33
867,024	-29,18
867,197	-0,51
867,371	-18,94
867,544	-4,61
867,718	48,64
867,891	-10,75
868,065	7,68
868,238	-68,09
868,412	19,97
868,585	-4,61
868,759	-66,05
868,932	-12,8
869,105	5,63
869,279	-16,9
869,452	3,58
869,625	32,26
869,799	-49,66
869,972	11,78
870,145	-82,43
870,319	-76,29
870,492	3,58
870,665	-33,28
870,838	11,78
871,011	-8,7
871,185	69,12
871,358	32,26
871,531	42,5
871,704	11,78
871,877	26,11
872,05	1,54
872,223	-16,9
872,396	-92,67
872,569	19,97
872,742	19,97
872,915	56,83
873,088	-0,51
873,261	13,82
873,434	46,59
873,607	79,36
873,78	-29,18
873,953	-14,85
874,126	44,54
874,299	-4,61
874,471	-29,18
874,644	-66,05
874,817	3,58
874,99	-2,56
875,163	-16,9
875,335	-72,19
875,508	-53,76
875,681	-25,09
875,853	56,83
876,026	-0,51
876,199	-45,57
876,371	36,35
876,544	-68,09
876,717	-39,42
876,889	44,54
877,062	79,36
877,234	-12,8
877,407	-45,57
877,579	5,63
877,752	-4,61
877,924	-20,99
878,097	40,45
878,269	48,64
878,442	13,82
878,614	-37,38
878,786	17,92
878,959	-27,14
879,131	-0,51
879,303	-82,43
879,476	-29,18
879,648	-43,52
879,82	7,68
879,993	65,02
880,165	-18,94
880,337	-10,75
880,509	-10,75
880,681	52,74
880,854	40,45
881,026	5,63
881,198	-33,28
881,37	60,93
881,542	44,54
881,714	-37,38
881,886	26,11
882,058	-4,61
882,23	73,21
882,402	5,63
882,574	30,21
882,746	26,11
882,918	48,64
883,09	-8,7
883,262	-4,61
883,434	50,69
883,606	22,02
883,778	46,59
883,95	-6,66
884,122	69,12
884,293	30,21
884,465	-27,14
884,637	30,21
884,809	-8,7
884,98	17,92
885,152	-2,56
885,324	62,98
885,496	19,97
885,667	19,97
885,839	65,02
886,011	54,78
886,182	11,78
886,354	7,68
886,525	36,35
886,697	48,64
886,869	-4,61
887,04	5,63
887,212	-51,71
887,383	5,63
887,555	-43,52
887,726	46,59
887,897	11,78
888,069	28,16
888,24	1,54
888,412	60,93
888,583	-14,85
888,754	52,74
888,926	-43,52
889,097	-18,94
889,268	-61,95
889,44	32,26
889,611	-61,95
889,782	62,98
889,953	32,26
890,125	-6,66
890,296	-20,99
890,467	52,74
890,638	-25,09
890,809	89,6
890,98	-35,33
891,151	42,5
891,323	36,35
891,494	-33,28
891,665	36,35
891,836	-20,99
892,007	-10,75
892,178	5,63
892,349	-4,61
892,52	-78,33
892,691	5,63
892,862	-4,61
893,032	48,64
893,203	38,4
893,374	-14,85
893,545	17,92
893,716	-29,18
893,887	-8,7
894,057	-4,61
894,228	40,45
894,399	-29,18
894,57	19,97
894,74	42,5
894,911	15,87
895,082	19,97
895,253	11,78
895,423	-55,81
895,594	-41,47
895,764	-59,9
895,935	7,68
896,106	-37,38
896,276	48,64
896,447	-25,09
896,617	13,82
896,788	60,93
896,958	9,73
897,129	42,5
897,299	38,4
897,47	-53,76
897,64	-25,09
897,81	1,54
897,981	71,17
898,151	-16,9
898,322	89,6
898,492	-29,18
898,662	28,16
898,832	-6,66
899,003	-25,09
899,173	-41,47
899,343	54,78
899,513	-43,52
