Data from filtre 577_USB4F104151__9__12-00-10-779.txt Node

Date: Wed Apr 15 12:00:10 EDT 2026
User: LaboPhy
Spectrometer: USB4F10415
Trigger mode: 4
Integration Time (sec): 2,000000E-3
Scans to average: 1
Electric dark correction enabled: true
Nonlinearity correction enabled: false
Boxcar width: 0
XAxis mode: Wavelengths
Number of Pixels in Spectrum: 3648
>>>>>Begin Spectral Data<<<<<
178,204	16,55
178,424	16,55
178,644	16,55
178,864	12,46
179,084	-46,93
179,304	-63,32
179,524	-28,5
179,744	-12,12
179,964	-5,97
180,184	2,22
180,404	18,6
180,624	10,41
180,844	16,55
181,064	0,17
181,283	41,13
181,503	20,65
181,723	0,17
181,943	-46,93
182,163	65,71
182,383	-79,7
182,602	-77,65
182,822	28,84
183,042	43,18
183,262	-3,93
183,482	-3,93
183,701	32,94
183,921	-8,02
184,141	8,36
184,361	-28,5
184,58	-40,79
184,8	-24,4
185,02	63,66
185,239	73,9
185,459	-20,31
185,679	-46,93
185,898	-10,07
186,118	30,89
186,338	-5,97
186,557	-3,93
186,777	-14,17
186,997	-57,17
187,216	-46,93
187,436	-26,45
187,655	-10,07
187,875	-57,17
188,095	-16,21
188,314	32,94
188,534	63,66
188,753	-16,21
188,973	-57,17
189,192	-30,55
189,412	86,19
189,631	-40,79
189,851	-12,12
190,07	69,8
190,29	32,94
190,509	57,51
190,729	-16,21
190,948	57,51
191,168	10,41
191,387	20,65
191,607	49,32
191,826	6,31
192,045	10,41
192,265	6,31
192,484	57,51
192,704	24,75
192,923	47,27
193,142	0,17
193,362	-28,5
193,581	24,75
193,8	-24,4
194,02	59,56
194,239	-40,79
194,458	-22,36
194,678	24,75
194,897	37,03
195,116	26,79
195,335	18,6
195,555	49,32
195,774	-16,21
195,993	-96,08
196,212	73,9
196,432	-16,21
196,651	0,17
196,87	8,36
197,089	-42,84
197,308	73,9
197,528	-32,6
197,747	2,22
197,966	-5,97
198,185	34,99
198,404	6,31
198,623	2,22
198,842	22,7
199,062	2,22
199,281	8,36
199,5	-81,75
199,719	-87,89
199,938	34,99
200,157	18,6
200,376	-32,6
200,595	45,23
200,814	2,22
201,033	-10,07
201,252	-8,02
201,471	16,55
201,69	18,6
201,909	2,22
202,128	2,22
202,347	-12,12
202,566	-65,36
202,785	-10,07
203,004	4,27
203,223	73,9
203,442	-28,5
203,661	24,75
203,879	20,65
204,098	41,13
204,317	-24,4
204,536	-3,93
204,755	-5,97
204,974	43,18
205,193	0,17
205,411	28,84
205,63	-40,79
205,849	-5,97
206,068	4,27
206,287	-8,02
206,505	-8,02
206,724	32,94
206,943	10,41
207,162	20,65
207,381	8,36
207,599	26,79
207,818	24,75
208,037	-16,21
208,255	-40,79
208,474	57,51
208,693	-46,93
208,911	32,94
209,13	-5,97
209,349	71,85
209,567	30,89
209,786	4,27
210,005	-16,21
210,223	16,55
210,442	51,37
210,661	-12,12
210,879	49,32
211,098	22,7
211,316	-26,45
211,535	41,13
211,753	8,36
211,972	4,27
212,191	18,6
212,409	-24,4
212,628	26,79
212,846	12,46
213,065	-20,31
213,283	24,75
213,502	10,41
213,72	-5,97
213,938	-46,93
214,157	20,65
214,375	22,7
214,594	10,41
214,812	80,04
215,031	45,23
215,249	-1,88
215,467	-30,55
215,686	-55,12
215,904	26,79
216,122	-14,17
216,341	-10,07
216,559	84,14
216,778	-73,56
216,996	14,51
217,214	10,41
217,432	82,09
217,651	0,17
217,869	-42,84
218,087	73,9
218,306	-28,5
218,524	0,17
218,742	10,41
218,96	4,27
219,179	-14,17
219,397	73,9
219,615	24,75
219,833	0,17
220,051	34,99
220,27	-53,08
220,488	4,27
220,706	51,37
220,924	0,17
221,142	-28,5
221,36	8,36
221,578	-22,36
221,796	55,47
222,015	57,51
222,233	30,89
222,451	-3,93
222,669	-24,4
222,887	-32,6
223,105	22,7
223,323	-30,55
223,541	-40,79
223,759	-26,45
223,977	45,23
224,195	32,94
224,413	-14,17
224,631	20,65
224,849	2,22
225,067	82,09
225,285	0,17
225,503	26,79
225,721	-61,27
225,939	-10,07
226,157	-28,5
226,375	-48,98
226,592	-73,56
226,81	43,18
227,028	-36,69
227,246	90,28
227,464	-24,4
227,682	57,51
227,9	24,75
228,117	-10,07
228,335	-8,02
228,553	2,22
228,771	-24,4
228,989	26,79
229,206	16,55
229,424	20,65
229,642	57,51
229,86	61,61
230,077	121
230,295	-30,55
230,513	4,27
230,731	67,75
230,948	18,6
231,166	61,61
231,384	-8,02
231,601	-8,02
231,819	-14,17
232,037	32,94
232,254	34,99
232,472	-48,98
232,689	28,84
232,907	-16,21
233,125	2,22
233,342	18,6
233,56	53,42
233,777	10,41
233,995	-3,93
234,213	-24,4
234,43	-24,4
234,648	49,32
234,865	-8,02
235,083	63,66
235,3	-5,97
235,518	-18,26
235,735	61,61
235,953	32,94
236,17	-5,97
236,388	-48,98
236,605	-5,97
236,822	53,42
237,04	6,31
237,257	12,46
237,475	8,36
237,692	-3,93
237,909	28,84
238,127	6,31
238,344	24,75
238,562	43,18
238,779	-32,6
238,996	-22,36
239,214	57,51
239,431	34,99
239,648	82,09
239,865	24,75
240,083	14,51
240,3	24,75
240,517	0,17
240,735	16,55
240,952	-18,26
241,169	32,94
241,386	-1,88
241,603	-48,98
241,821	0,17
242,038	12,46
242,255	69,8
242,472	-5,97
242,689	-1,88
242,907	24,75
243,124	-8,02
243,341	-3,93
243,558	61,61
243,775	8,36
243,992	-30,55
244,209	24,75
244,426	-34,64
244,643	55,47
244,86	-40,79
245,078	51,37
245,295	53,42
245,512	-48,98
245,729	8,36
245,946	43,18
246,163	-22,36
246,38	34,99
246,597	-12,12
246,814	28,84
247,031	24,75
247,248	98,47
247,464	59,56
247,681	49,32
247,898	-65,36
248,115	34,99
248,332	0,17
248,549	-16,21
248,766	-30,55
248,983	71,85
249,2	-40,79
249,417	-40,79
249,633	-32,6
249,85	24,75
250,067	-16,21
250,284	75,95
250,501	67,75
250,717	12,46
250,934	-8,02
251,151	110,76
251,368	16,55
251,585	4,27
251,801	22,7
252,018	24,75
252,235	12,46
252,451	-18,26
252,668	-16,21
252,885	2,22
253,102	45,23
253,318	-22,36
253,535	90,28
253,752	-34,64
253,968	-22,36
254,185	26,79
254,401	18,6
254,618	51,37
254,835	-36,69
255,051	-102,23
255,268	2,22
255,484	-57,17
255,701	0,17
255,917	32,94
256,134	8,36
256,351	-3,93
256,567	-22,36
256,784	26,79
257	16,55
257,217	61,61
257,433	2,22
257,65	-10,07
257,866	16,55
258,082	-28,5
258,299	4,27
258,515	-48,98
258,732	-79,7
258,948	30,89
259,165	-20,31
259,381	14,51
259,597	49,32
259,814	-22,36
260,03	-65,36
260,246	61,61
260,463	49,32
260,679	8,36
260,895	-14,17
261,112	-1,88
261,328	0,17
261,544	121
261,761	20,65
261,977	-30,55
262,193	-28,5
262,409	61,61
262,626	-30,55
262,842	59,56
263,058	92,33
263,274	-22,36
263,49	24,75
263,707	32,94
263,923	37,03
264,139	32,94
264,355	-18,26
264,571	-32,6
264,787	-40,79
265,004	8,36
265,22	34,99
265,436	-40,79
265,652	-1,88
265,868	0,17
266,084	-5,97
266,3	2,22
266,516	-8,02
266,732	16,55
266,948	12,46
267,164	-32,6
267,38	-42,84
267,596	45,23
267,812	-26,45
268,028	-26,45
268,244	45,23
268,46	-44,88
268,676	-12,12
268,892	61,61
269,108	14,51
269,324	16,55
269,54	-3,93
269,756	-14,17
269,972	45,23
270,188	61,61
270,403	-63,32
270,619	-3,93
270,835	16,55
271,051	65,71
271,267	55,47
271,483	-22,36
271,698	6,31
271,914	51,37
272,13	-5,97
272,346	-1,88
272,562	32,94
272,777	28,84
272,993	39,08
273,209	41,13
273,425	16,55
273,64	-12,12
273,856	20,65
274,072	8,36
274,287	24,75
274,503	-3,93
274,719	-3,93
274,934	26,79
275,15	20,65
275,366	20,65
275,581	8,36
275,797	-8,02
276,012	32,94
276,228	41,13
276,444	24,75
276,659	80,04
276,875	6,31
277,09	20,65
277,306	18,6
277,521	0,17
277,737	0,17
277,952	8,36
278,168	22,7
278,383	-26,45
278,599	49,32
278,814	24,75
279,03	20,65
279,245	-22,36
279,461	-12,12
279,676	51,37
279,892	39,08
280,107	47,27
280,322	-20,31
280,538	28,84
280,753	-48,98
280,969	65,71
281,184	16,55
281,399	-22,36
281,615	59,56
281,83	-34,64
282,045	-8,02
282,26	4,27
282,476	-48,98
282,691	65,71
282,906	-36,69
283,122	18,6
283,337	-20,31
283,552	12,46
283,767	2,22
283,983	4,27
284,198	18,6
284,413	-42,84
284,628	16,55
284,843	12,46
285,058	-20,31
285,274	61,61
285,489	10,41
285,704	18,6
285,919	8,36
286,134	0,17
286,349	49,32
286,564	-32,6
286,779	-14,17
286,995	-3,93
287,21	-14,17
287,425	51,37
287,64	-69,46
287,855	12,46
288,07	10,41
288,285	-26,45
288,5	30,89
288,715	-10,07
288,93	20,65
289,145	-5,97
289,36	-32,6
289,575	-28,5
289,79	16,55
290,004	26,79
290,219	-1,88
290,434	12,46
290,649	-24,4
290,864	-8,02
291,079	39,08
291,294	-38,74
291,509	86,19
291,724	61,61
291,938	-48,98
292,153	98,47
292,368	69,8
292,583	26,79
292,798	43,18
293,012	16,55
293,227	8,36
293,442	4,27
293,657	-24,4
293,871	32,94
294,086	2,22
294,301	14,51
294,516	0,17
294,73	-30,55
294,945	80,04
295,16	18,6
295,374	-1,88
295,589	22,7
295,804	0,17
296,018	8,36
296,233	-24,4
296,447	39,08
296,662	-16,21
296,877	88,23
297,091	26,79
297,306	-5,97
297,52	-24,4
297,735	16,55
297,949	28,84
298,164	-8,02
298,378	47,27
298,593	37,03
298,807	10,41
299,022	41,13
299,236	0,17
299,451	-32,6
299,665	69,8
299,88	-36,69
300,094	32,94
300,309	49,32
300,523	-5,97
300,737	-65,36
300,952	39,08
301,166	-57,17
301,381	-20,31
301,595	16,55
301,809	-53,08
302,024	106,67
302,238	24,75
302,452	-16,21
302,667	20,65
302,881	47,27
303,095	-20,31
303,309	-38,74
303,524	-42,84
303,738	14,51
303,952	37,03
304,166	45,23
304,381	8,36
304,595	-14,17
304,809	80,04
305,023	-14,17
305,237	12,46
305,452	-61,27
305,666	-20,31
305,88	20,65
306,094	-30,55
306,308	8,36
306,522	57,51
306,736	37,03
306,95	55,47
307,164	-14,17
307,379	4,27
307,593	45,23
307,807	6,31
308,021	4,27
308,235	2,22
308,449	22,7
308,663	-1,88
308,877	2,22
309,091	-3,93
309,305	-10,07
309,519	-55,12
309,733	-5,97
309,947	12,46
310,161	57,51
310,374	82,09
310,588	20,65
310,802	6,31
311,016	2,22
311,23	51,37
311,444	32,94
311,658	-5,97
311,872	4,27
312,085	26,79
312,299	10,41
312,513	-22,36
312,727	-14,17
312,941	18,6
313,154	-8,02
313,368	51,37
313,582	18,6
313,796	57,51
314,009	84,14
314,223	18,6
314,437	-22,36
314,651	12,46
314,864	22,7
315,078	57,51
315,292	114,86
315,505	-3,93
315,719	16,55
315,933	22,7
316,146	-65,36
316,36	-3,93
316,573	-16,21
316,787	-8,02
317,001	22,7
317,214	-24,4
317,428	-63,32
317,641	24,75
317,855	-14,17
318,068	-44,88
318,282	-51,03
318,495	4,27
318,709	32,94
318,922	59,56
319,136	18,6
319,349	-24,4
319,563	57,51
319,776	57,51
319,99	-38,74
320,203	-48,98
320,417	53,42
320,63	-20,31
320,843	-44,88
321,057	-8,02
321,27	59,56
321,483	-22,36
321,697	18,6
321,91	-48,98
322,124	41,13
322,337	-5,97
322,55	-57,17
322,763	8,36
322,977	53,42
323,19	16,55
323,403	51,37
323,617	2,22
323,83	34,99
324,043	-22,36
324,256	18,6
324,469	28,84
324,683	59,56
324,896	22,7
325,109	41,13
325,322	37,03
325,535	8,36
325,748	-48,98
325,962	16,55
326,175	8,36
326,388	51,37
326,601	24,75
326,814	22,7
327,027	-10,07
327,24	22,7
327,453	-65,36
327,666	-38,74
327,879	43,18
328,092	59,56
328,305	-44,88
328,518	0,17
328,731	-32,6
328,944	-20,31
329,157	14,51
329,37	-32,6
329,583	12,46
329,796	8,36
330,009	41,13
330,222	20,65
330,435	-16,21
330,648	10,41
330,861	32,94
331,073	32,94
331,286	-24,4
331,499	16,55
331,712	-22,36
331,925	82,09
332,138	86,19
332,35	-5,97
332,563	6,31
332,776	16,55
332,989	63,66
333,202	-10,07
333,414	-8,02
333,627	-81,75
333,84	-3,93
334,053	77,99
334,265	-20,31
334,478	10,41
334,691	0,17
334,903	73,9
335,116	4,27
335,329	57,51
335,541	2,22
335,754	49,32
335,966	69,8
336,179	-14,17
336,392	-24,4
336,604	6,31
336,817	-5,97
337,029	8,36
337,242	45,23
337,454	51,37
337,667	-24,4
337,88	82,09
338,092	-18,26
338,305	16,55
338,517	14,51
338,729	-42,84
338,942	34,99
339,154	75,95
339,367	73,9
339,579	10,41
339,792	10,41
340,004	-55,12
340,217	4,27
340,429	32,94
340,641	8,36
340,854	16,55
341,066	-36,69
341,278	37,03
341,491	-10,07
341,703	28,84
341,915	-20,31
342,128	2,22
342,34	18,6
342,552	-53,08
342,764	-16,21
342,977	26,79
343,189	-24,4
343,401	4,27
343,613	24,75
343,826	-36,69
344,038	0,17
344,25	-42,84
344,462	20,65
344,674	4,27
344,886	32,94
345,099	32,94
345,311	-5,97
345,523	-32,6
345,735	-38,74
345,947	-28,5
346,159	-32,6
346,371	63,66
346,583	-48,98
346,795	-28,5
347,007	-10,07
347,219	4,27
347,431	10,41
347,643	49,32
347,855	-24,4
348,067	8,36
348,279	-32,6
348,491	24,75
348,703	0,17
348,915	22,7
349,127	-16,21
349,339	41,13
349,551	0,17
349,763	18,6
349,975	41,13
350,187	53,42
350,399	10,41
350,61	30,89
350,822	16,55
351,034	10,41
351,246	-44,88
351,458	-8,02
351,669	-32,6
351,881	49,32
352,093	-24,4
352,305	59,56
352,517	-46,93
352,728	-3,93
352,94	-40,79
353,152	-28,5
353,363	-36,69
353,575	14,51
353,787	-65,36
353,999	-5,97
354,21	-20,31
354,422	2,22
354,633	20,65
354,845	-3,93
355,057	0,17
355,268	4,27
355,48	65,71
355,692	-18,26
355,903	-44,88
356,115	61,61
356,326	12,46
356,538	69,8
356,749	-16,21
356,961	-10,07
357,172	30,89
357,384	67,75
357,595	53,42
357,807	37,03
358,018	-73,56
358,23	-8,02
358,441	53,42
358,653	16,55
358,864	16,55
359,075	28,84
359,287	-44,88
359,498	4,27
359,709	14,51
359,921	8,36
360,132	41,13
360,344	55,47
360,555	-28,5
360,766	-81,75
360,977	-30,55
361,189	41,13
361,4	41,13
361,611	-12,12
361,823	55,47
362,034	28,84
362,245	6,31
362,456	28,84
362,667	16,55
362,879	45,23
363,09	2,22
363,301	-16,21
363,512	32,94
363,723	16,55
363,935	4,27
364,146	-18,26
364,357	-28,5
364,568	-10,07
364,779	26,79
364,99	0,17
365,201	-8,02
365,412	-10,07
365,623	-59,22
365,834	18,6
366,045	-3,93
366,256	16,55
366,467	-5,97
366,678	-65,36
366,889	-16,21
367,1	-32,6
367,311	82,09
367,522	18,6
367,733	-38,74
367,944	-10,07
368,155	-46,93
368,366	10,41
368,577	-69,46
368,788	-38,74
368,999	32,94
369,209	28,84
369,42	-57,17
369,631	2,22
369,842	22,7
370,053	32,94
370,264	12,46
370,474	32,94
370,685	45,23
370,896	73,9
371,107	-26,45
371,317	39,08
371,528	49,32
371,739	22,7
371,95	-65,36
372,16	18,6
372,371	26,79
372,582	2,22
372,792	-22,36
373,003	24,75
373,214	61,61
373,424	8,36
373,635	6,31
373,846	-5,97
374,056	65,71
374,267	10,41
374,477	-24,4
374,688	2,22
374,898	-22,36
375,109	-10,07
375,319	2,22
375,53	-5,97
375,74	4,27
375,951	-5,97
376,161	-36,69
376,372	41,13
376,582	43,18
376,793	53,42
377,003	8,36
377,214	-46,93
377,424	-12,12
377,635	8,36
377,845	-10,07
378,055	32,94
378,266	-22,36
378,476	-73,56
378,686	-10,07
378,897	8,36
379,107	-79,7
379,317	-53,08
379,528	-5,97
379,738	26,79
379,948	-14,17
380,158	47,27
380,369	-32,6
380,579	2,22
380,789	-73,56
380,999	-8,02
381,21	34,99
381,42	-12,12
381,63	-16,21
381,84	32,94
382,05	-12,12
382,261	53,42
382,471	20,65
382,681	-32,6
382,891	-8,02
383,101	16,55
383,311	-26,45
383,521	-28,5
383,731	6,31
383,941	10,41
384,151	-16,21
384,361	4,27
384,571	8,36
384,781	-8,02
384,991	-30,55
385,201	-3,93
385,411	16,55
385,621	-3,93
385,831	10,41
386,041	4,27
386,251	-46,93
386,461	24,75
386,671	0,17
386,881	4,27
387,091	32,94
387,301	26,79
387,511	2,22
387,72	2,22
387,93	32,94
388,14	28,84
388,35	59,56
388,56	61,61
388,769	-22,36
388,979	24,75
389,189	-46,93
389,399	69,8
389,609	-57,17
389,818	-3,93
390,028	26,79
390,238	32,94
390,447	28,84
390,657	-24,4
390,867	-28,5
391,076	-89,94
391,286	51,37
391,496	6,31
391,705	26,79
391,915	43,18
392,125	12,46
392,334	32,94
392,544	18,6
392,753	41,13
392,963	12,46
393,172	-12,12
393,382	12,46
393,591	59,56
393,801	0,17
394,01	-28,5
394,22	10,41
394,429	45,23
394,639	-36,69
394,848	-48,98
395,058	45,23
395,267	2,22
395,477	-18,26
395,686	-8,02
395,895	49,32
396,105	-16,21
396,314	-98,13
396,524	39,08
396,733	47,27
396,942	49,32
397,152	18,6
397,361	16,55
397,57	0,17
397,78	67,75
397,989	18,6
398,198	-32,6
398,407	-20,31
398,617	-3,93
398,826	-32,6
399,035	-55,12
399,244	34,99
399,453	51,37
399,663	-12,12
399,872	18,6
400,081	-5,97
400,29	-10,07
400,499	-55,12
400,708	49,32
400,917	28,84
401,127	-40,79
401,336	26,79
401,545	-14,17
401,754	55,47
401,963	20,65
402,172	10,41
402,381	-22,36
402,59	-57,17
402,799	32,94
403,008	18,6
403,217	57,51
403,426	-8,02
403,635	16,55
403,844	-22,36
404,053	-22,36
404,262	-1,88
404,471	39,08
404,68	-26,45
404,888	4,27
405,097	-42,84
405,306	-8,02
405,515	-14,17
405,724	32,94
405,933	43,18
406,142	-12,12
406,35	-18,26
406,559	34,99
406,768	45,23
406,977	-5,97
407,185	14,51
407,394	-14,17
407,603	20,65
407,812	41,13
408,02	-40,79
408,229	75,95
408,438	-71,51
408,646	-8,02
408,855	26,79
409,064	39,08
409,272	12,46
409,481	-12,12
409,69	24,75
409,898	-71,51
410,107	22,7
410,315	16,55
410,524	16,55
410,733	32,94
410,941	-16,21
411,15	90,28
411,358	2,22
411,567	24,75
411,775	18,6
411,984	37,03
412,192	45,23
412,401	-8,02
412,609	-3,93
412,818	65,71
413,026	-40,79
413,234	24,75
413,443	4,27
413,651	-63,32
413,86	16,55
414,068	57,51
414,276	34,99
414,485	-14,17
414,693	-14,17
414,901	-1,88
415,11	37,03
415,318	43,18
415,526	-14,17
415,734	-22,36
415,943	47,27
416,151	24,75
416,359	-61,27
416,567	0,17
416,776	-22,36
416,984	47,27
417,192	-1,88
417,4	49,32
417,608	39,08
417,817	30,89
418,025	-30,55
418,233	53,42
418,441	22,7
418,649	8,36
418,857	-3,93
419,065	49,32
419,273	-8,02
419,481	32,94
419,689	12,46
419,897	18,6
420,105	59,56
420,313	2,22
420,521	30,89
420,729	26,79
420,937	45,23
421,145	-46,93
421,353	-16,21
421,561	6,31
421,769	34,99
421,977	57,51
422,185	-44,88
422,393	12,46
422,601	8,36
422,809	32,94
423,017	-1,88
423,224	67,75
423,432	16,55
423,64	12,46
423,848	-5,97
424,056	43,18
424,263	-24,4
424,471	-16,21
424,679	-55,12
424,887	0,17
425,094	-42,84
425,302	18,6
425,51	12,46
425,718	32,94
425,925	-61,27
426,133	80,04
426,341	24,75
426,548	-5,97
426,756	-40,79
426,964	67,75
427,171	-24,4
427,379	26,79
427,586	-16,21
427,794	4,27
428,001	26,79
428,209	-42,84
428,417	16,55
428,624	92,33
428,832	-40,79
429,039	-12,12
429,247	-16,21
429,454	30,89
429,662	30,89
429,869	4,27
430,076	-8,02
430,284	37,03
430,491	4,27
430,699	-8,02
430,906	-16,21
431,114	-3,93
431,321	-30,55
431,528	-16,21
431,736	-69,46
431,943	43,18
432,15	12,46
432,358	-16,21
432,565	-85,84
432,772	-5,97
432,979	-24,4
433,187	12,46
433,394	26,79
433,601	14,51
433,808	55,47
434,016	-3,93
434,223	20,65
434,43	73,9
434,637	41,13
434,844	30,89
435,052	-20,31
435,259	-18,26
435,466	-16,21
435,673	18,6
435,88	16,55
436,087	4,27
436,294	-32,6
436,501	-16,21
436,708	26,79
436,915	30,89
437,122	-28,5
437,329	-38,74
437,537	26,79
437,743	12,46
437,95	8,36
438,157	84,14
438,364	-40,79
438,571	57,51
438,778	73,9
438,985	24,75
439,192	-3,93
439,399	-12,12
439,606	-53,08
439,813	30,89
440,02	32,94
440,227	-20,31
440,433	-53,08
440,64	51,37
440,847	-24,4
441,054	-3,93
441,261	20,65
441,467	24,75
441,674	32,94
441,881	14,51
442,088	28,84
442,294	4,27
442,501	22,7
442,708	59,56
442,914	-8,02
443,121	57,51
443,328	57,51
443,534	4,27
443,741	-22,36
443,948	-5,97
444,154	-71,51
444,361	18,6
444,568	26,79
444,774	-14,17
444,981	-3,93
445,187	-40,79
445,394	49,32
445,6	12,46
445,807	69,8
446,013	-44,88
446,22	32,94
446,426	45,23
446,633	18,6
446,839	43,18
447,046	20,65
447,252	-55,12
447,459	24,75
447,665	10,41
447,871	18,6
448,078	32,94
448,284	-1,88
448,491	28,84
448,697	34,99
448,903	-8,02
449,11	-40,79
449,316	-22,36
449,522	-24,4
449,728	-22,36
449,935	16,55
450,141	-10,07
450,347	-32,6
450,553	41,13
450,76	24,75
450,966	45,23
451,172	-3,93
451,378	61,61
451,584	92,33
451,791	-63,32
451,997	16,55
452,203	12,46
452,409	2,22
452,615	10,41
452,821	-8,02
453,027	6,31
453,233	10,41
453,44	43,18
453,646	-42,84
453,852	-24,4
454,058	53,42
454,264	69,8
454,47	16,55
454,676	20,65
454,882	-36,69
455,088	-53,08
455,294	18,6
455,5	24,75
455,705	-32,6
455,911	6,31
456,117	-3,93
456,323	20,65
456,529	12,46
456,735	6,31
456,941	-14,17
457,147	-16,21
457,352	51,37
457,558	8,36
457,764	-81,75
457,97	-24,4
458,176	24,75
458,381	10,41
458,587	24,75
458,793	41,13
458,999	8,36
459,204	24,75
459,41	-36,69
459,616	8,36
459,821	-14,17
460,027	2,22
460,233	32,94
460,438	12,46
460,644	24,75
460,85	-83,8
461,055	-5,97
461,261	-40,79
461,466	49,32
461,672	0,17
461,878	-40,79
462,083	24,75
462,289	14,51
462,494	30,89
462,7	82,09
462,905	53,42
463,111	-32,6
463,316	65,71
463,522	24,75
463,727	69,8
463,932	-12,12
464,138	-20,31
464,343	-12,12
464,549	37,03
464,754	-16,21
464,959	98,47
465,165	-16,21
465,37	0,17
465,575	-55,12
465,781	24,75
465,986	24,75
466,191	30,89
466,397	88,23
466,602	-14,17
466,807	34,99
467,012	-26,45
467,218	-75,6
467,423	-20,31
467,628	-24,4
467,833	0,17
468,038	-18,26
468,244	12,46
468,449	65,71
468,654	-1,88
468,859	32,94
469,064	41,13
469,269	41,13
469,474	59,56
469,679	8,36
469,885	8,36
470,09	55,47
470,295	-30,55
470,5	-57,17
470,705	77,99
470,91	8,36
471,115	43,18
471,32	8,36
471,525	47,27
471,73	28,84
471,935	-12,12
472,139	6,31
472,344	-98,13
472,549	41,13
472,754	12,46
472,959	-10,07
473,164	37,03
473,369	-1,88
473,574	-18,26
473,778	-44,88
473,983	-20,31
474,188	8,36
474,393	43,18
474,598	32,94
474,802	-14,17
475,007	2,22
475,212	49,32
475,417	34,99
475,621	43,18
475,826	-24,4
476,031	-1,88
476,235	-26,45
476,44	-20,31
476,645	-16,21
476,849	86,19
477,054	-24,4
477,259	32,94
477,463	8,36
477,668	65,71
477,872	-5,97
478,077	-5,97
478,282	82,09
478,486	12,46
478,691	-26,45
478,895	-8,02
479,1	32,94
479,304	28,84
479,509	49,32
479,713	-8,02
479,918	-3,93
480,122	-3,93
480,326	32,94
480,531	-32,6
480,735	-46,93
480,94	-12,12
481,144	22,7
481,348	41,13
481,553	-24,4
481,757	61,61
481,961	-61,27
482,166	39,08
482,37	12,46
482,574	-85,84
482,778	61,61
482,983	-1,88
483,187	-44,88
483,391	65,71
483,595	86,19
483,8	18,6
484,004	10,41
484,208	24,75
484,412	0,17
484,616	61,61
484,821	18,6
485,025	108,71
485,229	-32,6
485,433	22,7
485,637	-8,02
485,841	4,27
486,045	30,89
486,249	-32,6
486,453	10,41
486,657	8,36
486,861	-57,17
487,065	-8,02
487,269	37,03
487,473	-57,17
487,677	18,6
487,881	32,94
488,085	-10,07
488,289	24,75
488,493	-8,02
488,697	-55,12
488,901	24,75
489,105	26,79
489,309	-24,4
489,512	51,37
489,716	10,41
489,92	18,6
490,124	-5,97
490,328	24,75
490,531	-16,21
490,735	10,41
490,939	-42,84
491,143	-26,45
491,346	49,32
491,55	-55,12
491,754	-3,93
491,958	4,27
492,161	-34,64
492,365	39,08
492,569	-5,97
492,772	0,17
492,976	-30,55
493,18	82,09
493,383	-61,27
493,587	51,37
493,79	-12,12
493,994	-48,98
494,197	75,95
494,401	12,46
494,605	4,27
494,808	6,31
495,012	67,75
495,215	-14,17
495,419	-26,45
495,622	73,9
495,825	-32,6
496,029	-16,21
496,232	-12,12
496,436	-12,12
496,639	-24,4
496,843	-51,03
497,046	4,27
497,249	37,03
497,453	22,7
497,656	12,46
497,859	-46,93
498,063	45,23
498,266	-22,36
498,469	12,46
498,673	-3,93
498,876	12,46
499,079	59,56
499,282	8,36
499,485	67,75
499,689	4,27
499,892	32,94
500,095	14,51
500,298	-36,69
500,501	8,36
500,705	4,27
500,908	-12,12
501,111	-1,88
501,314	41,13
501,517	0,17
501,72	61,61
501,923	-40,79
502,126	-22,36
502,329	63,66
502,532	12,46
502,735	-69,46
502,938	41,13
503,141	32,94
503,344	-40,79
503,547	-26,45
503,75	32,94
503,953	-1,88
504,156	34,99
504,359	14,51
504,562	-40,79
504,765	-3,93
504,968	-3,93
505,17	-8,02
505,373	67,75
505,576	16,55
505,779	73,9
505,982	10,41
506,185	-32,6
506,387	65,71
506,59	8,36
506,793	14,51
506,996	4,27
507,198	30,89
507,401	-14,17
507,604	-28,5
507,807	69,8
508,009	37,03
508,212	-34,64
508,415	28,84
508,617	-10,07
508,82	-40,79
509,022	20,65
509,225	37,03
509,428	-44,88
509,63	28,84
509,833	49,32
510,035	14,51
510,238	24,75
510,44	-16,21
510,643	-32,6
510,845	8,36
511,048	-5,97
511,25	14,51
511,453	28,84
511,655	-48,98
511,858	2,22
512,06	71,85
512,262	49,32
512,465	49,32
512,667	-51,03
512,87	-51,03
513,072	49,32
513,274	10,41
513,477	49,32
513,679	55,47
513,881	-16,21
514,084	-1,88
514,286	-12,12
514,488	-44,88
514,69	41,13
514,893	10,41
515,095	-73,56
515,297	-22,36
515,499	-12,12
515,701	-22,36
515,904	24,75
516,106	-16,21
516,308	-65,36
516,51	-69,46
516,712	-51,03
516,914	57,51
517,116	34,99
517,318	-16,21
517,52	16,55
517,722	12,46
517,925	49,32
518,127	57,51
518,329	16,55
518,531	-40,79
518,733	-32,6
518,935	-57,17
519,136	28,84
519,338	-3,93
519,54	2,22
519,742	-1,88
519,944	-16,21
520,146	18,6
520,348	-65,36
520,55	-16,21
520,752	24,75
520,954	12,46
521,155	-10,07
521,357	-44,88
521,559	-83,8
521,761	-24,4
521,963	45,23
522,164	-16,21
522,366	45,23
522,568	-3,93
522,77	84,14
522,971	-5,97
523,173	-3,93
523,375	-20,31
523,576	73,9
523,778	20,65
523,98	-16,21
524,181	77,99
524,383	28,84
524,584	18,6
524,786	-32,6
524,988	-38,74
525,189	-16,21
525,391	53,42
525,592	-57,17
525,794	-1,88
525,995	65,71
526,197	26,79
526,398	8,36
526,6	30,89
526,801	65,71
527,003	-55,12
527,204	41,13
527,406	-30,55
527,607	43,18
527,808	-73,56
528,01	51,37
528,211	16,55
528,412	41,13
528,614	26,79
528,815	-12,12
529,016	8,36
529,218	57,51
529,419	4,27
529,62	-5,97
529,822	49,32
530,023	2,22
530,224	2,22
530,425	-63,32
530,626	-71,51
530,828	-32,6
531,029	-36,69
531,23	-14,17
531,431	49,32
531,632	39,08
531,833	45,23
532,035	28,84
532,236	10,41
532,437	16,55
532,638	55,47
532,839	-44,88
533,04	86,19
533,241	80,04
533,442	-30,55
533,643	32,94
533,844	22,7
534,045	4,27
534,246	-16,21
534,447	-16,21
534,648	-3,93
534,849	-46,93
535,05	-3,93
535,251	32,94
535,451	32,94
535,652	41,13
535,853	2,22
536,054	26,79
536,255	-48,98
536,456	26,79
536,657	0,17
536,857	41,13
537,058	24,75
537,259	84,14
537,46	2,22
537,66	116,9
537,861	4,27
538,062	49,32
538,263	-30,55
538,463	12,46
538,664	-5,97
538,865	92,33
539,065	18,6
539,266	80,04
539,466	-40,79
539,667	18,6
539,868	75,95
540,068	-1,88
540,269	-12,12
540,469	-16,21
540,67	24,75
540,87	-34,64
541,071	-46,93
541,271	69,8
541,472	34,99
541,672	-16,21
541,873	43,18
542,073	8,36
542,274	32,94
542,474	-8,02
542,675	0,17
542,875	-73,56
543,075	24,75
543,276	6,31
543,476	22,7
543,676	57,51
543,877	2,22
544,077	-44,88
544,277	47,27
544,478	-28,5
544,678	14,51
544,878	34,99
545,078	-20,31
545,279	-24,4
545,479	8,36
545,679	34,99
545,879	41,13
546,079	8,36
546,28	-24,4
546,48	59,56
546,68	12,46
546,88	34,99
547,08	10,41
547,28	-89,94
547,48	0,17
547,68	22,7
547,88	-18,26
548,081	53,42
548,281	22,7
548,481	-24,4
548,681	4,27
548,881	41,13
549,081	20,65
549,28	28,84
549,48	8,36
549,68	41,13
549,88	-10,07
550,08	-67,41
550,28	-30,55
550,48	32,94
550,68	53,42
550,88	47,27
551,08	24,75
551,279	-12,12
551,479	-16,21
551,679	59,56
551,879	-18,26
552,079	49,32
552,278	-40,79
552,478	53,42
552,678	26,79
552,878	-32,6
553,077	39,08
553,277	-22,36
553,477	16,55
553,676	57,51
553,876	-1,88
554,076	77,99
554,275	-26,45
554,475	57,51
554,674	-48,98
554,874	26,79
555,074	53,42
555,273	84,14
555,473	-18,26
555,672	-57,17
555,872	47,27
556,071	-8,02
556,271	18,6
556,47	0,17
556,67	26,79
556,869	45,23
557,068	-63,32
557,268	32,94
557,467	-30,55
557,667	-8,02
557,866	59,56
558,065	-3,93
558,265	51,37
558,464	-5,97
558,663	-42,84
558,863	16,55
559,062	-32,6
559,261	-20,31
559,461	16,55
559,66	37,03
559,859	41,13
560,058	10,41
560,258	41,13
560,457	10,41
560,656	-18,26
560,855	34,99
561,054	-40,79
561,253	24,75
561,453	45,23
561,652	32,94
561,851	-38,74
562,05	4,27
562,249	8,36
562,448	16,55
562,647	-1,88
562,846	-1,88
563,045	18,6
563,244	2,22
563,443	-48,98
563,642	0,17
563,841	45,23
564,04	4,27
564,239	-20,31
564,438	43,18
564,637	39,08
564,836	-1,88
565,035	-16,21
565,234	57,51
565,432	6,31
565,631	8,36
565,83	55,47
566,029	28,84
566,228	26,79
566,427	82,09
566,625	67,75
566,824	-8,02
567,023	28,84
567,222	75,95
567,42	-8,02
567,619	8,36
567,818	32,94
568,016	55,47
568,215	82,09
568,414	114,86
568,612	73,9
568,811	155,82
569,01	145,58
569,208	231,59
569,407	436,39
569,605	667,81
569,804	1235,1
570,002	1652,88
570,201	2506,88
570,4	3391,61
570,598	4847,71
570,797	6137,93
570,995	8157,23
571,193	9955,35
571,392	12425,2
571,59	15134,66
571,789	18196,37
571,987	21196,65
572,186	24848,18
572,384	28354,3
572,582	32173,76
572,781	35722,89
572,979	38762,08
573,177	42296,87
573,376	45227,51
573,574	46919,13
573,772	49780,15
573,971	51447,19
574,169	53022,08
574,367	54037,87
574,565	55276,9
574,763	55569,75
574,962	56509,77
575,16	56980,81
575,358	58043,7
575,556	57662,78
575,754	59561,25
575,952	58670,38
576,151	59839,77
576,349	59659,55
576,547	59888,92
576,745	60509,46
576,943	60646,67
577,141	60458,26
577,339	61039,88
577,537	60441,87
577,735	60413,2
577,933	59852,06
578,131	60847,37
578,329	59188,52
578,527	59088,17
578,725	58543,41
578,923	57924,92
579,121	57226,56
579,319	56962,37
579,516	55860,57
579,714	54506,86
579,912	52553,1
580,11	51213,73
580,308	49255,87
580,506	47044,06
580,704	44297,73
580,901	42010,15
581,099	39153,24
581,297	36128,39
581,495	32585,4
581,692	29880,03
581,89	25796,39
582,088	23447,36
582,285	20336,5
582,483	17788,83
582,681	14968,77
582,878	13004,77
583,076	10709
583,274	9103,39
583,471	7086,14
583,669	5865,55
583,866	4583,52
584,064	3573,88
584,262	2435,21
584,459	1859,73
584,657	1212,57
584,854	940,19
585,052	458,92
585,249	356,52
585,447	155,82
585,644	145,58
585,841	131,24
586,039	112,81
586,236	157,86
586,434	37,03
586,631	92,33
586,828	-16,21
587,026	4,27
587,223	-18,26
587,42	92,33
587,618	-20,31
587,815	82,09
588,012	63,66
588,21	59,56
588,407	4,27
588,604	80,04
588,801	57,51
588,999	51,37
589,196	-20,31
589,393	-16,21
589,59	-20,31
589,787	16,55
589,984	-18,26
590,182	51,37
590,379	-14,17
590,576	69,8
590,773	-20,31
590,97	14,51
591,167	-10,07
591,364	22,7
591,561	47,27
591,758	16,55
591,955	0,17
592,152	-14,17
592,349	-40,79
592,546	10,41
592,743	57,51
592,94	49,32
593,137	41,13
593,334	26,79
593,531	55,47
593,727	45,23
593,924	4,27
594,121	67,75
594,318	18,6
594,515	37,03
594,712	34,99
594,908	26,79
595,105	-79,7
595,302	98,47
595,499	32,94
595,696	8,36
595,892	8,36
596,089	75,95
596,286	20,65
596,482	22,7
596,679	-30,55
596,876	10,41
597,072	53,42
597,269	75,95
597,466	-12,12
597,662	18,6
597,859	45,23
598,055	57,51
598,252	-8,02
598,448	-8,02
598,645	-16,21
598,841	-8,02
599,038	0,17
599,234	41,13
599,431	-34,64
599,627	82,09
599,824	24,75
600,02	-67,41
600,217	41,13
600,413	34,99
600,609	-40,79
600,806	-26,45
601,002	12,46
601,198	32,94
601,395	32,94
601,591	26,79
601,787	-89,94
601,984	26,79
602,18	-16,21
602,376	45,23
602,572	10,41
602,769	49,32
602,965	-14,17
603,161	24,75
603,357	-14,17
603,553	10,41
603,75	-28,5
603,946	49,32
604,142	0,17
604,338	-22,36
604,534	-10,07
604,73	-34,64
604,926	12,46
605,122	125,1
605,318	18,6
605,514	18,6
605,71	43,18
605,906	-24,4
606,102	-63,32
606,298	0,17
606,494	-30,55
606,69	-12,12
606,886	6,31
607,082	77,99
607,278	-8,02
607,474	47,27
607,67	61,61
607,866	32,94
608,062	-59,22
608,257	16,55
608,453	-46,93
608,649	-40,79
608,845	10,41
609,041	-36,69
609,236	-24,4
609,432	24,75
609,628	59,56
609,824	10,41
610,019	53,42
610,215	-18,26
610,411	18,6
610,606	2,22
610,802	-3,93
610,998	10,41
611,193	18,6
611,389	37,03
611,584	16,55
611,78	18,6
611,976	12,46
612,171	-61,27
612,367	-18,26
612,562	92,33
612,758	51,37
612,953	-48,98
613,149	65,71
613,344	-30,55
613,539	34,99
613,735	10,41
613,93	26,79
614,126	-30,55
614,321	-55,12
614,517	4,27
614,712	10,41
614,907	14,51
615,103	28,84
615,298	28,84
615,493	20,65
615,688	8,36
615,884	20,65
616,079	20,65
616,274	-20,31
616,47	-32,6
616,665	28,84
616,86	32,94
617,055	2,22
617,25	34,99
617,445	10,41
617,641	41,13
617,836	-73,56
618,031	-8,02
618,226	43,18
618,421	63,66
618,616	34,99
618,811	0,17
619,006	-24,4
619,201	-8,02
619,396	16,55
619,591	73,9
619,786	96,43
619,981	-1,88
620,176	-16,21
620,371	34,99
620,566	-28,5
620,761	61,61
620,956	-10,07
621,151	18,6
621,346	16,55
621,541	71,85
621,735	-26,45
621,93	16,55
622,125	90,28
622,32	37,03
622,515	0,17
622,709	12,46
622,904	18,6
623,099	16,55
623,294	43,18
623,488	4,27
623,683	-36,69
623,878	32,94
624,072	20,65
624,267	12,46
624,462	-57,17
624,656	53,42
624,851	2,22
625,046	0,17
625,24	22,7
625,435	8,36
625,629	77,99
625,824	59,56
626,018	-12,12
626,213	-48,98
626,407	30,89
626,602	59,56
626,796	-26,45
626,991	-28,5
627,185	-3,93
627,38	12,46
627,574	26,79
627,768	57,51
627,963	-20,31
628,157	30,89
628,352	34,99
628,546	6,31
628,74	14,51
628,935	-32,6
629,129	-65,36
629,323	-20,31
629,517	8,36
629,712	73,9
629,906	-18,26
630,1	-61,27
630,294	39,08
630,489	77,99
630,683	39,08
630,877	-14,17
631,071	47,27
631,265	8,36
631,459	24,75
631,653	-22,36
631,848	-14,17
632,042	-1,88
632,236	0,17
632,43	57,51
632,624	-12,12
632,818	-14,17
633,012	61,61
633,206	18,6
633,4	-1,88
633,594	39,08
633,788	-24,4
633,982	8,36
634,176	57,51
634,369	16,55
634,563	-8,02
634,757	14,51
634,951	24,75
635,145	-10,07
635,339	-40,79
635,533	10,41
635,726	-22,36
635,92	57,51
636,114	-22,36
636,308	-14,17
636,501	-24,4
636,695	34,99
636,889	-40,79
637,083	16,55
637,276	20,65
637,47	14,51
637,664	-89,94
637,857	34,99
638,051	-30,55
638,244	39,08
638,438	51,37
638,632	65,71
638,825	34,99
639,019	-16,21
639,212	71,85
639,406	0,17
639,599	16,55
639,793	30,89
639,986	10,41
640,18	73,9
640,373	24,75
640,567	22,7
640,76	-14,17
640,954	12,46
641,147	-12,12
641,34	65,71
641,534	-57,17
641,727	32,94
641,92	34,99
642,114	-40,79
642,307	-22,36
642,5	0,17
642,694	-10,07
642,887	-38,74
643,08	24,75
643,273	-10,07
643,467	8,36
643,66	20,65
643,853	12,46
644,046	47,27
644,239	51,37
644,432	8,36
644,626	-34,64
644,819	77,99
645,012	14,51
645,205	24,75
645,398	53,42
645,591	28,84
645,784	32,94
645,977	43,18
646,17	-10,07
646,363	-32,6
646,556	28,84
646,749	53,42
646,942	37,03
647,135	2,22
647,328	-22,36
647,521	61,61
647,714	-3,93
647,907	-16,21
648,099	34,99
648,292	8,36
648,485	88,23
648,678	24,75
648,871	-32,6
649,064	32,94
649,256	-30,55
649,449	34,99
649,642	-24,4
649,835	-1,88
650,027	22,7
650,22	61,61
650,413	-26,45
650,605	12,46
650,798	18,6
650,991	86,19
651,183	4,27
651,376	75,95
651,568	67,75
651,761	-16,21
651,954	0,17
652,146	-36,69
652,339	18,6
652,531	26,79
652,724	-44,88
652,916	20,65
653,109	8,36
653,301	12,46
653,494	59,56
653,686	26,79
653,879	28,84
654,071	49,32
654,263	22,7
654,456	20,65
654,648	57,51
654,84	86,19
655,033	2,22
655,225	65,71
655,417	10,41
655,61	28,84
655,802	73,9
655,994	53,42
656,186	32,94
656,379	24,75
656,571	-5,97
656,763	-22,36
656,955	14,51
657,148	45,23
657,34	16,55
657,532	49,32
657,724	-22,36
657,916	16,55
658,108	47,27
658,3	16,55
658,492	-61,27
658,684	20,65
658,876	14,51
659,068	49,32
659,26	-5,97
659,452	32,94
659,644	34,99
659,836	10,41
660,028	-20,31
660,22	-22,36
660,412	-18,26
660,604	-1,88
660,796	57,51
660,988	-16,21
661,18	28,84
661,372	-8,02
661,563	-5,97
661,755	41,13
661,947	-30,55
662,139	-40,79
662,331	49,32
662,522	-36,69
662,714	16,55
662,906	-53,08
663,097	65,71
663,289	-36,69
663,481	-1,88
663,673	-38,74
663,864	-26,45
664,056	49,32
664,247	-83,8
664,439	57,51
664,631	-71,51
664,822	84,14
665,014	53,42
665,205	41,13
665,397	-3,93
665,588	57,51
665,78	92,33
665,971	-46,93
666,163	12,46
666,354	16,55
666,546	6,31
666,737	-46,93
666,929	12,46
667,12	-5,97
667,311	45,23
667,503	24,75
667,694	-8,02
667,885	61,61
668,077	-24,4
668,268	-20,31
668,459	43,18
668,651	71,85
668,842	-14,17
669,033	-36,69
669,224	-18,26
669,416	8,36
669,607	-1,88
669,798	-14,17
669,989	16,55
670,18	24,75
670,371	-61,27
670,563	0,17
670,754	-48,98
670,945	73,9
671,136	-36,69
671,327	32,94
671,518	57,51
671,709	8,36
671,9	61,61
672,091	49,32
672,282	-3,93
672,473	-71,51
672,664	-36,69
672,855	20,65
673,046	-38,74
673,237	43,18
673,428	-69,46
673,619	32,94
673,809	0,17
674	57,51
674,191	-87,89
674,382	-30,55
674,573	-44,88
674,764	-42,84
674,954	12,46
675,145	16,55
675,336	16,55
675,527	-36,69
675,717	16,55
675,908	37,03
676,099	-22,36
676,289	-14,17
676,48	-40,79
676,671	-42,84
676,861	-28,5
677,052	51,37
677,243	30,89
677,433	-20,31
677,624	28,84
677,814	-8,02
678,005	-16,21
678,195	-91,99
678,386	-12,12
678,576	28,84
678,767	41,13
678,957	57,51
679,148	41,13
679,338	2,22
679,529	71,85
679,719	45,23
679,909	8,36
680,1	32,94
680,29	41,13
680,481	65,71
680,671	-42,84
680,861	45,23
681,052	34,99
681,242	8,36
681,432	45,23
681,622	6,31
681,813	-5,97
682,003	32,94
682,193	45,23
682,383	-8,02
682,573	22,7
682,764	-1,88
682,954	-67,41
683,144	12,46
683,334	37,03
683,524	8,36
683,714	37,03
683,904	45,23
684,094	-16,21
684,284	24,75
684,474	20,65
684,664	34,99
684,854	-5,97
685,044	0,17
685,234	-57,17
685,424	28,84
685,614	-26,45
685,804	-8,02
685,994	-36,69
686,184	24,75
686,374	-83,8
686,564	65,71
686,753	-42,84
686,943	67,75
687,133	24,75
687,323	20,65
687,513	75,95
687,702	26,79
687,892	-5,97
688,082	20,65
688,272	-10,07
688,461	0,17
688,651	20,65
688,841	12,46
689,03	16,55
689,22	0,17
689,41	-32,6
689,599	22,7
689,789	20,65
689,979	0,17
690,168	24,75
690,358	-12,12
690,547	-42,84
690,737	32,94
690,926	37,03
691,116	43,18
691,305	-24,4
691,495	92,33
691,684	0,17
691,874	-14,17
692,063	-36,69
692,252	-8,02
692,442	-30,55
692,631	18,6
692,82	-10,07
693,01	43,18
693,199	32,94
693,388	2,22
693,578	-53,08
693,767	-8,02
693,956	-28,5
694,146	-3,93
694,335	-24,4
694,524	41,13
694,713	47,27
694,902	8,36
695,092	-73,56
695,281	-65,36
695,47	-55,12
695,659	26,79
695,848	12,46
696,037	63,66
696,226	8,36
696,415	65,71
696,604	4,27
696,793	10,41
696,982	24,75
697,171	16,55
697,36	-20,31
697,549	-8,02
697,738	22,7
697,927	-10,07
698,116	47,27
698,305	24,75
698,494	2,22
698,683	51,37
698,872	14,51
699,061	-16,21
699,25	-53,08
699,438	41,13
699,627	-30,55
699,816	80,04
700,005	49,32
700,193	32,94
700,382	-32,6
700,571	73,9
700,76	-16,21
700,948	10,41
701,137	-46,93
701,326	-24,4
701,514	4,27
701,703	28,84
701,892	10,41
702,08	8,36
702,269	96,43
702,457	12,46
702,646	8,36
702,834	6,31
703,023	-18,26
703,212	-61,27
703,4	-38,74
703,589	-30,55
703,777	-16,21
703,965	-24,4
704,154	0,17
704,342	10,41
704,531	-40,79
704,719	-5,97
704,907	-10,07
705,096	30,89
705,284	-32,6
705,472	53,42
705,661	10,41
705,849	10,41
706,037	49,32
706,226	-10,07
706,414	2,22
706,602	12,46
706,79	24,75
706,979	37,03
707,167	-24,4
707,355	-14,17
707,543	39,08
707,731	24,75
707,919	16,55
708,107	22,7
708,296	37,03
708,484	-1,88
708,672	-20,31
708,86	0,17
709,048	61,61
709,236	41,13
709,424	10,41
709,612	20,65
709,8	28,84
709,988	-18,26
710,176	12,46
710,364	37,03
710,551	47,27
710,739	28,84
710,927	12,46
711,115	51,37
711,303	-24,4
711,491	-5,97
711,679	8,36
711,866	32,94
712,054	12,46
712,242	55,47
712,43	-3,93
712,617	0,17
712,805	-24,4
712,993	10,41
713,181	49,32
713,368	0,17
713,556	6,31
713,744	-14,17
713,931	47,27
714,119	20,65
714,306	-59,22
714,494	34,99
714,682	-91,99
714,869	4,27
715,057	8,36
715,244	65,71
715,432	39,08
715,619	14,51
715,807	8,36
715,994	32,94
716,182	-24,4
716,369	-42,84
716,556	20,65
716,744	45,23
716,931	18,6
717,119	84,14
717,306	-30,55
717,493	32,94
717,681	67,75
717,868	34,99
718,055	-10,07
718,242	-12,12
718,43	0,17
718,617	2,22
718,804	-3,93
718,991	-22,36
719,179	-28,5
719,366	34,99
719,553	-57,17
719,74	-1,88
719,927	-34,64
720,114	65,71
720,301	-3,93
720,488	-8,02
720,676	-48,98
720,863	37,03
721,05	26,79
721,237	-32,6
721,424	2,22
721,611	26,79
721,798	-8,02
721,985	18,6
722,172	-18,26
722,358	-1,88
722,545	-18,26
722,732	16,55
722,919	10,41
723,106	8,36
723,293	24,75
723,48	-12,12
723,667	55,47
723,853	10,41
724,04	45,23
724,227	-30,55
724,414	26,79
724,6	4,27
724,787	2,22
724,974	34,99
725,161	10,41
725,347	55,47
725,534	28,84
725,72	-16,21
725,907	73,9
726,094	-42,84
726,28	-1,88
726,467	41,13
726,653	6,31
726,84	0,17
727,027	8,36
727,213	6,31
727,4	-51,03
727,586	49,32
727,773	-12,12
727,959	16,55
728,145	-30,55
728,332	-8,02
728,518	2,22
728,705	16,55
728,891	26,79
729,077	73,9
729,264	6,31
729,45	92,33
729,636	41,13
729,823	16,55
730,009	0,17
730,195	84,14
730,382	65,71
730,568	8,36
730,754	16,55
730,94	18,6
731,126	-32,6
731,313	20,65
731,499	4,27
731,685	-22,36
731,871	-12,12
732,057	-3,93
732,243	-20,31
732,429	-12,12
732,615	-32,6
732,801	-5,97
732,987	-51,03
733,173	24,75
733,359	-48,98
733,545	-44,88
733,731	71,85
733,917	-8,02
734,103	2,22
734,289	16,55
734,475	-8,02
734,661	22,7
734,847	59,56
735,033	51,37
735,219	53,42
735,404	41,13
735,59	61,61
735,776	8,36
735,962	24,75
736,148	16,55
736,333	-3,93
736,519	-5,97
736,705	-42,84
736,89	26,79
737,076	-20,31
737,262	24,75
737,447	20,65
737,633	16,55
737,819	-65,36
738,004	-89,94
738,19	-3,93
738,375	8,36
738,561	55,47
738,747	-24,4
738,932	51,37
739,118	18,6
739,303	-57,17
739,489	18,6
739,674	53,42
739,859	24,75
740,045	37,03
740,23	63,66
740,416	-8,02
740,601	-22,36
740,786	-12,12
740,972	-18,26
741,157	14,51
741,342	47,27
741,528	-16,21
741,713	34,99
741,898	-98,13
742,084	-18,26
742,269	32,94
742,454	24,75
742,639	65,71
742,824	-3,93
743,01	22,7
743,195	4,27
743,38	-22,36
743,565	8,36
743,75	8,36
743,935	0,17
744,12	-94,04
744,305	65,71
744,49	18,6
744,675	10,41
744,86	92,33
745,045	59,56
745,23	22,7
745,415	69,8
745,6	16,55
745,785	4,27
745,97	4,27
746,155	24,75
746,34	-44,88
746,525	-1,88
746,71	-1,88
746,895	53,42
747,079	-10,07
747,264	26,79
747,449	-57,17
747,634	-32,6
747,819	2,22
748,003	-40,79
748,188	-8,02
748,373	39,08
748,557	-32,6
748,742	37,03
748,927	8,36
749,111	8,36
749,296	-24,4
749,481	82,09
749,665	16,55
749,85	-16,21
750,034	18,6
750,219	-12,12
750,404	20,65
750,588	8,36
750,773	24,75
750,957	16,55
751,141	24,75
751,326	18,6
751,51	16,55
751,695	57,51
751,879	12,46
752,064	65,71
752,248	63,66
752,432	-28,5
752,617	12,46
752,801	-8,02
752,985	10,41
753,17	26,79
753,354	4,27
753,538	-40,79
753,722	61,61
753,907	34,99
754,091	-32,6
754,275	2,22
754,459	69,8
754,643	16,55
754,828	8,36
755,012	12,46
755,196	-26,45
755,38	39,08
755,564	-48,98
755,748	-24,4
755,932	4,27
756,116	20,65
756,3	55,47
756,484	24,75
756,668	47,27
756,852	-16,21
757,036	4,27
757,22	77,99
757,404	45,23
757,588	73,9
757,772	16,55
757,956	65,71
758,14	-67,41
758,323	-5,97
758,507	32,94
758,691	18,6
758,875	0,17
759,059	-63,32
759,242	-26,45
759,426	18,6
759,61	-12,12
759,794	-32,6
759,977	57,51
760,161	18,6
760,345	55,47
760,528	-38,74
760,712	77,99
760,895	75,95
761,079	-5,97
761,263	-20,31
761,446	10,41
761,63	45,23
761,813	20,65
761,997	61,61
762,18	24,75
762,364	6,31
762,547	59,56
762,731	8,36
762,914	6,31
763,098	-22,36
763,281	45,23
763,464	57,51
763,648	18,6
763,831	41,13
764,015	59,56
764,198	-16,21
764,381	-57,17
764,564	8,36
764,748	24,75
764,931	18,6
765,114	-1,88
765,297	-30,55
765,481	20,65
765,664	0,17
765,847	32,94
766,03	43,18
766,213	-55,12
766,397	16,55
766,58	26,79
766,763	-65,36
766,946	10,41
767,129	67,75
767,312	-69,46
767,495	63,66
767,678	10,41
767,861	-5,97
768,044	-30,55
768,227	18,6
768,41	-22,36
768,593	28,84
768,776	18,6
768,959	-12,12
769,142	24,75
769,324	43,18
769,507	90,28
769,69	12,46
769,873	108,71
770,056	26,79
770,239	32,94
770,421	-1,88
770,604	16,55
770,787	-3,93
770,97	-12,12
771,152	84,14
771,335	6,31
771,518	39,08
771,7	49,32
771,883	-40,79
772,066	-14,17
772,248	-16,21
772,431	-38,74
772,613	20,65
772,796	-38,74
772,978	-12,12
773,161	0,17
773,343	71,85
773,526	63,66
773,708	16,55
773,891	-12,12
774,073	12,46
774,256	14,51
774,438	84,14
774,621	-8,02
774,803	-16,21
774,985	10,41
775,168	98,47
775,35	18,6
775,532	94,38
775,715	0,17
775,897	82,09
776,079	16,55
776,261	-8,02
776,444	55,47
776,626	4,27
776,808	-22,36
776,99	8,36
777,173	-16,21
777,355	4,27
777,537	-24,4
777,719	-22,36
777,901	12,46
778,083	65,71
778,265	-1,88
778,447	-14,17
778,629	6,31
778,811	-8,02
778,993	24,75
779,175	49,32
779,357	-22,36
779,539	12,46
779,721	2,22
779,903	16,55
780,085	28,84
780,267	-55,12
780,449	22,7
780,631	-10,07
780,812	-24,4
780,994	63,66
781,176	0,17
781,358	45,23
781,54	-24,4
781,721	-8,02
781,903	-36,69
782,085	41,13
782,267	57,51
782,448	43,18
782,63	12,46
782,812	49,32
782,993	41,13
783,175	-22,36
783,357	45,23
783,538	28,84
783,72	-1,88
783,901	-14,17
784,083	51,37
784,264	-14,17
784,446	10,41
784,627	41,13
784,809	-22,36
784,99	30,89
785,172	18,6
785,353	16,55
785,535	-40,79
785,716	-14,17
785,897	-5,97
786,079	-18,26
786,26	-28,5
786,441	2,22
786,623	26,79
786,804	8,36
786,985	67,75
787,167	-32,6
787,348	-22,36
787,529	45,23
787,71	-5,97
787,891	20,65
788,073	45,23
788,254	12,46
788,435	4,27
788,616	14,51
788,797	20,65
788,978	49,32
789,159	-24,4
789,34	37,03
789,522	32,94
789,703	-18,26
789,884	-8,02
790,065	-3,93
790,246	12,46
790,427	51,37
790,607	-32,6
790,788	47,27
790,969	-14,17
791,15	28,84
791,331	14,51
791,512	-63,32
791,693	8,36
791,874	12,46
792,054	-69,46
792,235	43,18
792,416	-16,21
792,597	88,23
792,778	4,27
792,958	-53,08
793,139	69,8
793,32	57,51
793,5	0,17
793,681	41,13
793,862	4,27
794,042	53,42
794,223	63,66
794,404	-57,17
794,584	-73,56
794,765	24,75
794,945	43,18
795,126	-40,79
795,306	8,36
795,487	16,55
795,667	-3,93
795,848	-16,21
796,028	14,51
796,209	10,41
796,389	24,75
796,57	24,75
796,75	-22,36
796,93	-67,41
797,111	43,18
797,291	41,13
797,471	37,03
797,652	67,75
797,832	26,79
798,012	82,09
798,192	8,36
798,373	-5,97
798,553	53,42
798,733	0,17
798,913	14,51
799,093	2,22
799,274	30,89
799,454	16,55
799,634	-36,69
799,814	22,7
799,994	8,36
800,174	28,84
800,354	20,65
800,534	51,37
800,714	37,03
800,894	12,46
801,074	-12,12
801,254	26,79
801,434	30,89
801,614	2,22
801,794	34,99
801,974	28,84
802,154	39,08
802,334	37,03
802,514	45,23
802,693	2,22
802,873	-46,93
803,053	73,9
803,233	-10,07
803,413	82,09
803,592	14,51
803,772	0,17
803,952	30,89
804,131	30,89
804,311	-34,64
804,491	-44,88
804,67	-5,97
804,85	24,75
805,03	-48,98
805,209	-24,4
805,389	45,23
805,568	71,85
805,748	34,99
805,928	-48,98
806,107	-10,07
806,287	39,08
806,466	39,08
806,646	0,17
806,825	-22,36
807,004	-8,02
807,184	63,66
807,363	18,6
807,543	-51,03
807,722	12,46
807,901	20,65
808,081	-24,4
808,26	22,7
808,439	-8,02
808,619	67,75
808,798	14,51
808,977	2,22
809,156	45,23
809,336	-63,32
809,515	-24,4
809,694	4,27
809,873	22,7
810,052	-12,12
810,231	-28,5
810,411	61,61
810,59	24,75
810,769	43,18
810,948	-14,17
811,127	12,46
811,306	-38,74
811,485	43,18
811,664	69,8
811,843	16,55
812,022	94,38
812,201	-28,5
812,38	61,61
812,559	0,17
812,737	34,99
812,916	16,55
813,095	32,94
813,274	-38,74
813,453	-8,02
813,632	45,23
813,811	-24,4
813,989	2,22
814,168	59,56
814,347	-20,31
814,526	39,08
814,704	2,22
814,883	69,8
815,062	8,36
815,24	90,28
815,419	0,17
815,598	65,71
815,776	47,27
815,955	-26,45
816,133	49,32
816,312	22,7
816,49	8,36
816,669	75,95
816,847	-69,46
817,026	-16,21
817,204	-8,02
817,383	16,55
817,561	20,65
817,74	39,08
817,918	-28,5
818,097	49,32
818,275	-40,79
818,453	26,79
818,632	-10,07
818,81	67,75
818,988	-8,02
819,167	57,51
819,345	26,79
819,523	-22,36
819,701	-40,79
819,879	-18,26
820,058	41,13
820,236	-8,02
820,414	4,27
820,592	-1,88
820,77	0,17
820,948	-1,88
821,127	-16,21
821,305	77,99
821,483	69,8
821,661	30,89
821,839	16,55
822,017	67,75
822,195	-32,6
822,373	16,55
822,551	-44,88
822,729	55,47
822,907	-10,07
823,085	77,99
823,262	-16,21
823,44	-30,55
823,618	10,41
823,796	59,56
823,974	6,31
824,152	-24,4
824,329	-18,26
824,507	53,42
824,685	-28,5
824,863	-32,6
825,04	-16,21
825,218	98,47
825,396	-26,45
825,574	-65,36
825,751	2,22
825,929	-10,07
826,107	2,22
826,284	4,27
826,462	24,75
826,639	32,94
826,817	37,03
826,994	-40,79
827,172	28,84
827,349	16,55
827,527	30,89
827,704	12,46
827,882	22,7
828,059	4,27
828,237	34,99
828,414	-59,22
828,591	49,32
828,769	-57,17
828,946	37,03
829,124	-8,02
829,301	-18,26
829,478	18,6
829,655	-5,97
829,833	-3,93
830,01	-22,36
830,187	18,6
830,364	47,27
830,542	86,19
830,719	-61,27
830,896	67,75
831,073	6,31
831,25	20,65
831,427	34,99
831,604	-8,02
831,782	45,23
831,959	12,46
832,136	-8,02
832,313	-24,4
832,49	12,46
832,667	30,89
832,844	-26,45
833,021	-20,31
833,198	34,99
833,374	67,75
833,551	-18,26
833,728	59,56
833,905	-30,55
834,082	8,36
834,259	32,94
834,436	8,36
834,612	-55,12
834,789	4,27
834,966	-26,45
835,143	41,13
835,319	-38,74
835,496	-5,97
835,673	8,36
835,85	-16,21
836,026	43,18
836,203	-20,31
836,38	39,08
836,556	-48,98
836,733	2,22
836,909	6,31
837,086	10,41
837,262	-32,6
837,439	32,94
837,616	-16,21
837,792	34,99
837,968	28,84
838,145	14,51
838,321	8,36
838,498	-18,26
838,674	82,09
838,851	6,31
839,027	-40,79
839,203	4,27
839,38	-3,93
839,556	75,95
839,732	41,13
839,909	-87,89
840,085	16,55
840,261	49,32
840,437	12,46
840,614	-8,02
840,79	49,32
840,966	-14,17
841,142	-38,74
841,318	-42,84
841,494	-22,36
841,671	6,31
841,847	65,71
842,023	-34,64
842,199	90,28
842,375	61,61
842,551	12,46
842,727	26,79
842,903	63,66
843,079	-40,79
843,255	16,55
843,431	-24,4
843,607	18,6
843,783	-69,46
843,959	-53,08
844,134	0,17
844,31	-24,4
844,486	75,95
844,662	67,75
844,838	67,75
845,013	24,75
845,189	-1,88
845,365	106,67
845,541	4,27
845,716	32,94
845,892	-14,17
846,068	16,55
846,244	34,99
846,419	20,65
846,595	39,08
846,77	32,94
846,946	18,6
847,122	-28,5
847,297	0,17
847,473	0,17
847,648	102,57
847,824	0,17
847,999	12,46
848,175	32,94
848,35	-34,64
848,526	61,61
848,701	41,13
848,876	4,27
849,052	45,23
849,227	28,84
849,403	14,51
849,578	20,65
849,753	-30,55
849,929	92,33
850,104	14,51
850,279	28,84
850,454	24,75
850,63	-14,17
850,805	-5,97
850,98	57,51
851,155	82,09
851,33	10,41
851,505	-10,07
851,681	34,99
851,856	-14,17
852,031	-28,5
852,206	-40,79
852,381	26,79
852,556	10,41
852,731	2,22
852,906	20,65
853,081	43,18
853,256	-34,64
853,431	-32,6
853,606	-16,21
853,781	45,23
853,956	10,41
854,131	-12,12
854,305	-48,98
854,48	18,6
854,655	61,61
854,83	26,79
855,005	24,75
855,18	10,41
855,354	-28,5
855,529	20,65
855,704	-5,97
855,879	43,18
856,053	-18,26
856,228	24,75
856,403	-1,88
856,577	59,56
856,752	-8,02
856,926	-14,17
857,101	-59,22
857,276	-38,74
857,45	-3,93
857,625	-5,97
857,799	-22,36
857,974	18,6
858,148	34,99
858,323	0,17
858,497	-46,93
858,672	-38,74
858,846	24,75
859,02	49,32
859,195	51,37
859,369	37,03
859,543	8,36
859,718	6,31
859,892	-36,69
860,066	14,51
860,241	20,65
860,415	53,42
860,589	57,51
860,763	-32,6
860,938	39,08
861,112	-22,36
861,286	-57,17
861,46	-24,4
861,634	-20,31
861,808	55,47
861,982	-20,31
862,157	37,03
862,331	-24,4
862,505	41,13
862,679	4,27
862,853	8,36
863,027	41,13
863,201	43,18
863,375	16,55
863,549	59,56
863,722	28,84
863,896	10,41
864,07	-77,65
864,244	41,13
864,418	26,79
864,592	10,41
864,766	18,6
864,939	34,99
865,113	53,42
865,287	-22,36
865,461	-38,74
865,634	-28,5
865,808	16,55
865,982	-12,12
866,156	6,31
866,329	-8,02
866,503	65,71
866,676	16,55
866,85	73,9
867,024	10,41
867,197	10,41
867,371	-26,45
867,544	-36,69
867,718	37,03
867,891	-57,17
868,065	-22,36
868,238	-22,36
868,412	45,23
868,585	49,32
868,759	45,23
868,932	18,6
869,105	-32,6
869,279	-22,36
869,452	-20,31
869,625	22,7
869,799	0,17
869,972	39,08
870,145	16,55
870,319	65,71
870,492	-53,08
870,665	20,65
870,838	65,71
871,011	-51,03
871,185	-32,6
871,358	14,51
871,531	61,61
871,704	-26,45
871,877	49,32
872,05	18,6
872,223	16,55
872,396	8,36
872,569	49,32
872,742	-24,4
872,915	22,7
873,088	8,36
873,261	-30,55
873,434	-28,5
873,607	0,17
873,78	18,6
873,953	43,18
874,126	0,17
874,299	2,22
874,471	-44,88
874,644	77,99
874,817	-24,4
874,99	-48,98
875,163	16,55
875,335	47,27
875,508	16,55
875,681	30,89
875,853	-57,17
876,026	-24,4
876,199	-8,02
876,371	16,55
876,544	69,8
876,717	14,51
876,889	37,03
877,062	82,09
877,234	-14,17
877,407	2,22
877,579	0,17
877,752	-85,84
877,924	49,32
878,097	-75,6
878,269	41,13
878,442	4,27
878,614	-30,55
878,786	39,08
878,959	-14,17
879,131	43,18
879,303	-20,31
879,476	-16,21
879,648	26,79
879,82	28,84
879,993	-16,21
880,165	-14,17
880,337	-98,13
880,509	22,7
880,681	-32,6
880,854	-8,02
881,026	24,75
881,198	32,94
881,37	-51,03
881,542	0,17
881,714	2,22
881,886	20,65
882,058	63,66
882,23	34,99
882,402	12,46
882,574	53,42
882,746	-16,21
882,918	77,99
883,09	16,55
883,262	0,17
883,434	20,65
883,606	-24,4
883,778	-20,31
883,95	20,65
884,122	53,42
884,293	10,41
884,465	-48,98
884,637	-10,07
884,809	18,6
884,98	4,27
885,152	16,55
885,324	6,31
885,496	-10,07
885,667	28,84
885,839	43,18
886,011	49,32
886,182	2,22
886,354	-5,97
886,525	-30,55
886,697	6,31
886,869	2,22
887,04	18,6
887,212	26,79
887,383	-30,55
887,555	41,13
887,726	8,36
887,897	-8,02
888,069	90,28
888,24	-1,88
888,412	-36,69
888,583	0,17
888,754	0,17
888,926	2,22
889,097	73,9
889,268	61,61
889,44	98,47
889,611	-57,17
889,782	-46,93
889,953	47,27
890,125	16,55
890,296	2,22
890,467	37,03
890,638	-40,79
890,809	-5,97
890,98	51,37
891,151	26,79
891,323	32,94
891,494	-8,02
891,665	2,22
891,836	-28,5
892,007	28,84
892,178	45,23
892,349	30,89
892,52	10,41
892,691	114,86
892,862	37,03
893,032	-34,64
893,203	65,71
893,374	-14,17
893,545	39,08
893,716	-32,6
893,887	49,32
894,057	2,22
894,228	77,99
894,399	-12,12
894,57	-3,93
894,74	-12,12
894,911	49,32
895,082	0,17
895,253	0,17
895,423	-46,93
895,594	-10,07
895,764	26,79
895,935	-5,97
896,106	34,99
896,276	-40,79
896,447	14,51
896,617	41,13
896,788	-38,74
896,958	28,84
897,129	22,7
897,299	24,75
897,47	65,71
897,64	4,27
897,81	20,65
897,981	-20,31
898,151	28,84
898,322	-12,12
898,492	39,08
898,662	16,55
898,832	69,8
899,003	59,56
899,173	4,27
899,343	100,52
899,513	-22,36
