Data from filtre 577_USB4F104151__6__12-00-10-733.txt Node

Date: Wed Apr 15 12:00:10 EDT 2026
User: LaboPhy
Spectrometer: USB4F10415
Trigger mode: 4
Integration Time (sec): 2,000000E-3
Scans to average: 1
Electric dark correction enabled: true
Nonlinearity correction enabled: false
Boxcar width: 0
XAxis mode: Wavelengths
Number of Pixels in Spectrum: 3648
>>>>>Begin Spectral Data<<<<<
178,204	-27,65
178,424	-27,65
178,644	-27,65
178,864	-13,31
179,084	41,98
179,304	21,5
179,524	-5,12
179,744	1,02
179,964	-29,7
180,184	-31,74
180,404	25,6
180,624	1,02
180,844	-15,36
181,064	-23,55
181,283	3,07
181,503	44,03
181,723	9,22
181,943	9,22
182,163	-76,8
182,383	13,31
182,602	37,89
182,822	60,42
183,042	41,98
183,262	-1,02
183,482	-13,31
183,701	-68,61
183,921	27,65
184,141	60,42
184,361	-39,94
184,58	-39,94
184,8	-56,32
185,02	-11,26
185,239	11,26
185,459	-29,7
185,679	-95,23
185,898	-35,84
186,118	27,65
186,338	1,02
186,557	62,46
186,777	-31,74
186,997	-48,13
187,216	-35,84
187,436	11,26
187,655	-33,79
187,875	35,84
188,095	19,46
188,314	-64,51
188,534	23,55
188,753	-23,55
188,973	-13,31
189,192	-62,46
189,412	-31,74
189,631	-37,89
189,851	25,6
190,07	29,7
190,29	-31,74
190,509	50,18
190,729	21,5
190,948	23,55
191,168	44,03
191,387	-11,26
191,607	-41,98
191,826	15,36
192,045	-37,89
192,265	95,23
192,484	-39,94
192,704	17,41
192,923	-13,31
193,142	-15,36
193,362	-15,36
193,581	-1,02
193,8	9,22
194,02	-13,31
194,239	-29,7
194,458	-58,37
194,678	-54,27
194,897	-3,07
195,116	27,65
195,335	48,13
195,555	-15,36
195,774	-23,55
195,993	-27,65
196,212	-35,84
196,432	-48,13
196,651	33,79
196,87	-39,94
197,089	78,85
197,308	-3,07
197,528	-39,94
197,747	-35,84
197,966	-29,7
198,185	-23,55
198,404	46,08
198,623	29,7
198,842	7,17
199,062	-33,79
199,281	-46,08
199,5	-37,89
199,719	-19,46
199,938	44,03
200,157	35,84
200,376	-9,22
200,595	25,6
200,814	-97,28
201,033	39,94
201,252	-29,7
201,471	-5,12
201,69	68,61
201,909	35,84
202,128	-1,02
202,347	-23,55
202,566	-76,8
202,785	-27,65
203,004	52,22
203,223	3,07
203,442	-58,37
203,661	-7,17
203,879	-31,74
204,098	-33,79
204,317	25,6
204,536	-56,32
204,755	35,84
204,974	50,18
205,193	-27,65
205,411	-72,7
205,63	1,02
205,849	44,03
206,068	3,07
206,287	68,61
206,505	5,12
206,724	-39,94
206,943	-21,5
207,162	-46,08
207,381	25,6
207,599	-15,36
207,818	-44,03
208,037	37,89
208,255	-56,32
208,474	-7,17
208,693	3,07
208,911	9,22
209,13	5,12
209,349	-54,27
209,567	62,46
209,786	-84,99
210,005	-76,8
210,223	-3,07
210,442	-58,37
210,661	-19,46
210,879	-3,07
211,098	91,13
211,316	17,41
211,535	33,79
211,753	27,65
211,972	-23,55
212,191	-5,12
212,409	-11,26
212,628	-44,03
212,846	41,98
213,065	-21,5
213,283	33,79
213,502	7,17
213,72	29,7
213,938	-48,13
214,157	15,36
214,375	25,6
214,594	-5,12
214,812	54,27
215,031	54,27
215,249	-5,12
215,467	-3,07
215,686	25,6
215,904	-44,03
216,122	-23,55
216,341	13,31
216,559	-44,03
216,778	62,46
216,996	-72,7
217,214	-13,31
217,432	-64,51
217,651	-15,36
217,869	-11,26
218,087	3,07
218,306	-70,65
218,524	52,22
218,742	-23,55
218,96	-7,17
219,179	68,61
219,397	-23,55
219,615	33,79
219,833	11,26
220,051	-37,89
220,27	68,61
220,488	-56,32
220,706	-13,31
220,924	-7,17
221,142	17,41
221,36	-39,94
221,578	29,7
221,796	-48,13
222,015	68,61
222,233	-46,08
222,451	-11,26
222,669	13,31
222,887	-3,07
223,105	9,22
223,323	27,65
223,541	1,02
223,759	58,37
223,977	-7,17
224,195	-7,17
224,413	-33,79
224,631	-31,74
224,849	9,22
225,067	-13,31
225,285	-31,74
225,503	-7,17
225,721	-80,89
225,939	11,26
226,157	9,22
226,375	-35,84
226,592	27,65
226,81	-23,55
227,028	-68,61
227,246	103,42
227,464	33,79
227,682	-1,02
227,9	11,26
228,117	25,6
228,335	17,41
228,553	11,26
228,771	-39,94
228,989	84,99
229,206	-48,13
229,424	1,02
229,642	35,84
229,86	-87,04
230,077	-23,55
230,295	33,79
230,513	5,12
230,731	66,56
230,948	-13,31
231,166	19,46
231,384	7,17
231,601	87,04
231,819	15,36
232,037	-58,37
232,254	7,17
232,472	-3,07
232,689	-11,26
232,907	-35,84
233,125	-3,07
233,342	-31,74
233,56	33,79
233,777	11,26
233,995	1,02
234,213	-23,55
234,43	-9,22
234,648	-5,12
234,865	-11,26
235,083	48,13
235,3	3,07
235,518	17,41
235,735	5,12
235,953	-33,79
236,17	-52,22
236,388	-48,13
236,605	-33,79
236,822	-29,7
237,04	37,89
237,257	-9,22
237,475	-15,36
237,692	-52,22
237,909	-19,46
238,127	60,42
238,344	-21,5
238,562	39,94
238,779	-25,6
238,996	-11,26
239,214	-19,46
239,431	-48,13
239,648	29,7
239,865	35,84
240,083	17,41
240,3	-19,46
240,517	9,22
240,735	5,12
240,952	31,74
241,169	-1,02
241,386	-29,7
241,603	68,61
241,821	-31,74
242,038	-44,03
242,255	-23,55
242,472	-29,7
242,689	44,03
242,907	-19,46
243,124	-48,13
243,341	-13,31
243,558	-70,65
243,775	-31,74
243,992	-13,31
244,209	25,6
244,426	33,79
244,643	-19,46
244,86	46,08
245,078	-21,5
245,295	68,61
245,512	-1,02
245,729	5,12
245,946	-23,55
246,163	-56,32
246,38	35,84
246,597	-7,17
246,814	33,79
247,031	-17,41
247,248	-48,13
247,464	-27,65
247,681	-23,55
247,898	21,5
248,115	-31,74
248,332	-19,46
248,549	-27,65
248,766	11,26
248,983	17,41
249,2	-7,17
249,417	19,46
249,633	-35,84
249,85	-23,55
250,067	9,22
250,284	50,18
250,501	-15,36
250,717	-15,36
250,934	-56,32
251,151	-52,22
251,368	-17,41
251,585	-5,12
251,801	21,5
252,018	11,26
252,235	31,74
252,451	-1,02
252,668	-60,42
252,885	78,85
253,102	-48,13
253,318	13,31
253,535	23,55
253,752	1,02
253,968	3,07
254,185	-5,12
254,401	-27,65
254,618	25,6
254,835	-29,7
255,051	-1,02
255,268	-23,55
255,484	74,75
255,701	-13,31
255,917	5,12
256,134	7,17
256,351	46,08
256,567	-23,55
256,784	-72,7
257	9,22
257,217	13,31
257,433	-23,55
257,65	-29,7
257,866	-21,5
258,082	82,94
258,299	13,31
258,515	-5,12
258,732	-80,89
258,948	41,98
259,165	23,55
259,381	29,7
259,597	-3,07
259,814	44,03
260,03	-39,94
260,246	13,31
260,463	-27,65
260,679	-19,46
260,895	46,08
261,112	-1,02
261,328	-19,46
261,544	31,74
261,761	5,12
261,977	-7,17
262,193	25,6
262,409	-25,6
262,626	56,32
262,842	-39,94
263,058	-15,36
263,274	1,02
263,49	72,7
263,707	-15,36
263,923	1,02
264,139	3,07
264,355	-80,89
264,571	1,02
264,787	1,02
265,004	97,28
265,22	21,5
265,436	-15,36
265,652	37,89
265,868	41,98
266,084	-21,5
266,3	50,18
266,516	-3,07
266,732	93,18
266,948	-15,36
267,164	7,17
267,38	33,79
267,596	44,03
267,812	48,13
268,028	60,42
268,244	-29,7
268,46	-19,46
268,676	78,85
268,892	-29,7
269,108	-41,98
269,324	9,22
269,54	-3,07
269,756	5,12
269,972	-74,75
270,188	46,08
270,403	-62,46
270,619	50,18
270,835	48,13
271,051	80,89
271,267	-21,5
271,483	50,18
271,698	35,84
271,914	29,7
272,13	-5,12
272,346	-15,36
272,562	56,32
272,777	-31,74
272,993	132,09
273,209	25,6
273,425	66,56
273,64	11,26
273,856	17,41
274,072	-9,22
274,287	9,22
274,503	3,07
274,719	-11,26
274,934	-78,85
275,15	-15,36
275,366	-1,02
275,581	9,22
275,797	9,22
276,012	-1,02
276,228	52,22
276,444	-39,94
276,659	-13,31
276,875	-27,65
277,09	-29,7
277,306	-31,74
277,521	9,22
277,737	46,08
277,952	15,36
278,168	21,5
278,383	62,46
278,599	-52,22
278,814	19,46
279,03	-44,03
279,245	-37,89
279,461	-35,84
279,676	-60,42
279,892	-35,84
280,107	21,5
280,322	3,07
280,538	31,74
280,753	-23,55
280,969	-7,17
281,184	-15,36
281,399	-7,17
281,615	-64,51
281,83	-27,65
282,045	-7,17
282,26	-37,89
282,476	-35,84
282,691	-41,98
282,906	-7,17
283,122	44,03
283,337	-11,26
283,552	74,75
283,767	-29,7
283,983	19,46
284,198	-35,84
284,413	9,22
284,628	19,46
284,843	-37,89
285,058	-1,02
285,274	-23,55
285,489	-15,36
285,704	-105,47
285,919	-56,32
286,134	89,09
286,349	-52,22
286,564	1,02
286,779	-7,17
286,995	-21,5
287,21	-7,17
287,425	50,18
287,64	-35,84
287,855	37,89
288,07	-23,55
288,285	-27,65
288,5	41,98
288,715	-1,02
288,93	29,7
289,145	19,46
289,36	5,12
289,575	5,12
289,79	-5,12
290,004	19,46
290,219	-35,84
290,434	27,65
290,649	29,7
290,864	9,22
291,079	29,7
291,294	11,26
291,509	-39,94
291,724	25,6
291,938	-31,74
292,153	3,07
292,368	41,98
292,583	1,02
292,798	-7,17
293,012	19,46
293,227	-15,36
293,442	72,7
293,657	-17,41
293,871	9,22
294,086	-1,02
294,301	29,7
294,516	-7,17
294,73	54,27
294,945	-54,27
295,16	17,41
295,374	-1,02
295,589	29,7
295,804	-101,37
296,018	58,37
296,233	17,41
296,447	-9,22
296,662	121,85
296,877	66,56
297,091	-60,42
297,306	-9,22
297,52	-23,55
297,735	-39,94
297,949	44,03
298,164	44,03
298,378	15,36
298,593	21,5
298,807	-3,07
299,022	-23,55
299,236	-1,02
299,451	-7,17
299,665	62,46
299,88	-21,5
300,094	-52,22
300,309	11,26
300,523	-33,79
300,737	21,5
300,952	64,51
301,166	-19,46
301,381	13,31
301,595	11,26
301,809	-35,84
302,024	-70,65
302,238	31,74
302,452	-95,23
302,667	1,02
302,881	48,13
303,095	25,6
303,309	35,84
303,524	3,07
303,738	-46,08
303,952	-46,08
304,166	17,41
304,381	-5,12
304,595	5,12
304,809	39,94
305,023	-13,31
305,237	-25,6
305,452	17,41
305,666	91,13
305,88	-23,55
306,094	25,6
306,308	-46,08
306,522	-5,12
306,736	27,65
306,95	-11,26
307,164	-56,32
307,379	-5,12
307,593	25,6
307,807	-56,32
308,021	17,41
308,235	54,27
308,449	9,22
308,663	-23,55
308,877	-7,17
309,091	70,65
309,305	-3,07
309,519	-27,65
309,733	11,26
309,947	19,46
310,161	7,17
310,374	56,32
310,588	11,26
310,802	-23,55
311,016	-15,36
311,23	44,03
311,444	9,22
311,658	3,07
311,872	13,31
312,085	-48,13
312,299	-21,5
312,513	7,17
312,727	25,6
312,941	39,94
313,154	-52,22
313,368	70,65
313,582	-54,27
313,796	21,5
314,009	-19,46
314,223	-27,65
314,437	5,12
314,651	-13,31
314,864	27,65
315,078	15,36
315,292	9,22
315,505	-37,89
315,719	-50,18
315,933	-9,22
316,146	54,27
316,36	25,6
316,573	-23,55
316,787	9,22
317,001	91,13
317,214	-89,09
317,428	13,31
317,641	27,65
317,855	25,6
318,068	17,41
318,282	95,23
318,495	3,07
318,709	13,31
318,922	1,02
319,136	1,02
319,349	-50,18
319,563	46,08
319,776	-46,08
319,99	-7,17
320,203	-41,98
320,417	27,65
320,63	-5,12
320,843	74,75
321,057	35,84
321,27	13,31
321,483	11,26
321,697	17,41
321,91	41,98
322,124	-48,13
322,337	-7,17
322,55	74,75
322,763	-27,65
322,977	-11,26
323,19	7,17
323,403	7,17
323,617	-15,36
323,83	-7,17
324,043	35,84
324,256	35,84
324,469	29,7
324,683	-23,55
324,896	13,31
325,109	74,75
325,322	-5,12
325,535	-27,65
325,748	-7,17
325,962	46,08
326,175	25,6
326,388	46,08
326,601	1,02
326,814	29,7
327,027	1,02
327,24	17,41
327,453	25,6
327,666	-11,26
327,879	-56,32
328,092	9,22
328,305	33,79
328,518	-46,08
328,731	21,5
328,944	-7,17
329,157	52,22
329,37	48,13
329,583	7,17
329,796	31,74
330,009	25,6
330,222	66,56
330,435	-72,7
330,648	-23,55
330,861	-21,5
331,073	33,79
331,286	3,07
331,499	52,22
331,712	-15,36
331,925	-5,12
332,138	-54,27
332,35	-37,89
332,563	11,26
332,776	9,22
332,989	25,6
333,202	1,02
333,414	58,37
333,627	48,13
333,84	-37,89
334,053	19,46
334,265	31,74
334,478	3,07
334,691	-3,07
334,903	15,36
335,116	-35,84
335,329	33,79
335,541	-41,98
335,754	-23,55
335,966	-56,32
336,179	21,5
336,392	-1,02
336,604	-39,94
336,817	-21,5
337,029	41,98
337,242	27,65
337,454	31,74
337,667	9,22
337,88	17,41
338,092	-91,13
338,305	-27,65
338,517	-5,12
338,729	13,31
338,942	37,89
339,154	62,46
339,367	1,02
339,579	-23,55
339,792	58,37
340,004	35,84
340,217	19,46
340,429	-15,36
340,641	25,6
340,854	25,6
341,066	-5,12
341,278	35,84
341,491	-7,17
341,703	-35,84
341,915	64,51
342,128	-44,03
342,34	54,27
342,552	113,66
342,764	9,22
342,977	13,31
343,189	46,08
343,401	46,08
343,613	-56,32
343,826	19,46
344,038	23,55
344,25	11,26
344,462	3,07
344,674	-48,13
344,886	-15,36
345,099	35,84
345,311	5,12
345,523	-25,6
345,735	-62,46
345,947	50,18
346,159	-19,46
346,371	35,84
346,583	-19,46
346,795	-13,31
347,007	15,36
347,219	25,6
347,431	66,56
347,643	-56,32
347,855	17,41
348,067	1,02
348,279	5,12
348,491	25,6
348,703	27,65
348,915	62,46
349,127	5,12
349,339	25,6
349,551	9,22
349,763	-62,46
349,975	3,07
350,187	60,42
350,399	19,46
350,61	-46,08
350,822	15,36
351,034	93,18
351,246	11,26
351,458	-64,51
351,669	25,6
351,881	25,6
352,093	-7,17
352,305	13,31
352,517	17,41
352,728	23,55
352,94	-29,7
353,152	3,07
353,363	11,26
353,575	-19,46
353,787	-48,13
353,999	72,7
354,21	-15,36
354,422	-1,02
354,633	-5,12
354,845	1,02
355,057	35,84
355,268	31,74
355,48	76,8
355,692	-3,07
355,903	-1,02
356,115	54,27
356,326	-19,46
356,538	-19,46
356,749	-13,31
356,961	-11,26
357,172	19,46
357,384	33,79
357,595	13,31
357,807	-23,55
358,018	-31,74
358,23	-64,51
358,441	29,7
358,653	35,84
358,864	35,84
359,075	-7,17
359,287	66,56
359,498	-21,5
359,709	19,46
359,921	1,02
360,132	-3,07
360,344	105,47
360,555	-56,32
360,766	1,02
360,977	-29,7
361,189	17,41
361,4	-3,07
361,611	33,79
361,823	41,98
362,034	19,46
362,245	-80,89
362,456	7,17
362,667	52,22
362,879	-27,65
363,09	-23,55
363,301	39,94
363,512	-1,02
363,723	9,22
363,935	21,5
364,146	95,23
364,357	-23,55
364,568	-48,13
364,779	3,07
364,99	-31,74
365,201	23,55
365,412	-5,12
365,623	-3,07
365,834	-3,07
366,045	-27,65
366,256	-11,26
366,467	25,6
366,678	-87,04
366,889	11,26
367,1	-5,12
367,311	-21,5
367,522	91,13
367,733	1,02
367,944	37,89
368,155	17,41
368,366	-7,17
368,577	-27,65
368,788	-21,5
368,999	9,22
369,209	68,61
369,42	23,55
369,631	-29,7
369,842	-31,74
370,053	21,5
370,264	11,26
370,474	-21,5
370,685	-7,17
370,896	50,18
371,107	-15,36
371,317	-11,26
371,528	-17,41
371,739	5,12
371,95	-35,84
372,16	11,26
372,371	-46,08
372,582	-37,89
372,792	23,55
373,003	-19,46
373,214	-41,98
373,424	17,41
373,635	-39,94
373,846	21,5
374,056	-58,37
374,267	33,79
374,477	-62,46
374,688	3,07
374,898	-29,7
375,109	-54,27
375,319	-33,79
375,53	-5,12
375,74	68,61
375,951	27,65
376,161	13,31
376,372	17,41
376,582	-3,07
376,793	11,26
377,003	21,5
377,214	-39,94
377,424	-21,5
377,635	25,6
377,845	44,03
378,055	46,08
378,266	-7,17
378,476	41,98
378,686	21,5
378,897	39,94
379,107	-1,02
379,317	-7,17
379,528	-1,02
379,738	70,65
379,948	21,5
380,158	-11,26
380,369	17,41
380,579	33,79
380,789	-1,02
380,999	48,13
381,21	11,26
381,42	-21,5
381,63	29,7
381,84	13,31
382,05	-17,41
382,261	-3,07
382,471	58,37
382,681	54,27
382,891	-21,5
383,101	25,6
383,311	-11,26
383,521	7,17
383,731	31,74
383,941	1,02
384,151	35,84
384,361	9,22
384,571	66,56
384,781	-44,03
384,991	-29,7
385,201	46,08
385,411	-31,74
385,621	1,02
385,831	-29,7
386,041	50,18
386,251	-72,7
386,461	17,41
386,671	-23,55
386,881	-39,94
387,091	-11,26
387,301	3,07
387,511	25,6
387,72	31,74
387,93	7,17
388,14	58,37
388,35	27,65
388,56	25,6
388,769	13,31
388,979	21,5
389,189	50,18
389,399	23,55
389,609	-19,46
389,818	1,02
390,028	-68,61
390,238	-17,41
390,447	9,22
390,657	3,07
390,867	-27,65
391,076	35,84
391,286	19,46
391,496	-7,17
391,705	29,7
391,915	41,98
392,125	9,22
392,334	-7,17
392,544	-7,17
392,753	5,12
392,963	-41,98
393,172	-64,51
393,382	9,22
393,591	23,55
393,801	25,6
394,01	-35,84
394,22	-9,22
394,429	-39,94
394,639	-23,55
394,848	-3,07
395,058	-1,02
395,267	29,7
395,477	-35,84
395,686	29,7
395,895	-15,36
396,105	1,02
396,314	-60,42
396,524	1,02
396,733	66,56
396,942	-19,46
397,152	-27,65
397,361	52,22
397,57	-17,41
397,78	11,26
397,989	-29,7
398,198	13,31
398,407	1,02
398,617	41,98
398,826	13,31
399,035	-48,13
399,244	-7,17
399,453	46,08
399,663	-9,22
399,872	35,84
400,081	5,12
400,29	19,46
400,499	17,41
400,708	3,07
400,917	64,51
401,127	66,56
401,336	-1,02
401,545	17,41
401,754	48,13
401,963	29,7
402,172	-29,7
402,381	-11,26
402,59	5,12
402,799	-19,46
403,008	-27,65
403,217	-19,46
403,426	-9,22
403,635	78,85
403,844	68,61
404,053	1,02
404,262	-5,12
404,471	9,22
404,68	1,02
404,888	-23,55
405,097	11,26
405,306	31,74
405,515	66,56
405,724	19,46
405,933	23,55
406,142	-101,37
406,35	17,41
406,559	-23,55
406,768	15,36
406,977	7,17
407,185	-39,94
407,394	11,26
407,603	56,32
407,812	-35,84
408,02	29,7
408,229	87,04
408,438	-29,7
408,646	1,02
408,855	-39,94
409,064	33,79
409,272	33,79
409,481	25,6
409,69	-19,46
409,898	25,6
410,107	-19,46
410,315	25,6
410,524	46,08
410,733	44,03
410,941	46,08
411,15	-1,02
411,358	-54,27
411,567	-13,31
411,775	-31,74
411,984	-11,26
412,192	-1,02
412,401	66,56
412,609	-60,42
412,818	29,7
413,026	-9,22
413,234	-37,89
413,443	-11,26
413,651	-11,26
413,86	13,31
414,068	-27,65
414,276	46,08
414,485	1,02
414,693	-19,46
414,901	-5,12
415,11	19,46
415,318	25,6
415,526	15,36
415,734	33,79
415,943	-23,55
416,151	29,7
416,359	27,65
416,567	11,26
416,776	-13,31
416,984	1,02
417,192	-1,02
417,4	68,61
417,608	33,79
417,817	44,03
418,025	-13,31
418,233	54,27
418,441	-17,41
418,649	-29,7
418,857	-21,5
419,065	-44,03
419,273	-3,07
419,481	-72,7
419,689	-31,74
419,897	19,46
420,105	1,02
420,313	3,07
420,521	9,22
420,729	62,46
420,937	1,02
421,145	5,12
421,353	-9,22
421,561	33,79
421,769	-7,17
421,977	15,36
422,185	-29,7
422,393	25,6
422,601	39,94
422,809	-52,22
423,017	7,17
423,224	33,79
423,432	9,22
423,64	-9,22
423,848	5,12
424,056	11,26
424,263	5,12
424,471	62,46
424,679	9,22
424,887	3,07
425,094	1,02
425,302	7,17
425,51	7,17
425,718	-35,84
425,925	-7,17
426,133	-29,7
426,341	11,26
426,548	140,29
426,756	-31,74
426,964	52,22
427,171	-72,7
427,379	9,22
427,586	19,46
427,794	9,22
428,001	60,42
428,209	-39,94
428,417	-31,74
428,624	84,99
428,832	-37,89
429,039	25,6
429,247	50,18
429,454	-37,89
429,662	-68,61
429,869	1,02
430,076	-23,55
430,284	33,79
430,491	17,41
430,699	17,41
430,906	17,41
431,114	1,02
431,321	-25,6
431,528	62,46
431,736	52,22
431,943	19,46
432,15	1,02
432,358	-3,07
432,565	1,02
432,772	-15,36
432,979	11,26
433,187	68,61
433,394	-7,17
433,601	9,22
433,808	50,18
434,016	11,26
434,223	17,41
434,43	25,6
434,637	-15,36
434,844	35,84
435,052	-35,84
435,259	13,31
435,466	46,08
435,673	39,94
435,88	29,7
436,087	72,7
436,294	52,22
436,501	1,02
436,708	-35,84
436,915	-5,12
437,122	7,17
437,329	29,7
437,537	-15,36
437,743	29,7
437,95	-27,65
438,157	-19,46
438,364	37,89
438,571	41,98
438,778	29,7
438,985	33,79
439,192	13,31
439,399	-54,27
439,606	-29,7
439,813	-29,7
440,02	-46,08
440,227	-66,56
440,433	15,36
440,64	-11,26
440,847	44,03
441,054	13,31
441,261	39,94
441,467	15,36
441,674	21,5
441,881	19,46
442,088	-19,46
442,294	27,65
442,501	68,61
442,708	52,22
442,914	-31,74
443,121	17,41
443,328	78,85
443,534	1,02
443,741	-35,84
443,948	-23,55
444,154	46,08
444,361	33,79
444,568	-19,46
444,774	72,7
444,981	-39,94
445,187	-33,79
445,394	-35,84
445,6	41,98
445,807	-39,94
446,013	-64,51
446,22	13,31
446,426	35,84
446,633	-52,22
446,839	-1,02
447,046	-7,17
447,252	50,18
447,459	-11,26
447,665	58,37
447,871	-62,46
448,078	9,22
448,284	46,08
448,491	17,41
448,697	50,18
448,903	-23,55
449,11	27,65
449,316	3,07
449,522	-23,55
449,728	-31,74
449,935	-9,22
450,141	-27,65
450,347	-35,84
450,553	-13,31
450,76	-7,17
450,966	-37,89
451,172	-44,03
451,378	15,36
451,584	-35,84
451,791	17,41
451,997	-41,98
452,203	9,22
452,409	37,89
452,615	5,12
452,821	19,46
453,027	5,12
453,233	-50,18
453,44	-31,74
453,646	-13,31
453,852	-52,22
454,058	13,31
454,264	17,41
454,47	13,31
454,676	9,22
454,882	-64,51
455,088	44,03
455,294	25,6
455,5	-54,27
455,705	-29,7
455,911	25,6
456,117	-39,94
456,323	-31,74
456,529	11,26
456,735	37,89
456,941	9,22
457,147	-21,5
457,352	-7,17
457,558	84,99
457,764	-46,08
457,97	9,22
458,176	11,26
458,381	-46,08
458,587	-13,31
458,793	-3,07
458,999	17,41
459,204	17,41
459,41	-66,56
459,616	-44,03
459,821	-7,17
460,027	17,41
460,233	-48,13
460,438	19,46
460,644	19,46
460,85	62,46
461,055	-52,22
461,261	-25,6
461,466	50,18
461,672	5,12
461,878	-1,02
462,083	27,65
462,289	9,22
462,494	-93,18
462,7	-17,41
462,905	-62,46
463,111	1,02
463,316	-1,02
463,522	-80,89
463,727	-15,36
463,932	-15,36
464,138	-99,33
464,343	25,6
464,549	-15,36
464,754	-62,46
464,959	19,46
465,165	-3,07
465,37	9,22
465,575	-3,07
465,781	-23,55
465,986	29,7
466,191	58,37
466,397	-5,12
466,602	7,17
466,807	41,98
467,012	-19,46
467,218	-15,36
467,423	-15,36
467,628	-64,51
467,833	-62,46
468,038	-7,17
468,244	-23,55
468,449	41,98
468,654	1,02
468,859	-64,51
469,064	52,22
469,269	-15,36
469,474	33,79
469,679	44,03
469,885	15,36
470,09	37,89
470,295	33,79
470,5	-1,02
470,705	29,7
470,91	56,32
471,115	33,79
471,32	-31,74
471,525	37,89
471,73	-23,55
471,935	-31,74
472,139	-11,26
472,344	19,46
472,549	-33,79
472,754	-37,89
472,959	-7,17
473,164	35,84
473,369	95,23
473,574	44,03
473,778	-11,26
473,983	3,07
474,188	41,98
474,393	9,22
474,598	-5,12
474,802	-13,31
475,007	-7,17
475,212	1,02
475,417	52,22
475,621	35,84
475,826	-39,94
476,031	27,65
476,235	-56,32
476,44	-44,03
476,645	-23,55
476,849	27,65
477,054	9,22
477,259	19,46
477,463	52,22
477,668	-19,46
477,872	-9,22
478,077	50,18
478,282	-25,6
478,486	-3,07
478,691	-41,98
478,895	-1,02
479,1	-11,26
479,304	-35,84
479,509	52,22
479,713	-35,84
479,918	33,79
480,122	17,41
480,326	52,22
480,531	21,5
480,735	35,84
480,94	-44,03
481,144	7,17
481,348	23,55
481,553	-39,94
481,757	1,02
481,961	-31,74
482,166	-23,55
482,37	-101,37
482,574	17,41
482,778	-56,32
482,983	44,03
483,187	-5,12
483,391	29,7
483,595	9,22
483,8	-39,94
484,004	25,6
484,208	19,46
484,412	1,02
484,616	39,94
484,821	13,31
485,025	41,98
485,229	5,12
485,433	13,31
485,637	-50,18
485,841	-39,94
486,045	-11,26
486,249	9,22
486,453	23,55
486,657	-17,41
486,861	-58,37
487,065	3,07
487,269	9,22
487,473	64,51
487,677	1,02
487,881	25,6
488,085	17,41
488,289	9,22
488,493	11,26
488,697	-46,08
488,901	17,41
489,105	29,7
489,309	-29,7
489,512	11,26
489,716	-39,94
489,92	25,6
490,124	-48,13
490,328	54,27
490,531	-25,6
490,735	23,55
490,939	-11,26
491,143	41,98
491,346	-5,12
491,55	-91,13
491,754	3,07
491,958	-5,12
492,161	15,36
492,365	-19,46
492,569	-5,12
492,772	-48,13
492,976	3,07
493,18	-95,23
493,383	54,27
493,587	-29,7
493,79	-23,55
493,994	66,56
494,197	-29,7
494,401	3,07
494,605	13,31
494,808	-3,07
495,012	-13,31
495,215	68,61
495,419	-11,26
495,622	76,8
495,825	-23,55
496,029	15,36
496,232	-7,17
496,436	21,5
496,639	15,36
496,843	-31,74
497,046	-27,65
497,249	1,02
497,453	5,12
497,656	52,22
497,859	56,32
498,063	37,89
498,266	9,22
498,469	-15,36
498,673	54,27
498,876	17,41
499,079	9,22
499,282	1,02
499,485	66,56
499,689	25,6
499,892	46,08
500,095	74,75
500,298	33,79
500,501	37,89
500,705	-1,02
500,908	72,7
501,111	-7,17
501,314	41,98
501,517	-39,94
501,72	41,98
501,923	-15,36
502,126	-15,36
502,329	13,31
502,532	3,07
502,735	-31,74
502,938	33,79
503,141	3,07
503,344	3,07
503,547	-72,7
503,75	44,03
503,953	-46,08
504,156	48,13
504,359	29,7
504,562	-29,7
504,765	-44,03
504,968	5,12
505,17	1,02
505,373	11,26
505,576	11,26
505,779	-5,12
505,982	-19,46
506,185	13,31
506,387	-70,65
506,59	35,84
506,793	-31,74
506,996	21,5
507,198	68,61
507,401	31,74
507,604	25,6
507,807	52,22
508,009	-27,65
508,212	-41,98
508,415	-54,27
508,617	11,26
508,82	3,07
509,022	-48,13
509,225	-19,46
509,428	-7,17
509,63	21,5
509,833	41,98
510,035	54,27
510,238	-44,03
510,44	-5,12
510,643	-23,55
510,845	9,22
511,048	3,07
511,25	-29,7
511,453	27,65
511,655	-48,13
511,858	33,79
512,06	31,74
512,262	-35,84
512,465	-5,12
512,667	-31,74
512,87	35,84
513,072	70,65
513,274	-48,13
513,477	15,36
513,679	-7,17
513,881	-15,36
514,084	-93,18
514,286	-35,84
514,488	-70,65
514,69	9,22
514,893	-9,22
515,095	44,03
515,297	-3,07
515,499	39,94
515,701	-56,32
515,904	9,22
516,106	9,22
516,308	-11,26
516,51	-15,36
516,712	25,6
516,914	13,31
517,116	-15,36
517,318	60,42
517,52	3,07
517,722	13,31
517,925	60,42
518,127	-44,03
518,329	-33,79
518,531	-21,5
518,733	5,12
518,935	9,22
519,136	25,6
519,338	-62,46
519,54	-7,17
519,742	-56,32
519,944	54,27
520,146	17,41
520,348	35,84
520,55	-11,26
520,752	-50,18
520,954	19,46
521,155	46,08
521,357	-39,94
521,559	19,46
521,761	1,02
521,963	52,22
522,164	-7,17
522,366	-15,36
522,568	7,17
522,77	-1,02
522,971	25,6
523,173	-52,22
523,375	44,03
523,576	-37,89
523,778	-23,55
523,98	13,31
524,181	-31,74
524,383	109,57
524,584	-7,17
524,786	-23,55
524,988	3,07
525,189	-13,31
525,391	17,41
525,592	74,75
525,794	5,12
525,995	-33,79
526,197	-31,74
526,398	9,22
526,6	-5,12
526,801	19,46
527,003	17,41
527,204	58,37
527,406	-29,7
527,607	19,46
527,808	-39,94
528,01	-13,31
528,211	21,5
528,412	11,26
528,614	-21,5
528,815	52,22
529,016	66,56
529,218	-56,32
529,419	-50,18
529,62	-35,84
529,822	33,79
530,023	-5,12
530,224	25,6
530,425	19,46
530,626	11,26
530,828	19,46
531,029	1,02
531,23	52,22
531,431	113,66
531,632	-3,07
531,833	-7,17
532,035	3,07
532,236	-50,18
532,437	13,31
532,638	58,37
532,839	-80,89
533,04	5,12
533,241	-5,12
533,442	-35,84
533,643	-31,74
533,844	-1,02
534,045	-33,79
534,246	-66,56
534,447	1,02
534,648	9,22
534,849	-15,36
535,05	58,37
535,251	-13,31
535,451	25,6
535,652	-35,84
535,853	-27,65
536,054	-21,5
536,255	13,31
536,456	33,79
536,657	5,12
536,857	17,41
537,058	-56,32
537,259	29,7
537,46	-1,02
537,66	-17,41
537,861	-15,36
538,062	29,7
538,263	-56,32
538,463	-1,02
538,664	11,26
538,865	-27,65
539,065	-27,65
539,266	50,18
539,466	1,02
539,667	37,89
539,868	33,79
540,068	17,41
540,269	5,12
540,469	-11,26
540,67	15,36
540,87	-46,08
541,071	58,37
541,271	-50,18
541,472	23,55
541,672	25,6
541,873	15,36
542,073	-7,17
542,274	-29,7
542,474	-5,12
542,675	-9,22
542,875	17,41
543,075	-105,47
543,276	52,22
543,476	33,79
543,676	27,65
543,877	29,7
544,077	15,36
544,277	64,51
544,478	-66,56
544,678	41,98
544,878	11,26
545,078	15,36
545,279	9,22
545,479	9,22
545,679	11,26
545,879	37,89
546,079	-54,27
546,28	-27,65
546,48	50,18
546,68	17,41
546,88	-7,17
547,08	54,27
547,28	-68,61
547,48	-46,08
547,68	-5,12
547,88	11,26
548,081	-5,12
548,281	-19,46
548,481	-64,51
548,681	19,46
548,881	-31,74
549,081	15,36
549,28	-3,07
549,48	-3,07
549,68	58,37
549,88	17,41
550,08	9,22
550,28	50,18
550,48	37,89
550,68	-27,65
550,88	7,17
551,08	33,79
551,279	-35,84
551,479	-21,5
551,679	-19,46
551,879	27,65
552,079	-33,79
552,278	13,31
552,478	-35,84
552,678	-5,12
552,878	19,46
553,077	-23,55
553,277	-17,41
553,477	25,6
553,676	52,22
553,876	-66,56
554,076	13,31
554,275	5,12
554,475	7,17
554,674	-23,55
554,874	25,6
555,074	-1,02
555,273	50,18
555,473	-48,13
555,672	-80,89
555,872	-13,31
556,071	9,22
556,271	5,12
556,47	-39,94
556,67	11,26
556,869	33,79
557,068	-5,12
557,268	-15,36
557,467	-39,94
557,667	-21,5
557,866	70,65
558,065	-19,46
558,265	66,56
558,464	9,22
558,663	-33,79
558,863	66,56
559,062	-66,56
559,261	-27,65
559,461	-19,46
559,66	-21,5
559,859	17,41
560,058	31,74
560,258	-3,07
560,457	7,17
560,656	1,02
560,855	-37,89
561,054	-11,26
561,253	-68,61
561,453	50,18
561,652	11,26
561,851	97,28
562,05	-3,07
562,249	-5,12
562,448	9,22
562,647	-13,31
562,846	-23,55
563,045	74,75
563,244	33,79
563,443	27,65
563,642	39,94
563,841	60,42
564,04	25,6
564,239	54,27
564,438	3,07
564,637	-56,32
564,836	21,5
565,035	17,41
565,234	-7,17
565,432	50,18
565,631	-39,94
565,83	-15,36
566,029	-37,89
566,228	66,56
566,427	46,08
566,625	35,84
566,824	-5,12
567,023	27,65
567,222	-3,07
567,42	21,5
567,619	27,65
567,818	80,89
568,016	50,18
568,215	25,6
568,414	-7,17
568,612	21,5
568,811	84,99
569,01	148,48
569,208	189,44
569,407	371,71
569,605	687,09
569,804	1074,16
570,002	1659,88
570,201	2593,75
570,4	3388,36
570,598	4809,65
570,797	6038,44
570,995	8225,67
571,193	9984,87
571,392	12514,11
571,59	14879,52
571,789	17894,13
571,987	21263,04
572,186	24879,75
572,384	28187,22
572,582	31908,38
572,781	35576,29
572,979	38758,83
573,177	42340,73
573,376	45134,16
573,574	46676,28
573,772	49813,77
573,971	51298,55
574,169	52562,14
574,367	54071,49
574,565	55064,76
574,763	55742,64
574,962	56406,18
575,16	56653,98
575,358	57882,76
575,556	58003,59
575,754	59342,97
575,952	58593,41
576,151	59820,14
576,349	59838,57
576,547	59857,01
576,745	60538,98
576,943	60495,97
577,141	60467,3
577,339	60790,88
577,537	60309,61
577,735	60524,64
577,933	60006,51
578,131	60455,01
578,329	59347,06
578,527	59285,62
578,725	58638,47
578,923	58529,92
579,121	57495,7
579,319	56877,21
579,516	55855,28
579,714	54460,61
579,912	52760,79
580,11	51327,22
580,308	49371,41
580,506	47108,4
580,704	44093,79
580,901	42088,83
581,099	38822,32
581,297	35547,62
581,495	32594,45
581,692	29790,78
581,89	26337,9
582,088	23509,66
582,285	20286,15
582,483	17887,98
582,681	14961,44
582,878	12958,52
583,076	10716
583,274	9151,35
583,471	7050,13
583,669	5974,95
583,866	4623,29
584,064	3748,81
584,262	2474,97
584,459	1868,77
584,657	1287,15
584,854	793,59
585,052	558,07
585,249	394,23
585,447	281,6
585,644	214,01
585,841	164,86
586,039	134,14
586,236	199,68
586,434	62,46
586,631	82,94
586,828	101,37
587,026	3,07
587,223	-3,07
587,42	41,98
587,618	13,31
587,815	-7,17
588,012	-48,13
588,21	87,04
588,407	70,65
588,604	27,65
588,801	78,85
588,999	37,89
589,196	-29,7
589,393	46,08
589,59	-3,07
589,787	123,9
589,984	50,18
590,182	58,37
590,379	97,28
590,576	-29,7
590,773	35,84
590,97	46,08
591,167	-5,12
591,364	39,94
591,561	-52,22
591,758	-23,55
591,955	1,02
592,152	3,07
592,349	-5,12
592,546	-5,12
592,743	-11,26
592,94	1,02
593,137	-23,55
593,334	-35,84
593,531	44,03
593,727	37,89
593,924	-31,74
594,121	-11,26
594,318	1,02
594,515	91,13
594,712	-15,36
594,908	37,89
595,105	1,02
595,302	-78,85
595,499	91,13
595,696	5,12
595,892	-29,7
596,089	-60,42
596,286	23,55
596,482	3,07
596,679	35,84
596,876	-37,89
597,072	-19,46
597,269	35,84
597,466	-50,18
597,662	33,79
597,859	39,94
598,055	25,6
598,252	-25,6
598,448	107,52
598,645	44,03
598,841	15,36
599,038	-17,41
599,234	-27,65
599,431	-56,32
599,627	11,26
599,824	-15,36
600,02	-3,07
600,217	50,18
600,413	11,26
600,609	-39,94
600,806	50,18
601,002	15,36
601,198	15,36
601,395	-25,6
601,591	-54,27
601,787	-60,42
601,984	46,08
602,18	19,46
602,376	-50,18
602,572	50,18
602,769	1,02
602,965	-9,22
603,161	-7,17
603,357	-44,03
603,553	62,46
603,75	-23,55
603,946	31,74
604,142	-48,13
604,338	-29,7
604,534	19,46
604,73	-25,6
604,926	17,41
605,122	84,99
605,318	23,55
605,514	23,55
605,71	13,31
605,906	23,55
606,102	-7,17
606,298	13,31
606,494	64,51
606,69	-13,31
606,886	27,65
607,082	23,55
607,278	-15,36
607,474	1,02
607,67	13,31
607,866	-13,31
608,062	64,51
608,257	13,31
608,453	-13,31
608,649	27,65
608,845	-29,7
609,041	56,32
609,236	-21,5
609,432	44,03
609,628	-58,37
609,824	-37,89
610,019	-23,55
610,215	15,36
610,411	50,18
610,606	-33,79
610,802	-5,12
610,998	31,74
611,193	-13,31
611,389	-3,07
611,584	17,41
611,78	11,26
611,976	-68,61
612,171	25,6
612,367	11,26
612,562	46,08
612,758	25,6
612,953	-5,12
613,149	-35,84
613,344	-48,13
613,539	-3,07
613,735	33,79
613,93	76,8
614,126	48,13
614,321	-27,65
614,517	50,18
614,712	-23,55
614,907	11,26
615,103	-80,89
615,298	-1,02
615,493	-41,98
615,688	-44,03
615,884	-3,07
616,079	33,79
616,274	-31,74
616,47	9,22
616,665	-46,08
616,86	9,22
617,055	-29,7
617,25	9,22
617,445	19,46
617,641	-15,36
617,836	-35,84
618,031	-46,08
618,226	39,94
618,421	-44,03
618,616	-15,36
618,811	1,02
619,006	-7,17
619,201	5,12
619,396	-3,07
619,591	-31,74
619,786	19,46
619,981	13,31
620,176	23,55
620,371	-3,07
620,566	-46,08
620,761	-27,65
620,956	-58,37
621,151	17,41
621,346	15,36
621,541	29,7
621,735	35,84
621,93	33,79
622,125	3,07
622,32	95,23
622,515	-15,36
622,709	-29,7
622,904	-37,89
623,099	29,7
623,294	-7,17
623,488	-13,31
623,683	17,41
623,878	-23,55
624,072	7,17
624,267	1,02
624,462	19,46
624,656	1,02
624,851	-50,18
625,046	-54,27
625,24	-5,12
625,435	58,37
625,629	-56,32
625,824	29,7
626,018	9,22
626,213	19,46
626,407	3,07
626,602	31,74
626,796	27,65
626,991	19,46
627,185	37,89
627,38	35,84
627,574	-95,23
627,768	-19,46
627,963	-46,08
628,157	37,89
628,352	-60,42
628,546	3,07
628,74	-27,65
628,935	35,84
629,129	-11,26
629,323	35,84
629,517	-27,65
629,712	39,94
629,906	-23,55
630,1	-35,84
630,294	-48,13
630,489	9,22
630,683	48,13
630,877	29,7
631,071	-21,5
631,265	-39,94
631,459	41,98
631,653	29,7
631,848	-64,51
632,042	-11,26
632,236	-25,6
632,43	-56,32
632,624	-52,22
632,818	33,79
633,012	44,03
633,206	68,61
633,4	-60,42
633,594	-19,46
633,788	-11,26
633,982	-29,7
634,176	58,37
634,369	-17,41
634,563	-39,94
634,757	-5,12
634,951	44,03
635,145	-13,31
635,339	-17,41
635,533	11,26
635,726	35,84
635,92	9,22
636,114	56,32
636,308	-62,46
636,501	-37,89
636,695	31,74
636,889	-48,13
637,083	17,41
637,276	-39,94
637,47	-7,17
637,664	33,79
637,857	29,7
638,051	1,02
638,244	-27,65
638,438	1,02
638,632	-48,13
638,825	11,26
639,019	23,55
639,212	-23,55
639,406	-15,36
639,599	11,26
639,793	9,22
639,986	-1,02
640,18	1,02
640,373	9,22
640,567	11,26
640,76	54,27
640,954	37,89
641,147	15,36
641,34	-31,74
641,534	-1,02
641,727	11,26
641,92	-15,36
642,114	15,36
642,307	54,27
642,5	1,02
642,694	11,26
642,887	9,22
643,08	70,65
643,273	-29,7
643,467	-15,36
643,66	-21,5
643,853	-52,22
644,046	1,02
644,239	58,37
644,432	-19,46
644,626	-29,7
644,819	-48,13
645,012	-9,22
645,205	95,23
645,398	13,31
645,591	-11,26
645,784	33,79
645,977	-46,08
646,17	7,17
646,363	23,55
646,556	39,94
646,749	-9,22
646,942	-23,55
647,135	31,74
647,328	1,02
647,521	-37,89
647,714	19,46
647,907	-37,89
648,099	9,22
648,292	41,98
648,485	17,41
648,678	17,41
648,871	-19,46
649,064	105,47
649,256	7,17
649,449	3,07
649,642	-31,74
649,835	13,31
650,027	44,03
650,22	-56,32
650,413	56,32
650,605	-1,02
650,798	-27,65
650,991	17,41
651,183	3,07
651,376	-11,26
651,568	-23,55
651,761	-23,55
651,954	-31,74
652,146	17,41
652,339	31,74
652,531	33,79
652,724	-87,04
652,916	37,89
653,109	15,36
653,301	19,46
653,494	-84,99
653,686	25,6
653,879	-52,22
654,071	54,27
654,263	-9,22
654,456	74,75
654,648	-17,41
654,84	-5,12
655,033	-39,94
655,225	68,61
655,417	44,03
655,61	33,79
655,802	-19,46
655,994	-56,32
656,186	-21,5
656,379	-54,27
656,571	25,6
656,763	-35,84
656,955	-5,12
657,148	17,41
657,34	21,5
657,532	9,22
657,724	13,31
657,916	19,46
658,108	35,84
658,3	-39,94
658,492	-13,31
658,684	-15,36
658,876	78,85
659,068	-21,5
659,26	13,31
659,452	44,03
659,644	3,07
659,836	11,26
660,028	35,84
660,22	54,27
660,412	9,22
660,604	54,27
660,796	46,08
660,988	-11,26
661,18	-3,07
661,372	-7,17
661,563	13,31
661,755	-11,26
661,947	-37,89
662,139	41,98
662,331	-15,36
662,522	-29,7
662,714	11,26
662,906	-3,07
663,097	-29,7
663,289	-9,22
663,481	19,46
663,673	-3,07
663,864	-78,85
664,056	1,02
664,247	35,84
664,439	-78,85
664,631	-7,17
664,822	9,22
665,014	31,74
665,205	-13,31
665,397	33,79
665,588	11,26
665,78	-29,7
665,971	-60,42
666,163	91,13
666,354	60,42
666,546	1,02
666,737	9,22
666,929	11,26
667,12	27,65
667,311	-13,31
667,503	33,79
667,694	50,18
667,885	-46,08
668,077	-19,46
668,268	-13,31
668,459	-11,26
668,651	-3,07
668,842	35,84
669,033	37,89
669,224	3,07
669,416	1,02
669,607	-23,55
669,798	-31,74
669,989	-31,74
670,18	58,37
670,371	37,89
670,563	33,79
670,754	23,55
670,945	9,22
671,136	3,07
671,327	31,74
671,518	-13,31
671,709	1,02
671,9	1,02
672,091	-23,55
672,282	13,31
672,473	76,8
672,664	-9,22
672,855	25,6
673,046	-48,13
673,237	-64,51
673,428	35,84
673,619	-44,03
673,809	5,12
674	11,26
674,191	13,31
674,382	56,32
674,573	5,12
674,764	-29,7
674,954	74,75
675,145	58,37
675,336	9,22
675,527	5,12
675,717	21,5
675,908	-3,07
676,099	-13,31
676,289	-7,17
676,48	-87,04
676,671	115,71
676,861	62,46
677,052	-3,07
677,243	-13,31
677,433	44,03
677,624	-46,08
677,814	-3,07
678,005	17,41
678,195	17,41
678,386	-29,7
678,576	29,7
678,767	-31,74
678,957	-27,65
679,148	-3,07
679,338	27,65
679,529	5,12
679,719	48,13
679,909	-39,94
680,1	-23,55
680,29	-41,98
680,481	-54,27
680,671	-21,5
680,861	-21,5
681,052	3,07
681,242	17,41
681,432	-3,07
681,622	66,56
681,813	-19,46
682,003	35,84
682,193	37,89
682,383	-15,36
682,573	27,65
682,764	27,65
682,954	56,32
683,144	50,18
683,334	7,17
683,524	37,89
683,714	29,7
683,904	29,7
684,094	21,5
684,284	13,31
684,474	-17,41
684,664	56,32
684,854	-7,17
685,044	-31,74
685,234	9,22
685,424	1,02
685,614	33,79
685,804	-15,36
685,994	-11,26
686,184	44,03
686,374	33,79
686,564	-52,22
686,753	-52,22
686,943	-23,55
687,133	33,79
687,323	37,89
687,513	-119,81
687,702	99,33
687,892	-23,55
688,082	-5,12
688,272	29,7
688,461	-15,36
688,651	-29,7
688,841	-1,02
689,03	11,26
689,22	-54,27
689,41	-15,36
689,599	-17,41
689,789	15,36
689,979	19,46
690,168	-9,22
690,358	25,6
690,547	-13,31
690,737	78,85
690,926	41,98
691,116	-25,6
691,305	37,89
691,495	13,31
691,684	-52,22
691,874	9,22
692,063	39,94
692,252	-15,36
692,442	-35,84
692,631	5,12
692,82	-70,65
693,01	-5,12
693,199	11,26
693,388	5,12
693,578	15,36
693,767	-52,22
693,956	-13,31
694,146	23,55
694,335	23,55
694,524	-44,03
694,713	-23,55
694,902	58,37
695,092	-3,07
695,281	-82,94
695,47	-41,98
695,659	3,07
695,848	27,65
696,037	58,37
696,226	-9,22
696,415	-13,31
696,604	-31,74
696,793	-29,7
696,982	-23,55
697,171	-25,6
697,36	9,22
697,549	-35,84
697,738	33,79
697,927	-58,37
698,116	37,89
698,305	-3,07
698,494	-15,36
698,683	25,6
698,872	74,75
699,061	17,41
699,25	35,84
699,438	74,75
699,627	-39,94
699,816	3,07
700,005	-39,94
700,193	27,65
700,382	-19,46
700,571	17,41
700,76	19,46
700,948	-89,09
701,137	-13,31
701,326	-31,74
701,514	-7,17
701,703	-25,6
701,892	19,46
702,08	66,56
702,269	-25,6
702,457	11,26
702,646	44,03
702,834	13,31
703,023	-15,36
703,212	68,61
703,4	-48,13
703,589	-9,22
703,777	9,22
703,965	-23,55
704,154	-68,61
704,342	-29,7
704,531	-7,17
704,719	-31,74
704,907	-37,89
705,096	-54,27
705,284	37,89
705,472	25,6
705,661	-15,36
705,849	60,42
706,037	3,07
706,226	-80,89
706,414	-15,36
706,602	-11,26
706,79	7,17
706,979	82,94
707,167	-23,55
707,355	25,6
707,543	15,36
707,731	33,79
707,919	72,7
708,107	68,61
708,296	-41,98
708,484	19,46
708,672	27,65
708,86	-76,8
709,048	-41,98
709,236	-19,46
709,424	-29,7
709,612	1,02
709,8	-39,94
709,988	-39,94
710,176	9,22
710,364	-15,36
710,551	62,46
710,739	-15,36
710,927	5,12
711,115	-15,36
711,303	-39,94
711,491	-17,41
711,679	-31,74
711,866	17,41
712,054	-5,12
712,242	-13,31
712,43	-15,36
712,617	31,74
712,805	-31,74
712,993	9,22
713,181	37,89
713,368	5,12
713,556	-23,55
713,744	1,02
713,931	15,36
714,119	17,41
714,306	-13,31
714,494	60,42
714,682	5,12
714,869	13,31
715,057	1,02
715,244	5,12
715,432	-21,5
715,619	13,31
715,807	3,07
715,994	-7,17
716,182	-29,7
716,369	13,31
716,556	-46,08
716,744	19,46
716,931	27,65
717,119	-15,36
717,306	17,41
717,493	25,6
717,681	-17,41
717,868	33,79
718,055	-37,89
718,242	13,31
718,43	9,22
718,617	-9,22
718,804	-39,94
718,991	74,75
719,179	50,18
719,366	-19,46
719,553	89,09
719,74	17,41
719,927	-11,26
720,114	-7,17
720,301	13,31
720,488	-17,41
720,676	-25,6
720,863	25,6
721,05	-15,36
721,237	-31,74
721,424	-9,22
721,611	66,56
721,798	91,13
721,985	66,56
722,172	1,02
722,358	-31,74
722,545	-7,17
722,732	25,6
722,919	35,84
723,106	17,41
723,293	-23,55
723,48	5,12
723,667	-29,7
723,853	15,36
724,04	-3,07
724,227	-5,12
724,414	-5,12
724,6	52,22
724,787	13,31
724,974	-27,65
725,161	17,41
725,347	-54,27
725,534	-13,31
725,72	-7,17
725,907	68,61
726,094	46,08
726,28	41,98
726,467	41,98
726,653	17,41
726,84	19,46
727,027	-19,46
727,213	-31,74
727,4	-62,46
727,586	3,07
727,773	-5,12
727,959	5,12
728,145	17,41
728,332	27,65
728,518	52,22
728,705	17,41
728,891	50,18
729,077	-27,65
729,264	37,89
729,45	-25,6
729,636	-7,17
729,823	21,5
730,009	-3,07
730,195	-27,65
730,382	50,18
730,568	-66,56
730,754	-5,12
730,94	-13,31
731,126	-21,5
731,313	46,08
731,499	17,41
731,685	66,56
731,871	29,7
732,057	33,79
732,243	-23,55
732,429	-3,07
732,615	-44,03
732,801	25,6
732,987	33,79
733,173	-21,5
733,359	-44,03
733,545	1,02
733,731	-11,26
733,917	1,02
734,103	-37,89
734,289	-33,79
734,475	1,02
734,661	13,31
734,847	1,02
735,033	21,5
735,219	5,12
735,404	-62,46
735,59	-17,41
735,776	1,02
735,962	21,5
736,148	-5,12
736,333	-29,7
736,519	33,79
736,705	62,46
736,89	62,46
737,076	15,36
737,262	13,31
737,447	17,41
737,633	37,89
737,819	-23,55
738,004	-41,98
738,19	33,79
738,375	52,22
738,561	-7,17
738,747	-33,79
738,932	-35,84
739,118	7,17
739,303	-41,98
739,489	27,65
739,674	-15,36
739,859	3,07
740,045	37,89
740,23	39,94
740,416	44,03
740,601	-35,84
740,786	-3,07
740,972	-11,26
741,157	13,31
741,342	-37,89
741,528	33,79
741,713	-1,02
741,898	-64,51
742,084	1,02
742,269	-1,02
742,454	-39,94
742,639	-27,65
742,824	-13,31
743,01	-13,31
743,195	-25,6
743,38	11,26
743,565	-15,36
743,75	58,37
743,935	-27,65
744,12	-62,46
744,305	25,6
744,49	-39,94
744,675	46,08
744,86	-13,31
745,045	-48,13
745,23	-35,84
745,415	-19,46
745,6	58,37
745,785	29,7
745,97	-15,36
746,155	-11,26
746,34	9,22
746,525	-35,84
746,71	70,65
746,895	3,07
747,079	-1,02
747,264	-5,12
747,449	-48,13
747,634	33,79
747,819	-89,09
748,003	72,7
748,188	-7,17
748,373	-19,46
748,557	3,07
748,742	50,18
748,927	27,65
749,111	25,6
749,296	41,98
749,481	-25,6
749,665	13,31
749,85	-15,36
750,034	-46,08
750,219	9,22
750,404	-17,41
750,588	27,65
750,773	-3,07
750,957	25,6
751,141	-11,26
751,326	41,98
751,51	68,61
751,695	-23,55
751,879	-21,5
752,064	25,6
752,248	-29,7
752,432	-27,65
752,617	41,98
752,801	13,31
752,985	25,6
753,17	1,02
753,354	-50,18
753,538	58,37
753,722	-31,74
753,907	19,46
754,091	1,02
754,275	-41,98
754,459	-31,74
754,643	17,41
754,828	-37,89
755,012	-91,13
755,196	-5,12
755,38	-23,55
755,564	9,22
755,748	-23,55
755,932	25,6
756,116	60,42
756,3	-11,26
756,484	11,26
756,668	58,37
756,852	17,41
757,036	-3,07
757,22	-46,08
757,404	11,26
757,588	58,37
757,772	-44,03
757,956	44,03
758,14	3,07
758,323	109,57
758,507	48,13
758,691	-31,74
758,875	-5,12
759,059	41,98
759,242	-21,5
759,426	72,7
759,61	-21,5
759,794	-11,26
759,977	-27,65
760,161	-7,17
760,345	5,12
760,528	-15,36
760,712	9,22
760,895	44,03
761,079	-60,42
761,263	9,22
761,446	5,12
761,63	-64,51
761,813	93,18
761,997	23,55
762,18	44,03
762,364	-5,12
762,547	13,31
762,731	19,46
762,914	44,03
763,098	-21,5
763,281	21,5
763,464	-5,12
763,648	50,18
763,831	-23,55
764,015	-39,94
764,198	5,12
764,381	-9,22
764,564	1,02
764,748	66,56
764,931	-3,07
765,114	9,22
765,297	-48,13
765,481	46,08
765,664	7,17
765,847	-3,07
766,03	-82,94
766,213	-50,18
766,397	-37,89
766,58	27,65
766,763	3,07
766,946	33,79
767,129	33,79
767,312	-27,65
767,495	-60,42
767,678	46,08
767,861	31,74
768,044	-19,46
768,227	5,12
768,41	80,89
768,593	-15,36
768,776	17,41
768,959	-29,7
769,142	48,13
769,324	33,79
769,507	62,46
769,69	33,79
769,873	-17,41
770,056	31,74
770,239	-13,31
770,421	7,17
770,604	-23,55
770,787	-5,12
770,97	-27,65
771,152	91,13
771,335	33,79
771,518	68,61
771,7	1,02
771,883	-1,02
772,066	-15,36
772,248	52,22
772,431	25,6
772,613	23,55
772,796	-9,22
772,978	9,22
773,161	13,31
773,343	-29,7
773,526	-37,89
773,708	39,94
773,891	-31,74
774,073	-48,13
774,256	-70,65
774,438	25,6
774,621	-46,08
774,803	15,36
774,985	-70,65
775,168	5,12
775,35	35,84
775,532	46,08
775,715	15,36
775,897	52,22
776,079	-1,02
776,261	-21,5
776,444	-37,89
776,626	-27,65
776,808	27,65
776,99	31,74
777,173	-15,36
777,355	-46,08
777,537	52,22
777,719	-31,74
777,901	-7,17
778,083	-5,12
778,265	-15,36
778,447	27,65
778,629	15,36
778,811	17,41
778,993	-37,89
779,175	25,6
779,357	-13,31
779,539	9,22
779,721	21,5
779,903	-19,46
780,085	15,36
780,267	-15,36
780,449	-31,74
780,631	13,31
780,812	46,08
780,994	-15,36
781,176	52,22
781,358	17,41
781,54	-1,02
781,721	1,02
781,903	-37,89
782,085	31,74
782,267	27,65
782,448	-37,89
782,63	39,94
782,812	31,74
782,993	-23,55
783,175	46,08
783,357	-44,03
783,538	35,84
783,72	31,74
783,901	37,89
784,083	-54,27
784,264	-56,32
784,446	11,26
784,627	-9,22
784,809	52,22
784,99	-27,65
785,172	-15,36
785,353	1,02
785,535	25,6
785,716	-31,74
785,897	-58,37
786,079	37,89
786,26	23,55
786,441	-50,18
786,623	-3,07
786,804	-3,07
786,985	9,22
787,167	25,6
787,348	-35,84
787,529	-11,26
787,71	-3,07
787,891	46,08
788,073	-33,79
788,254	21,5
788,435	1,02
788,616	-15,36
788,797	7,17
788,978	29,7
789,159	11,26
789,34	-46,08
789,522	-23,55
789,703	54,27
789,884	-33,79
790,065	19,46
790,246	-37,89
790,427	46,08
790,607	35,84
790,788	19,46
790,969	-41,98
791,15	11,26
791,331	-54,27
791,512	25,6
791,693	-29,7
791,874	99,33
792,054	44,03
792,235	68,61
792,416	-29,7
792,597	62,46
792,778	-15,36
792,958	5,12
793,139	27,65
793,32	37,89
793,5	-7,17
793,681	33,79
793,862	5,12
794,042	-13,31
794,223	-66,56
794,404	60,42
794,584	-54,27
794,765	-13,31
794,945	-35,84
795,126	5,12
795,306	-13,31
795,487	27,65
795,667	-21,5
795,848	7,17
796,028	-7,17
796,209	121,85
796,389	-29,7
796,57	17,41
796,75	11,26
796,93	87,04
797,111	35,84
797,291	5,12
797,471	74,75
797,652	50,18
797,832	17,41
798,012	72,7
798,192	15,36
798,373	-37,89
798,553	37,89
798,733	41,98
798,913	-39,94
799,093	25,6
799,274	-15,36
799,454	-3,07
799,634	19,46
799,814	-29,7
799,994	-48,13
800,174	9,22
800,354	-60,42
800,534	-23,55
800,714	62,46
800,894	19,46
801,074	-5,12
801,254	-62,46
801,434	-11,26
801,614	-58,37
801,794	-9,22
801,974	-23,55
802,154	41,98
802,334	-3,07
802,514	-68,61
802,693	-23,55
802,873	41,98
803,053	19,46
803,233	-31,74
803,413	13,31
803,592	68,61
803,772	1,02
803,952	-19,46
804,131	7,17
804,311	-5,12
804,491	17,41
804,67	13,31
804,85	-27,65
805,03	-23,55
805,209	-3,07
805,389	48,13
805,568	11,26
805,748	52,22
805,928	33,79
806,107	-31,74
806,287	-23,55
806,466	68,61
806,646	1,02
806,825	-35,84
807,004	66,56
807,184	-3,07
807,363	-11,26
807,543	-29,7
807,722	19,46
807,901	9,22
808,081	-19,46
808,26	19,46
808,439	46,08
808,619	19,46
808,798	-21,5
808,977	11,26
809,156	-33,79
809,336	-21,5
809,515	-21,5
809,694	-56,32
809,873	-23,55
810,052	-80,89
810,231	9,22
810,411	-46,08
810,59	13,31
810,769	3,07
810,948	-13,31
811,127	19,46
811,306	37,89
811,485	60,42
811,664	52,22
811,843	-15,36
812,022	-78,85
812,201	-1,02
812,38	-91,13
812,559	-15,36
812,737	27,65
812,916	13,31
813,095	-35,84
813,274	-1,02
813,453	13,31
813,632	19,46
813,811	15,36
813,989	-23,55
814,168	1,02
814,347	-7,17
814,526	-31,74
814,704	35,84
814,883	-66,56
815,062	13,31
815,24	-76,8
815,419	-44,03
815,598	46,08
815,776	-15,36
815,955	46,08
816,133	19,46
816,312	37,89
816,49	-39,94
816,669	-15,36
816,847	13,31
817,026	19,46
817,204	-31,74
817,383	3,07
817,561	13,31
817,74	-15,36
817,918	-48,13
818,097	-17,41
818,275	-5,12
818,453	39,94
818,632	13,31
818,81	-15,36
818,988	31,74
819,167	-37,89
819,345	33,79
819,523	78,85
819,701	-60,42
819,879	-19,46
820,058	-5,12
820,236	27,65
820,414	-7,17
820,592	27,65
820,77	17,41
820,948	29,7
821,127	-15,36
821,305	-7,17
821,483	11,26
821,661	1,02
821,839	-29,7
822,017	-21,5
822,195	13,31
822,373	27,65
822,551	-46,08
822,729	41,98
822,907	-15,36
823,085	27,65
823,262	46,08
823,44	23,55
823,618	-27,65
823,796	-41,98
823,974	-54,27
824,152	5,12
824,329	-3,07
824,507	19,46
824,685	27,65
824,863	58,37
825,04	-15,36
825,218	52,22
825,396	-37,89
825,574	-7,17
825,751	31,74
825,929	-7,17
826,107	-23,55
826,284	31,74
826,462	-56,32
826,639	-21,5
826,817	-21,5
826,994	15,36
827,172	-72,7
827,349	31,74
827,527	-29,7
827,704	52,22
827,882	37,89
828,059	50,18
828,237	-1,02
828,414	5,12
828,591	-25,6
828,769	9,22
828,946	-17,41
829,124	-31,74
829,301	-3,07
829,478	-27,65
829,655	-13,31
829,833	33,79
830,01	-7,17
830,187	-31,74
830,364	17,41
830,542	37,89
830,719	21,5
830,896	21,5
831,073	-29,7
831,25	25,6
831,427	11,26
831,604	-70,65
831,782	13,31
831,959	-15,36
832,136	41,98
832,313	21,5
832,49	35,84
832,667	13,31
832,844	78,85
833,021	-41,98
833,198	-33,79
833,374	-5,12
833,551	41,98
833,728	3,07
833,905	27,65
834,082	13,31
834,259	-23,55
834,436	-21,5
834,612	-117,76
834,789	11,26
834,966	-78,85
835,143	44,03
835,319	-29,7
835,496	-29,7
835,673	-15,36
835,85	-19,46
836,026	5,12
836,203	41,98
836,38	33,79
836,556	68,61
836,733	-23,55
836,909	25,6
837,086	-19,46
837,262	9,22
837,439	19,46
837,616	-41,98
837,792	-72,7
837,968	-5,12
838,145	19,46
838,321	11,26
838,498	-105,47
838,674	-1,02
838,851	11,26
839,027	-35,84
839,203	27,65
839,38	-23,55
839,556	-39,94
839,732	74,75
839,909	58,37
840,085	-9,22
840,261	5,12
840,437	-3,07
840,614	25,6
840,79	50,18
840,966	15,36
841,142	5,12
841,318	-7,17
841,494	17,41
841,671	33,79
841,847	1,02
842,023	17,41
842,199	-29,7
842,375	-15,36
842,551	-5,12
842,727	-48,13
842,903	62,46
843,079	-7,17
843,255	35,84
843,431	64,51
843,607	60,42
843,783	-64,51
843,959	19,46
844,134	1,02
844,31	13,31
844,486	-3,07
844,662	76,8
844,838	33,79
845,013	-37,89
845,189	68,61
845,365	-7,17
845,541	13,31
845,716	31,74
845,892	66,56
846,068	56,32
846,244	-48,13
846,419	-23,55
846,595	37,89
846,77	-66,56
846,946	27,65
847,122	-21,5
847,297	7,17
847,473	-15,36
847,648	-56,32
847,824	-13,31
847,999	58,37
848,175	64,51
848,35	5,12
848,526	7,17
848,701	-17,41
848,876	3,07
849,052	41,98
849,227	50,18
849,403	-31,74
849,578	-3,07
849,753	-7,17
849,929	78,85
850,104	25,6
850,279	33,79
850,454	-82,94
850,63	-29,7
850,805	70,65
850,98	-15,36
851,155	-5,12
851,33	9,22
851,505	-62,46
851,681	-3,07
851,856	19,46
852,031	9,22
852,206	-66,56
852,381	-50,18
852,556	9,22
852,731	-3,07
852,906	-48,13
853,081	11,26
853,256	-125,95
853,431	29,7
853,606	-56,32
853,781	-50,18
853,956	19,46
854,131	1,02
854,305	115,71
854,48	84,99
854,655	31,74
854,83	-3,07
855,005	-21,5
855,18	11,26
855,354	-29,7
855,529	33,79
855,704	-44,03
855,879	-25,6
856,053	-35,84
856,228	13,31
856,403	44,03
856,577	3,07
856,752	-64,51
856,926	13,31
857,101	9,22
857,276	41,98
857,45	-13,31
857,625	41,98
857,799	-5,12
857,974	33,79
858,148	-15,36
858,323	1,02
858,497	15,36
858,672	3,07
858,846	-15,36
859,02	21,5
859,195	-17,41
859,369	41,98
859,543	-37,89
859,718	44,03
859,892	48,13
860,066	-13,31
860,241	13,31
860,415	41,98
860,589	19,46
860,763	-9,22
860,938	25,6
861,112	99,33
861,286	33,79
861,46	3,07
861,634	-80,89
861,808	-66,56
861,982	-21,5
862,157	-27,65
862,331	13,31
862,505	-89,09
862,679	-37,89
862,853	15,36
863,027	-48,13
863,201	7,17
863,375	-31,74
863,549	41,98
863,722	21,5
863,896	-15,36
864,07	-50,18
864,244	-13,31
864,418	39,94
864,592	-27,65
864,766	-66,56
864,939	44,03
865,113	21,5
865,287	13,31
865,461	-9,22
865,634	-52,22
865,808	-58,37
865,982	62,46
866,156	-19,46
866,329	46,08
866,503	-15,36
866,676	76,8
866,85	-23,55
867,024	3,07
867,197	25,6
867,371	68,61
867,544	29,7
867,718	-54,27
867,891	-23,55
868,065	17,41
868,238	1,02
868,412	60,42
868,585	19,46
868,759	33,79
868,932	-72,7
869,105	50,18
869,279	50,18
869,452	9,22
869,625	-29,7
869,799	25,6
869,972	31,74
870,145	-13,31
870,319	-31,74
870,492	-11,26
870,665	-41,98
870,838	15,36
871,011	-11,26
871,185	23,55
871,358	66,56
871,531	39,94
871,704	-39,94
871,877	-7,17
872,05	33,79
872,223	11,26
872,396	17,41
872,569	37,89
872,742	39,94
872,915	5,12
873,088	-3,07
873,261	5,12
873,434	50,18
873,607	25,6
873,78	-9,22
873,953	11,26
874,126	-56,32
874,299	33,79
874,471	91,13
874,644	50,18
874,817	-13,31
874,99	74,75
875,163	21,5
875,335	-7,17
875,508	-23,55
875,681	7,17
875,853	29,7
876,026	25,6
876,199	58,37
876,371	-19,46
876,544	-3,07
876,717	21,5
876,889	-37,89
877,062	13,31
877,234	3,07
877,407	-5,12
877,579	-5,12
877,752	15,36
877,924	-7,17
878,097	58,37
878,269	25,6
878,442	23,55
878,614	21,5
878,786	52,22
878,959	-17,41
879,131	-48,13
879,303	-50,18
879,476	-3,07
879,648	58,37
879,82	3,07
879,993	1,02
880,165	33,79
880,337	29,7
880,509	19,46
880,681	-89,09
880,854	41,98
881,026	-23,55
881,198	39,94
881,37	25,6
881,542	33,79
881,714	-37,89
881,886	5,12
882,058	-31,74
882,23	21,5
882,402	25,6
882,574	9,22
882,746	11,26
882,918	-19,46
883,09	-11,26
883,262	19,46
883,434	48,13
883,606	29,7
883,778	-11,26
883,95	23,55
884,122	-3,07
884,293	60,42
884,465	-39,94
884,637	3,07
884,809	41,98
884,98	17,41
885,152	41,98
885,324	-23,55
885,496	29,7
885,667	58,37
885,839	-19,46
886,011	25,6
886,182	-19,46
886,354	35,84
886,525	-19,46
886,697	74,75
886,869	27,65
887,04	62,46
887,212	50,18
887,383	-1,02
887,555	3,07
887,726	-21,5
887,897	-23,55
888,069	1,02
888,24	-31,74
888,412	3,07
888,583	35,84
888,754	19,46
888,926	-46,08
889,097	-21,5
889,268	-58,37
889,44	-46,08
889,611	13,31
889,782	-27,65
889,953	27,65
890,125	9,22
890,296	-84,99
890,467	17,41
890,638	-21,5
890,809	1,02
890,98	-29,7
891,151	9,22
891,323	5,12
891,494	35,84
891,665	3,07
891,836	-5,12
892,007	17,41
892,178	1,02
892,349	15,36
892,52	3,07
892,691	-23,55
892,862	-48,13
893,032	-3,07
893,203	-11,26
893,374	-13,31
893,545	-23,55
893,716	-23,55
893,887	33,79
894,057	44,03
894,228	-23,55
894,399	-60,42
894,57	-62,46
894,74	-48,13
894,911	-70,65
895,082	1,02
895,253	25,6
895,423	82,94
895,594	3,07
895,764	21,5
895,935	3,07
896,106	11,26
896,276	33,79
896,447	11,26
896,617	46,08
896,788	-11,26
896,958	-25,6
897,129	-52,22
897,299	11,26
897,47	-23,55
897,64	-3,07
897,81	52,22
897,981	5,12
898,151	-17,41
898,322	1,02
898,492	-9,22
898,662	21,5
898,832	-29,7
899,003	62,46
899,173	-48,13
899,343	-5,12
899,513	-3,07
