Data from filtre 577_USB4F104151__8__12-00-10-763.txt Node

Date: Wed Apr 15 12:00:10 EDT 2026
User: LaboPhy
Spectrometer: USB4F10415
Trigger mode: 4
Integration Time (sec): 2,000000E-3
Scans to average: 1
Electric dark correction enabled: true
Nonlinearity correction enabled: false
Boxcar width: 0
XAxis mode: Wavelengths
Number of Pixels in Spectrum: 3648
>>>>>Begin Spectral Data<<<<<
178,204	-47,27
178,424	-47,27
178,644	-47,27
178,864	34,64
179,084	-0,17
179,304	36,69
179,524	34,64
179,744	8,02
179,964	-8,36
180,184	-8,36
180,404	-6,31
180,624	-4,27
180,844	48,98
181,064	-75,95
181,283	-61,61
181,503	-6,31
181,723	42,84
181,943	8,02
182,163	5,97
182,383	-47,27
182,602	3,93
182,822	-10,41
183,042	-8,36
183,262	67,41
183,482	12,12
183,701	67,41
183,921	-14,51
184,141	10,07
184,361	3,93
184,58	-14,51
184,8	-18,6
185,02	-69,8
185,239	10,07
185,459	24,4
185,679	-55,47
185,898	-6,31
186,118	20,31
186,338	-20,65
186,557	-30,89
186,777	1,88
186,997	-30,89
187,216	-16,55
187,436	63,32
187,655	-55,47
187,875	-0,17
188,095	-24,75
188,314	-10,41
188,534	-16,55
188,753	26,45
188,973	14,17
189,192	-16,55
189,412	-6,31
189,631	-73,9
189,851	-28,84
190,07	-39,08
190,29	18,26
190,509	-65,71
190,729	-22,7
190,948	26,45
191,168	5,97
191,387	-4,27
191,607	5,97
191,826	36,69
192,045	51,03
192,265	1,88
192,484	26,45
192,704	12,12
192,923	5,97
193,142	48,98
193,362	-69,8
193,581	36,69
193,8	-34,99
194,02	-16,55
194,239	8,02
194,458	-47,27
194,678	40,79
194,897	-43,18
195,116	-55,47
195,335	32,6
195,555	-0,17
195,774	-24,75
195,993	8,02
196,212	5,97
196,432	-37,03
196,651	-16,55
196,87	-51,37
197,089	20,31
197,308	1,88
197,528	-20,65
197,747	-12,46
197,966	-14,51
198,185	32,6
198,404	-30,89
198,623	36,69
198,842	8,02
199,062	81,75
199,281	3,93
199,5	-0,17
199,719	8,02
199,938	-47,27
200,157	1,88
200,376	-77,99
200,595	-32,94
200,814	1,88
201,033	-41,13
201,252	102,23
201,471	8,02
201,69	83,8
201,909	24,4
202,128	18,26
202,347	24,4
202,566	12,12
202,785	16,21
203,004	-45,23
203,223	44,88
203,442	3,93
203,661	-12,46
203,879	-26,79
204,098	73,56
204,317	-12,46
204,536	-4,27
204,755	-16,55
204,974	8,02
205,193	83,8
205,411	-16,55
205,63	-41,13
205,849	48,98
206,068	-8,36
206,287	30,55
206,505	51,03
206,724	8,02
206,943	-0,17
207,162	48,98
207,381	-6,31
207,599	8,02
207,818	8,02
208,037	-49,32
208,255	-30,89
208,474	-26,79
208,693	-0,17
208,911	34,64
209,13	-26,79
209,349	20,31
209,567	16,21
209,786	24,4
210,005	-20,65
210,223	-55,47
210,442	-84,14
210,661	-14,51
210,879	18,26
211,098	-24,75
211,316	-49,32
211,535	32,6
211,753	-10,41
211,972	18,26
212,191	16,21
212,409	34,64
212,628	24,4
212,846	-24,75
213,065	1,88
213,283	34,64
213,502	26,45
213,72	-53,42
213,938	-86,19
214,157	44,88
214,375	-6,31
214,594	28,5
214,812	-8,36
215,031	83,8
215,249	-63,66
215,467	10,07
215,686	-6,31
215,904	8,02
216,122	32,6
216,341	-90,28
216,559	-6,31
216,778	-47,27
216,996	48,98
217,214	-45,23
217,432	-37,03
217,651	44,88
217,869	-86,19
218,087	20,31
218,306	8,02
218,524	1,88
218,742	48,98
218,96	-12,46
219,179	59,22
219,397	-6,31
219,615	-12,46
219,833	-8,36
220,051	12,12
220,27	-26,79
220,488	-88,23
220,706	-16,55
220,924	-32,94
221,142	-24,75
221,36	-65,71
221,578	1,88
221,796	65,36
222,015	36,69
222,233	48,98
222,451	32,6
222,669	-16,55
222,887	20,31
223,105	5,97
223,323	-32,94
223,541	16,21
223,759	12,12
223,977	-49,32
224,195	42,84
224,413	53,08
224,631	8,02
224,849	87,89
225,067	14,17
225,285	-26,79
225,503	10,07
225,721	3,93
225,939	-47,27
226,157	-12,46
226,375	-24,75
226,592	10,07
226,81	-24,75
227,028	-26,79
227,246	16,21
227,464	-26,79
227,682	42,84
227,9	-16,55
228,117	32,6
228,335	-14,51
228,553	-10,41
228,771	-49,32
228,989	-43,18
229,206	24,4
229,424	3,93
229,642	-2,22
229,86	-59,56
230,077	51,03
230,295	20,31
230,513	-57,51
230,731	65,36
230,948	-53,42
231,166	89,94
231,384	-45,23
231,601	16,21
231,819	-32,94
232,037	-16,55
232,254	-47,27
232,472	-71,85
232,689	-37,03
232,907	-0,17
233,125	22,36
233,342	-32,94
233,56	-6,31
233,777	32,6
233,995	-8,36
234,213	-34,99
234,43	-0,17
234,648	-22,7
234,865	-12,46
235,083	-39,08
235,3	-24,75
235,518	46,93
235,735	1,88
235,953	106,32
236,17	44,88
236,388	16,21
236,605	-10,41
236,822	20,31
237,04	34,64
237,257	-0,17
237,475	10,07
237,692	1,88
237,909	34,64
238,127	-16,55
238,344	-77,99
238,562	12,12
238,779	-14,51
238,996	30,55
239,214	40,79
239,431	57,17
239,648	16,21
239,865	-8,36
240,083	-34,99
240,3	-49,32
240,517	20,31
240,735	48,98
240,952	-24,75
241,169	-24,75
241,386	-96,43
241,603	-45,23
241,821	-24,75
242,038	-16,55
242,255	-32,94
242,472	118,61
242,689	22,36
242,907	10,07
243,124	-32,94
243,341	18,26
243,558	-43,18
243,775	5,97
243,992	-8,36
244,209	32,6
244,426	14,17
244,643	-20,65
244,86	12,12
245,078	3,93
245,295	3,93
245,512	22,36
245,729	-14,51
245,946	51,03
246,163	-53,42
246,38	32,6
246,597	-0,17
246,814	5,97
247,031	-16,55
247,248	-20,65
247,464	16,21
247,681	-37,03
247,898	-30,89
248,115	71,51
248,332	24,4
248,549	32,6
248,766	34,64
248,983	26,45
249,2	-30,89
249,417	-28,84
249,633	-53,42
249,85	48,98
250,067	30,55
250,284	73,56
250,501	36,69
250,717	12,12
250,934	-6,31
251,151	12,12
251,368	22,36
251,585	16,21
251,801	59,22
252,018	48,98
252,235	36,69
252,451	-16,55
252,668	-0,17
252,885	8,02
253,102	-39,08
253,318	-20,65
253,535	-32,94
253,752	-0,17
253,968	-34,99
254,185	18,26
254,401	24,4
254,618	-51,37
254,835	24,4
255,051	-14,51
255,268	-8,36
255,484	-10,41
255,701	-51,37
255,917	65,36
256,134	-92,33
256,351	14,17
256,567	24,4
256,784	-55,47
257	-28,84
257,217	-41,13
257,433	-55,47
257,65	-16,55
257,866	53,08
258,082	32,6
258,299	-12,46
258,515	28,5
258,732	-49,32
258,948	-16,55
259,165	-94,38
259,381	-8,36
259,597	-63,66
259,814	-41,13
260,03	-47,27
260,246	8,02
260,463	-8,36
260,679	12,12
260,895	-2,22
261,112	-30,89
261,328	-6,31
261,544	48,98
261,761	3,93
261,977	18,26
262,193	-47,27
262,409	-12,46
262,626	-57,51
262,842	36,69
263,058	-6,31
263,274	26,45
263,49	-61,61
263,707	-28,84
263,923	1,88
264,139	-14,51
264,355	-39,08
264,571	5,97
264,787	1,88
265,004	28,5
265,22	-8,36
265,436	-12,46
265,652	-67,75
265,868	32,6
266,084	16,21
266,3	73,56
266,516	26,45
266,732	16,21
266,948	-34,99
267,164	-73,9
267,38	18,26
267,596	18,26
267,812	-6,31
268,028	-30,89
268,244	75,6
268,46	28,5
268,676	12,12
268,892	34,64
269,108	32,6
269,324	36,69
269,54	28,5
269,756	10,07
269,972	26,45
270,188	3,93
270,403	67,41
270,619	24,4
270,835	-0,17
271,051	-12,46
271,267	-104,62
271,483	24,4
271,698	-47,27
271,914	8,02
272,13	-24,75
272,346	32,6
272,562	-30,89
272,777	14,17
272,993	-55,47
273,209	59,22
273,425	18,26
273,64	-28,84
273,856	34,64
274,072	-37,03
274,287	53,08
274,503	-30,89
274,719	12,12
274,934	-16,55
275,15	57,17
275,366	-55,47
275,581	-24,75
275,797	77,65
276,012	8,02
276,228	-4,27
276,444	-45,23
276,659	-55,47
276,875	-43,18
277,09	-12,46
277,306	-16,55
277,521	16,21
277,737	-16,55
277,952	65,36
278,168	1,88
278,383	-6,31
278,599	65,36
278,814	-37,03
279,03	-73,9
279,245	53,08
279,461	-16,55
279,676	-18,6
279,892	-6,31
280,107	-45,23
280,322	59,22
280,538	-37,03
280,753	-39,08
280,969	-10,41
281,184	-4,27
281,399	18,26
281,615	28,5
281,83	-0,17
282,045	-51,37
282,26	12,12
282,476	-24,75
282,691	-18,6
282,906	8,02
283,122	-26,79
283,337	57,17
283,552	-6,31
283,767	16,21
283,983	-34,99
284,198	-57,51
284,413	-73,9
284,628	8,02
284,843	12,12
285,058	10,07
285,274	14,17
285,489	59,22
285,704	1,88
285,919	14,17
286,134	10,07
286,349	-75,95
286,564	40,79
286,779	32,6
286,995	-16,55
287,21	3,93
287,425	16,21
287,64	16,21
287,855	61,27
288,07	36,69
288,285	-47,27
288,5	32,6
288,715	46,93
288,93	-16,55
289,145	42,84
289,36	18,26
289,575	-16,55
289,79	-16,55
290,004	10,07
290,219	-4,27
290,434	16,21
290,649	42,84
290,864	8,02
291,079	48,98
291,294	-20,65
291,509	12,12
291,724	1,88
291,938	-63,66
292,153	28,5
292,368	16,21
292,583	-16,55
292,798	36,69
293,012	-16,55
293,227	-51,37
293,442	-104,62
293,657	44,88
293,871	3,93
294,086	24,4
294,301	-0,17
294,516	75,6
294,73	18,26
294,945	8,02
295,16	-16,55
295,374	8,02
295,589	10,07
295,804	-77,99
296,018	61,27
296,233	-47,27
296,447	48,98
296,662	-14,51
296,877	-0,17
297,091	69,46
297,306	81,75
297,52	-80,04
297,735	5,97
297,949	26,45
298,164	-14,51
298,378	-28,84
298,593	-24,75
298,807	-16,55
299,022	-34,99
299,236	34,64
299,451	55,12
299,665	-2,22
299,88	-6,31
300,094	5,97
300,309	22,36
300,523	-39,08
300,737	-24,75
300,952	-10,41
301,166	8,02
301,381	3,93
301,595	-49,32
301,809	12,12
302,024	-8,36
302,238	79,7
302,452	-22,7
302,667	-20,65
302,881	-34,99
303,095	-75,95
303,309	-39,08
303,524	-12,46
303,738	51,03
303,952	-55,47
304,166	40,79
304,381	8,02
304,595	-28,84
304,809	20,31
305,023	91,99
305,237	-20,65
305,452	-24,75
305,666	-20,65
305,88	24,4
306,094	8,02
306,308	3,93
306,522	-22,7
306,736	-18,6
306,95	16,21
307,164	32,6
307,379	-47,27
307,593	-51,37
307,807	16,21
308,021	16,21
308,235	-6,31
308,449	24,4
308,663	-71,85
308,877	42,84
309,091	-24,75
309,305	-24,75
309,519	-26,79
309,733	22,36
309,947	-49,32
310,161	-22,7
310,374	-47,27
310,588	24,4
310,802	-4,27
311,016	-0,17
311,23	-26,79
311,444	24,4
311,658	-37,03
311,872	57,17
312,085	32,6
312,299	-14,51
312,513	-30,89
312,727	36,69
312,941	-51,37
313,154	51,03
313,368	-37,03
313,582	-77,99
313,796	85,84
314,009	65,36
314,223	-65,71
314,437	26,45
314,651	-41,13
314,864	110,42
315,078	-10,41
315,292	32,6
315,505	48,98
315,719	10,07
315,933	44,88
316,146	-16,55
316,36	1,88
316,573	51,03
316,787	-28,84
317,001	14,17
317,214	-67,75
317,428	-16,55
317,641	-47,27
317,855	-16,55
318,068	-80,04
318,282	-4,27
318,495	-12,46
318,709	-8,36
318,922	16,21
319,136	20,31
319,349	18,26
319,563	81,75
319,776	3,93
319,99	-41,13
320,203	-41,13
320,417	-22,7
320,63	28,5
320,843	20,31
321,057	-8,36
321,27	20,31
321,483	-39,08
321,697	48,98
321,91	-6,31
322,124	8,02
322,337	28,5
322,55	16,21
322,763	20,31
322,977	94,04
323,19	-30,89
323,403	-4,27
323,617	-37,03
323,83	1,88
324,043	-39,08
324,256	24,4
324,469	-18,6
324,683	-24,75
324,896	-39,08
325,109	-39,08
325,322	-8,36
325,535	-18,6
325,748	1,88
325,962	16,21
326,175	-12,46
326,388	5,97
326,601	-73,9
326,814	-30,89
327,027	-94,38
327,24	63,32
327,453	-30,89
327,666	14,17
327,879	-10,41
328,092	24,4
328,305	69,46
328,518	5,97
328,731	-22,7
328,944	51,03
329,157	-77,99
329,37	34,64
329,583	40,79
329,796	-6,31
330,009	-41,13
330,222	57,17
330,435	5,97
330,648	-61,61
330,861	24,4
331,073	22,36
331,286	-8,36
331,499	-16,55
331,712	-41,13
331,925	3,93
332,138	10,07
332,35	-0,17
332,563	-73,9
332,776	-14,51
332,989	18,26
333,202	-6,31
333,414	20,31
333,627	-32,94
333,84	-16,55
334,053	-22,7
334,265	-30,89
334,478	18,26
334,691	-14,51
334,903	10,07
335,116	40,79
335,329	-20,65
335,541	-47,27
335,754	36,69
335,966	36,69
336,179	8,02
336,392	-14,51
336,604	-0,17
336,817	-24,75
337,029	8,02
337,242	8,02
337,454	48,98
337,667	-26,79
337,88	-2,22
338,092	-73,9
338,305	53,08
338,517	-49,32
338,729	-4,27
338,942	51,03
339,154	-32,94
339,367	-26,79
339,579	-41,13
339,792	44,88
340,004	-41,13
340,217	-43,18
340,429	16,21
340,641	24,4
340,854	18,26
341,066	36,69
341,278	5,97
341,491	-24,75
341,703	-4,27
341,915	-10,41
342,128	-26,79
342,34	32,6
342,552	40,79
342,764	-65,71
342,977	30,55
343,189	-14,51
343,401	-32,94
343,613	-112,81
343,826	-22,7
344,038	-8,36
344,25	18,26
344,462	-45,23
344,674	10,07
344,886	28,5
345,099	-24,75
345,311	-0,17
345,523	-24,75
345,735	-80,04
345,947	8,02
346,159	81,75
346,371	-22,7
346,583	-45,23
346,795	12,12
347,007	14,17
347,219	38,74
347,431	-26,79
347,643	8,02
347,855	-96,43
348,067	85,84
348,279	-34,99
348,491	69,46
348,703	26,45
348,915	-39,08
349,127	34,64
349,339	-41,13
349,551	-12,46
349,763	24,4
349,975	-82,09
350,187	-88,23
350,399	38,74
350,61	34,64
350,822	-53,42
351,034	-73,9
351,246	-16,55
351,458	-49,32
351,669	-16,55
351,881	-12,46
352,093	-20,65
352,305	-37,03
352,517	51,03
352,728	-8,36
352,94	-20,65
353,152	-65,71
353,363	-24,75
353,575	-6,31
353,787	24,4
353,999	1,88
354,21	87,89
354,422	18,26
354,633	-51,37
354,845	24,4
355,057	-49,32
355,268	77,65
355,48	10,07
355,692	3,93
355,903	1,88
356,115	-4,27
356,326	-61,61
356,538	63,32
356,749	61,27
356,961	44,88
357,172	30,55
357,384	-57,51
357,595	20,31
357,807	-4,27
358,018	-16,55
358,23	12,12
358,441	-30,89
358,653	5,97
358,864	-4,27
359,075	30,55
359,287	14,17
359,498	36,69
359,709	-80,04
359,921	-4,27
360,132	30,55
360,344	-94,38
360,555	48,98
360,766	32,6
360,977	-16,55
361,189	-47,27
361,4	16,21
361,611	-108,71
361,823	-6,31
362,034	18,26
362,245	-65,71
362,456	-75,95
362,667	-51,37
362,879	89,94
363,09	-4,27
363,301	-2,22
363,512	3,93
363,723	-24,75
363,935	48,98
364,146	-0,17
364,357	51,03
364,568	3,93
364,779	12,12
364,99	-28,84
365,201	-49,32
365,412	69,46
365,623	10,07
365,834	40,79
366,045	16,21
366,256	71,51
366,467	-14,51
366,678	63,32
366,889	-53,42
367,1	-84,14
367,311	-69,8
367,522	65,36
367,733	16,21
367,944	-32,94
368,155	1,88
368,366	34,64
368,577	34,64
368,788	-55,47
368,999	20,31
369,209	51,03
369,42	16,21
369,631	16,21
369,842	-30,89
370,053	24,4
370,264	28,5
370,474	38,74
370,685	-16,55
370,896	-14,51
371,107	16,21
371,317	-16,55
371,528	18,26
371,739	-45,23
371,95	-43,18
372,16	-8,36
372,371	22,36
372,582	10,07
372,792	-0,17
373,003	-57,51
373,214	-45,23
373,424	14,17
373,635	-20,65
373,846	16,21
374,056	46,93
374,267	-0,17
374,477	16,21
374,688	32,6
374,898	26,45
375,109	-8,36
375,319	-8,36
375,53	12,12
375,74	-8,36
375,951	-6,31
376,161	-12,46
376,372	-4,27
376,582	-88,23
376,793	67,41
377,003	10,07
377,214	3,93
377,424	22,36
377,635	22,36
377,845	-14,51
378,055	-14,51
378,266	-0,17
378,476	-30,89
378,686	26,45
378,897	-49,32
379,107	-4,27
379,317	-63,66
379,528	-41,13
379,738	67,41
379,948	-4,27
380,158	65,36
380,369	20,31
380,579	-53,42
380,789	-16,55
380,999	-14,51
381,21	-47,27
381,42	51,03
381,63	-24,75
381,84	85,84
382,05	-22,7
382,261	-16,55
382,471	8,02
382,681	12,12
382,891	-0,17
383,101	10,07
383,311	8,02
383,521	-6,31
383,731	-20,65
383,941	18,26
384,151	-6,31
384,361	59,22
384,571	-73,9
384,781	36,69
384,991	32,6
385,201	8,02
385,411	30,55
385,621	102,23
385,831	42,84
386,041	8,02
386,251	20,31
386,461	89,94
386,671	42,84
386,881	20,31
387,091	-20,65
387,301	32,6
387,511	36,69
387,72	-49,32
387,93	-63,66
388,14	1,88
388,35	10,07
388,56	-22,7
388,769	-32,94
388,979	-0,17
389,189	34,64
389,399	1,88
389,609	-6,31
389,818	18,26
390,028	44,88
390,238	24,4
390,447	-0,17
390,657	-16,55
390,867	1,88
391,076	-32,94
391,286	77,65
391,496	48,98
391,705	-0,17
391,915	1,88
392,125	-26,79
392,334	-4,27
392,544	22,36
392,753	-14,51
392,963	32,6
393,172	-30,89
393,382	32,6
393,591	51,03
393,801	26,45
394,01	-2,22
394,22	-8,36
394,429	28,5
394,639	-37,03
394,848	75,6
395,058	-34,99
395,267	42,84
395,477	24,4
395,686	16,21
395,895	-20,65
396,105	24,4
396,314	46,93
396,524	-12,46
396,733	-16,55
396,942	12,12
397,152	-47,27
397,361	-32,94
397,57	-6,31
397,78	-0,17
397,989	-16,55
398,198	77,65
398,407	-0,17
398,617	-73,9
398,826	-20,65
399,035	69,46
399,244	38,74
399,453	10,07
399,663	-16,55
399,872	5,97
400,081	-55,47
400,29	14,17
400,499	42,84
400,708	-63,66
400,917	46,93
401,127	3,93
401,336	-4,27
401,545	-16,55
401,754	3,93
401,963	12,12
402,172	-22,7
402,381	-51,37
402,59	-28,84
402,799	-20,65
403,008	-53,42
403,217	-30,89
403,426	65,36
403,635	-90,28
403,844	20,31
404,053	18,26
404,262	55,12
404,471	-30,89
404,68	-18,6
404,888	-63,66
405,097	-4,27
405,306	8,02
405,515	40,79
405,724	-12,46
405,933	12,12
406,142	-61,61
406,35	-22,7
406,559	-18,6
406,768	24,4
406,977	26,45
407,185	1,88
407,394	-20,65
407,603	-6,31
407,812	22,36
408,02	-14,51
408,229	12,12
408,438	-20,65
408,646	-10,41
408,855	-57,51
409,064	-55,47
409,272	-6,31
409,481	-20,65
409,69	30,55
409,898	-49,32
410,107	40,79
410,315	24,4
410,524	16,21
410,733	30,55
410,941	10,07
411,15	-0,17
411,358	-22,7
411,567	24,4
411,775	-53,42
411,984	-32,94
412,192	38,74
412,401	-32,94
412,609	-4,27
412,818	10,07
413,026	-6,31
413,234	87,89
413,443	10,07
413,651	-28,84
413,86	5,97
414,068	65,36
414,276	-41,13
414,485	32,6
414,693	10,07
414,901	-37,03
415,11	46,93
415,318	18,26
415,526	42,84
415,734	-22,7
415,943	8,02
416,151	-8,36
416,359	30,55
416,567	-28,84
416,776	-22,7
416,984	-20,65
417,192	-55,47
417,4	81,75
417,608	-18,6
417,817	-18,6
418,025	-71,85
418,233	24,4
418,441	12,12
418,649	44,88
418,857	-6,31
419,065	-10,41
419,273	-0,17
419,481	-28,84
419,689	28,5
419,897	28,5
420,105	10,07
420,313	32,6
420,521	-61,61
420,729	-39,08
420,937	-65,71
421,145	24,4
421,353	-6,31
421,561	120,66
421,769	48,98
421,977	51,03
422,185	-37,03
422,393	-6,31
422,601	-4,27
422,809	26,45
423,017	-39,08
423,224	28,5
423,432	44,88
423,64	5,97
423,848	-24,75
424,056	-4,27
424,263	10,07
424,471	-16,55
424,679	-45,23
424,887	-39,08
425,094	-4,27
425,302	-41,13
425,51	-16,55
425,718	3,93
425,925	-88,23
426,133	-73,9
426,341	-16,55
426,548	-14,51
426,756	-20,65
426,964	-57,51
427,171	-16,55
427,379	-57,51
427,586	-14,51
427,794	22,36
428,001	18,26
428,209	87,89
428,417	-49,32
428,624	-73,9
428,832	-80,04
429,039	12,12
429,247	-18,6
429,454	10,07
429,662	-16,55
429,869	-34,99
430,076	-45,23
430,284	-4,27
430,491	-20,65
430,699	12,12
430,906	-16,55
431,114	20,31
431,321	12,12
431,528	-8,36
431,736	-69,8
431,943	-2,22
432,15	36,69
432,358	-45,23
432,565	-8,36
432,772	40,79
432,979	-41,13
433,187	1,88
433,394	-34,99
433,601	-22,7
433,808	-20,65
434,016	38,74
434,223	61,27
434,43	24,4
434,637	40,79
434,844	-18,6
435,052	-16,55
435,259	-18,6
435,466	-12,46
435,673	10,07
435,88	5,97
436,087	3,93
436,294	-30,89
436,501	24,4
436,708	16,21
436,915	-32,94
437,122	22,36
437,329	8,02
437,537	-24,75
437,743	40,79
437,95	-12,46
438,157	-57,51
438,364	-147,62
438,571	3,93
438,778	-20,65
438,985	1,88
439,192	38,74
439,399	3,93
439,606	-28,84
439,813	40,79
440,02	-18,6
440,227	51,03
440,433	16,21
440,64	12,12
440,847	-18,6
441,054	24,4
441,261	-49,32
441,467	-69,8
441,674	-4,27
441,881	-43,18
442,088	59,22
442,294	26,45
442,501	14,17
442,708	20,31
442,914	16,21
443,121	-51,37
443,328	32,6
443,534	-20,65
443,741	18,26
443,948	20,31
444,154	-20,65
444,361	-8,36
444,568	-20,65
444,774	8,02
444,981	-6,31
445,187	40,79
445,394	-2,22
445,6	-8,36
445,807	48,98
446,013	28,5
446,22	-24,75
446,426	-10,41
446,633	-82,09
446,839	-0,17
447,046	-37,03
447,252	-45,23
447,459	26,45
447,665	-16,55
447,871	3,93
448,078	28,5
448,284	-30,89
448,491	32,6
448,697	8,02
448,903	-14,51
449,11	24,4
449,316	32,6
449,522	-16,55
449,728	22,36
449,935	12,12
450,141	8,02
450,347	36,69
450,553	-8,36
450,76	51,03
450,966	61,27
451,172	16,21
451,378	130,9
451,584	16,21
451,791	10,07
451,997	-32,94
452,203	1,88
452,409	28,5
452,615	-30,89
452,821	-10,41
453,027	-24,75
453,233	100,18
453,44	-51,37
453,646	12,12
453,852	-47,27
454,058	-61,61
454,264	-4,27
454,47	34,64
454,676	-0,17
454,882	-32,94
455,088	-0,17
455,294	48,98
455,5	-4,27
455,705	-86,19
455,911	24,4
456,117	-14,51
456,323	40,79
456,529	16,21
456,735	-30,89
456,941	42,84
457,147	16,21
457,352	16,21
457,558	3,93
457,764	10,07
457,97	3,93
458,176	-4,27
458,381	-16,55
458,587	44,88
458,793	18,26
458,999	22,36
459,204	-16,55
459,41	-24,75
459,616	-12,46
459,821	53,08
460,027	28,5
460,233	-53,42
460,438	-2,22
460,644	-39,08
460,85	81,75
461,055	48,98
461,261	-16,55
461,466	-39,08
461,672	1,88
461,878	-30,89
462,083	-10,41
462,289	-90,28
462,494	12,12
462,7	3,93
462,905	-30,89
463,111	-22,7
463,316	-90,28
463,522	-8,36
463,727	32,6
463,932	-28,84
464,138	24,4
464,343	-22,7
464,549	18,26
464,754	1,88
464,959	-24,75
465,165	10,07
465,37	-24,75
465,575	10,07
465,781	-28,84
465,986	-10,41
466,191	-0,17
466,397	-4,27
466,602	26,45
466,807	-69,8
467,012	26,45
467,218	8,02
467,423	40,79
467,628	-53,42
467,833	20,31
468,038	1,88
468,244	143,19
468,449	26,45
468,654	-6,31
468,859	-0,17
469,064	132,95
469,269	-55,47
469,474	-28,84
469,679	-2,22
469,885	-61,61
470,09	-16,55
470,295	-28,84
470,5	40,79
470,705	-63,66
470,91	-39,08
471,115	32,6
471,32	-59,56
471,525	1,88
471,73	10,07
471,935	36,69
472,139	-6,31
472,344	-32,94
472,549	-16,55
472,754	24,4
472,959	-41,13
473,164	18,26
473,369	24,4
473,574	-28,84
473,778	18,26
473,983	5,97
474,188	-133,29
474,393	36,69
474,598	12,12
474,802	57,17
475,007	-10,41
475,212	8,02
475,417	28,5
475,621	-14,51
475,826	-20,65
476,031	28,5
476,235	-18,6
476,44	32,6
476,645	8,02
476,849	-0,17
477,054	5,97
477,259	-26,79
477,463	-28,84
477,668	8,02
477,872	-32,94
478,077	20,31
478,282	-37,03
478,486	-24,75
478,691	-6,31
478,895	18,26
479,1	16,21
479,304	10,07
479,509	3,93
479,713	48,98
479,918	-82,09
480,122	-6,31
480,326	-10,41
480,531	-37,03
480,735	16,21
480,94	-53,42
481,144	63,32
481,348	40,79
481,553	20,31
481,757	24,4
481,961	26,45
482,166	24,4
482,37	-30,89
482,574	-30,89
482,778	-14,51
482,983	53,08
483,187	-28,84
483,391	-10,41
483,595	-65,71
483,8	38,74
484,004	-14,51
484,208	42,84
484,412	3,93
484,616	10,07
484,821	-55,47
485,025	32,6
485,229	-39,08
485,433	-18,6
485,637	1,88
485,841	59,22
486,045	14,17
486,249	16,21
486,453	-65,71
486,657	40,79
486,861	8,02
487,065	5,97
487,269	14,17
487,473	-20,65
487,677	-14,51
487,881	14,17
488,085	100,18
488,289	40,79
488,493	18,26
488,697	-61,61
488,901	-34,99
489,105	24,4
489,309	44,88
489,512	3,93
489,716	-4,27
489,92	16,21
490,124	-57,51
490,328	20,31
490,531	-6,31
490,735	-49,32
490,939	10,07
491,143	28,5
491,346	8,02
491,55	-16,55
491,754	-2,22
491,958	10,07
492,161	5,97
492,365	42,84
492,569	106,32
492,772	10,07
492,976	18,26
493,18	-4,27
493,383	-8,36
493,587	-4,27
493,79	-45,23
493,994	-2,22
494,197	-8,36
494,401	3,93
494,605	-49,32
494,808	83,8
495,012	-47,27
495,215	63,32
495,419	-39,08
495,622	-22,7
495,825	-4,27
496,029	-8,36
496,232	-12,46
496,436	10,07
496,639	-24,75
496,843	-34,99
497,046	85,84
497,249	-20,65
497,453	-12,46
497,656	-80,04
497,859	-8,36
498,063	28,5
498,266	-63,66
498,469	22,36
498,673	-53,42
498,876	28,5
499,079	32,6
499,282	-16,55
499,485	16,21
499,689	16,21
499,892	-8,36
500,095	3,93
500,298	-28,84
500,501	-0,17
500,705	32,6
500,908	28,5
501,111	-30,89
501,314	-26,79
501,517	53,08
501,72	42,84
501,923	-12,46
502,126	18,26
502,329	16,21
502,532	10,07
502,735	-20,65
502,938	67,41
503,141	14,17
503,344	32,6
503,547	-18,6
503,75	-41,13
503,953	-30,89
504,156	-43,18
504,359	-16,55
504,562	8,02
504,765	73,56
504,968	-8,36
505,17	8,02
505,373	28,5
505,576	-0,17
505,779	3,93
505,982	14,17
506,185	10,07
506,387	20,31
506,59	-39,08
506,793	94,04
506,996	-0,17
507,198	-20,65
507,401	10,07
507,604	24,4
507,807	-139,43
508,009	-12,46
508,212	-82,09
508,415	87,89
508,617	57,17
508,82	-0,17
509,022	-57,51
509,225	-73,9
509,428	57,17
509,63	-2,22
509,833	18,26
510,035	3,93
510,238	-32,94
510,44	20,31
510,643	1,88
510,845	12,12
511,048	8,02
511,25	12,12
511,453	34,64
511,655	-37,03
511,858	3,93
512,06	-16,55
512,262	26,45
512,465	44,88
512,667	-28,84
512,87	-24,75
513,072	-14,51
513,274	-2,22
513,477	44,88
513,679	8,02
513,881	24,4
514,084	55,12
514,286	48,98
514,488	-45,23
514,69	-22,7
514,893	40,79
515,095	8,02
515,297	22,36
515,499	24,4
515,701	14,17
515,904	55,12
516,106	-63,66
516,308	18,26
516,51	1,88
516,712	-14,51
516,914	-24,75
517,116	-14,51
517,318	20,31
517,52	-28,84
517,722	16,21
517,925	65,36
518,127	-53,42
518,329	-96,43
518,531	-6,31
518,733	-57,51
518,935	-28,84
519,136	-4,27
519,338	24,4
519,54	24,4
519,742	3,93
519,944	-16,55
520,146	-37,03
520,348	3,93
520,55	59,22
520,752	-18,6
520,954	-18,6
521,155	10,07
521,357	-69,8
521,559	-30,89
521,761	26,45
521,963	-0,17
522,164	-53,42
522,366	20,31
522,568	-8,36
522,77	8,02
522,971	-6,31
523,173	20,31
523,375	-8,36
523,576	-16,55
523,778	-8,36
523,98	-24,75
524,181	1,88
524,383	-8,36
524,584	-73,9
524,786	1,88
524,988	8,02
525,189	3,93
525,391	-71,85
525,592	-24,75
525,794	5,97
525,995	65,36
526,197	-24,75
526,398	-8,36
526,6	-6,31
526,801	8,02
527,003	-6,31
527,204	16,21
527,406	5,97
527,607	-47,27
527,808	-43,18
528,01	-8,36
528,211	16,21
528,412	-6,31
528,614	-16,55
528,815	14,17
529,016	1,88
529,218	3,93
529,419	48,98
529,62	42,84
529,822	8,02
530,023	16,21
530,224	-32,94
530,425	-4,27
530,626	-4,27
530,828	40,79
531,029	1,88
531,23	24,4
531,431	-8,36
531,632	48,98
531,833	14,17
532,035	-18,6
532,236	57,17
532,437	18,26
532,638	8,02
532,839	59,22
533,04	-6,31
533,241	46,93
533,442	34,64
533,643	26,45
533,844	-2,22
534,045	61,27
534,246	-57,51
534,447	53,08
534,648	-71,85
534,849	-2,22
535,05	53,08
535,251	40,79
535,451	18,26
535,652	16,21
535,853	-24,75
536,054	-28,84
536,255	-32,94
536,456	8,02
536,657	12,12
536,857	46,93
537,058	10,07
537,259	-14,51
537,46	73,56
537,66	30,55
537,861	-22,7
538,062	18,26
538,263	-16,55
538,463	-71,85
538,664	-0,17
538,865	18,26
539,065	-45,23
539,266	38,74
539,466	-102,57
539,667	3,93
539,868	-104,62
540,068	14,17
540,269	-69,8
540,469	-20,65
540,67	-55,47
540,87	8,02
541,071	-12,46
541,271	10,07
541,472	1,88
541,672	-30,89
541,873	28,5
542,073	-0,17
542,274	-26,79
542,474	-41,13
542,675	48,98
542,875	-45,23
543,075	-57,51
543,276	24,4
543,476	44,88
543,676	-20,65
543,877	42,84
544,077	-14,51
544,277	-4,27
544,478	34,64
544,678	-63,66
544,878	24,4
545,078	8,02
545,279	-39,08
545,479	-14,51
545,679	30,55
545,879	-55,47
546,079	-12,46
546,28	18,26
546,48	-0,17
546,68	-14,51
546,88	-20,65
547,08	32,6
547,28	-14,51
547,48	53,08
547,68	24,4
547,88	44,88
548,081	18,26
548,281	-47,27
548,481	48,98
548,681	24,4
548,881	-0,17
549,081	59,22
549,28	28,5
549,48	10,07
549,68	-10,41
549,88	12,12
550,08	-6,31
550,28	-16,55
550,48	57,17
550,68	-4,27
550,88	-45,23
551,08	-45,23
551,279	18,26
551,479	28,5
551,679	18,26
551,879	-41,13
552,079	18,26
552,278	1,88
552,478	-6,31
552,678	-39,08
552,878	-2,22
553,077	-24,75
553,277	18,26
553,477	14,17
553,676	-28,84
553,876	-49,32
554,076	53,08
554,275	-37,03
554,475	46,93
554,674	-61,61
554,874	-32,94
555,074	-0,17
555,273	-22,7
555,473	-0,17
555,672	-12,46
555,872	-43,18
556,071	-6,31
556,271	-37,03
556,47	12,12
556,67	40,79
556,869	-0,17
557,068	-0,17
557,268	-0,17
557,467	3,93
557,667	3,93
557,866	34,64
558,065	108,37
558,265	20,31
558,464	12,12
558,663	38,74
558,863	-37,03
559,062	-18,6
559,261	-73,9
559,461	79,7
559,66	-18,6
559,859	-71,85
560,058	-20,65
560,258	-8,36
560,457	18,26
560,656	67,41
560,855	-26,79
561,054	-4,27
561,253	-20,65
561,453	-39,08
561,652	-12,46
561,851	-57,51
562,05	1,88
562,249	10,07
562,448	-41,13
562,647	3,93
562,846	-2,22
563,045	-20,65
563,244	-16,55
563,443	32,6
563,642	-37,03
563,841	-6,31
564,04	-49,32
564,239	16,21
564,438	10,07
564,637	-6,31
564,836	-69,8
565,035	34,64
565,234	-24,75
565,432	-32,94
565,631	36,69
565,83	20,31
566,029	-41,13
566,228	16,21
566,427	51,03
566,625	42,84
566,824	-57,51
567,023	16,21
567,222	14,17
567,42	-24,75
567,619	10,07
567,818	-14,51
568,016	-4,27
568,215	30,55
568,414	100,18
568,612	-0,17
568,811	147,28
569,01	96,08
569,208	214,87
569,407	458,57
569,605	597,84
569,804	1220,42
570,002	1646,4
570,201	2574,13
570,4	3399,46
570,598	4673,29
570,797	6135,54
570,995	7976,67
571,193	10004,16
571,392	12598,93
571,59	14984,82
571,789	17903,17
571,987	20844,06
572,186	25066,97
572,384	28241,32
572,582	31913,33
572,781	35689,78
572,979	38657,29
573,177	42157,27
573,376	44995,75
573,574	47025,29
573,772	49777,76
573,971	51137,61
574,169	52952,11
574,367	53543,97
574,565	55383,05
574,763	55620,61
574,962	56624,12
575,16	56734,71
575,358	57902,05
575,556	58252,25
575,754	59175,89
575,952	59251,66
576,151	59794,37
576,349	59773,89
576,547	60079,04
576,745	60822,45
576,943	60539,83
577,141	60564,41
577,339	60980,15
577,537	60543,93
577,735	60343,23
577,933	60107,71
578,131	60173,25
578,329	60052,42
578,527	58862,55
578,725	58465,24
578,923	58192,86
579,121	56972,27
579,319	56695,8
579,516	55620,61
579,714	54692,88
579,912	52790,32
580,11	51070,03
580,308	49316,96
580,506	47119,49
580,704	44131,51
580,901	41870,55
581,099	39402,75
581,297	36052,27
581,495	32437,61
581,692	29580,69
581,89	26234,31
582,088	23356,91
582,285	20319,78
582,483	17878,6
582,681	14820,98
582,878	13020,81
583,076	10845,87
583,274	8928,97
583,471	7141,1
583,669	5969,66
583,866	4628,24
584,064	3626,78
584,262	2522,93
584,459	2023,22
584,657	1242,95
584,854	878,41
585,052	550,73
585,249	370,51
585,447	196,43
585,644	106,32
585,841	75,6
586,039	38,74
586,236	126,8
586,434	81,75
586,631	135
586,828	57,17
587,026	104,28
587,223	-6,31
587,42	16,21
587,618	26,45
587,815	16,21
588,012	85,84
588,21	26,45
588,407	-2,22
588,604	44,88
588,801	36,69
588,999	38,74
589,196	69,46
589,393	-2,22
589,59	75,6
589,787	-6,31
589,984	-75,95
590,182	3,93
590,379	28,5
590,576	36,69
590,773	-8,36
590,97	40,79
591,167	-12,46
591,364	65,36
591,561	32,6
591,758	-24,75
591,955	44,88
592,152	18,26
592,349	1,88
592,546	34,64
592,743	-10,41
592,94	75,6
593,137	-16,55
593,334	12,12
593,531	-65,71
593,727	51,03
593,924	-24,75
594,121	-20,65
594,318	-41,13
594,515	-8,36
594,712	-12,46
594,908	-39,08
595,105	34,64
595,302	34,64
595,499	-18,6
595,696	32,6
595,892	-8,36
596,089	10,07
596,286	44,88
596,482	-32,94
596,679	-16,55
596,876	48,98
597,072	-57,51
597,269	38,74
597,466	-28,84
597,662	48,98
597,859	-18,6
598,055	44,88
598,252	16,21
598,448	57,17
598,645	-39,08
598,841	48,98
599,038	34,64
599,234	36,69
599,431	10,07
599,627	-37,03
599,824	-75,95
600,02	40,79
600,217	-20,65
600,413	-12,46
600,609	-41,13
600,806	26,45
601,002	5,97
601,198	-16,55
601,395	-24,75
601,591	-28,84
601,787	34,64
601,984	-30,89
602,18	-51,37
602,376	55,12
602,572	-71,85
602,769	-77,99
602,965	-8,36
603,161	-8,36
603,357	-20,65
603,553	8,02
603,75	-39,08
603,946	-0,17
604,142	53,08
604,338	-24,75
604,534	67,41
604,73	-39,08
604,926	-57,51
605,122	8,02
605,318	20,31
605,514	18,26
605,71	32,6
605,906	-4,27
606,102	-0,17
606,298	-55,47
606,494	59,22
606,69	12,12
606,886	32,6
607,082	32,6
607,278	-82,09
607,474	-4,27
607,67	-8,36
607,866	-94,38
608,062	3,93
608,257	57,17
608,453	65,36
608,649	16,21
608,845	-51,37
609,041	-41,13
609,236	-61,61
609,432	-12,46
609,628	-24,75
609,824	1,88
610,019	-37,03
610,215	-18,6
610,411	-0,17
610,606	-51,37
610,802	3,93
610,998	-6,31
611,193	-34,99
611,389	16,21
611,584	-39,08
611,78	1,88
611,976	57,17
612,171	48,98
612,367	14,17
612,562	24,4
612,758	-86,19
612,953	-24,75
613,149	-37,03
613,344	-24,75
613,539	-69,8
613,735	-49,32
613,93	-0,17
614,126	51,03
614,321	1,88
614,517	61,27
614,712	-24,75
614,907	-4,27
615,103	-22,7
615,298	32,6
615,493	-8,36
615,688	18,26
615,884	-2,22
616,079	18,26
616,274	-12,46
616,47	24,4
616,665	55,12
616,86	-6,31
617,055	12,12
617,25	-6,31
617,445	-67,75
617,641	24,4
617,836	-47,27
618,031	44,88
618,226	-49,32
618,421	-30,89
618,616	-4,27
618,811	20,31
619,006	-0,17
619,201	-0,17
619,396	-20,65
619,591	42,84
619,786	-41,13
619,981	59,22
620,176	18,26
620,371	-12,46
620,566	-16,55
620,761	28,5
620,956	-16,55
621,151	-4,27
621,346	-0,17
621,541	-4,27
621,735	87,89
621,93	-34,99
622,125	75,6
622,32	44,88
622,515	-24,75
622,709	-73,9
622,904	85,84
623,099	16,21
623,294	-6,31
623,488	-24,75
623,683	55,12
623,878	-6,31
624,072	10,07
624,267	65,36
624,462	61,27
624,656	16,21
624,851	10,07
625,046	34,64
625,24	-57,51
625,435	5,97
625,629	-22,7
625,824	91,99
626,018	40,79
626,213	-82,09
626,407	30,55
626,602	-34,99
626,796	51,03
626,991	18,26
627,185	1,88
627,38	-49,32
627,574	14,17
627,768	34,64
627,963	10,07
628,157	75,6
628,352	-41,13
628,546	12,12
628,74	8,02
628,935	-14,51
629,129	71,51
629,323	14,17
629,517	48,98
629,712	98,13
629,906	-24,75
630,1	34,64
630,294	22,36
630,489	106,32
630,683	-22,7
630,877	51,03
631,071	26,45
631,265	-34,99
631,459	1,88
631,653	-22,7
631,848	-53,42
632,042	30,55
632,236	44,88
632,43	48,98
632,624	-16,55
632,818	-20,65
633,012	-37,03
633,206	67,41
633,4	-80,04
633,594	48,98
633,788	34,64
633,982	73,56
634,176	-4,27
634,369	12,12
634,563	-30,89
634,757	-22,7
634,951	32,6
635,145	42,84
635,339	-12,46
635,533	-14,51
635,726	-22,7
635,92	20,31
636,114	-16,55
636,308	48,98
636,501	-26,79
636,695	73,56
636,889	8,02
637,083	-8,36
637,276	24,4
637,47	34,64
637,664	22,36
637,857	-30,89
638,051	-121
638,244	32,6
638,438	-32,94
638,632	24,4
638,825	-45,23
639,019	8,02
639,212	-45,23
639,406	-6,31
639,599	14,17
639,793	44,88
639,986	65,36
640,18	-39,08
640,373	-2,22
640,567	-6,31
640,76	-20,65
640,954	48,98
641,147	5,97
641,34	18,26
641,534	-53,42
641,727	-0,17
641,92	-14,51
642,114	36,69
642,307	44,88
642,5	34,64
642,694	14,17
642,887	-0,17
643,08	-39,08
643,273	73,56
643,467	114,52
643,66	18,26
643,853	1,88
644,046	-0,17
644,239	28,5
644,432	24,4
644,626	-8,36
644,819	-16,55
645,012	8,02
645,205	-30,89
645,398	16,21
645,591	3,93
645,784	-28,84
645,977	-39,08
646,17	30,55
646,363	5,97
646,556	-8,36
646,749	42,84
646,942	-49,32
647,135	51,03
647,328	-10,41
647,521	10,07
647,714	-49,32
647,907	1,88
648,099	-8,36
648,292	-18,6
648,485	-45,23
648,678	36,69
648,871	5,97
649,064	-6,31
649,256	-0,17
649,449	24,4
649,642	-63,66
649,835	65,36
650,027	-47,27
650,22	10,07
650,413	-28,84
650,605	32,6
650,798	8,02
650,991	-14,51
651,183	32,6
651,376	-6,31
651,568	-6,31
651,761	-32,94
651,954	-45,23
652,146	8,02
652,339	-57,51
652,531	40,79
652,724	30,55
652,916	-8,36
653,109	-98,47
653,301	122,71
653,494	-32,94
653,686	8,02
653,879	-12,46
654,071	67,41
654,263	-63,66
654,456	-0,17
654,648	48,98
654,84	65,36
655,033	26,45
655,225	-22,7
655,417	10,07
655,61	-6,31
655,802	3,93
655,994	-10,41
656,186	8,02
656,379	44,88
656,571	-18,6
656,763	-47,27
656,955	14,17
657,148	-8,36
657,34	-47,27
657,532	-49,32
657,724	-12,46
657,916	73,56
658,108	-14,51
658,3	-49,32
658,492	-22,7
658,684	61,27
658,876	-104,62
659,068	-26,79
659,26	-32,94
659,452	32,6
659,644	-20,65
659,836	34,64
660,028	-37,03
660,22	-24,75
660,412	-14,51
660,604	10,07
660,796	1,88
660,988	69,46
661,18	-57,51
661,372	-22,7
661,563	-12,46
661,755	-2,22
661,947	-22,7
662,139	-4,27
662,331	-24,75
662,522	16,21
662,714	36,69
662,906	26,45
663,097	14,17
663,289	10,07
663,481	-20,65
663,673	53,08
663,864	-67,75
664,056	81,75
664,247	-8,36
664,439	-8,36
664,631	14,17
664,822	-10,41
665,014	32,6
665,205	40,79
665,397	-4,27
665,588	26,45
665,78	-88,23
665,971	32,6
666,163	-32,94
666,354	26,45
666,546	8,02
666,737	106,32
666,929	30,55
667,12	-14,51
667,311	36,69
667,503	-14,51
667,694	16,21
667,885	3,93
668,077	-8,36
668,268	-0,17
668,459	22,36
668,651	24,4
668,842	-8,36
669,033	-12,46
669,224	1,88
669,416	24,4
669,607	-32,94
669,798	44,88
669,989	10,07
670,18	40,79
670,371	48,98
670,563	26,45
670,754	12,12
670,945	10,07
671,136	-32,94
671,327	8,02
671,518	-45,23
671,709	20,31
671,9	40,79
672,091	-24,75
672,282	-34,99
672,473	51,03
672,664	14,17
672,855	-10,41
673,046	48,98
673,237	18,26
673,428	-6,31
673,619	22,36
673,809	8,02
674	36,69
674,191	-14,51
674,382	-47,27
674,573	34,64
674,764	28,5
674,954	-8,36
675,145	-0,17
675,336	-8,36
675,527	104,28
675,717	8,02
675,908	67,41
676,099	73,56
676,289	-43,18
676,48	-18,6
676,671	-73,9
676,861	-0,17
677,052	-16,55
677,243	-41,13
677,433	-20,65
677,624	-14,51
677,814	32,6
678,005	51,03
678,195	18,26
678,386	20,31
678,576	-39,08
678,767	16,21
678,957	24,4
679,148	-53,42
679,338	34,64
679,529	-20,65
679,719	28,5
679,909	73,56
680,1	28,5
680,29	36,69
680,481	-57,51
680,671	26,45
680,861	-4,27
681,052	61,27
681,242	24,4
681,432	34,64
681,622	-39,08
681,813	-32,94
682,003	53,08
682,193	-84,14
682,383	-88,23
682,573	24,4
682,764	-16,55
682,954	-8,36
683,144	38,74
683,334	-26,79
683,524	8,02
683,714	1,88
683,904	-34,99
684,094	-18,6
684,284	32,6
684,474	42,84
684,664	46,93
684,854	12,12
685,044	48,98
685,234	18,26
685,424	12,12
685,614	40,79
685,804	26,45
685,994	-18,6
686,184	16,21
686,374	-30,89
686,564	51,03
686,753	-14,51
686,943	10,07
687,133	38,74
687,323	32,6
687,513	61,27
687,702	34,64
687,892	-57,51
688,082	14,17
688,272	-24,75
688,461	-71,85
688,651	-16,55
688,841	73,56
689,03	-57,51
689,22	-65,71
689,41	-30,89
689,599	108,37
689,789	-14,51
689,979	28,5
690,168	-10,41
690,358	12,12
690,547	-24,75
690,737	40,79
690,926	-8,36
691,116	34,64
691,305	-0,17
691,495	59,22
691,684	-0,17
691,874	40,79
692,063	-32,94
692,252	-41,13
692,442	-0,17
692,631	30,55
692,82	44,88
693,01	36,69
693,199	24,4
693,388	16,21
693,578	8,02
693,767	20,31
693,956	-6,31
694,146	16,21
694,335	-32,94
694,524	57,17
694,713	34,64
694,902	16,21
695,092	3,93
695,281	48,98
695,47	65,36
695,659	12,12
695,848	-45,23
696,037	-59,56
696,226	-32,94
696,415	48,98
696,604	-73,9
696,793	12,12
696,982	38,74
697,171	10,07
697,36	-34,99
697,549	-18,6
697,738	-6,31
697,927	-6,31
698,116	34,64
698,305	-32,94
698,494	-32,94
698,683	89,94
698,872	79,7
699,061	42,84
699,25	-49,32
699,438	-80,04
699,627	-8,36
699,816	44,88
700,005	-28,84
700,193	-16,55
700,382	44,88
700,571	-59,56
700,76	79,7
700,948	28,5
701,137	-16,55
701,326	87,89
701,514	-0,17
701,703	-63,66
701,892	-34,99
702,08	59,22
702,269	8,02
702,457	1,88
702,646	-30,89
702,834	22,36
703,023	16,21
703,212	59,22
703,4	-8,36
703,589	14,17
703,777	16,21
703,965	-24,75
704,154	51,03
704,342	3,93
704,531	-20,65
704,719	12,12
704,907	44,88
705,096	16,21
705,284	-6,31
705,472	42,84
705,661	3,93
705,849	40,79
706,037	-59,56
706,226	-4,27
706,414	-32,94
706,602	34,64
706,79	-24,75
706,979	57,17
707,167	3,93
707,355	12,12
707,543	10,07
707,731	8,02
707,919	26,45
708,107	-49,32
708,296	10,07
708,484	-0,17
708,672	-43,18
708,86	16,21
709,048	12,12
709,236	-10,41
709,424	34,64
709,612	3,93
709,8	18,26
709,988	-84,14
710,176	-8,36
710,364	-69,8
710,551	-39,08
710,739	-10,41
710,927	-4,27
711,115	16,21
711,303	3,93
711,491	24,4
711,679	8,02
711,866	-0,17
712,054	-16,55
712,242	-53,42
712,43	-51,37
712,617	-0,17
712,805	-16,55
712,993	-41,13
713,181	-49,32
713,368	-12,46
713,556	51,03
713,744	18,26
713,931	-4,27
714,119	-16,55
714,306	-8,36
714,494	20,31
714,682	-24,75
714,869	-6,31
715,057	-16,55
715,244	-6,31
715,432	-22,7
715,619	14,17
715,807	-92,33
715,994	3,93
716,182	-20,65
716,369	32,6
716,556	12,12
716,744	1,88
716,931	-12,46
717,119	3,93
717,306	-10,41
717,493	-2,22
717,681	3,93
717,868	48,98
718,055	-2,22
718,242	-28,84
718,43	40,79
718,617	65,36
718,804	26,45
718,991	20,31
719,179	-16,55
719,366	48,98
719,553	40,79
719,74	34,64
719,927	-20,65
720,114	57,17
720,301	-53,42
720,488	3,93
720,676	24,4
720,863	57,17
721,05	-6,31
721,237	26,45
721,424	18,26
721,611	40,79
721,798	14,17
721,985	-37,03
722,172	3,93
722,358	-8,36
722,545	-0,17
722,732	3,93
722,919	-0,17
723,106	24,4
723,293	5,97
723,48	1,88
723,667	-14,51
723,853	-24,75
724,04	16,21
724,227	-10,41
724,414	18,26
724,6	91,99
724,787	42,84
724,974	36,69
725,161	-18,6
725,347	3,93
725,534	8,02
725,72	12,12
725,907	-37,03
726,094	-6,31
726,28	8,02
726,467	65,36
726,653	-49,32
726,84	32,6
727,027	-32,94
727,213	18,26
727,4	-0,17
727,586	-10,41
727,773	22,36
727,959	12,12
728,145	18,26
728,332	16,21
728,518	-24,75
728,705	73,56
728,891	12,12
729,077	-0,17
729,264	-73,9
729,45	16,21
729,636	5,97
729,823	24,4
730,009	3,93
730,195	-16,55
730,382	36,69
730,568	-20,65
730,754	3,93
730,94	28,5
731,126	18,26
731,313	28,5
731,499	-18,6
731,685	-10,41
731,871	-82,09
732,057	-37,03
732,243	-45,23
732,429	12,12
732,615	-67,75
732,801	36,69
732,987	-12,46
733,173	61,27
733,359	-86,19
733,545	-24,75
733,731	-39,08
733,917	-14,51
734,103	-39,08
734,289	42,84
734,475	42,84
734,661	40,79
734,847	-22,7
735,033	55,12
735,219	-6,31
735,404	10,07
735,59	-37,03
735,776	30,55
735,962	-32,94
736,148	8,02
736,333	-18,6
736,519	26,45
736,705	-4,27
736,89	38,74
737,076	16,21
737,262	-39,08
737,447	-8,36
737,633	16,21
737,819	30,55
738,004	8,02
738,19	57,17
738,375	10,07
738,561	8,02
738,747	8,02
738,932	-47,27
739,118	18,26
739,303	32,6
739,489	16,21
739,674	-14,51
739,859	-2,22
740,045	-14,51
740,23	8,02
740,416	1,88
740,601	14,17
740,786	28,5
740,972	40,79
741,157	-10,41
741,342	40,79
741,528	3,93
741,713	44,88
741,898	18,26
742,084	-45,23
742,269	-10,41
742,454	44,88
742,639	-67,75
742,824	1,88
743,01	73,56
743,195	16,21
743,38	-53,42
743,565	18,26
743,75	30,55
743,935	28,5
744,12	61,27
744,305	-49,32
744,49	18,26
744,675	-24,75
744,86	20,31
745,045	-71,85
745,23	-22,7
745,415	57,17
745,6	-39,08
745,785	26,45
745,97	-43,18
746,155	24,4
746,34	-63,66
746,525	-0,17
746,71	28,5
746,895	16,21
747,079	81,75
747,264	-0,17
747,449	38,74
747,634	-0,17
747,819	1,88
748,003	-14,51
748,188	-22,7
748,373	-0,17
748,557	-47,27
748,742	114,52
748,927	10,07
749,111	36,69
749,296	-49,32
749,481	-67,75
749,665	-39,08
749,85	1,88
750,034	1,88
750,219	-4,27
750,404	14,17
750,588	-16,55
750,773	-41,13
750,957	-53,42
751,141	-30,89
751,326	-12,46
751,51	-18,6
751,695	-32,94
751,879	79,7
752,064	57,17
752,248	38,74
752,432	26,45
752,617	10,07
752,801	40,79
752,985	1,88
753,17	40,79
753,354	18,26
753,538	-14,51
753,722	44,88
753,907	22,36
754,091	-63,66
754,275	73,56
754,459	30,55
754,643	48,98
754,828	-0,17
755,012	-32,94
755,196	24,4
755,38	40,79
755,564	-30,89
755,748	85,84
755,932	32,6
756,116	32,6
756,3	-53,42
756,484	3,93
756,668	-12,46
756,852	10,07
757,036	3,93
757,22	53,08
757,404	-24,75
757,588	20,31
757,772	-34,99
757,956	-32,94
758,14	5,97
758,323	-55,47
758,507	-16,55
758,691	1,88
758,875	16,21
759,059	-34,99
759,242	-8,36
759,426	16,21
759,61	-10,41
759,794	114,52
759,977	46,93
760,161	-0,17
760,345	34,64
760,528	53,08
760,712	67,41
760,895	44,88
761,079	-8,36
761,263	1,88
761,446	42,84
761,63	38,74
761,813	-0,17
761,997	-49,32
762,18	-10,41
762,364	-24,75
762,547	-16,55
762,731	-6,31
762,914	20,31
763,098	40,79
763,281	-16,55
763,464	16,21
763,648	18,26
763,831	-14,51
764,015	-0,17
764,198	38,74
764,381	32,6
764,564	-16,55
764,748	-10,41
764,931	30,55
765,114	-41,13
765,297	36,69
765,481	-8,36
765,664	-14,51
765,847	-45,23
766,03	16,21
766,213	22,36
766,397	42,84
766,58	10,07
766,763	14,17
766,946	8,02
767,129	-71,85
767,312	-2,22
767,495	-28,84
767,678	3,93
767,861	-90,28
768,044	-30,89
768,227	48,98
768,41	18,26
768,593	40,79
768,776	12,12
768,959	18,26
769,142	-82,09
769,324	-39,08
769,507	-37,03
769,69	-24,75
769,873	-41,13
770,056	51,03
770,239	-26,79
770,421	-82,09
770,604	-0,17
770,787	44,88
770,97	-16,55
771,152	-37,03
771,335	-14,51
771,518	-53,42
771,7	14,17
771,883	26,45
772,066	-98,47
772,248	-24,75
772,431	5,97
772,613	20,31
772,796	55,12
772,978	-2,22
773,161	-77,99
773,343	-26,79
773,526	-6,31
773,708	8,02
773,891	-8,36
774,073	16,21
774,256	-32,94
774,438	12,12
774,621	-28,84
774,803	-6,31
774,985	-53,42
775,168	114,52
775,35	42,84
775,532	-8,36
775,715	-69,8
775,897	-24,75
776,079	-24,75
776,261	32,6
776,444	8,02
776,626	18,26
776,808	-41,13
776,99	10,07
777,173	18,26
777,355	10,07
777,537	-41,13
777,719	61,27
777,901	20,31
778,083	1,88
778,265	57,17
778,447	36,69
778,629	8,02
778,811	-22,7
778,993	-57,51
779,175	-24,75
779,357	-2,22
779,539	-16,55
779,721	-20,65
779,903	-0,17
780,085	26,45
780,267	-24,75
780,449	-8,36
780,631	26,45
780,812	-55,47
780,994	-8,36
781,176	-0,17
781,358	-6,31
781,54	-0,17
781,721	-8,36
781,903	69,46
782,085	-41,13
782,267	71,51
782,448	-2,22
782,63	16,21
782,812	-22,7
782,993	-12,46
783,175	-32,94
783,357	-41,13
783,538	5,97
783,72	-16,55
783,901	-30,89
784,083	20,31
784,264	8,02
784,446	-8,36
784,627	36,69
784,809	3,93
784,99	3,93
785,172	-20,65
785,353	26,45
785,535	48,98
785,716	8,02
785,897	12,12
786,079	30,55
786,26	-8,36
786,441	-90,28
786,623	-4,27
786,804	36,69
786,985	-10,41
787,167	73,56
787,348	46,93
787,529	-0,17
787,71	30,55
787,891	-10,41
788,073	-16,55
788,254	-24,75
788,435	28,5
788,616	-14,51
788,797	10,07
788,978	18,26
789,159	48,98
789,34	-6,31
789,522	-43,18
789,703	10,07
789,884	24,4
790,065	-6,31
790,246	46,93
790,427	57,17
790,607	16,21
790,788	14,17
790,969	-32,94
791,15	10,07
791,331	5,97
791,512	-26,79
791,693	-6,31
791,874	-32,94
792,054	-47,27
792,235	40,79
792,416	-118,95
792,597	-16,55
792,778	26,45
792,958	1,88
793,139	-12,46
793,32	16,21
793,5	-28,84
793,681	26,45
793,862	-20,65
794,042	-14,51
794,223	-12,46
794,404	-39,08
794,584	-14,51
794,765	36,69
794,945	69,46
795,126	-8,36
795,306	-18,6
795,487	20,31
795,667	-0,17
795,848	1,88
796,028	-14,51
796,209	38,74
796,389	-34,99
796,57	10,07
796,75	3,93
796,93	10,07
797,111	59,22
797,291	-14,51
797,471	34,64
797,652	34,64
797,832	-8,36
798,012	-41,13
798,192	-8,36
798,373	-22,7
798,553	3,93
798,733	-8,36
798,913	18,26
799,093	1,88
799,274	-24,75
799,454	-16,55
799,634	-51,37
799,814	3,93
799,994	-32,94
800,174	28,5
800,354	-32,94
800,534	-14,51
800,714	-14,51
800,894	16,21
801,074	-65,71
801,254	-6,31
801,434	28,5
801,614	28,5
801,794	16,21
801,974	55,12
802,154	61,27
802,334	-0,17
802,514	-10,41
802,693	-30,89
802,873	-61,61
803,053	-51,37
803,233	44,88
803,413	-16,55
803,592	-51,37
803,772	51,03
803,952	-14,51
804,131	-2,22
804,311	22,36
804,491	30,55
804,67	-30,89
804,85	-10,41
805,03	-0,17
805,209	-12,46
805,389	53,08
805,568	18,26
805,748	59,22
805,928	-49,32
806,107	51,03
806,287	-28,84
806,466	-20,65
806,646	42,84
806,825	10,07
807,004	-22,7
807,184	8,02
807,363	-4,27
807,543	-16,55
807,722	-16,55
807,901	12,12
808,081	36,69
808,26	-24,75
808,439	-22,7
808,619	-16,55
808,798	20,31
808,977	-63,66
809,156	44,88
809,336	-61,61
809,515	51,03
809,694	-12,46
809,873	-8,36
810,052	12,12
810,231	44,88
810,411	-10,41
810,59	16,21
810,769	-8,36
810,948	-49,32
811,127	36,69
811,306	24,4
811,485	-22,7
811,664	24,4
811,843	3,93
812,022	-12,46
812,201	16,21
812,38	44,88
812,559	-45,23
812,737	79,7
812,916	-30,89
813,095	16,21
813,274	8,02
813,453	-32,94
813,632	-18,6
813,811	51,03
813,989	1,88
814,168	16,21
814,347	-14,51
814,526	32,6
814,704	14,17
814,883	69,46
815,062	-28,84
815,24	-12,46
815,419	-80,04
815,598	-16,55
815,776	12,12
815,955	67,41
816,133	12,12
816,312	-47,27
816,49	-49,32
816,669	-18,6
816,847	40,79
817,026	-28,84
817,204	10,07
817,383	-12,46
817,561	-12,46
817,74	12,12
817,918	42,84
818,097	-43,18
818,275	-6,31
818,453	-14,51
818,632	48,98
818,81	38,74
818,988	-53,42
819,167	-18,6
819,345	26,45
819,523	-0,17
819,701	-45,23
819,879	26,45
820,058	-6,31
820,236	14,17
820,414	-41,13
820,592	-16,55
820,77	-20,65
820,948	-39,08
821,127	51,03
821,305	10,07
821,483	-69,8
821,661	-24,75
821,839	5,97
822,017	65,36
822,195	26,45
822,373	-2,22
822,551	10,07
822,729	61,27
822,907	-16,55
823,085	51,03
823,262	32,6
823,44	30,55
823,618	42,84
823,796	42,84
823,974	32,6
824,152	30,55
824,329	22,36
824,507	40,79
824,685	-39,08
824,863	-12,46
825,04	-73,9
825,218	-34,99
825,396	14,17
825,574	-12,46
825,751	-32,94
825,929	18,26
826,107	-28,84
826,284	32,6
826,462	-28,84
826,639	-22,7
826,817	40,79
826,994	59,22
827,172	42,84
827,349	10,07
827,527	32,6
827,704	-37,03
827,882	-32,94
828,059	26,45
828,237	-16,55
828,414	40,79
828,591	24,4
828,769	-24,75
828,946	-22,7
829,124	-16,55
829,301	-2,22
829,478	26,45
829,655	-51,37
829,833	-41,13
830,01	-18,6
830,187	-8,36
830,364	16,21
830,542	36,69
830,719	5,97
830,896	18,26
831,073	1,88
831,25	89,94
831,427	-2,22
831,604	48,98
831,782	-2,22
831,959	44,88
832,136	-24,75
832,313	-2,22
832,49	40,79
832,667	-55,47
832,844	-0,17
833,021	12,12
833,198	-24,75
833,374	1,88
833,551	-82,09
833,728	12,12
833,905	40,79
834,082	-8,36
834,259	44,88
834,436	-8,36
834,612	-26,79
834,789	-28,84
834,966	12,12
835,143	-88,23
835,319	14,17
835,496	57,17
835,673	-41,13
835,85	-24,75
836,026	30,55
836,203	-8,36
836,38	44,88
836,556	67,41
836,733	-32,94
836,909	-57,51
837,086	-20,65
837,262	10,07
837,439	-24,75
837,616	28,5
837,792	1,88
837,968	-30,89
838,145	34,64
838,321	-30,89
838,498	-8,36
838,674	36,69
838,851	-20,65
839,027	22,36
839,203	-39,08
839,38	-6,31
839,556	-49,32
839,732	20,31
839,909	16,21
840,085	8,02
840,261	32,6
840,437	-0,17
840,614	-53,42
840,79	137,04
840,966	-34,99
841,142	-6,31
841,318	-10,41
841,494	44,88
841,671	-47,27
841,847	-49,32
842,023	-26,79
842,199	-16,55
842,375	79,7
842,551	-39,08
842,727	-24,75
842,903	-12,46
843,079	10,07
843,255	40,79
843,431	-12,46
843,607	38,74
843,783	-32,94
843,959	-24,75
844,134	-86,19
844,31	8,02
844,486	3,93
844,662	57,17
844,838	1,88
845,013	24,4
845,189	34,64
845,365	20,31
845,541	-77,99
845,716	26,45
845,892	10,07
846,068	3,93
846,244	-8,36
846,419	12,12
846,595	-6,31
846,77	24,4
846,946	57,17
847,122	-59,56
847,297	-39,08
847,473	18,26
847,648	20,31
847,824	1,88
847,999	1,88
848,175	83,8
848,35	44,88
848,526	-45,23
848,701	-39,08
848,876	8,02
849,052	-51,37
849,227	-28,84
849,403	-34,99
849,578	67,41
849,753	-8,36
849,929	20,31
850,104	32,6
850,279	28,5
850,454	3,93
850,63	110,42
850,805	-6,31
850,98	18,26
851,155	40,79
851,33	-0,17
851,505	-82,09
851,681	20,31
851,856	42,84
852,031	-4,27
852,206	30,55
852,381	-16,55
852,556	14,17
852,731	8,02
852,906	-61,61
853,081	18,26
853,256	-18,6
853,431	-22,7
853,606	-37,03
853,781	-47,27
853,956	10,07
854,131	98,13
854,305	-41,13
854,48	32,6
854,655	16,21
854,83	-24,75
855,005	-28,84
855,18	-30,89
855,354	-26,79
855,529	-14,51
855,704	-22,7
855,879	30,55
856,053	-49,32
856,228	24,4
856,403	8,02
856,577	-0,17
856,752	-28,84
856,926	122,71
857,101	8,02
857,276	1,88
857,45	-84,14
857,625	36,69
857,799	8,02
857,974	89,94
858,148	-32,94
858,323	-32,94
858,497	-16,55
858,672	-4,27
858,846	-53,42
859,02	16,21
859,195	-24,75
859,369	57,17
859,543	18,26
859,718	-0,17
859,892	59,22
860,066	-6,31
860,241	-28,84
860,415	-0,17
860,589	-53,42
860,763	-28,84
860,938	-4,27
861,112	-4,27
861,286	34,64
861,46	3,93
861,634	-22,7
861,808	-30,89
861,982	14,17
862,157	51,03
862,331	-24,75
862,505	32,6
862,679	28,5
862,853	-26,79
863,027	32,6
863,201	3,93
863,375	-26,79
863,549	-39,08
863,722	-45,23
863,896	-34,99
864,07	36,69
864,244	-28,84
864,418	-63,66
864,592	-45,23
864,766	1,88
864,939	28,5
865,113	28,5
865,287	-2,22
865,461	-6,31
865,634	-32,94
865,808	30,55
865,982	1,88
866,156	-6,31
866,329	69,46
866,503	-30,89
866,676	26,45
866,85	3,93
867,024	1,88
867,197	-28,84
867,371	1,88
867,544	-6,31
867,718	28,5
867,891	53,08
868,065	-32,94
868,238	-0,17
868,412	-24,75
868,585	-16,55
868,759	-0,17
868,932	26,45
869,105	16,21
869,279	-14,51
869,452	20,31
869,625	-22,7
869,799	-14,51
869,972	-63,66
870,145	-10,41
870,319	12,12
870,492	-16,55
870,665	-16,55
870,838	-8,36
871,011	32,6
871,185	42,84
871,358	10,07
871,531	85,84
871,704	-32,94
871,877	53,08
872,05	-20,65
872,223	55,12
872,396	-39,08
872,569	30,55
872,742	-0,17
872,915	-8,36
873,088	24,4
873,261	32,6
873,434	57,17
873,607	40,79
873,78	-63,66
873,953	1,88
874,126	18,26
874,299	-12,46
874,471	-24,75
874,644	-12,46
874,817	34,64
874,99	36,69
875,163	-18,6
875,335	30,55
875,508	8,02
875,681	10,07
875,853	-30,89
876,026	36,69
876,199	-14,51
876,371	14,17
876,544	18,26
876,717	57,17
876,889	-47,27
877,062	34,64
877,234	-18,6
877,407	20,31
877,579	28,5
877,752	10,07
877,924	36,69
878,097	38,74
878,269	26,45
878,442	42,84
878,614	57,17
878,786	24,4
878,959	10,07
879,131	-16,55
879,303	3,93
879,476	28,5
879,648	-53,42
879,82	1,88
879,993	48,98
880,165	-57,51
880,337	-14,51
880,509	42,84
880,681	-47,27
880,854	16,21
881,026	-12,46
881,198	-8,36
881,37	-32,94
881,542	34,64
881,714	-53,42
881,886	-39,08
882,058	8,02
882,23	-92,33
882,402	46,93
882,574	16,21
882,746	-26,79
882,918	-22,7
883,09	-8,36
883,262	16,21
883,434	-24,75
883,606	-8,36
883,778	30,55
883,95	18,26
884,122	-53,42
884,293	85,84
884,465	-88,23
884,637	22,36
884,809	-39,08
884,98	-2,22
885,152	18,26
885,324	-18,6
885,496	-49,32
885,667	-63,66
885,839	40,79
886,011	3,93
886,182	-43,18
886,354	20,31
886,525	-8,36
886,697	-73,9
886,869	34,64
887,04	32,6
887,212	20,31
887,383	8,02
887,555	10,07
887,726	16,21
887,897	34,64
888,069	10,07
888,24	-28,84
888,412	-47,27
888,583	22,36
888,754	-55,47
888,926	-6,31
889,097	-59,56
889,268	65,36
889,44	-45,23
889,611	-37,03
889,782	-0,17
889,953	48,98
890,125	16,21
890,296	-53,42
890,467	44,88
890,638	5,97
890,809	-22,7
890,98	-4,27
891,151	10,07
891,323	-28,84
891,494	-55,47
891,665	-6,31
891,836	-14,51
892,007	-0,17
892,178	-16,55
892,349	-2,22
892,52	-12,46
892,691	28,5
892,862	-30,89
893,032	24,4
893,203	-80,04
893,374	-12,46
893,545	10,07
893,716	-47,27
893,887	5,97
894,057	-71,85
894,228	-32,94
894,399	-16,55
894,57	-0,17
894,74	28,5
894,911	40,79
895,082	42,84
895,253	8,02
895,423	-37,03
895,594	-0,17
895,764	-14,51
895,935	59,22
896,106	-12,46
896,276	-24,75
896,447	14,17
896,617	85,84
896,788	-86,19
896,958	-39,08
897,129	-8,36
897,299	-0,17
897,47	30,55
897,64	-63,66
897,81	3,93
897,981	20,31
898,151	-53,42
898,322	-24,75
898,492	51,03
898,662	-28,84
898,832	-61,61
899,003	-30,89
899,173	20,31
899,343	42,84
899,513	-51,37
