Data from he_USB4F104161__18__11-53-37-171.txt Node

Date: Tue Apr 14 11:53:37 EDT 2026
User: LaboPhy
Spectrometer: USB4F10416
Trigger mode: 4
Integration Time (sec): 1,000000E-1
Scans to average: 1
Electric dark correction enabled: true
Nonlinearity correction enabled: false
Boxcar width: 0
XAxis mode: Wavelengths
Number of Pixels in Spectrum: 3648
>>>>>Begin Spectral Data<<<<<
177,847	-208,55
178,066	-208,55
178,284	-208,55
178,502	-204,46
178,72	-192,17
178,939	-73,39
179,157	43,35
179,375	-59,05
179,593	20,82
179,812	20,82
180,03	39,25
180,248	-5,8
180,466	51,54
180,685	16,73
180,903	41,3
181,121	-40,62
181,339	-54,95
181,557	4,44
181,775	-24,23
181,994	-110,25
182,212	-54,95
182,43	-38,57
182,648	-3,75
182,866	24,92
183,084	41,3
183,302	-48,81
183,52	-52,91
183,739	37,2
183,957	2,39
184,175	-48,81
184,393	-95,91
184,611	45,4
184,829	-100,01
185,047	-38,57
185,265	26,96
185,483	-22,19
185,701	45,4
185,919	-7,85
186,137	2,39
186,355	-40,62
186,573	-63,15
186,791	16,73
187,009	18,77
187,227	-89,77
187,445	0,34
187,663	-97,96
187,881	-112,3
188,098	-38,57
188,316	53,59
188,534	55,64
188,752	-71,34
188,97	-63,15
189,188	-52,91
189,406	53,59
189,624	-79,53
189,841	0,34
190,059	-163,5
190,277	-126,63
190,495	16,73
190,713	-5,8
190,931	139,6
191,148	41,3
191,366	-7,85
191,584	41,3
191,802	65,88
192,019	33,11
192,237	37,2
192,455	14,68
192,673	0,34
192,89	-40,62
193,108	-11,95
193,326	-7,85
193,543	72,02
193,761	-57
193,979	-57
194,196	-54,95
194,414	-5,8
194,632	41,3
194,849	-81,58
195,067	-122,54
195,285	6,49
195,502	-130,73
195,72	-120,49
195,937	-63,15
196,155	-20,14
196,373	-42,67
196,59	-73,39
196,808	4,44
197,025	33,11
197,243	244,05
197,46	-5,8
197,678	35,16
197,895	37,2
198,113	24,92
198,33	-30,38
198,548	57,68
198,765	-30,38
198,983	53,59
199,2	-120,49
199,418	14,68
199,635	-97,96
199,853	-40,62
200,07	-7,85
200,288	-63,15
200,505	-36,52
200,722	82,26
200,94	-16,04
201,157	82,26
201,375	20,82
201,592	-73,39
201,809	18,77
202,027	59,73
202,244	49,49
202,461	20,82
202,679	65,88
202,896	-28,33
203,113	-11,95
203,331	-46,76
203,548	16,73
203,765	-32,43
203,982	43,35
204,2	-38,57
204,417	-3,75
204,634	153,94
204,851	33,11
205,069	-28,33
205,286	61,78
205,503	-3,75
205,72	26,96
205,937	61,78
206,155	12,63
206,372	-24,23
206,589	-100,01
206,806	4,44
207,023	12,63
207,24	-13,99
207,458	-85,67
207,675	-40,62
207,892	-38,57
208,109	-61,1
208,326	-9,9
208,543	8,53
208,76	-106,15
208,977	137,56
209,194	35,16
209,411	-32,43
209,628	-11,95
209,845	8,53
210,062	-7,85
210,279	-46,76
210,496	-65,19
210,713	-24,23
210,93	-89,77
211,147	67,92
211,364	-32,43
211,581	-40,62
211,798	51,54
212,015	-87,72
212,232	-95,91
212,449	33,11
212,666	-16,04
212,883	-42,67
213,1	-32,43
213,317	-57
213,533	8,53
213,75	-32,43
213,967	0,34
214,184	-114,34
214,401	-46,76
214,618	-52,91
214,835	0,34
215,051	45,4
215,268	-40,62
215,485	80,21
215,702	-16,04
215,919	-20,14
216,135	149,84
216,352	0,34
216,569	39,25
216,786	-22,19
217,002	-48,81
217,219	-22,19
217,436	-11,95
217,652	-38,57
217,869	-32,43
218,086	57,68
218,302	49,49
218,519	-5,8
218,736	-30,38
218,952	-81,58
219,169	12,63
219,386	37,2
219,602	61,78
219,819	-11,95
220,036	-63,15
220,252	37,2
220,469	-40,62
220,685	-13,99
220,902	-57
221,118	-65,19
221,335	-24,23
221,552	-42,67
221,768	51,54
221,985	-13,99
222,201	-44,71
222,418	-38,57
222,634	-69,29
222,851	-81,58
223,067	-48,81
223,284	-40,62
223,5	-24,23
223,716	84,31
223,933	2,39
224,149	-28,33
224,366	-36,52
224,582	-24,23
224,799	-57
225,015	-7,85
225,231	0,34
225,448	-24,23
225,664	43,35
225,88	-22,19
226,097	26,96
226,313	-36,52
226,529	-38,57
226,746	-3,75
226,962	-32,43
227,178	16,73
227,395	-50,86
227,611	-48,81
227,827	-30,38
228,044	29,01
228,26	20,82
228,476	8,53
228,692	69,97
228,909	-16,04
229,125	-24,23
229,341	-16,04
229,557	-38,57
229,773	-104,11
229,99	74,07
230,206	-30,38
230,422	10,58
230,638	-130,73
230,854	-104,11
231,07	-102,06
231,286	35,16
231,503	-52,91
231,719	-61,1
231,935	-36,52
232,151	-24,23
232,367	49,49
232,583	-9,9
232,799	-3,75
233,015	35,16
233,231	-22,19
233,447	20,82
233,663	-40,62
233,879	-52,91
234,095	-118,44
234,311	20,82
234,527	-7,85
234,743	39,25
234,959	41,3
235,175	0,34
235,391	-44,71
235,607	-32,43
235,823	-46,76
236,039	-73,39
236,255	-77,48
236,471	-48,81
236,687	-32,43
236,903	-36,52
237,118	33,11
237,334	20,82
237,55	12,63
237,766	-11,95
237,982	-30,38
238,198	-22,19
238,413	-57
238,629	-52,91
238,845	-26,28
239,061	-26,28
239,277	-16,04
239,492	-59,05
239,708	-22,19
239,924	-130,73
240,14	-22,19
240,355	76,12
240,571	-87,72
240,787	-54,95
241,003	61,78
241,218	-73,39
241,434	37,2
241,65	65,88
241,865	-106,15
242,081	106,84
242,297	-145,06
242,512	49,49
242,728	-75,43
242,944	12,63
243,159	-24,23
243,375	-40,62
243,59	41,3
243,806	33,11
244,022	-16,04
244,237	-3,75
244,453	-11,95
244,668	45,4
244,884	67,92
245,099	-57
245,315	139,6
245,53	49,49
245,746	45,4
245,961	41,3
246,177	-28,33
246,392	16,73
246,608	16,73
246,823	-61,1
247,039	-77,48
247,254	-75,43
247,47	2,39
247,685	-7,85
247,9	-7,85
248,116	-52,91
248,331	-46,76
248,547	41,3
248,762	-75,43
248,977	14,68
249,193	4,44
249,408	0,34
249,623	43,35
249,839	-71,34
250,054	-59,05
250,269	-85,67
250,485	37,2
250,7	18,77
250,915	-57
251,13	-3,75
251,346	12,63
251,561	-11,95
251,776	55,64
251,991	-40,62
252,207	33,11
252,422	-5,8
252,637	26,96
252,852	-81,58
253,067	-48,81
253,283	-11,95
253,498	-40,62
253,713	18,77
253,928	-54,95
254,143	-91,82
254,358	-28,33
254,573	-57
254,788	-73,39
255,004	-44,71
255,219	-91,82
255,434	-114,34
255,649	-28,33
255,864	33,11
256,079	-7,85
256,294	-40,62
256,509	-48,81
256,724	16,73
256,939	-126,63
257,154	8,53
257,369	26,96
257,584	33,11
257,799	-57
258,014	-65,19
258,229	33,11
258,444	-73,39
258,659	-24,23
258,874	53,59
259,089	22,87
259,304	12,63
259,518	-73,39
259,733	-57
259,948	33,11
260,163	74,07
260,378	37,2
260,593	-16,04
260,808	53,59
261,022	-79,53
261,237	24,92
261,452	-71,34
261,667	-73,39
261,882	72,02
262,096	67,92
262,311	131,41
262,526	-97,96
262,741	0,34
262,955	-54,95
263,17	12,63
263,385	-114,34
263,6	-7,85
263,814	-128,68
264,029	-54,95
264,244	-32,43
264,458	-52,91
264,673	33,11
264,888	-38,57
265,102	-9,9
265,317	-18,09
265,532	-32,43
265,746	24,92
265,961	43,35
266,175	-32,43
266,39	-5,8
266,605	-122,54
266,819	-28,33
267,034	53,59
267,248	-130,73
267,463	-77,48
267,677	-93,87
267,892	-44,71
268,106	-186,02
268,321	-16,04
268,535	-48,81
268,75	20,82
268,964	-44,71
269,179	57,68
269,393	-34,47
269,608	-20,14
269,822	-138,92
270,036	-97,96
270,251	-38,57
270,465	0,34
270,68	0,34
270,894	-65,19
271,108	133,46
271,323	-5,8
271,537	-30,38
271,752	37,2
271,966	51,54
272,18	-118,44
272,394	-22,19
272,609	-3,75
272,823	-32,43
273,037	-73,39
273,252	-1,71
273,466	-89,77
273,68	39,25
273,894	51,54
274,109	-24,23
274,323	8,53
274,537	-16,04
274,751	2,39
274,966	4,44
275,18	-104,11
275,394	-38,57
275,608	-48,81
275,822	-24,23
276,036	-3,75
276,25	2,39
276,465	61,78
276,679	4,44
276,893	-91,82
277,107	57,68
277,321	-16,04
277,535	67,92
277,749	-5,8
277,963	0,34
278,177	-122,54
278,391	57,68
278,605	-13,99
278,819	41,3
279,033	-30,38
279,247	-16,04
279,461	-13,99
279,675	-65,19
279,889	-18,09
280,103	4,44
280,317	67,92
280,531	-57
280,745	-32,43
280,959	-61,1
281,173	20,82
281,387	-57
281,601	31,06
281,815	-7,85
282,029	-67,24
282,242	-40,62
282,456	10,58
282,67	90,45
282,884	-36,52
283,098	-24,23
283,312	-81,58
283,525	16,73
283,739	-13,99
283,953	0,34
284,167	20,82
284,381	-5,8
284,594	-46,76
284,808	-54,95
285,022	10,58
285,235	76,12
285,449	-36,52
285,663	63,83
285,877	-95,91
286,09	-26,28
286,304	24,92
286,518	0,34
286,731	-75,43
286,945	49,49
287,159	-57
287,372	16,73
287,586	-52,91
287,799	-48,81
288,013	-26,28
288,227	65,88
288,44	198,99
288,654	26,96
288,867	53,59
289,081	-11,95
289,294	8,53
289,508	16,73
289,721	-50,86
289,935	-48,81
290,148	12,63
290,362	61,78
290,575	26,96
290,789	2,39
291,002	-77,48
291,216	-18,09
291,429	67,92
291,643	16,73
291,856	-52,91
292,069	-36,52
292,283	-87,72
292,496	-40,62
292,71	-57
292,923	-28,33
293,136	-24,23
293,35	-93,87
293,563	-52,91
293,776	16,73
293,99	-30,38
294,203	-79,53
294,416	37,2
294,63	-32,43
294,843	35,16
295,056	16,73
295,269	-91,82
295,483	-71,34
295,696	-102,06
295,909	-104,11
296,122	59,73
296,335	18,77
296,549	22,87
296,762	16,73
296,975	51,54
297,188	-32,43
297,401	-48,81
297,615	82,26
297,828	-48,81
298,041	0,34
298,254	-145,06
298,467	-38,57
298,68	-57
298,893	-18,09
299,106	-108,2
299,319	-24,23
299,532	-77,48
299,745	-87,72
299,958	-38,57
300,171	8,53
300,384	-24,23
300,598	-151,21
300,81	33,11
301,023	-44,71
301,236	-136,87
301,449	0,34
301,662	10,58
301,875	-73,39
302,088	-32,43
302,301	-24,23
302,514	-77,48
302,727	8,53
302,94	-59,05
303,153	18,77
303,366	-85,67
303,579	-89,77
303,791	20,82
304,004	-40,62
304,217	20,82
304,43	24,92
304,643	-61,1
304,855	-52,91
305,068	0,34
305,281	-3,75
305,494	-7,85
305,707	-28,33
305,919	96,6
306,132	-40,62
306,345	31,06
306,558	0,34
306,77	-65,19
306,983	-11,95
307,196	82,26
307,408	-77,48
307,621	0,34
307,834	-65,19
308,046	-63,15
308,259	-106,15
308,472	-3,75
308,684	2,39
308,897	-87,72
309,109	-30,38
309,322	-34,47
309,535	22,87
309,747	43,35
309,96	18,77
310,172	-22,19
310,385	8,53
310,597	-61,1
310,81	-13,99
311,022	-91,82
311,235	-61,1
311,447	-75,43
311,66	4,44
311,872	-22,19
312,085	-65,19
312,297	-48,81
312,51	-128,68
312,722	-108,2
312,934	-38,57
313,147	-46,76
313,359	-59,05
313,572	-104,11
313,784	-34,47
313,996	41,3
314,209	82,26
314,421	-73,39
314,633	-89,77
314,846	-36,52
315,058	49,49
315,27	-38,57
315,483	-110,25
315,695	-26,28
315,907	-54,95
316,119	-11,95
316,332	-61,1
316,544	18,77
316,756	-38,57
316,968	20,82
317,181	-1,71
317,393	14,68
317,605	49,49
317,817	37,2
318,029	6,49
318,241	24,92
318,454	102,74
318,666	59,73
318,878	-7,85
319,09	10,58
319,302	174,42
319,514	67,92
319,726	12,63
319,938	18,77
320,15	37,2
320,362	-46,76
320,574	-54,95
320,786	8,53
320,999	-71,34
321,211	2,39
321,423	-44,71
321,635	-63,15
321,847	-50,86
322,058	-73,39
322,27	10,58
322,482	20,82
322,694	12,63
322,906	41,3
323,118	8,53
323,33	45,4
323,542	37,2
323,754	-28,33
323,966	-188,07
324,178	26,96
324,389	65,88
324,601	0,34
324,813	-81,58
325,025	2,39
325,237	-97,96
325,449	90,45
325,66	-32,43
325,872	-36,52
326,084	59,73
326,296	-69,29
326,507	20,82
326,719	18,77
326,931	-87,72
327,143	33,11
327,354	117,08
327,566	8,53
327,778	6,49
327,989	18,77
328,201	-79,53
328,413	-57
328,624	82,26
328,836	-40,62
329,048	-145,06
329,259	2,39
329,471	-22,19
329,682	-42,67
329,894	-9,9
330,106	-89,77
330,317	10,58
330,529	-40,62
330,74	-54,95
330,952	-30,38
331,163	-50,86
331,375	-20,14
331,586	-48,81
331,798	-112,3
332,009	0,34
332,221	-81,58
332,432	12,63
332,644	-44,71
332,855	-65,19
333,067	-11,95
333,278	-24,23
333,489	-28,33
333,701	-136,87
333,912	-63,15
334,124	-40,62
334,335	-114,34
334,546	-130,73
334,758	-28,33
334,969	76,12
335,18	-5,8
335,392	37,2
335,603	-24,23
335,814	108,88
336,025	-46,76
336,237	-30,38
336,448	-102,06
336,659	-20,14
336,87	35,16
337,082	133,46
337,293	-32,43
337,504	-46,76
337,715	-50,86
337,926	-30,38
338,138	-61,1
338,349	12,63
338,56	-28,33
338,771	-11,95
338,982	41,3
339,193	8,53
339,404	76,12
339,616	-48,81
339,827	-97,96
340,038	-79,53
340,249	-13,99
340,46	10,58
340,671	45,4
340,882	74,07
341,093	-18,09
341,304	-24,23
341,515	-120,49
341,726	-97,96
341,937	14,68
342,148	-38,57
342,359	-87,72
342,57	-89,77
342,781	88,4
342,992	-30,38
343,203	-77,48
343,414	82,26
343,624	-36,52
343,835	-61,1
344,046	-50,86
344,257	37,2
344,468	-81,58
344,679	-59,05
344,89	-48,81
345,1	-106,15
345,311	-85,67
345,522	-87,72
345,733	-7,85
345,944	8,53
346,154	35,16
346,365	61,78
346,576	-36,52
346,787	-69,29
346,997	-40,62
347,208	-30,38
347,419	-85,67
347,629	-3,75
347,84	24,92
348,051	-48,81
348,261	0,34
348,472	-30,38
348,683	-22,19
348,893	-46,76
349,104	-40,62
349,315	-122,54
349,525	2,39
349,736	-9,9
349,946	-11,95
350,157	43,35
350,368	53,59
350,578	-81,58
350,789	-11,95
350,999	-114,34
351,21	-48,81
351,42	-136,87
351,631	-40,62
351,841	-85,67
352,052	-24,23
352,262	-28,33
352,472	-3,75
352,683	0,34
352,893	-102,06
353,104	-81,58
353,314	61,78
353,525	270,67
353,735	10,58
353,945	-57
354,156	-71,34
354,366	-24,23
354,576	67,92
354,787	20,82
354,997	-54,95
355,207	-93,87
355,418	-50,86
355,628	14,68
355,838	-63,15
356,048	-110,25
356,259	82,26
356,469	-114,34
356,679	16,73
356,889	26,96
357,1	-79,53
357,31	-122,54
357,52	29,01
357,73	-95,91
357,94	-48,81
358,15	-61,1
358,361	-46,76
358,571	-38,57
358,781	-24,23
358,991	-97,96
359,201	-7,85
359,411	-114,34
359,621	-124,58
359,831	82,26
360,041	-81,58
360,251	33,11
360,461	24,92
360,672	8,53
360,882	-46,76
361,092	35,16
361,302	-1,71
361,512	98,64
361,721	-46,76
361,931	-38,57
362,141	14,68
362,351	-67,24
362,561	31,06
362,771	-3,75
362,981	24,92
363,191	-61,1
363,401	-102,06
363,611	-57
363,821	-22,19
364,03	-87,72
364,24	20,82
364,45	2,39
364,66	207,19
364,87	-30,38
365,08	-48,81
365,289	-69,29
365,499	-16,04
365,709	29,01
365,919	-5,8
366,128	-48,81
366,338	41,3
366,548	-102,06
366,758	33,11
366,967	78,16
367,177	-9,9
367,387	-73,39
367,596	-42,67
367,806	90,45
368,016	-30,38
368,225	-3,75
368,435	20,82
368,644	-7,85
368,854	-59,05
369,064	4,44
369,273	-5,8
369,483	-38,57
369,692	-89,77
369,902	-100,01
370,111	29,01
370,321	-110,25
370,53	-46,76
370,74	-65,19
370,949	-81,58
371,159	16,73
371,368	4,44
371,578	-57
371,787	-20,14
371,997	0,34
372,206	33,11
372,416	16,73
372,625	0,34
372,834	-65,19
373,044	-1,71
373,253	26,96
373,462	-20,14
373,672	0,34
373,881	20,82
374,09	-73,39
374,3	-59,05
374,509	-5,8
374,718	-110,25
374,928	12,63
375,137	-106,15
375,346	-65,19
375,555	86,36
375,765	-22,19
375,974	-3,75
376,183	24,92
376,392	-30,38
376,601	-40,62
376,811	-32,43
377,02	29,01
377,229	-20,14
377,438	67,92
377,647	-128,68
377,856	-71,34
378,065	24,92
378,275	-63,15
378,484	-24,23
378,693	-57
378,902	-24,23
379,111	4,44
379,32	-65,19
379,529	-40,62
379,738	-7,85
379,947	18,77
380,156	39,25
380,365	-32,43
380,574	-16,04
380,783	-57
380,992	-28,33
381,201	-26,28
381,41	-13,99
381,619	-65,19
381,828	4,44
382,037	10,58
382,245	65,88
382,454	147,8
382,663	-16,04
382,872	43,35
383,081	2,39
383,29	172,37
383,499	-61,1
383,707	94,55
383,916	65,88
384,125	106,84
384,334	-5,8
384,542	41,3
384,751	33,11
384,96	41,3
385,169	12,63
385,377	98,64
385,586	16,73
385,795	98,64
386,004	149,84
386,212	-28,33
386,421	104,79
386,63	233,81
386,838	729,42
387,047	1216,83
387,255	1900,86
387,464	2638,13
387,673	3768,6
387,881	4884,75
388,09	5914,88
388,298	6656,24
388,507	8161,5
388,715	10115,26
388,924	11294,89
389,133	10688,69
389,341	10422,45
389,55	9054,41
389,758	6799,6
389,967	4438,29
390,175	2908,46
390,383	2353,46
390,592	1716,54
390,8	1040,71
391,009	692,55
391,217	426,32
391,426	311,63
391,634	24,92
391,842	67,92
392,051	10,58
392,259	6,49
392,467	0,34
392,676	-77,48
392,884	-11,95
393,092	-57
393,301	0,34
393,509	-7,85
393,717	33,11
393,925	-20,14
394,134	-22,19
394,342	24,92
394,55	37,2
394,758	-13,99
394,967	-7,85
395,175	-54,95
395,383	57,68
395,591	47,44
395,799	65,88
396,007	55,64
396,216	219,47
396,424	84,31
396,632	231,76
396,84	127,32
397,048	110,93
397,256	129,36
397,464	139,6
397,672	18,77
397,88	-24,23
398,088	10,58
398,296	-48,81
398,504	-63,15
398,712	0,34
398,92	24,92
399,128	-63,15
399,336	12,63
399,544	33,11
399,752	-3,75
399,96	-44,71
400,168	33,11
400,376	-22,19
400,584	57,68
400,792	-7,85
401	47,44
401,207	-16,04
401,415	153,94
401,623	108,88
401,831	215,38
402,039	242
402,247	319,82
402,454	434,51
402,662	352,59
402,87	319,82
403,078	461,13
403,285	428,37
403,493	303,44
403,701	158,03
403,909	53,59
404,116	125,27
404,324	-5,8
404,532	24,92
404,739	-30,38
404,947	-7,85
405,155	49,49
405,362	-22,19
405,57	35,16
405,778	-124,58
405,985	-40,62
406,193	-89,77
406,4	-54,95
406,608	0,34
406,816	6,49
407,023	29,01
407,231	-65,19
407,438	-7,85
407,646	-26,28
407,853	-61,1
408,061	-3,75
408,268	-7,85
408,476	-93,87
408,683	-28,33
408,89	10,58
409,098	8,53
409,305	-11,95
409,513	12,63
409,72	-5,8
409,927	-81,58
410,135	-22,19
410,342	-44,71
410,55	86,36
410,757	-61,1
410,964	0,34
411,172	-7,85
411,379	41,3
411,586	41,3
411,793	-11,95
412,001	26,96
412,208	-67,24
412,415	24,92
412,622	123,22
412,83	37,2
413,037	76,12
413,244	0,34
413,451	0,34
413,658	90,45
413,866	47,44
414,073	-20,14
414,28	67,92
414,487	-79,53
414,694	-22,19
414,901	16,73
415,108	14,68
415,315	-44,71
415,522	16,73
415,73	-48,81
415,937	-42,67
416,144	-110,25
416,351	-13,99
416,558	-30,38
416,765	-48,81
416,972	16,73
417,179	-81,58
417,386	121,17
417,593	49,49
417,8	-57
418,006	43,35
418,213	-24,23
418,42	10,58
418,627	8,53
418,834	-87,72
419,041	-3,75
419,248	18,77
419,455	24,92
419,661	-46,76
419,868	-130,73
420,075	-48,81
420,282	-63,15
420,489	2,39
420,696	-16,04
420,902	-7,85
421,109	-24,23
421,316	-46,76
421,523	35,16
421,729	8,53
421,936	-57
422,143	-32,43
422,349	-114,34
422,556	-28,33
422,763	-30,38
422,969	-34,47
423,176	-87,72
423,383	-20,14
423,589	233,81
423,796	35,16
424,002	-38,57
424,209	45,4
424,416	18,77
424,622	-87,72
424,829	-32,43
425,035	-87,72
425,242	-57
425,448	-48,81
425,655	20,82
425,861	-36,52
426,068	-16,04
426,274	137,56
426,481	14,68
426,687	-11,95
426,894	8,53
427,1	-34,47
427,306	-1,71
427,513	-9,9
427,719	2,39
427,926	-28,33
428,132	-13,99
428,338	-46,76
428,545	4,44
428,751	-71,34
428,957	51,54
429,163	-7,85
429,37	65,88
429,576	-50,86
429,782	33,11
429,989	-77,48
430,195	35,16
430,401	-7,85
430,607	-24,23
430,813	-138,92
431,02	4,44
431,226	69,97
431,432	-65,19
431,638	-71,34
431,844	-44,71
432,05	10,58
432,257	-69,29
432,463	4,44
432,669	-16,04
432,875	-26,28
433,081	-85,67
433,287	29,01
433,493	-48,81
433,699	65,88
433,905	2,39
434,111	-77,48
434,317	-89,77
434,523	45,4
434,729	59,73
434,935	-118,44
435,141	53,59
435,347	0,34
435,553	6,49
435,759	-13,99
435,965	-44,71
436,171	33,11
436,377	10,58
436,582	-20,14
436,788	-16,04
436,994	37,2
437,2	-24,23
437,406	51,54
437,612	96,6
437,818	57,68
438,023	-77,48
438,229	135,51
438,435	82,26
438,641	84,31
438,846	98,64
439,052	82,26
439,258	174,42
439,464	2,39
439,669	78,16
439,875	90,45
440,081	33,11
440,286	-159,4
440,492	-5,8
440,698	49,49
440,903	-26,28
441,109	10,58
441,314	-93,87
441,52	-104,11
441,726	8,53
441,931	-59,05
442,137	76,12
442,342	33,11
442,548	59,73
442,753	90,45
442,959	-93,87
443,164	-32,43
443,37	76,12
443,575	-22,19
443,781	-50,86
443,986	35,16
444,192	-3,75
444,397	-32,43
444,602	2,39
444,808	-32,43
445,013	65,88
445,219	254,29
445,424	442,7
445,629	624,97
445,835	999,75
446,04	1302,85
446,245	1632,57
446,451	1794,36
446,656	2218,29
446,861	2814,25
447,066	3098,92
447,272	3369,25
447,477	3375,39
447,682	3170,6
447,887	2634,03
448,093	2380,08
448,298	1763,64
448,503	1024,33
448,708	737,61
448,913	305,49
449,118	332,11
449,324	209,23
449,529	65,88
449,734	51,54
449,939	-32,43
450,144	72,02
450,349	12,63
450,554	-36,52
450,759	45,4
450,964	-30,38
451,169	8,53
451,374	-48,81
451,579	-7,85
451,784	0,34
451,989	-32,43
452,194	35,16
452,399	-38,57
452,604	84,31
452,809	-48,81
453,014	-16,04
453,219	-16,04
453,424	31,06
453,629	-65,19
453,833	-40,62
454,038	2,39
454,243	-40,62
454,448	-16,04
454,653	-9,9
454,858	-24,23
455,062	-89,77
455,267	-48,81
455,472	24,92
455,677	-71,34
455,882	-9,9
456,086	84,31
456,291	63,83
456,496	-130,73
456,7	-63,15
456,905	4,44
457,11	24,92
457,314	-87,72
457,519	2,39
457,724	-81,58
457,928	41,3
458,133	-71,34
458,338	-24,23
458,542	-73,39
458,747	92,5
458,951	-38,57
459,156	-81,58
459,36	-48,81
459,565	67,92
459,769	20,82
459,974	8,53
460,178	-16,04
460,383	-122,54
460,587	-30,38
460,792	-5,8
460,996	-40,62
461,201	35,16
461,405	-40,62
461,61	-20,14
461,814	6,49
462,018	-130,73
462,223	-48,81
462,427	61,78
462,631	-20,14
462,836	20,82
463,04	0,34
463,244	115,03
463,449	-38,57
463,653	123,22
463,857	-22,19
464,062	35,16
464,266	-95,91
464,47	-69,29
464,674	8,53
464,878	-28,33
465,083	-54,95
465,287	12,63
465,491	-79,53
465,695	61,78
465,899	-16,04
466,104	-13,99
466,308	33,11
466,512	16,73
466,716	-40,62
466,92	100,69
467,124	41,3
467,328	-16,04
467,532	59,73
467,736	24,92
467,94	6,49
468,144	26,96
468,348	-32,43
468,552	6,49
468,756	-36,52
468,96	-61,1
469,164	-46,76
469,368	16,73
469,572	10,58
469,776	145,75
469,98	244,05
470,184	262,48
470,388	338,26
470,591	477,52
470,795	581,96
470,999	639,31
471,203	758,09
471,407	733,51
471,611	770,38
471,814	778,57
472,018	569,68
472,222	620,88
472,426	565,58
472,63	287,06
472,833	291,15
473,037	287,06
473,241	131,41
473,444	35,16
473,648	510,29
473,852	-75,43
474,055	-40,62
474,259	29,01
474,463	18,77
474,666	-13,99
474,87	-28,33
475,074	6,49
475,277	0,34
475,481	45,4
475,684	-57
475,888	-87,72
476,091	-65,19
476,295	-91,82
476,498	-30,38
476,702	8,53
476,905	61,78
477,109	49,49
477,312	-44,71
477,516	-77,48
477,719	2,39
477,923	-106,15
478,126	-44,71
478,329	-63,15
478,533	-87,72
478,736	-28,33
478,94	45,4
479,143	-57
479,346	-16,04
479,55	63,83
479,753	-5,8
479,956	-65,19
480,159	-89,77
480,363	59,73
480,566	8,53
480,769	24,92
480,972	-128,68
481,176	-38,57
481,379	61,78
481,582	90,45
481,785	-32,43
481,988	-32,43
482,192	-30,38
482,395	-9,9
482,598	-24,23
482,801	26,96
483,004	49,49
483,207	-16,04
483,41	47,44
483,613	-3,75
483,817	49,49
484,02	-102,06
484,223	-61,1
484,426	-81,58
484,629	-97,96
484,832	-24,23
485,035	-7,85
485,238	41,3
485,441	2,39
485,644	-5,8
485,846	-13,99
486,049	-40,62
486,252	16,73
486,455	-44,71
486,658	-11,95
486,861	67,92
487,064	-16,04
487,267	-48,81
487,47	0,34
487,672	0,34
487,875	-48,81
488,078	-28,33
488,281	-48,81
488,484	-34,47
488,686	-57
488,889	-69,29
489,092	-87,72
489,295	-16,04
489,497	59,73
489,7	-20,14
489,903	-1,71
490,105	-57
490,308	16,73
490,511	147,8
490,713	262,48
490,916	391,5
491,118	563,53
491,321	702,79
491,524	823,62
491,726	991,56
491,929	1141,06
492,131	1298,75
492,334	1352
492,536	1444,16
492,739	1409,34
492,941	1298,75
493,144	1126,72
493,346	823,62
493,549	573,77
493,751	436,56
493,954	287,06
494,156	158,03
494,359	90,45
494,561	-69,29
494,763	51,54
494,966	0,34
495,168	82,26
495,37	-122,54
495,573	-24,23
495,775	8,53
495,977	26,96
496,18	29,01
496,382	43,35
496,584	-44,71
496,787	8,53
496,989	12,63
497,191	-54,95
497,393	-16,04
497,595	-71,34
497,798	0,34
498	49,49
498,202	-63,15
498,404	0,34
498,606	-57
498,808	20,82
499,011	24,92
499,213	-38,57
499,415	-20,14
499,617	239,95
499,819	518,48
500,021	868,68
500,223	1083,72
500,425	1618,24
500,627	2173,24
500,829	2793,77
501,031	3434,78
501,233	3983,64
501,435	4417,81
501,637	4897,03
501,839	4989,19
502,041	4897,03
502,243	4514,06
502,445	3891,48
502,647	3322,15
502,848	2507,06
503,05	1810,75
503,252	1311,04
503,454	913,74
503,656	512,33
503,858	387,41
504,059	323,92
504,261	307,54
504,463	252,24
504,665	180,56
504,867	217,43
505,068	295,25
505,27	164,18
505,472	180,56
505,673	188,75
505,875	18,77
506,077	45,4
506,278	102,74
506,48	-54,95
506,682	-32,43
506,883	78,16
507,085	-46,76
507,287	33,11
507,488	10,58
507,69	-38,57
507,891	-79,53
508,093	110,93
508,294	-97,96
508,496	-85,67
508,697	-50,86
508,899	-24,23
509,1	37,2
509,302	41,3
509,503	-114,34
509,705	43,35
509,906	-38,57
510,108	-57
510,309	33,11
510,51	8,53
510,712	-9,9
510,913	-81,58
511,114	2,39
511,316	-122,54
511,517	-40,62
511,718	-13,99
511,92	-63,15
512,121	-13,99
512,322	-16,04
512,524	37,2
512,725	26,96
512,926	-11,95
513,127	24,92
513,329	-3,75
513,53	-106,15
513,731	18,77
513,932	-30,38
514,133	-38,57
514,334	-65,19
514,536	59,73
514,737	20,82
514,938	-22,19
515,139	-63,15
515,34	-161,45
515,541	4,44
515,742	-54,95
515,943	-20,14
516,144	-65,19
516,345	35,16
516,546	-69,29
516,747	0,34
516,948	0,34
517,149	-48,81
517,35	-83,63
517,551	-61,1
517,752	26,96
517,953	18,77
518,154	2,39
518,355	29,01
518,556	-5,8
518,756	33,11
518,957	2,39
519,158	-5,8
519,359	-13,99
519,56	-16,04
519,761	20,82
519,961	147,8
520,162	90,45
520,363	-34,47
520,564	-93,87
520,764	43,35
520,965	-69,29
521,166	-5,8
521,366	16,73
521,567	33,11
521,768	69,97
521,968	-57
522,169	-52,91
522,37	-126,63
522,57	-104,11
522,771	90,45
522,972	-128,68
523,172	117,08
523,373	-50,86
523,573	-40,62
523,774	2,39
523,974	92,5
524,175	26,96
524,375	-3,75
524,576	-46,76
524,776	-63,15
524,977	-67,24
525,177	-5,8
525,378	-32,43
525,578	90,45
525,778	24,92
525,979	29,01
526,179	31,06
526,38	-79,53
526,58	-61,1
526,78	-48,81
526,981	41,3
527,181	-36,52
527,381	16,73
527,582	59,73
527,782	67,92
527,982	41,3
528,182	-22,19
528,383	-46,76
528,583	0,34
528,783	-18,09
528,983	-28,33
529,183	-46,76
529,384	-16,04
529,584	123,22
529,784	119,12
529,984	41,3
530,184	-22,19
530,384	-38,57
530,584	-106,15
530,784	4,44
530,984	-5,8
531,185	98,64
531,385	-5,8
531,585	-7,85
531,785	-147,11
531,985	-89,77
532,185	-63,15
532,385	0,34
532,585	-24,23
532,785	-11,95
532,984	-20,14
533,184	53,59
533,384	-48,81
533,584	-95,91
533,784	29,01
533,984	24,92
534,184	-95,91
534,384	-48,81
534,583	-52,91
534,783	-30,38
534,983	57,68
535,183	8,53
535,383	-93,87
535,582	20,82
535,782	-24,23
535,982	-16,04
536,182	-50,86
536,381	-32,43
536,581	-114,34
536,781	-13,99
536,98	-22,19
537,18	0,34
537,38	41,3
537,579	16,73
537,779	-71,34
537,979	59,73
538,178	-65,19
538,378	69,97
538,577	-93,87
538,777	12,63
538,976	-77,48
539,176	47,44
539,376	-71,34
539,575	-69,29
539,774	-11,95
539,974	-7,85
540,173	-11,95
540,373	-28,33
540,572	-22,19
540,772	0,34
540,971	-63,15
541,171	-5,8
541,37	8,53
541,569	-30,38
541,769	-3,75
541,968	16,73
542,167	-48,81
542,367	24,92
542,566	-102,06
542,765	-18,09
542,965	0,34
543,164	-38,57
543,363	-28,33
543,562	-67,24
543,761	-59,05
543,961	43,35
544,16	-130,73
544,359	82,26
544,558	0,34
544,757	-102,06
544,957	-18,09
545,156	16,73
545,355	-24,23
545,554	29,01
545,753	-87,72
545,952	-13,99
546,151	16,73
546,35	-28,33
546,549	-44,71
546,748	117,08
546,947	-106,15
547,146	12,63
547,345	-7,85
547,544	-73,39
547,743	-24,23
547,942	0,34
548,141	2,39
548,34	45,4
548,539	41,3
548,738	-63,15
548,937	29,01
549,135	18,77
549,334	-16,04
549,533	-30,38
549,732	8,53
549,931	0,34
550,13	-5,8
550,328	-5,8
550,527	-20,14
550,726	-20,14
550,925	-106,15
551,123	-32,43
551,322	43,35
551,521	51,54
551,72	49,49
551,918	22,87
552,117	-28,33
552,315	-24,23
552,514	-50,86
552,713	-9,9
552,911	-40,62
553,11	-97,96
553,309	-57
553,507	33,11
553,706	-26,28
553,904	-26,28
554,103	-30,38
554,301	-81,58
554,5	-79,53
554,698	24,92
554,897	-11,95
555,095	-65,19
555,294	-114,34
555,492	65,88
555,69	-32,43
555,889	-46,76
556,087	37,2
556,286	86,36
556,484	-48,81
556,682	24,92
556,881	-11,95
557,079	-5,8
557,277	26,96
557,476	24,92
557,674	-16,04
557,872	2,39
558,07	10,58
558,269	-89,77
558,467	14,68
558,665	59,73
558,863	-9,9
559,062	41,3
559,26	33,11
559,458	-97,96
559,656	65,88
559,854	-28,33
560,052	35,16
560,25	-52,91
560,449	303,44
560,647	20,82
560,845	-28,33
561,043	0,34
561,241	18,77
561,439	84,31
561,637	-24,23
561,835	-44,71
562,033	57,68
562,231	-22,19
562,429	10,58
562,627	49,49
562,825	24,92
563,023	115,03
563,221	18,77
563,418	-20,14
563,616	24,92
563,814	127,32
564,012	98,64
564,21	-24,23
564,408	10,58
564,605	33,11
564,803	-126,63
565,001	213,33
565,199	-65,19
565,397	-7,85
565,594	43,35
565,792	74,07
565,99	20,82
566,188	10,58
566,385	-16,04
566,583	-32,43
566,781	26,96
566,978	8,53
567,176	65,88
567,373	74,07
567,571	-3,75
567,769	41,3
567,966	-54,95
568,164	29,01
568,361	-28,33
568,559	82,26
568,756	-30,38
568,954	90,45
569,151	43,35
569,349	72,02
569,546	0,34
569,744	59,73
569,941	2,39
570,139	57,68
570,336	-30,38
570,534	59,73
570,731	33,11
570,928	-28,33
571,126	139,6
571,323	115,03
571,52	24,92
571,718	29,01
571,915	41,3
572,112	0,34
572,31	49,49
572,507	115,03
572,704	2,39
572,901	8,53
573,099	76,12
573,296	104,79
573,493	18,77
573,69	-13,99
573,887	16,73
574,085	24,92
574,282	24,92
574,479	76,12
574,676	33,11
574,873	67,92
575,07	106,84
575,267	8,53
575,464	31,06
575,661	35,16
575,858	-16,04
576,055	20,82
576,252	67,92
576,449	94,55
576,646	33,11
576,843	57,68
577,04	49,49
577,237	102,74
577,434	43,35
577,631	24,92
577,828	131,41
578,025	-69,29
578,222	29,01
578,419	100,69
578,615	18,77
578,812	74,07
579,009	57,68
579,206	16,73
579,403	59,73
579,599	84,31
579,796	-20,14
579,993	92,5
580,19	74,07
580,386	-1,71
580,583	110,93
580,78	24,92
580,976	123,22
581,173	96,6
581,37	67,92
581,566	63,83
581,763	147,8
581,96	65,88
582,156	61,78
582,353	26,96
582,549	182,61
582,746	82,26
582,942	108,88
583,139	82,26
583,335	121,17
583,532	174,42
583,728	147,8
583,925	139,6
584,121	196,95
584,318	190,8
584,514	166,23
584,711	258,39
584,907	213,33
585,103	194,9
585,3	395,6
585,496	430,41
585,693	1075,52
585,889	3784,99
586,085	8364,25
586,281	14461,05
586,478	21927,94
586,674	29790,09
586,87	38821,64
587,067	46833,29
587,263	52479,54
587,459	55950,85
587,655	59680,2
587,851	60673,46
588,048	59061,71
588,244	55881,22
588,44	52430,39
588,636	46724,75
588,832	40054,51
589,028	33560,41
589,224	27307,96
589,42	21139,47
589,617	15657,06
589,813	10119,35
590,009	6238,45
590,205	3932,44
590,401	2265,39
590,597	1452,35
590,793	1022,28
590,989	737,61
591,185	639,31
591,38	434,51
591,576	303,44
591,772	289,1
591,968	198,99
592,164	254,29
592,36	155,99
592,556	211,28
592,752	246,1
592,948	164,18
593,143	125,27
593,339	24,92
593,535	33,11
593,731	149,84
593,926	47,44
594,122	8,53
594,318	61,78
594,514	98,64
594,709	33,11
594,905	137,56
595,101	108,88
595,296	-48,81
595,492	67,92
595,688	37,2
595,883	133,46
596,079	90,45
596,275	29,01
596,47	-7,85
596,666	92,5
596,861	2,39
597,057	33,11
597,252	39,25
597,448	24,92
597,643	67,92
597,839	82,26
598,034	12,63
598,23	2,39
598,425	-7,85
598,621	8,53
598,816	43,35
599,011	-7,85
599,207	-73,39
599,402	-46,76
599,597	102,74
599,793	37,2
599,988	47,44
600,183	65,88
600,379	51,54
600,574	16,73
600,769	65,88
600,965	16,73
601,16	-11,95
601,355	-54,95
601,55	20,82
601,745	45,4
601,941	65,88
602,136	98,64
602,331	10,58
602,526	-24,23
602,721	82,26
602,916	8,53
603,111	0,34
603,307	2,39
603,502	-36,52
603,697	-106,15
603,892	69,97
604,087	43,35
604,282	147,8
604,477	37,2
604,672	33,11
604,867	4,44
605,062	35,16
605,257	90,45
605,452	37,2
605,646	108,88
605,841	-13,99
606,036	-63,15
606,231	-40,62
606,426	37,2
606,621	-5,8
606,816	37,2
607,01	158,03
607,205	41,3
607,4	8,53
607,595	100,69
607,79	16,73
607,984	24,92
608,179	74,07
608,374	78,16
608,569	-36,52
608,763	-126,63
608,958	-20,14
609,153	-46,76
609,347	31,06
609,542	-13,99
609,736	90,45
609,931	-36,52
610,126	-46,76
610,32	2,39
610,515	-50,86
610,709	254,29
610,904	92,5
611,098	-87,72
611,293	-124,58
611,487	69,97
611,682	24,92
611,876	24,92
612,071	26,96
612,265	96,6
612,46	-46,76
612,654	74,07
612,848	-28,33
613,043	10,58
613,237	18,77
613,432	-57
613,626	-7,85
613,82	-28,33
614,014	98,64
614,209	24,92
614,403	-11,95
614,597	55,64
614,792	45,4
614,986	-36,52
615,18	-40,62
615,374	76,12
615,568	-11,95
615,763	6,49
615,957	-24,23
616,151	35,16
616,345	2,39
616,539	-32,43
616,733	49,49
616,927	84,31
617,121	18,77
617,316	53,59
617,51	41,3
617,704	16,73
617,898	74,07
618,092	-7,85
618,286	-3,75
618,48	-11,95
618,674	90,45
618,868	123,22
619,061	-130,73
619,255	92,5
619,449	37,2
619,643	-112,3
619,837	90,45
620,031	-16,04
620,225	-9,9
620,419	37,2
620,612	67,92
620,806	102,74
621	55,64
621,194	59,73
621,388	10,58
621,581	98,64
621,775	26,96
621,969	-32,43
622,162	-32,43
622,356	0,34
622,55	-48,81
622,743	-85,67
622,937	-73,39
623,131	-3,75
623,324	147,8
623,518	0,34
623,712	-30,38
623,905	41,3
624,099	82,26
624,292	-20,14
624,486	16,73
624,679	43,35
624,873	-34,47
625,066	0,34
625,26	53,59
625,453	-13,99
625,647	-7,85
625,84	-24,23
626,034	65,88
626,227	-40,62
626,42	82,26
626,614	8,53
626,807	59,73
627	0,34
627,194	119,12
627,387	-26,28
627,58	-81,58
627,774	-24,23
627,967	16,73
628,16	8,53
628,353	8,53
628,547	-71,34
628,74	82,26
628,933	-122,54
629,126	82,26
629,319	2,39
629,513	-22,19
629,706	-11,95
629,899	6,49
630,092	-81,58
630,285	-112,3
630,478	-9,9
630,671	-54,95
630,864	53,59
631,057	-44,71
631,25	61,78
631,443	-13,99
631,636	43,35
631,829	110,93
632,022	65,88
632,215	-46,76
632,408	-112,3
632,601	33,11
632,794	-7,85
632,987	-48,81
633,18	16,73
633,373	-7,85
633,566	8,53
633,758	-65,19
633,951	-54,95
634,144	76,12
634,337	-24,23
634,53	57,68
634,722	155,99
634,915	-44,71
635,108	-13,99
635,301	67,92
635,493	-65,19
635,686	106,84
635,879	16,73
636,071	-93,87
636,264	29,01
636,457	59,73
636,649	-63,15
636,842	-71,34
637,034	-36,52
637,227	90,45
637,42	-28,33
637,612	-40,62
637,805	-3,75
637,997	-40,62
638,19	-13,99
638,382	-48,81
638,575	-7,85
638,767	-40,62
638,96	24,92
639,152	-69,29
639,344	94,55
639,537	-5,8
639,729	6,49
639,922	-3,75
640,114	10,58
640,306	98,64
640,499	115,03
640,691	-40,62
640,883	-77,48
641,075	24,92
641,268	12,63
641,46	-61,1
641,652	0,34
641,844	-97,96
642,037	-44,71
642,229	18,77
642,421	49,49
642,613	6,49
642,805	-81,58
642,998	-30,38
643,19	41,3
643,382	115,03
643,574	82,26
643,766	8,53
643,958	10,58
644,15	69,97
644,342	82,26
644,534	76,12
644,726	16,73
644,918	57,68
645,11	-11,95
645,302	-38,57
645,494	-7,85
645,686	-52,91
645,878	-122,54
646,07	35,16
646,262	-40,62
646,453	-65,19
646,645	53,59
646,837	4,44
647,029	2,39
647,221	41,3
647,413	-95,91
647,604	-3,75
647,796	86,36
647,988	4,44
648,18	-3,75
648,371	-32,43
648,563	-7,85
648,755	18,77
648,947	-50,86
649,138	-102,06
649,33	57,68
649,521	57,68
649,713	26,96
649,905	-44,71
650,096	-11,95
650,288	-9,9
650,479	-9,9
650,671	35,16
650,863	-24,23
651,054	-30,38
651,246	18,77
651,437	24,92
651,629	82,26
651,82	76,12
652,011	59,73
652,203	33,11
652,394	29,01
652,586	-24,23
652,777	-63,15
652,968	16,73
653,16	-120,49
653,351	16,73
653,542	188,75
653,734	-63,15
653,925	-48,81
654,116	16,73
654,308	26,96
654,499	2,39
654,69	8,53
654,881	29,01
655,073	2,39
655,264	98,64
655,455	-54,95
655,646	-48,81
655,837	26,96
656,028	43,35
656,219	-48,81
656,411	31,06
656,602	-7,85
656,793	18,77
656,984	61,78
657,175	-69,29
657,366	10,58
657,557	74,07
657,748	-87,72
657,939	-38,57
658,13	0,34
658,321	57,68
658,512	10,58
658,703	-3,75
658,894	26,96
659,084	29,01
659,275	14,68
659,466	53,59
659,657	41,3
659,848	53,59
660,039	57,68
660,23	-7,85
660,42	-40,62
660,611	0,34
660,802	2,39
660,993	26,96
661,183	26,96
661,374	18,77
661,565	141,65
661,755	18,77
661,946	0,34
662,137	-7,85
662,327	-13,99
662,518	-24,23
662,709	-11,95
662,899	-73,39
663,09	57,68
663,28	-32,43
663,471	-100,01
663,662	106,84
663,852	141,65
664,043	-52,91
664,233	26,96
664,424	49,49
664,614	24,92
664,804	-9,9
664,995	127,32
665,185	59,73
665,376	-71,34
665,566	57,68
665,756	-38,57
665,947	119,12
666,137	264,53
666,328	1032,52
666,518	2109,75
666,708	3735,84
666,898	5587,2
667,089	7538,91
667,279	9404,61
667,469	10819,76
667,659	11804,83
667,85	12144,8
668,04	12325,02
668,23	12112,03
668,42	11391,14
668,61	10688,69
668,8	9883,84
668,991	8806,61
669,181	7633,12
669,371	6488,31
669,561	5669,12
669,751	4940,04
669,941	3924,25
670,131	2935,08
670,321	2091,32
670,511	1409,34
670,701	880,97
670,891	551,24
671,081	313,68
671,271	155,99
671,461	190,8
671,651	162,13
671,841	108,88
672,03	67,92
672,22	61,78
672,41	98,64
672,6	131,41
672,79	131,41
672,98	-7,85
673,169	16,73
673,359	-24,23
673,549	82,26
673,739	-89,77
673,928	26,96
674,118	-69,29
674,308	57,68
674,497	82,26
674,687	6,49
674,877	12,63
675,066	-16,04
675,256	4,44
675,446	0,34
675,635	-3,75
675,825	-75,43
676,014	-24,23
676,204	-73,39
676,393	18,77
676,583	-26,28
676,772	59,73
676,962	4,44
677,151	-5,8
677,341	-61,1
677,53	-11,95
677,72	-22,19
677,909	43,35
678,099	53,59
678,288	4,44
678,477	35,16
678,667	90,45
678,856	51,54
679,045	-36,52
679,235	16,73
679,424	35,16
679,613	20,82
679,802	43,35
679,992	-46,76
680,181	8,53
680,37	-40,62
680,559	49,49
680,748	16,73
680,938	49,49
681,127	-46,76
681,316	59,73
681,505	-85,67
681,694	-34,47
681,883	-30,38
682,072	2,39
682,261	-11,95
682,45	-110,25
682,639	-1,71
682,828	41,3
683,017	16,73
683,206	65,88
683,395	-73,39
683,584	31,06
683,773	104,79
683,962	10,58
684,151	-106,15
684,34	98,64
684,529	-7,85
684,718	8,53
684,907	-46,76
685,095	51,54
685,284	106,84
685,473	90,45
685,662	-73,39
685,851	53,59
686,039	-16,04
686,228	16,73
686,417	-42,67
686,606	43,35
686,794	10,58
686,983	-73,39
687,172	-5,8
687,36	16,73
687,549	-13,99
687,738	4,44
687,926	-40,62
688,115	-48,81
688,303	8,53
688,492	-93,87
688,68	20,82
688,869	8,53
689,057	-20,14
689,246	-3,75
689,434	49,49
689,623	67,92
689,811	18,77
690	-65,19
690,188	-38,57
690,377	-16,04
690,565	49,49
690,753	67,92
690,942	-44,71
691,13	41,3
691,318	-46,76
691,507	33,11
691,695	-13,99
691,883	-7,85
692,072	-7,85
692,26	33,11
692,448	-16,04
692,636	-95,91
692,824	-69,29
693,013	104,79
693,201	41,3
693,389	-159,4
693,577	-34,47
693,765	74,07
693,953	-32,43
694,141	-44,71
694,329	8,53
694,518	18,77
694,706	57,68
694,894	41,3
695,082	-3,75
695,27	16,73
695,458	-44,71
695,646	-3,75
695,834	18,77
696,022	4,44
696,209	86,36
696,397	57,68
696,585	-16,04
696,773	2,39
696,961	18,77
697,149	-24,23
697,337	29,01
697,525	96,6
697,712	2,39
697,9	0,34
698,088	-16,04
698,276	53,59
698,463	-11,95
698,651	0,34
698,839	14,68
699,027	26,96
699,214	49,49
699,402	-136,87
699,59	35,16
699,777	-24,23
699,965	6,49
700,152	-38,57
700,34	4,44
700,528	-112,3
700,715	-20,14
700,903	41,3
701,09	61,78
701,278	-16,04
701,465	49,49
701,653	-11,95
701,84	-85,67
702,028	33,11
702,215	0,34
702,402	123,22
702,59	63,83
702,777	69,97
702,965	24,92
703,152	24,92
703,339	82,26
703,527	8,53
703,714	67,92
703,901	51,54
704,088	41,3
704,276	172,37
704,463	106,84
704,65	108,88
704,837	280,91
705,025	860,49
705,212	2830,63
705,399	5982,46
705,586	9371,85
705,773	13254,8
705,96	16930,9
706,147	19728,42
706,335	22028,29
706,522	23279,6
706,709	22757,37
706,896	22112,26
707,083	21104,66
707,27	19652,65
707,457	18171,97
707,644	16728,15
707,831	14577,78
708,018	12398,74
708,205	10830
708,392	9158,86
708,578	7995,61
708,765	6414,58
708,952	5144,84
709,139	4004,12
709,326	2793,77
709,513	2001,21
709,7	1347,9
709,886	846,15
710,073	641,36
710,26	467,28
710,447	237,91
710,633	221,52
710,82	188,75
711,007	92,5
711,193	147,8
711,38	43,35
711,567	59,73
711,753	43,35
711,94	47,44
712,127	16,73
712,313	37,2
712,5	10,58
712,686	84,31
712,873	-16,04
713,059	37,2
713,246	4,44
713,432	43,35
713,619	-65,19
713,805	49,49
713,992	123,22
714,178	-11,95
714,365	10,58
714,551	174,42
714,737	-7,85
714,924	-63,15
715,11	18,77
715,297	-32,43
715,483	0,34
715,669	-20,14
715,855	24,92
716,042	-7,85
716,228	-106,15
716,414	119,12
716,6	-13,99
716,787	-18,09
716,973	-38,57
717,159	82,26
717,345	-40,62
717,531	-7,85
717,718	24,92
717,904	90,45
718,09	-42,67
718,276	45,4
718,462	-57
718,648	65,88
718,834	-106,15
719,02	16,73
719,206	-16,04
719,392	-63,15
719,578	-18,09
719,764	-44,71
719,95	-16,04
720,136	49,49
720,322	-13,99
720,508	0,34
720,694	-40,62
720,879	-77,48
721,065	100,69
721,251	-112,3
721,437	-65,19
721,623	-26,28
721,809	-38,57
721,994	-22,19
722,18	-95,91
722,366	-26,28
722,552	-65,19
722,737	-63,15
722,923	-22,19
723,109	-1,71
723,294	-22,19
723,48	2,39
723,666	26,96
723,851	-106,15
724,037	65,88
724,222	100,69
724,408	37,2
724,593	-36,52
724,779	-44,71
724,965	-3,75
725,15	-57
725,336	26,96
725,521	69,97
725,706	-34,47
725,892	-73,39
726,077	-26,28
726,263	4,44
726,448	86,36
726,634	45,4
726,819	242
727,004	483,66
727,19	846,15
727,375	1253,7
727,56	1550,65
727,745	1761,59
727,931	2234,68
728,116	2224,44
728,301	2335,03
728,486	2183,48
728,672	2023,73
728,857	2056,5
729,042	1724,73
729,227	1511,74
729,412	1349,95
729,597	1081,67
729,783	1024,33
729,968	897,35
730,153	727,37
730,338	696,65
730,523	487,76
730,708	446,8
730,893	287,06
731,078	262,48
731,263	121,17
731,448	78,16
731,633	63,83
731,818	-48,81
732,003	43,35
732,187	-40,62
732,372	-48,81
732,557	10,58
732,742	-118,44
732,927	-7,85
733,112	59,73
733,297	-32,43
733,481	-54,95
733,666	33,11
733,851	-69,29
734,036	12,63
734,22	-38,57
734,405	117,08
734,59	-57
734,774	24,92
734,959	-114,34
735,144	69,97
735,328	-38,57
735,513	-28,33
735,698	92,5
735,882	8,53
736,067	92,5
736,251	84,31
736,436	-24,23
736,62	-40,62
736,805	-102,06
736,989	24,92
737,174	41,3
737,358	-161,45
737,543	123,22
737,727	26,96
737,911	141,65
738,096	-7,85
738,28	8,53
738,465	-24,23
738,649	53,59
738,833	0,34
739,018	-69,29
739,202	-22,19
739,386	-48,81
739,57	-22,19
739,755	-16,04
739,939	76,12
740,123	-54,95
740,307	0,34
740,491	55,64
740,676	-65,19
740,86	-3,75
741,044	-13,99
741,228	-16,04
741,412	-40,62
741,596	-48,81
741,78	-65,19
741,964	-20,14
742,148	-83,63
742,332	6,49
742,516	-44,71
742,7	55,64
742,884	4,44
743,068	29,01
743,252	-50,86
743,436	2,39
743,62	-91,82
743,804	96,6
743,988	90,45
744,172	-77,48
744,356	-52,91
744,539	-7,85
744,723	-73,39
744,907	-100,01
745,091	-63,15
745,275	-40,62
745,458	10,58
745,642	-30,38
745,826	-3,75
746,009	41,3
746,193	12,63
746,377	43,35
746,56	-22,19
746,744	57,68
746,928	-40,62
747,111	18,77
747,295	-13,99
747,478	31,06
747,662	-57
747,846	8,53
748,029	-32,43
748,213	-36,52
748,396	41,3
748,58	4,44
748,763	-38,57
748,946	-67,24
749,13	-22,19
749,313	-13,99
749,497	57,68
749,68	59,73
749,863	26,96
750,047	-40,62
750,23	-7,85
750,413	-40,62
750,597	-7,85
750,78	-24,23
750,963	4,44
751,146	-11,95
751,33	0,34
751,513	-36,52
751,696	-48,81
751,879	-63,15
752,062	-122,54
752,246	-16,04
752,429	-16,04
752,612	10,58
752,795	-7,85
752,978	-65,19
753,161	-30,38
753,344	20,82
753,527	-44,71
753,71	-16,04
753,893	-110,25
754,076	-44,71
754,259	41,3
754,442	-57
754,625	-122,54
754,808	69,97
754,991	-57
755,174	-52,91
755,357	-38,57
755,539	-48,81
755,722	-28,33
755,905	33,11
756,088	-71,34
756,271	16,73
756,453	33,11
756,636	-95,91
756,819	45,4
757,002	-40,62
757,184	51,54
757,367	26,96
757,55	16,73
757,732	-11,95
757,915	-102,06
758,098	-20,14
758,28	8,53
758,463	12,63
758,645	-54,95
758,828	35,16
759,011	-48,81
759,193	-18,09
759,376	47,44
759,558	-116,39
759,741	-57
759,923	-38,57
760,105	43,35
760,288	-7,85
760,47	-112,3
760,653	-79,53
760,835	-100,01
761,017	-46,76
761,2	-65,19
761,382	67,92
761,564	8,53
761,747	0,34
761,929	-28,33
762,111	-36,52
762,294	-40,62
762,476	112,98
762,658	18,77
762,84	65,88
763,022	-7,85
763,205	2,39
763,387	41,3
763,569	24,92
763,751	-73,39
763,933	-69,29
764,115	-40,62
764,297	-5,8
764,479	6,49
764,661	-69,29
764,843	24,92
765,025	4,44
765,207	-36,52
765,389	8,53
765,571	-46,76
765,753	4,44
765,935	-38,57
766,117	-18,09
766,299	104,79
766,481	8,53
766,663	-124,58
766,845	-22,19
767,026	-79,53
767,208	-40,62
767,39	33,11
767,572	-65,19
767,753	74,07
767,935	-16,04
768,117	0,34
768,299	76,12
768,48	-18,09
768,662	24,92
768,844	24,92
769,025	59,73
769,207	-97,96
769,389	-40,62
769,57	33,11
769,752	-50,86
769,933	0,34
770,115	20,82
770,296	-7,85
770,478	72,02
770,659	-192,17
770,841	133,46
771,022	-93,87
771,204	35,16
771,385	-38,57
771,567	41,3
771,748	16,73
771,929	-75,43
772,111	43,35
772,292	8,53
772,473	-24,23
772,655	59,73
772,836	-24,23
773,017	90,45
773,199	59,73
773,38	-57
773,561	24,92
773,742	12,63
773,923	-108,2
774,105	98,64
774,286	53,59
774,467	-97,96
774,648	-104,11
774,829	-5,8
775,01	-24,23
775,191	2,39
775,372	-44,71
775,553	16,73
775,734	-77,48
775,915	-20,14
776,096	-7,85
776,277	24,92
776,458	-57
776,639	41,3
776,82	98,64
777,001	12,63
777,182	-65,19
777,363	-59,05
777,544	16,73
777,725	115,03
777,906	0,34
778,086	10,58
778,267	4,44
778,448	-16,04
778,629	-89,77
778,809	29,01
778,99	33,11
779,171	-32,43
779,352	10,58
779,532	-48,81
779,713	-61,1
779,894	29,01
780,074	102,74
780,255	84,31
780,435	26,96
780,616	72,02
780,797	12,63
780,977	-22,19
781,158	-57
781,338	8,53
781,519	-7,85
781,699	149,84
781,88	-48,81
782,06	35,16
782,241	-20,14
782,421	-71,34
782,601	-7,85
782,782	59,73
782,962	41,3
783,142	-155,3
783,323	-30,38
783,503	2,39
783,683	37,2
783,864	6,49
784,044	-7,85
784,224	72,02
784,404	53,59
784,585	8,53
784,765	0,34
784,945	41,3
785,125	-16,04
785,305	2,39
785,485	108,88
785,666	-32,43
785,846	-32,43
786,026	49,49
786,206	-38,57
786,386	-65,19
786,566	82,26
786,746	-22,19
786,926	-65,19
787,106	-24,23
787,286	0,34
787,466	-30,38
787,646	-57
787,826	-16,04
788,006	76,12
788,185	-32,43
788,365	-44,71
788,545	106,84
788,725	-71,34
788,905	112,98
789,085	33,11
789,264	-3,75
789,444	37,2
789,624	16,73
789,804	-65,19
789,983	41,3
790,163	-97,96
790,343	43,35
790,522	16,73
790,702	-16,04
790,882	-50,86
791,061	78,16
791,241	-57
791,42	0,34
791,6	8,53
791,78	-65,19
791,959	-34,47
792,139	-95,91
792,318	-126,63
792,498	-32,43
792,677	-16,04
792,856	0,34
793,036	-38,57
793,215	-85,67
793,395	139,6
793,574	-18,09
793,753	-22,19
793,933	78,16
794,112	37,2
794,291	-69,29
794,471	78,16
794,65	6,49
794,829	0,34
795,008	41,3
795,188	57,68
795,367	35,16
795,546	20,82
795,725	12,63
795,904	49,49
796,084	2,39
796,263	-7,85
796,442	104,79
796,621	-48,81
796,8	67,92
796,979	33,11
797,158	-85,67
797,337	-16,04
797,516	-7,85
797,695	53,59
797,874	2,39
798,053	-24,23
798,232	-5,8
798,411	-73,39
798,59	-48,81
798,769	-128,68
798,947	-1,71
799,126	10,58
799,305	37,2
799,484	45,4
799,663	-106,15
799,842	53,59
800,02	-13,99
800,199	-40,62
800,378	18,77
800,557	-61,1
800,735	-85,67
800,914	-36,52
801,093	-28,33
801,271	67,92
801,45	-24,23
801,628	74,07
801,807	-48,81
801,986	29,01
802,164	-26,28
802,343	-48,81
802,521	-95,91
802,7	0,34
802,878	65,88
803,057	53,59
803,235	-65,19
803,414	98,64
803,592	-30,38
803,771	-28,33
803,949	31,06
804,127	-52,91
804,306	41,3
804,484	-22,19
804,662	-13,99
804,841	-136,87
805,019	-28,33
805,197	74,07
805,375	-83,63
805,554	-32,43
805,732	-13,99
805,91	24,92
806,088	-52,91
806,266	-46,76
806,445	-87,72
806,623	-73,39
806,801	-7,85
806,979	49,49
807,157	-7,85
807,335	-140,97
807,513	-48,81
807,691	49,49
807,869	-32,43
808,047	-57
808,225	-73,39
808,403	18,77
808,581	-63,15
808,759	82,26
808,937	35,16
809,115	51,54
809,293	84,31
809,471	4,44
809,649	41,3
809,826	53,59
810,004	-85,67
810,182	-89,77
810,36	-81,58
810,538	29,01
810,715	14,68
810,893	-52,91
811,071	-46,76
811,248	45,4
811,426	-26,28
811,604	29,01
811,781	33,11
811,959	-16,04
812,137	-30,38
812,314	-13,99
812,492	-36,52
812,669	-9,9
812,847	-57
813,024	-79,53
813,202	-7,85
813,379	-71,34
813,557	16,73
813,734	117,08
813,912	10,58
814,089	-77,48
814,267	106,84
814,444	51,54
814,621	-38,57
814,799	-97,96
814,976	18,77
815,153	90,45
815,331	-5,8
815,508	-95,91
815,685	-57
815,862	74,07
816,04	-7,85
816,217	-18,09
816,394	-11,95
816,571	0,34
816,748	84,31
816,926	67,92
817,103	160,08
817,28	49,49
817,457	-42,67
817,634	76,12
817,811	-65,19
817,988	-32,43
818,165	-30,38
818,342	-50,86
818,519	-13,99
818,696	-48,81
818,873	-32,43
819,05	123,22
819,227	-11,95
819,404	12,63
819,581	-32,43
819,758	-40,62
819,934	53,59
820,111	-44,71
820,288	-52,91
820,465	49,49
820,642	0,34
820,818	53,59
820,995	16,73
821,172	86,36
821,349	35,16
821,525	-20,14
821,702	-30,38
821,879	-138,92
822,055	-30,38
822,232	-89,77
822,409	29,01
822,585	-16,04
822,762	24,92
822,938	49,49
823,115	10,58
823,291	43,35
823,468	82,26
823,644	-95,91
823,821	10,58
823,997	-46,76
824,174	-65,19
824,35	-69,29
824,527	-28,33
824,703	0,34
824,879	-40,62
825,056	-65,19
825,232	94,55
825,408	-52,91
825,585	-50,86
825,761	-77,48
825,937	-106,15
826,113	-38,57
826,29	24,92
826,466	-81,58
826,642	266,58
826,818	67,92
826,994	12,63
827,17	-34,47
827,347	-108,2
827,523	-5,8
827,699	-11,95
827,875	41,3
828,051	-97,96
828,227	-95,91
828,403	-9,9
828,579	33,11
828,755	57,68
828,931	-48,81
829,107	59,73
829,283	22,87
829,459	-65,19
829,635	-24,23
829,811	-22,19
829,986	-81,58
830,162	-24,23
830,338	51,54
830,514	-81,58
830,69	-7,85
830,865	-20,14
831,041	37,2
831,217	-93,87
831,393	-106,15
831,568	-38,57
831,744	92,5
831,92	41,3
832,095	0,34
832,271	-69,29
832,447	20,82
832,622	76,12
832,798	-26,28
832,973	-36,52
833,149	-30,38
833,325	-11,95
833,5	45,4
833,676	90,45
833,851	72,02
834,027	-50,86
834,202	-22,19
834,377	-36,52
834,553	20,82
834,728	-9,9
834,904	18,77
835,079	-52,91
835,254	-40,62
835,43	-97,96
835,605	-18,09
835,78	-11,95
835,955	-40,62
836,131	59,73
836,306	-110,25
836,481	-11,95
836,656	-16,04
836,832	41,3
837,007	-81,58
837,182	-44,71
837,357	-30,38
837,532	-63,15
837,707	18,77
837,882	16,73
838,057	59,73
838,232	51,54
838,407	-54,95
838,582	-28,33
838,757	10,58
838,932	-16,04
839,107	-61,1
839,282	-118,44
839,457	10,58
839,632	96,6
839,807	51,54
839,982	-11,95
840,157	-5,8
840,332	-54,95
840,506	2,39
840,681	12,63
840,856	-48,81
841,031	-151,21
841,205	-22,19
841,38	57,68
841,555	8,53
841,73	29,01
841,904	-138,92
842,079	-57
842,254	86,36
842,428	33,11
842,603	-20,14
842,777	-83,63
842,952	-26,28
843,126	-9,9
843,301	6,49
843,476	-32,43
843,65	-32,43
843,825	-13,99
843,999	4,44
844,173	-100,01
844,348	4,44
844,522	61,78
844,697	-22,19
844,871	-61,1
845,045	67,92
845,22	24,92
845,394	117,08
845,568	-9,9
845,743	92,5
845,917	18,77
846,091	26,96
846,265	29,01
846,44	37,2
846,614	24,92
846,788	-134,82
846,962	29,01
847,136	2,39
847,31	-44,71
847,485	82,26
847,659	-69,29
847,833	-3,75
848,007	-16,04
848,181	16,73
848,355	-87,72
848,529	57,68
848,703	55,64
848,877	-114,34
849,051	41,3
849,225	-16,04
849,399	-59,05
849,573	-138,92
849,746	-40,62
849,92	-59,05
850,094	12,63
850,268	-79,53
850,442	88,4
850,616	-57
850,789	-89,77
850,963	33,11
851,137	-97,96
851,311	57,68
851,484	76,12
851,658	-22,19
851,832	-97,96
852,005	0,34
852,179	-40,62
852,352	-97,96
852,526	39,25
852,7	33,11
852,873	-69,29
853,047	84,31
853,22	-40,62
853,394	65,88
853,567	-102,06
853,741	-57
853,914	-57
854,088	-57
854,261	-63,15
854,434	-71,34
854,608	-32,43
854,781	-97,96
854,955	-11,95
855,128	18,77
855,301	-9,9
855,475	-13,99
855,648	-5,8
855,821	-32,43
855,994	41,3
856,168	16,73
856,341	110,93
856,514	-143,02
856,687	-57
856,86	63,83
857,033	-48,81
857,207	24,92
857,38	-69,29
857,553	16,73
857,726	2,39
857,899	0,34
858,072	-24,23
858,245	-69,29
858,418	-52,91
858,591	-44,71
858,764	-48,81
858,937	100,69
859,11	61,78
859,283	0,34
859,455	-73,39
859,628	-7,85
859,801	33,11
859,974	-30,38
860,147	-122,54
860,32	-20,14
860,492	-57
860,665	-100,01
860,838	-57
861,011	-48,81
861,183	22,87
861,356	41,3
861,529	4,44
861,701	-93,87
861,874	-7,85
862,047	82,26
862,219	-61,1
862,392	12,63
862,564	-9,9
862,737	26,96
862,909	143,7
863,082	-40,62
863,254	45,4
863,427	16,73
863,599	49,49
863,772	-79,53
863,944	0,34
864,117	67,92
864,289	14,68
864,461	-30,38
864,634	-16,04
864,806	-110,25
864,978	2,39
865,151	-65,19
865,323	74,07
865,495	76,12
865,667	8,53
865,84	141,65
866,012	-63,15
866,184	63,83
866,356	-46,76
866,528	-7,85
866,7	-63,15
866,873	-65,19
867,045	0,34
867,217	-140,97
867,389	10,58
867,561	-30,38
867,733	-38,57
867,905	-34,47
868,077	-32,43
868,249	-24,23
868,421	35,16
868,593	29,01
868,765	16,73
868,936	-145,06
869,108	8,53
869,28	41,3
869,452	-57
869,624	-89,77
869,796	-7,85
869,968	-63,15
870,139	33,11
870,311	-36,52
870,483	0,34
870,654	-71,34
870,826	41,3
870,998	22,87
871,17	-22,19
871,341	-114,34
871,513	16,73
871,684	-112,3
871,856	-24,23
872,028	-67,24
872,199	-77,48
872,371	-65,19
872,542	-36,52
872,714	-24,23
872,885	53,59
873,057	-34,47
873,228	-57
873,4	4,44
873,571	41,3
873,742	-54,95
873,914	-32,43
874,085	-81,58
874,256	33,11
874,428	-188,07
874,599	-48,81
874,77	41,3
874,942	-143,02
875,113	69,97
875,284	-24,23
875,455	-118,44
875,626	-48,81
875,798	-32,43
875,969	-24,23
876,14	-22,19
876,311	74,07
876,482	57,68
876,653	-20,14
876,824	49,49
876,995	-30,38
877,166	-7,85
877,337	6,49
877,508	-32,43
877,679	2,39
877,85	-87,72
878,021	-40,62
878,192	82,26
878,363	-63,15
878,534	-87,72
878,705	-57
878,876	-63,15
879,047	-32,43
879,217	0,34
879,388	-52,91
879,559	0,34
879,73	18,77
879,9	18,77
880,071	-36,52
880,242	-13,99
880,413	61,78
880,583	0,34
880,754	22,87
880,924	-16,04
881,095	-42,67
881,266	-34,47
881,436	35,16
881,607	41,3
881,777	-16,04
881,948	2,39
882,118	47,44
882,289	-122,54
882,459	-7,85
882,63	16,73
882,8	-7,85
882,971	88,4
883,141	-34,47
883,311	8,53
883,482	4,44
883,652	-48,81
883,822	-87,72
883,993	-77,48
884,163	57,68
884,333	6,49
884,504	-32,43
884,674	-32,43
884,844	18,77
885,014	-61,1
885,184	-22,19
885,355	-46,76
885,525	-5,8
885,695	16,73
885,865	29,01
886,035	-61,1
886,205	-38,57
886,375	12,63
886,545	-48,81
886,715	-85,67
886,885	-54,95
887,055	-57
887,225	-44,71
887,395	-171,69
887,565	108,88
887,735	-48,81
887,905	49,49
888,075	-97,96
888,244	8,53
888,414	0,34
888,584	39,25
888,754	0,34
888,924	-48,81
889,093	125,27
889,263	-46,76
889,433	-57
889,603	-67,24
889,772	-9,9
889,942	49,49
890,111	41,3
890,281	-22,19
890,451	-73,39
890,62	-63,15
890,79	33,11
890,959	24,92
891,129	18,77
891,298	29,01
891,468	18,77
891,637	-67,24
891,807	-52,91
891,976	67,92
892,146	-97,96
892,315	35,16
892,485	57,68
892,654	-57
892,823	-40,62
892,993	-11,95
893,162	2,39
893,331	76,12
893,501	-38,57
893,67	94,55
893,839	35,16
894,008	-48,81
894,177	12,63
894,347	-16,04
894,516	74,07
894,685	-16,04
894,854	24,92
895,023	24,92
895,192	-87,72
