Data from he_USB4F104161__15__11-53-36-929.txt Node

Date: Tue Apr 14 11:53:36 EDT 2026
User: LaboPhy
Spectrometer: USB4F10416
Trigger mode: 4
Integration Time (sec): 1,000000E-1
Scans to average: 1
Electric dark correction enabled: true
Nonlinearity correction enabled: false
Boxcar width: 0
XAxis mode: Wavelengths
Number of Pixels in Spectrum: 3648
>>>>>Begin Spectral Data<<<<<
177,847	-201,55
178,066	-201,55
178,284	-201,55
178,502	-80,72
178,72	-160,59
178,939	38,06
179,157	-64,34
179,375	-35,67
179,593	-0,85
179,812	44,2
180,03	42,15
180,248	-4,95
180,466	21,67
180,685	74,92
180,903	-47,96
181,121	-50
181,339	-17,24
181,557	-31,57
181,775	-2,9
181,994	5,29
182,212	-29,52
182,43	-31,57
182,648	-2,9
182,866	85,16
183,084	38,06
183,302	-62,29
183,52	-4,95
183,739	115,88
183,957	9,39
184,175	62,63
184,393	3,24
184,611	93,35
184,829	101,55
185,047	15,53
185,265	-15,19
185,483	-56,15
185,701	-4,95
185,919	68,78
186,137	3,24
186,355	38,06
186,573	62,63
186,791	156,84
187,009	-56,15
187,227	50,35
187,445	42,15
187,663	74,92
187,881	-31,57
188,098	-4,95
188,316	-37,72
188,534	169,13
188,752	17,58
188,97	-37,72
189,188	29,87
189,406	79,02
189,624	64,68
189,841	27,82
190,059	-144,21
190,277	-52,05
190,495	79,02
190,713	-23,38
190,931	109,74
191,148	91,31
191,366	58,54
191,584	9,39
191,802	11,43
192,019	76,97
192,237	74,92
192,455	-11,09
192,673	115,88
192,89	1,19
193,108	-15,19
193,326	-13,14
193,543	87,21
193,761	-13,14
193,979	62,63
194,196	17,58
194,414	76,97
194,632	68,78
194,849	1,19
195,067	-31,57
195,285	91,31
195,502	-88,92
195,72	-4,95
195,937	-0,85
196,155	-54,1
196,373	38,06
196,59	-19,29
196,808	44,2
197,025	-41,81
197,243	195,75
197,46	115,88
197,678	60,59
197,895	64,68
198,113	-37,72
198,33	-66,39
198,548	44,2
198,765	-105,3
198,983	115,88
199,2	-7
199,418	50,35
199,635	3,24
199,853	9,39
200,07	-7
200,288	-35,67
200,505	-47,96
200,722	42,15
200,94	99,5
201,157	72,87
201,375	52,39
201,592	-29,52
201,809	58,54
202,027	91,31
202,244	42,15
202,461	-13,14
202,679	74,92
202,896	-21,33
203,113	17,58
203,331	-21,33
203,548	-56,15
203,765	36,01
203,982	33,96
204,2	-31,57
204,417	-39,76
204,634	99,5
204,851	52,39
205,069	3,24
205,286	95,4
205,503	66,73
205,72	25,77
205,937	-2,9
206,155	-60,24
206,372	124,07
206,589	-23,38
206,806	-15,19
207,023	-2,9
207,24	-23,38
207,458	-37,72
207,675	-9,05
207,892	-60,24
208,109	-31,57
208,326	17,58
208,543	64,68
208,76	-15,19
208,977	93,35
209,194	79,02
209,411	-68,44
209,628	-7
209,845	-60,24
210,062	11,43
210,279	-80,72
210,496	-4,95
210,713	-29,52
210,93	-54,1
211,147	103,59
211,364	-25,43
211,581	-7
211,798	119,98
212,015	-23,38
212,232	29,87
212,449	-37,72
212,666	15,53
212,883	-23,38
213,1	-7
213,317	-0,85
213,533	-43,86
213,75	-23,38
213,967	9,39
214,184	-39,76
214,401	-11,09
214,618	-9,05
214,835	-7
215,051	1,19
215,268	42,15
215,485	50,35
215,702	13,48
215,919	5,29
216,135	83,11
216,352	-23,38
216,569	21,67
216,786	83,11
217,002	-4,95
217,219	-15,19
217,436	11,43
217,652	-62,29
217,869	58,54
218,086	85,16
218,302	19,63
218,519	-21,33
218,736	-35,67
218,952	-62,29
219,169	46,25
219,386	27,82
219,602	101,55
219,819	42,15
220,036	-27,48
220,252	107,69
220,469	-39,76
220,685	58,54
220,902	5,29
221,118	17,58
221,335	1,19
221,552	-7
221,768	46,25
221,985	-27,48
222,201	-13,14
222,418	95,4
222,634	17,58
222,851	83,11
223,067	-4,95
223,284	-11,09
223,5	74,92
223,716	-58,2
223,933	42,15
224,149	11,43
224,366	62,63
224,582	-7
224,799	-39,76
225,015	9,39
225,231	-88,92
225,448	33,96
225,664	58,54
225,88	-72,53
226,097	-11,09
226,313	52,39
226,529	9,39
226,746	54,44
226,962	-23,38
227,178	-15,19
227,395	68,78
227,611	-19,29
227,827	50,35
228,044	17,58
228,26	74,92
228,476	-17,24
228,692	19,63
228,909	17,58
229,125	128,17
229,341	58,54
229,557	-21,33
229,773	-43,86
229,99	66,73
230,206	-54,1
230,422	1,19
230,638	-4,95
230,854	-2,9
231,07	-54,1
231,286	156,84
231,503	27,82
231,719	-31,57
231,935	-21,33
232,151	-15,19
232,367	87,21
232,583	17,58
232,799	124,07
233,015	-11,09
233,231	-64,34
233,447	66,73
233,663	38,06
233,879	74,92
234,095	-66,39
234,311	83,11
234,527	1,19
234,743	128,17
234,959	19,63
235,175	17,58
235,391	-0,85
235,607	58,54
235,823	64,68
236,039	-31,57
236,255	27,82
236,471	42,15
236,687	-11,09
236,903	36,01
237,118	50,35
237,334	-11,09
237,55	-31,57
237,766	-66,39
237,982	50,35
238,198	38,06
238,413	17,58
238,629	66,73
238,845	-15,19
239,061	-11,09
239,277	-21,33
239,492	-72,53
239,708	95,4
239,924	-78,68
240,14	1,19
240,355	179,37
240,571	-23,38
240,787	-9,05
241,003	79,02
241,218	-4,95
241,434	-64,34
241,65	62,63
241,865	-45,91
242,081	124,07
242,297	3,24
242,512	99,5
242,728	122,02
242,944	-80,72
243,159	119,98
243,375	-11,09
243,59	-13,14
243,806	11,43
244,022	1,19
244,237	-17,24
244,453	21,67
244,668	70,83
244,884	66,73
245,099	-29,52
245,315	136,36
245,53	66,73
245,746	11,43
245,961	23,72
246,177	62,63
246,392	83,11
246,608	115,88
246,823	115,88
247,039	-15,19
247,254	-2,9
247,47	83,11
247,685	-31,57
247,9	9,39
248,116	-0,85
248,331	-47,96
248,547	181,42
248,762	-119,64
248,977	54,44
249,193	-31,57
249,408	29,87
249,623	70,83
249,839	9,39
250,054	-78,68
250,269	1,19
250,485	21,67
250,7	11,43
250,915	1,19
251,13	83,11
251,346	42,15
251,561	70,83
251,776	91,31
251,991	-97,11
252,207	54,44
252,422	9,39
252,637	-88,92
252,852	-13,14
253,067	152,74
253,283	-7
253,498	42,15
253,713	21,67
253,928	11,43
254,143	-15,19
254,358	54,44
254,573	-23,38
254,788	-47,96
255,004	85,16
255,219	-64,34
255,434	38,06
255,649	-23,38
255,864	25,77
256,079	-0,85
256,294	-37,72
256,509	-52,05
256,724	-31,57
256,939	-11,09
257,154	50,35
257,369	-11,09
257,584	33,96
257,799	-15,19
258,014	58,54
258,229	5,29
258,444	46,25
258,659	50,35
258,874	27,82
259,089	50,35
259,304	42,15
259,518	-39,76
259,733	-11,09
259,948	-35,67
260,163	40,11
260,378	87,21
260,593	21,67
260,808	66,73
261,022	-33,62
261,237	46,25
261,452	-7
261,667	-7
261,882	97,45
262,096	50,35
262,311	38,06
262,526	52,39
262,741	13,48
262,955	-2,9
263,17	52,39
263,385	-7
263,6	-52,05
263,814	-52,05
264,029	36,01
264,244	11,43
264,458	42,15
264,673	74,92
264,888	15,53
265,102	66,73
265,317	-29,52
265,532	23,72
265,746	64,68
265,961	119,98
266,175	17,58
266,39	29,87
266,605	17,58
266,819	-7
267,034	-4,95
267,248	-4,95
267,463	76,97
267,677	-54,1
267,892	-11,09
268,106	-58,2
268,321	-31,57
268,535	66,73
268,75	-4,95
268,964	-54,1
269,179	54,44
269,393	9,39
269,608	68,78
269,822	-15,19
270,036	-23,38
270,251	21,67
270,465	1,19
270,68	38,06
270,894	50,35
271,108	93,35
271,323	-52,05
271,537	-39,76
271,752	64,68
271,966	-19,29
272,18	-86,87
272,394	-37,72
272,609	21,67
272,823	44,2
273,037	11,43
273,252	13,48
273,466	50,35
273,68	66,73
273,894	101,55
274,109	-107,35
274,323	29,87
274,537	36,01
274,751	-80,72
274,966	-23,38
275,18	-4,95
275,394	9,39
275,608	-82,77
275,822	-97,11
276,036	9,39
276,25	11,43
276,465	1,19
276,679	23,72
276,893	-82,77
277,107	-47,96
277,321	-15,19
277,535	62,63
277,749	87,21
277,963	-13,14
278,177	-39,76
278,391	115,88
278,605	36,01
278,819	140,46
279,033	-72,53
279,247	-31,57
279,461	66,73
279,675	-4,95
279,889	79,02
280,103	25,77
280,317	74,92
280,531	-11,09
280,745	29,87
280,959	-47,96
281,173	99,5
281,387	50,35
281,601	-17,24
281,815	21,67
282,029	-105,3
282,242	-54,1
282,456	-4,95
282,67	99,5
282,884	33,96
283,098	54,44
283,312	-80,72
283,525	3,24
283,739	-11,09
283,953	33,96
284,167	1,19
284,381	-19,29
284,594	-23,38
284,808	11,43
285,022	-64,34
285,235	21,67
285,449	31,91
285,663	-84,82
285,877	-31,57
286,09	11,43
286,304	25,77
286,518	9,39
286,731	-113,49
286,945	66,73
287,159	-39,76
287,372	5,29
287,586	11,43
287,799	27,82
288,013	-54,1
288,227	50,35
288,44	222,38
288,654	23,72
288,867	-21,33
289,081	44,2
289,294	23,72
289,508	-4,95
289,721	-19,29
289,935	-15,19
290,148	44,2
290,362	60,59
290,575	83,11
290,789	-27,48
291,002	-9,05
291,216	85,16
291,429	21,67
291,643	48,3
291,856	38,06
292,069	21,67
292,283	-15,19
292,496	111,78
292,71	91,31
292,923	7,34
293,136	-45,91
293,35	-45,91
293,563	-80,72
293,776	29,87
293,99	38,06
294,203	5,29
294,416	52,39
294,63	60,59
294,843	-39,76
295,056	5,29
295,269	3,24
295,483	-23,38
295,696	1,19
295,909	-23,38
296,122	76,97
296,335	27,82
296,549	33,96
296,762	-72,53
296,975	19,63
297,188	33,96
297,401	-13,14
297,615	74,92
297,828	-17,24
298,041	89,26
298,254	-29,52
298,467	-7
298,68	-80,72
298,893	-54,1
299,106	-35,67
299,319	50,35
299,532	119,98
299,745	-11,09
299,958	-43,86
300,171	9,39
300,384	9,39
300,598	-70,48
300,81	36,01
301,023	-2,9
301,236	25,77
301,449	-23,38
301,662	-15,19
301,875	-21,33
302,088	33,96
302,301	36,01
302,514	-62,29
302,727	17,58
302,94	-72,53
303,153	11,43
303,366	36,01
303,579	-9,05
303,791	29,87
304,004	1,19
304,217	-29,52
304,43	-19,29
304,643	15,53
304,855	-72,53
305,068	79,02
305,281	-29,52
305,494	-9,05
305,707	1,19
305,919	91,31
306,132	38,06
306,345	46,25
306,558	9,39
306,77	-33,62
306,983	-2,9
307,196	50,35
307,408	-21,33
307,621	91,31
307,834	-13,14
308,046	27,82
308,259	17,58
308,472	81,07
308,684	97,45
308,897	7,34
309,109	-17,24
309,322	-86,87
309,535	19,63
309,747	146,6
309,96	91,31
310,172	52,39
310,385	66,73
310,597	-97,11
310,81	-15,19
311,022	-43,86
311,235	-56,15
311,447	-23,38
311,66	7,34
311,872	44,2
312,085	48,3
312,297	-23,38
312,51	9,39
312,722	-27,48
312,934	103,59
313,147	-68,44
313,359	-43,86
313,572	9,39
313,784	5,29
313,996	17,58
314,209	46,25
314,421	-7
314,633	-52,05
314,846	-7
315,058	50,35
315,27	3,24
315,483	-35,67
315,695	60,59
315,907	-15,19
316,119	29,87
316,332	5,29
316,544	58,54
316,756	58,54
316,968	44,2
317,181	66,73
317,393	15,53
317,605	1,19
317,817	17,58
318,029	115,88
318,241	68,78
318,454	52,39
318,666	58,54
318,878	25,77
319,09	36,01
319,302	154,79
319,514	70,83
319,726	91,31
319,938	95,4
320,15	179,37
320,362	21,67
320,574	-80,72
320,786	-31,57
320,999	-43,86
321,211	76,97
321,423	-4,95
321,635	-56,15
321,847	-4,95
322,058	-136,02
322,27	21,67
322,482	72,87
322,694	76,97
322,906	21,67
323,118	68,78
323,33	79,02
323,542	-4,95
323,754	-15,19
323,966	-80,72
324,178	54,44
324,389	50,35
324,601	27,82
324,813	-64,34
325,025	3,24
325,237	-31,57
325,449	68,78
325,66	5,29
325,872	-58,2
326,084	5,29
326,296	-80,72
326,507	79,02
326,719	38,06
326,931	-76,63
327,143	29,87
327,354	76,97
327,566	-11,09
327,778	68,78
327,989	36,01
328,201	17,58
328,413	58,54
328,624	74,92
328,836	-7
329,048	-70,48
329,259	-39,76
329,471	-15,19
329,682	-80,72
329,894	74,92
330,106	-29,52
330,317	-39,76
330,529	-39,76
330,74	-2,9
330,952	-15,19
331,163	1,19
331,375	-37,72
331,586	99,5
331,798	17,58
332,009	-54,1
332,221	36,01
332,432	33,96
332,644	-45,91
332,855	-35,67
333,067	33,96
333,278	124,07
333,489	144,55
333,701	-88,92
333,912	7,34
334,124	27,82
334,335	19,63
334,546	-60,24
334,758	3,24
334,969	140,46
335,18	13,48
335,392	66,73
335,603	21,67
335,814	15,53
336,025	-58,2
336,237	-47,96
336,448	-45,91
336,659	52,39
336,87	62,63
337,082	119,98
337,293	17,58
337,504	-47,96
337,715	52,39
337,926	17,58
338,138	-7
338,349	40,11
338,56	25,77
338,771	58,54
338,982	70,83
339,193	-54,1
339,404	128,17
339,616	17,58
339,827	62,63
340,038	-35,67
340,249	42,15
340,46	-23,38
340,671	13,48
340,882	111,78
341,093	46,25
341,304	-7
341,515	-47,96
341,726	13,48
341,937	-56,15
342,148	38,06
342,359	-35,67
342,57	25,77
342,781	46,25
342,992	9,39
343,203	-23,38
343,414	134,31
343,624	3,24
343,835	-4,95
344,046	13,48
344,257	66,73
344,468	-23,38
344,679	27,82
344,89	7,34
345,1	-62,29
345,311	-37,72
345,522	66,73
345,733	11,43
345,944	1,19
346,154	-23,38
346,365	89,26
346,576	-4,95
346,787	-52,05
346,997	31,91
347,208	111,78
347,419	-56,15
347,629	44,2
347,84	91,31
348,051	-107,35
348,261	3,24
348,472	-64,34
348,683	-27,48
348,893	-88,92
349,104	9,39
349,315	9,39
349,525	-23,38
349,736	87,21
349,946	-27,48
350,157	60,59
350,368	36,01
350,578	-138,07
350,789	48,3
350,999	27,82
351,21	33,96
351,42	-119,64
351,631	-50
351,841	-27,48
352,052	17,58
352,262	-29,52
352,472	-58,2
352,683	11,43
352,893	-76,63
353,104	3,24
353,314	58,54
353,525	427,17
353,735	9,39
353,945	79,02
354,156	-60,24
354,366	46,25
354,576	93,35
354,787	111,78
354,997	58,54
355,207	5,29
355,418	46,25
355,628	-56,15
355,838	107,69
356,048	36,01
356,259	56,49
356,469	-80,72
356,679	-15,19
356,889	25,77
357,1	3,24
357,31	-15,19
357,52	29,87
357,73	-11,09
357,94	25,77
358,15	-64,34
358,361	117,93
358,571	9,39
358,781	52,39
358,991	-80,72
359,201	15,53
359,411	-66,39
359,621	-4,95
359,831	109,74
360,041	66,73
360,251	29,87
360,461	31,91
360,672	-80,72
360,882	-21,33
361,092	33,96
361,302	7,34
361,512	91,31
361,721	-15,19
361,931	56,49
362,141	101,55
362,351	-4,95
362,561	21,67
362,771	7,34
362,981	74,92
363,191	27,82
363,401	-29,52
363,611	1,19
363,821	-60,24
364,03	-47,96
364,24	33,96
364,45	148,65
364,66	275,62
364,87	-47,96
365,08	33,96
365,289	-4,95
365,499	17,58
365,709	87,21
365,919	27,82
366,128	-31,57
366,338	25,77
366,548	1,19
366,758	70,83
366,967	66,73
367,177	66,73
367,387	31,91
367,596	3,24
367,806	-2,9
368,016	29,87
368,225	79,02
368,435	93,35
368,644	-11,09
368,854	-27,48
369,064	109,74
369,273	54,44
369,483	-7
369,692	17,58
369,902	-45,91
370,111	99,5
370,321	5,29
370,53	52,39
370,74	-0,85
370,949	-39,76
371,159	107,69
371,368	15,53
371,578	44,2
371,787	11,43
371,997	36,01
372,206	17,58
372,416	83,11
372,625	9,39
372,834	7,34
373,044	-62,29
373,253	83,11
373,462	27,82
373,672	33,96
373,881	66,73
374,09	-47,96
374,3	27,82
374,509	-52,05
374,718	-25,43
374,928	27,82
375,137	33,96
375,346	9,39
375,555	58,54
375,765	-11,09
375,974	52,39
376,183	101,55
376,392	-15,19
376,601	44,2
376,811	74,92
377,02	38,06
377,229	62,63
377,438	124,07
377,647	46,25
377,856	-29,52
378,065	21,67
378,275	11,43
378,484	-23,38
378,693	52,39
378,902	9,39
379,111	-23,38
379,32	-23,38
379,529	-4,95
379,738	-27,48
379,947	58,54
380,156	9,39
380,365	7,34
380,574	76,97
380,783	-27,48
380,992	-2,9
381,201	-60,24
381,41	25,77
381,619	70,83
381,828	17,58
382,037	144,55
382,245	195,75
382,454	119,98
382,663	85,16
382,872	50,35
383,081	36,01
383,29	167,08
383,499	58,54
383,707	107,69
383,916	99,5
384,125	79,02
384,334	83,11
384,542	58,54
384,751	25,77
384,96	17,58
385,169	-21,33
385,377	101,55
385,586	13,48
385,795	119,98
386,004	115,88
386,212	-4,95
386,421	101,55
386,63	324,77
386,838	787,61
387,047	1299,61
387,255	2135,18
387,464	2815,1
387,673	3910,77
387,881	4906,08
388,09	6030,41
388,298	6997,06
388,507	8481,83
388,715	10185,74
388,924	11592,7
389,133	10777,61
389,341	10654,73
389,55	9139,23
389,758	6886,47
389,967	4754,53
390,175	2999,42
390,383	2262,15
390,592	1846,41
390,8	1117,34
391,009	836,77
391,217	521,38
391,426	365,73
391,634	83,11
391,842	81,07
392,051	99,5
392,259	83,11
392,467	11,43
392,676	-39,76
392,884	62,63
393,092	3,24
393,301	79,02
393,509	33,96
393,717	21,67
393,925	76,97
394,134	-23,38
394,342	150,7
394,55	132,26
394,758	85,16
394,967	44,2
395,175	-15,19
395,383	68,78
395,591	103,59
395,799	136,36
396,007	189,61
396,216	304,29
396,424	263,33
396,632	220,33
396,84	197,8
397,048	128,17
397,256	208,04
397,464	107,69
397,672	89,26
397,88	-31,57
398,088	76,97
398,296	36,01
398,504	70,83
398,712	9,39
398,92	115,88
399,128	-56,15
399,336	66,73
399,544	29,87
399,752	-27,48
399,96	33,96
400,168	62,63
400,376	66,73
400,584	74,92
400,792	68,78
401	44,2
401,207	124,07
401,415	181,42
401,623	165,03
401,831	257,19
402,039	251,05
402,247	332,97
402,454	492,71
402,662	369,83
402,87	380,07
403,078	484,52
403,285	441,51
403,493	257,19
403,701	191,66
403,909	150,7
404,116	83,11
404,324	36,01
404,532	38,06
404,739	-56,15
404,947	17,58
405,155	50,35
405,362	169,13
405,57	44,2
405,778	-64,34
405,985	58,54
406,193	-70,48
406,4	-35,67
406,608	38,06
406,816	25,77
407,023	11,43
407,231	-33,62
407,438	103,59
407,646	-13,14
407,853	11,43
408,061	33,96
408,268	66,73
408,476	-66,39
408,683	124,07
408,89	25,77
409,098	117,93
409,305	-11,09
409,513	58,54
409,72	-41,81
409,927	27,82
410,135	76,97
410,342	9,39
410,55	29,87
410,757	-23,38
410,964	25,77
411,172	3,24
411,379	-60,24
411,586	93,35
411,793	-15,19
412,001	-21,33
412,208	85,16
412,415	156,84
412,622	95,4
412,83	50,35
413,037	66,73
413,244	9,39
413,451	27,82
413,658	81,07
413,866	115,88
414,073	-64,34
414,28	124,07
414,487	7,34
414,694	60,59
414,901	70,83
415,108	29,87
415,315	13,48
415,522	60,59
415,73	-13,14
415,937	-62,29
416,144	-13,14
416,351	-7
416,558	-47,96
416,765	-13,14
416,972	-11,09
417,179	-11,09
417,386	54,44
417,593	109,74
417,8	1,19
418,006	-0,85
418,213	21,67
418,42	95,4
418,627	50,35
418,834	-15,19
419,041	42,15
419,248	13,48
419,455	11,43
419,661	93,35
419,868	-31,57
420,075	25,77
420,282	-107,35
420,489	1,19
420,696	33,96
420,902	58,54
421,109	50,35
421,316	19,63
421,523	-21,33
421,729	11,43
421,936	9,39
422,143	50,35
422,349	29,87
422,556	-7
422,763	68,78
422,969	-15,19
423,176	-31,57
423,383	-11,09
423,589	246,95
423,796	-41,81
424,002	-86,87
424,209	50,35
424,416	107,69
424,622	-80,72
424,829	-15,19
425,035	-45,91
425,242	17,58
425,448	3,24
425,655	70,83
425,861	1,19
426,068	-23,38
426,274	150,7
426,481	-9,05
426,687	27,82
426,894	-39,76
427,1	-45,91
427,306	-21,33
427,513	27,82
427,719	-23,38
427,926	-13,14
428,132	11,43
428,338	-84,82
428,545	-15,19
428,751	27,82
428,957	36,01
429,163	-52,05
429,37	97,45
429,576	-31,57
429,782	79,02
429,989	-45,91
430,195	42,15
430,401	66,73
430,607	-21,33
430,813	-29,52
431,02	27,82
431,226	42,15
431,432	-80,72
431,638	31,91
431,844	-138,07
432,05	1,19
432,257	-39,76
432,463	85,16
432,669	74,92
432,875	-23,38
433,081	21,67
433,287	-37,72
433,493	-201,55
433,699	50,35
433,905	54,44
434,111	-62,29
434,317	-31,57
434,523	83,11
434,729	38,06
434,935	-13,14
435,141	83,11
435,347	13,48
435,553	-7
435,759	56,49
435,965	40,11
436,171	42,15
436,377	83,11
436,582	36,01
436,788	-70,48
436,994	107,69
437,2	13,48
437,406	52,39
437,612	36,01
437,818	68,78
438,023	-66,39
438,229	246,95
438,435	52,39
438,641	91,31
438,846	68,78
439,052	205,99
439,258	183,46
439,464	50,35
439,669	156,84
439,875	240,81
440,081	66,73
440,286	-101,2
440,492	42,15
440,698	36,01
440,903	-31,57
441,109	101,55
441,314	17,58
441,52	3,24
441,726	17,58
441,931	-19,29
442,137	70,83
442,342	68,78
442,548	85,16
442,753	107,69
442,959	-52,05
443,164	-23,38
443,37	132,26
443,575	29,87
443,781	-29,52
443,986	85,16
444,192	13,48
444,397	60,59
444,602	-19,29
444,808	85,16
445,013	165,03
445,219	208,04
445,424	509,09
445,629	672,93
445,835	1090,71
446,04	1379,48
446,245	1684,62
446,451	1916,05
446,656	2192,52
446,861	2765,95
447,066	3212,41
447,272	3466,36
447,477	3445,88
447,682	3097,72
447,887	2788,48
448,093	2317,45
448,298	1623,19
448,503	1043,61
448,708	713,89
448,913	474,28
449,118	427,17
449,324	251,05
449,529	173,22
449,734	126,12
449,939	-109,4
450,144	167,08
450,349	93,35
450,554	-15,19
450,759	-15,19
450,964	3,24
451,169	33,96
451,374	11,43
451,579	42,15
451,784	111,78
451,989	29,87
452,194	70,83
452,399	74,92
452,604	33,96
452,809	-72,53
453,014	-4,95
453,219	-13,14
453,424	85,16
453,629	-25,43
453,833	-97,11
454,038	79,02
454,243	17,58
454,448	33,96
454,653	79,02
454,858	-15,19
455,062	-88,92
455,267	-52,05
455,472	107,69
455,677	23,72
455,882	-35,67
456,086	36,01
456,291	111,78
456,496	-97,11
456,7	81,07
456,905	58,54
457,11	-70,48
457,314	-31,57
457,519	-31,57
457,724	-4,95
457,928	-11,09
458,133	-31,57
458,338	42,15
458,542	-31,57
458,747	-23,38
458,951	3,24
459,156	91,31
459,36	-37,72
459,565	93,35
459,769	-47,96
459,974	95,4
460,178	-47,96
460,383	-39,76
460,587	-37,72
460,792	68,78
460,996	-13,14
461,201	27,82
461,405	-97,11
461,61	-31,57
461,814	17,58
462,018	-80,72
462,223	50,35
462,427	9,39
462,631	-7
462,836	-45,91
463,04	74,92
463,244	52,39
463,449	-13,14
463,653	101,55
463,857	33,96
464,062	81,07
464,266	-7
464,47	9,39
464,674	5,29
464,878	107,69
465,083	50,35
465,287	132,26
465,491	27,82
465,695	15,53
465,899	-23,38
466,104	42,15
466,308	-31,57
466,512	50,35
466,716	126,12
466,92	-11,09
467,124	91,31
467,328	-21,33
467,532	128,17
467,736	-7
467,94	27,82
468,144	68,78
468,348	52,39
468,552	156,84
468,756	21,67
468,96	1,19
469,164	-43,86
469,368	-15,19
469,572	103,59
469,776	177,32
469,98	173,22
470,184	355,49
470,388	464,04
470,591	416,93
470,795	562,34
470,999	652,45
471,203	748,7
471,407	855,2
471,611	795,81
471,814	789,66
472,018	591,01
472,222	656,54
472,426	531,62
472,63	296,1
472,833	263,33
473,037	238,76
473,241	124,07
473,444	44,2
473,648	484,52
473,852	25,77
474,055	58,54
474,259	42,15
474,463	58,54
474,666	29,87
474,87	29,87
475,074	70,83
475,277	91,31
475,481	76,97
475,684	-13,14
475,888	33,96
476,091	-4,95
476,295	46,25
476,498	27,82
476,702	29,87
476,905	72,87
477,109	99,5
477,312	15,53
477,516	-23,38
477,719	66,73
477,923	76,97
478,126	42,15
478,329	-23,38
478,533	-39,76
478,736	17,58
478,94	76,97
479,143	9,39
479,346	66,73
479,55	-27,48
479,753	-45,91
479,956	-15,19
480,159	-19,29
480,363	17,58
480,566	-29,52
480,769	1,19
480,972	19,63
481,176	-13,14
481,379	42,15
481,582	50,35
481,785	-23,38
481,988	56,49
482,192	171,18
482,395	-54,1
482,598	3,24
482,801	17,58
483,004	58,54
483,207	-56,15
483,41	-19,29
483,613	5,29
483,817	44,2
484,02	-37,72
484,223	-15,19
484,426	11,43
484,629	-7
484,832	101,55
485,035	33,96
485,238	-15,19
485,441	66,73
485,644	29,87
485,846	-27,48
486,049	-133,97
486,252	-15,19
486,455	-54,1
486,658	27,82
486,861	66,73
487,064	33,96
487,267	7,34
487,47	62,63
487,672	29,87
487,875	66,73
488,078	1,19
488,281	38,06
488,484	60,59
488,686	17,58
488,889	-15,19
489,092	-56,15
489,295	70,83
489,497	42,15
489,7	-31,57
489,903	33,96
490,105	-4,95
490,308	115,88
490,511	140,46
490,713	296,1
490,916	445,6
491,118	611,49
491,321	701,6
491,524	844,96
491,726	1070,23
491,929	1197,21
492,131	1330,33
492,334	1461,4
492,536	1545,36
492,739	1389,72
492,941	1279,13
493,144	1100,95
493,346	801,95
493,549	558,24
493,751	541,86
493,954	265,38
494,156	177,32
494,359	214,18
494,561	17,58
494,763	87,21
494,966	66,73
495,168	189,61
495,37	-47,96
495,573	-0,85
495,775	29,87
495,977	70,83
496,18	46,25
496,382	119,98
496,584	40,11
496,787	17,58
496,989	46,25
497,191	25,77
497,393	52,39
497,595	-7
497,798	-21,33
498	25,77
498,202	58,54
498,404	-21,33
498,606	79,02
498,808	115,88
499,011	25,77
499,213	93,35
499,415	50,35
499,617	249
499,819	451,75
500,021	896,16
500,223	1174,68
500,425	1764,5
500,627	2167,95
500,829	2933,89
501,031	3456,12
501,233	4084,84
501,435	4547,69
501,637	5129,31
501,839	5108,83
502,041	5100,64
502,243	4719,71
502,445	3957,87
502,647	3343,48
502,848	2569,35
503,05	1938,57
503,252	1451,16
503,454	959,64
503,656	584,87
503,858	504,99
504,059	320,68
504,261	314,53
504,463	304,29
504,665	246,95
504,867	226,47
505,068	308,39
505,27	322,73
505,472	357,54
505,673	87,21
505,875	119,98
506,077	148,65
506,278	103,59
506,48	93,35
506,682	9,39
506,883	52,39
507,085	19,63
507,287	-37,72
507,488	58,54
507,69	140,46
507,891	1,19
508,093	115,88
508,294	1,19
508,496	-21,33
508,697	13,48
508,899	-7
509,1	3,24
509,302	42,15
509,503	-9,05
509,705	165,03
509,906	11,43
510,108	3,24
510,309	-13,14
510,51	83,11
510,712	19,63
510,913	-68,44
511,114	3,24
511,316	-64,34
511,517	79,02
511,718	36,01
511,92	-31,57
512,121	-15,19
512,322	-7
512,524	50,35
512,725	9,39
512,926	17,58
513,127	-9,05
513,329	36,01
513,53	5,29
513,731	33,96
513,932	126,12
514,133	74,92
514,334	-2,9
514,536	74,92
514,737	87,21
514,938	-7
515,139	9,39
515,34	21,67
515,541	117,93
515,742	9,39
515,943	31,91
516,144	60,59
516,345	-11,09
516,546	27,82
516,747	46,25
516,948	-70,48
517,149	-23,38
517,35	-23,38
517,551	-84,82
517,752	27,82
517,953	74,92
518,154	-35,67
518,355	13,48
518,556	64,68
518,756	-19,29
518,957	42,15
519,158	74,92
519,359	21,67
519,56	-7
519,761	68,78
519,961	117,93
520,162	107,69
520,363	3,24
520,564	-47,96
520,764	165,03
520,965	-52,05
521,166	36,01
521,366	60,59
521,567	38,06
521,768	58,54
521,968	-47,96
522,169	-7
522,37	-7
522,57	-74,58
522,771	42,15
522,972	-88,92
523,172	101,55
523,373	25,77
523,573	17,58
523,774	42,15
523,974	109,74
524,175	-56,15
524,375	-4,95
524,576	-58,2
524,776	21,67
524,977	11,43
525,177	128,17
525,378	-23,38
525,578	99,5
525,778	33,96
525,979	79,02
526,179	66,73
526,38	-35,67
526,58	-29,52
526,78	1,19
526,981	119,98
527,181	40,11
527,381	-52,05
527,582	60,59
527,782	62,63
527,982	124,07
528,182	-2,9
528,383	3,24
528,583	1,19
528,783	25,77
528,983	36,01
529,183	-56,15
529,384	-2,9
529,584	142,5
529,784	130,22
529,984	76,97
530,184	36,01
530,384	48,3
530,584	5,29
530,784	-7
530,984	33,96
531,185	46,25
531,385	93,35
531,585	25,77
531,785	-4,95
531,985	-37,72
532,185	-4,95
532,385	44,2
532,585	87,21
532,785	-52,05
532,984	99,5
533,184	107,69
533,384	11,43
533,584	-76,63
533,784	23,72
533,984	27,82
534,184	-111,44
534,384	-52,05
534,583	-27,48
534,783	-138,07
534,983	95,4
535,183	-41,81
535,383	-56,15
535,582	17,58
535,782	-62,29
535,982	11,43
536,182	9,39
536,381	9,39
536,581	-13,14
536,781	66,73
536,98	76,97
537,18	46,25
537,38	1,19
537,579	-21,33
537,779	-86,87
537,979	-0,85
538,178	74,92
538,378	76,97
538,577	17,58
538,777	-15,19
538,976	5,29
539,176	36,01
539,376	99,5
539,575	-64,34
539,774	29,87
539,974	-107,35
540,173	44,2
540,373	38,06
540,572	19,63
540,772	-7
540,971	17,58
541,171	91,31
541,37	27,82
541,569	-13,14
541,769	58,54
541,968	74,92
542,167	-15,19
542,367	-23,38
542,566	-80,72
542,765	7,34
542,965	27,82
543,164	29,87
543,363	74,92
543,562	21,67
543,761	31,91
543,961	-4,95
544,16	-47,96
544,359	83,11
544,558	83,11
544,757	9,39
544,957	-7
545,156	109,74
545,355	19,63
545,554	-56,15
545,753	9,39
545,952	-15,19
546,151	68,78
546,35	66,73
546,549	46,25
546,748	91,31
546,947	9,39
547,146	-74,58
547,345	95,4
547,544	-23,38
547,743	79,02
547,942	7,34
548,141	11,43
548,34	31,91
548,539	-50
548,738	-60,24
548,937	68,78
549,135	42,15
549,334	-39,76
549,533	11,43
549,732	124,07
549,931	27,82
550,13	-56,15
550,328	-80,72
550,527	19,63
550,726	11,43
550,925	19,63
551,123	27,82
551,322	-52,05
551,521	54,44
551,72	54,44
551,918	42,15
552,117	23,72
552,315	-7
552,514	-31,57
552,713	17,58
552,911	11,43
553,11	-9,05
553,309	36,01
553,507	136,36
553,706	85,16
553,904	46,25
554,103	60,59
554,301	15,53
554,5	19,63
554,698	-2,9
554,897	-15,19
555,095	50,35
555,294	-56,15
555,492	-19,29
555,69	44,2
555,889	-23,38
556,087	42,15
556,286	93,35
556,484	17,58
556,682	-4,95
556,881	-4,95
557,079	27,82
557,277	70,83
557,476	1,19
557,674	-23,38
557,872	93,35
558,07	-25,43
558,269	-37,72
558,467	107,69
558,665	-7
558,863	15,53
559,062	17,58
559,26	33,96
559,458	-64,34
559,656	76,97
559,854	-7
560,052	74,92
560,25	76,97
560,449	320,68
560,647	72,87
560,845	42,15
561,043	21,67
561,241	126,12
561,439	91,31
561,637	48,3
561,835	1,19
562,033	60,59
562,231	-31,57
562,429	-13,14
562,627	117,93
562,825	-88,92
563,023	54,44
563,221	19,63
563,418	93,35
563,616	38,06
563,814	226,47
564,012	91,31
564,21	62,63
564,408	33,96
564,605	52,39
564,803	29,87
565,001	246,95
565,199	-39,76
565,397	93,35
565,594	115,88
565,792	97,45
565,99	-76,63
566,188	58,54
566,385	42,15
566,583	36,01
566,781	115,88
566,978	72,87
567,176	132,26
567,373	44,2
567,571	33,96
567,769	23,72
567,966	-35,67
568,164	31,91
568,361	42,15
568,559	66,73
568,756	19,63
568,954	42,15
569,151	62,63
569,349	140,46
569,546	-13,14
569,744	117,93
569,941	5,29
570,139	72,87
570,336	-23,38
570,534	-39,76
570,731	60,59
570,928	62,63
571,126	132,26
571,323	83,11
571,52	1,19
571,718	83,11
571,915	140,46
572,112	27,82
572,31	42,15
572,507	101,55
572,704	-15,19
572,901	70,83
573,099	124,07
573,296	101,55
573,493	-11,09
573,69	58,54
573,887	60,59
574,085	113,83
574,282	165,03
574,479	42,15
574,676	54,44
574,873	117,93
575,07	87,21
575,267	29,87
575,464	7,34
575,661	72,87
575,858	62,63
576,055	58,54
576,252	144,55
576,449	81,07
576,646	111,78
576,843	58,54
577,04	126,12
577,237	144,55
577,434	117,93
577,631	-68,44
577,828	150,7
578,025	29,87
578,222	119,98
578,419	83,11
578,615	50,35
578,812	25,77
579,009	-7
579,206	134,31
579,403	58,54
579,599	240,81
579,796	68,78
579,993	113,83
580,19	46,25
580,386	54,44
580,583	117,93
580,78	9,39
580,976	132,26
581,173	54,44
581,37	81,07
581,566	83,11
581,763	74,92
581,96	60,59
582,156	124,07
582,353	107,69
582,549	191,66
582,746	132,26
582,942	91,31
583,139	175,27
583,335	91,31
583,532	158,89
583,728	19,63
583,925	111,78
584,121	201,9
584,318	273,57
584,514	210,09
584,711	269,48
584,907	292,01
585,103	289,96
585,3	382,12
585,496	523,43
585,693	1139,87
585,889	3896,43
586,085	8455,21
586,281	14861,26
586,478	22491,99
586,674	30261,98
586,87	39414,35
587,067	47862,22
587,263	52963,71
587,459	56899,91
587,655	60659,98
587,851	61460,74
588,048	60191
588,244	57088,32
588,44	53913,97
588,636	47290,84
588,832	40292,93
589,028	33825,45
589,224	27634,44
589,42	21590,88
589,617	15446,97
589,813	10527,75
590,009	6378,57
590,205	4047,98
590,401	2479,24
590,597	1541,27
590,793	1197,21
590,989	830,62
591,185	586,91
591,38	414,88
591,576	404,64
591,772	281,77
591,968	287,91
592,164	296,1
592,36	187,56
592,556	107,69
592,752	306,34
592,948	140,46
593,143	101,55
593,339	54,44
593,535	117,93
593,731	38,06
593,926	189,61
594,122	128,17
594,318	83,11
594,514	179,37
594,709	29,87
594,905	74,92
595,101	150,7
595,296	103,59
595,492	62,63
595,688	107,69
595,883	189,61
596,079	83,11
596,275	19,63
596,47	83,11
596,666	66,73
596,861	54,44
597,057	13,48
597,252	25,77
597,448	148,65
597,643	85,16
597,839	60,59
598,034	-9,05
598,23	-13,14
598,425	58,54
598,621	68,78
598,816	99,5
599,011	97,45
599,207	91,31
599,402	31,91
599,597	146,6
599,793	109,74
599,988	87,21
600,183	38,06
600,379	89,26
600,574	74,92
600,769	58,54
600,965	11,43
601,16	95,4
601,355	91,31
601,55	93,35
601,745	83,11
601,941	85,16
602,136	148,65
602,331	107,69
602,526	1,19
602,721	103,59
602,916	68,78
603,111	50,35
603,307	83,11
603,502	70,83
603,697	23,72
603,892	27,82
604,087	66,73
604,282	107,69
604,477	29,87
604,672	-37,72
604,867	17,58
605,062	58,54
605,257	74,92
605,452	197,8
605,646	76,97
605,841	50,35
606,036	46,25
606,231	-13,14
606,426	11,43
606,621	-35,67
606,816	-7
607,01	140,46
607,205	101,55
607,4	81,07
607,595	93,35
607,79	64,68
607,984	111,78
608,179	52,39
608,374	19,63
608,569	107,69
608,763	13,48
608,958	17,58
609,153	124,07
609,347	58,54
609,542	70,83
609,736	107,69
609,931	50,35
610,126	-23,38
610,32	17,58
610,515	25,77
610,709	263,33
610,904	42,15
611,098	-37,72
611,293	-19,29
611,487	9,39
611,682	-0,85
611,876	58,54
612,071	-15,19
612,265	58,54
612,46	27,82
612,654	58,54
612,848	3,24
613,043	42,15
613,237	31,91
613,432	33,96
613,626	-43,86
613,82	1,19
614,014	58,54
614,209	33,96
614,403	29,87
614,597	156,84
614,792	107,69
614,986	99,5
615,18	17,58
615,374	99,5
615,568	87,21
615,763	19,63
615,957	91,31
616,151	111,78
616,345	33,96
616,539	87,21
616,733	5,29
616,927	52,39
617,121	17,58
617,316	66,73
617,51	70,83
617,704	44,2
617,898	91,31
618,092	13,48
618,286	66,73
618,48	46,25
618,674	62,63
618,868	117,93
619,061	-50
619,255	66,73
619,449	76,97
619,643	-97,11
619,837	181,42
620,031	33,96
620,225	109,74
620,419	3,24
620,612	42,15
620,806	140,46
621	46,25
621,194	66,73
621,388	54,44
621,581	119,98
621,775	-17,24
621,969	91,31
622,162	38,06
622,356	66,73
622,55	130,22
622,743	36,01
622,937	38,06
623,131	44,2
623,324	126,12
623,518	5,29
623,712	-37,72
623,905	3,24
624,099	70,83
624,292	58,54
624,486	-7
624,679	13,48
624,873	-60,24
625,066	85,16
625,26	36,01
625,453	-31,57
625,647	79,02
625,84	79,02
626,034	134,31
626,227	93,35
626,42	156,84
626,614	58,54
626,807	132,26
627	62,63
627,194	93,35
627,387	66,73
627,58	-27,48
627,774	-7
627,967	60,59
628,16	91,31
628,353	117,93
628,547	124,07
628,74	175,27
628,933	70,83
629,126	72,87
629,319	1,19
629,513	29,87
629,706	58,54
629,899	165,03
630,092	-23,38
630,285	-64,34
630,478	21,67
630,671	1,19
630,864	95,4
631,057	58,54
631,25	93,35
631,443	54,44
631,636	-23,38
631,829	58,54
632,022	91,31
632,215	17,58
632,408	1,19
632,601	66,73
632,794	25,77
632,987	66,73
633,18	74,92
633,373	107,69
633,566	3,24
633,758	23,72
633,951	1,19
634,144	27,82
634,337	-15,19
634,53	1,19
634,722	52,39
634,915	25,77
635,108	-7
635,301	87,21
635,493	74,92
635,686	107,69
635,879	13,48
636,071	19,63
636,264	64,68
636,457	109,74
636,649	9,39
636,842	58,54
637,034	132,26
637,227	76,97
637,42	66,73
637,612	36,01
637,805	17,58
637,997	134,31
638,19	-15,19
638,382	9,39
638,575	-15,19
638,767	-37,72
638,96	117,93
639,152	76,97
639,344	99,5
639,537	40,11
639,729	44,2
639,922	50,35
640,114	81,07
640,306	117,93
640,499	99,5
640,691	42,15
640,883	46,25
641,075	42,15
641,268	119,98
641,46	68,78
641,652	64,68
641,844	17,58
642,037	5,29
642,229	9,39
642,421	79,02
642,613	79,02
642,805	54,44
642,998	-21,33
643,19	17,58
643,382	181,42
643,574	33,96
643,766	74,92
643,958	76,97
644,15	76,97
644,342	83,11
644,534	109,74
644,726	-11,09
644,918	81,07
645,11	-15,19
645,302	52,39
645,494	-21,33
645,686	-4,95
645,878	-68,44
646,07	52,39
646,262	48,3
646,453	-35,67
646,645	1,19
646,837	13,48
647,029	33,96
647,221	-4,95
647,413	25,77
647,604	-13,14
647,796	85,16
647,988	9,39
648,18	-11,09
648,371	7,34
648,563	29,87
648,755	72,87
648,947	-43,86
649,138	-43,86
649,33	17,58
649,521	60,59
649,713	7,34
649,905	-11,09
650,096	33,96
650,288	15,53
650,479	-4,95
650,671	13,48
650,863	11,43
651,054	64,68
651,246	76,97
651,437	29,87
651,629	72,87
651,82	70,83
652,011	101,55
652,203	107,69
652,394	70,83
652,586	99,5
652,777	9,39
652,968	-2,9
653,16	1,19
653,351	33,96
653,542	70,83
653,734	-39,76
653,925	-37,72
654,116	5,29
654,308	17,58
654,499	72,87
654,69	66,73
654,881	-37,72
655,073	40,11
655,264	1,19
655,455	33,96
655,646	-4,95
655,837	124,07
656,028	25,77
656,219	15,53
656,411	13,48
656,602	17,58
656,793	27,82
656,984	25,77
657,175	66,73
657,366	95,4
657,557	136,36
657,748	74,92
657,939	50,35
658,13	-13,14
658,321	58,54
658,512	124,07
658,703	91,31
658,894	74,92
659,084	83,11
659,275	-19,29
659,466	56,49
659,657	142,5
659,848	99,5
660,039	107,69
660,23	60,59
660,42	29,87
660,611	117,93
660,802	58,54
660,993	70,83
661,183	36,01
661,374	19,63
661,565	156,84
661,755	99,5
661,946	93,35
662,137	21,67
662,327	23,72
662,518	-21,33
662,709	128,17
662,899	-54,1
663,09	62,63
663,28	40,11
663,471	27,82
663,662	183,46
663,852	148,65
664,043	83,11
664,233	42,15
664,424	-31,57
664,614	66,73
664,804	29,87
664,995	66,73
665,185	171,18
665,376	109,74
665,566	140,46
665,756	11,43
665,947	101,55
666,137	210,09
666,328	996,51
666,518	2229,38
666,708	3873,9
666,898	5663,83
667,089	7818,29
667,279	9520,15
667,469	11142,14
667,659	12184,56
667,85	12547,05
668,04	12458,99
668,23	12213,23
668,42	11736,06
668,61	10685,45
668,8	9921,56
668,991	8856,61
669,181	7824,44
669,371	6650,95
669,561	5792,85
669,751	4897,89
669,941	3986,54
670,131	3114,11
670,321	2319,5
670,511	1488,02
670,701	971,93
670,891	607,39
671,081	500,9
671,271	271,53
671,461	251,05
671,651	263,33
671,841	165,03
672,03	107,69
672,22	95,4
672,41	87,21
672,6	124,07
672,79	148,65
672,98	19,63
673,169	42,15
673,359	60,59
673,549	99,5
673,739	-13,14
673,928	17,58
674,118	58,54
674,308	70,83
674,497	132,26
674,687	23,72
674,877	1,19
675,066	-4,95
675,256	52,39
675,446	42,15
675,635	-21,33
675,825	-25,43
676,014	46,25
676,204	27,82
676,393	79,02
676,583	9,39
676,772	58,54
676,962	-47,96
677,151	81,07
677,341	105,64
677,53	9,39
677,72	44,2
677,909	83,11
678,099	15,53
678,288	-64,34
678,477	25,77
678,667	54,44
678,856	66,73
679,045	95,4
679,235	36,01
679,424	99,5
679,613	142,5
679,802	58,54
679,992	29,87
680,181	1,19
680,37	3,24
680,559	60,59
680,748	103,59
680,938	50,35
681,127	-2,9
681,316	74,92
681,505	66,73
681,694	70,83
681,883	124,07
682,072	99,5
682,261	70,83
682,45	-47,96
682,639	21,67
682,828	33,96
683,017	119,98
683,206	93,35
683,395	9,39
683,584	115,88
683,773	1,19
683,962	-13,14
684,151	-60,24
684,34	-15,19
684,529	52,39
684,718	97,45
684,907	17,58
685,095	130,22
685,284	83,11
685,473	52,39
685,662	-21,33
685,851	95,4
686,039	-0,85
686,228	50,35
686,417	3,24
686,606	156,84
686,794	70,83
686,983	66,73
687,172	-23,38
687,36	38,06
687,549	5,29
687,738	33,96
687,926	-9,05
688,115	13,48
688,303	-11,09
688,492	126,12
688,68	-52,05
688,869	-15,19
689,057	-68,44
689,246	17,58
689,434	46,25
689,623	-31,57
689,811	132,26
690	27,82
690,188	-62,29
690,377	76,97
690,565	179,37
690,753	115,88
690,942	-23,38
691,13	74,92
691,318	-4,95
691,507	-4,95
691,695	109,74
691,883	74,92
692,072	119,98
692,26	132,26
692,448	76,97
692,636	52,39
692,824	-43,86
693,013	38,06
693,201	3,24
693,389	-39,76
693,577	68,78
693,765	38,06
693,953	-43,86
694,141	-23,38
694,329	-56,15
694,518	58,54
694,706	140,46
694,894	21,67
695,082	52,39
695,27	91,31
695,458	99,5
695,646	46,25
695,834	115,88
696,022	-21,33
696,209	107,69
696,397	13,48
696,585	54,44
696,773	11,43
696,961	29,87
697,149	52,39
697,337	46,25
697,525	74,92
697,712	89,26
697,9	83,11
698,088	113,83
698,276	101,55
698,463	42,15
698,651	87,21
698,839	1,19
699,027	17,58
699,214	148,65
699,402	79,02
699,59	11,43
699,777	44,2
699,965	107,69
700,152	62,63
700,34	5,29
700,528	1,19
700,715	66,73
700,903	52,39
701,09	66,73
701,278	66,73
701,465	50,35
701,653	74,92
701,84	15,53
702,028	109,74
702,215	115,88
702,402	95,4
702,59	44,2
702,777	109,74
702,965	85,16
703,152	93,35
703,339	150,7
703,527	25,77
703,714	93,35
703,901	140,46
704,088	124,07
704,276	126,12
704,463	218,28
704,65	91,31
704,837	275,62
705,025	906,4
705,212	2772,1
705,399	6126,67
705,586	9372,7
705,773	13341,66
705,96	17281,95
706,147	20241,27
706,335	22389,59
706,522	23376,71
706,709	23055,18
706,896	22709,07
707,083	21521,25
707,27	20042,62
707,457	18221,97
707,644	16954,28
707,831	14396,37
708,018	12790,76
708,205	11119,62
708,392	9276,45
708,578	7994,42
708,765	6607,94
708,952	5499,99
709,139	4213,87
709,326	3015,8
709,513	2002,06
709,7	1270,94
709,886	941,21
710,073	707,74
710,26	533,67
710,447	312,49
710,633	216,23
710,82	191,66
711,007	205,99
711,193	136,36
711,38	124,07
711,567	162,98
711,753	56,49
711,94	158,89
712,127	38,06
712,313	210,09
712,5	91,31
712,686	99,5
712,873	99,5
713,059	-9,05
713,246	124,07
713,432	91,31
713,619	1,19
713,805	52,39
713,992	167,08
714,178	-11,09
714,365	58,54
714,551	68,78
714,737	62,63
714,924	13,48
715,11	103,59
715,297	33,96
715,483	38,06
715,669	-0,85
715,855	66,73
716,042	60,59
716,228	-56,15
716,414	87,21
716,6	29,87
716,787	66,73
716,973	-27,48
717,159	74,92
717,345	68,78
717,531	-15,19
717,718	74,92
717,904	93,35
718,09	-7
718,276	25,77
718,462	50,35
718,648	72,87
718,834	13,48
719,02	140,46
719,206	27,82
719,392	-23,38
719,578	52,39
719,764	-15,19
719,95	-4,95
720,136	148,65
720,322	17,58
720,508	-35,67
720,694	42,15
720,879	-88,92
721,065	50,35
721,251	-23,38
721,437	13,48
721,623	140,46
721,809	58,54
721,994	85,16
722,18	-0,85
722,366	29,87
722,552	-47,96
722,737	9,39
722,923	60,59
723,109	85,16
723,294	15,53
723,48	124,07
723,666	74,92
723,851	7,34
724,037	144,55
724,222	54,44
724,408	3,24
724,593	101,55
724,779	-31,57
724,965	27,82
725,15	-29,52
725,336	64,68
725,521	99,5
725,706	-4,95
725,892	-70,48
726,077	83,11
726,263	44,2
726,448	124,07
726,634	109,74
726,819	298,15
727,004	535,71
727,19	863,39
727,375	1303,7
727,56	1696,91
727,745	1952,91
727,931	2210,95
728,116	2213
728,301	2452,61
728,486	2344,07
728,672	2219,14
728,857	2065,55
729,042	1795,22
729,227	1698,96
729,412	1516,69
729,597	1264,79
729,783	988,32
729,968	963,74
730,153	902,3
730,338	683,17
730,523	652,45
730,708	435,36
730,893	437,41
731,078	220,33
731,263	191,66
731,448	74,92
731,633	107,69
731,818	-35,67
732,003	72,87
732,187	9,39
732,372	3,24
732,557	50,35
732,742	17,58
732,927	-88,92
733,112	-13,14
733,297	1,19
733,481	-54,1
733,666	-23,38
733,851	25,77
734,036	7,34
734,22	-29,52
734,405	181,42
734,59	19,63
734,774	66,73
734,959	-4,95
735,144	93,35
735,328	-15,19
735,513	-17,24
735,698	21,67
735,882	117,93
736,067	21,67
736,251	33,96
736,436	21,67
736,62	50,35
736,805	15,53
736,989	58,54
737,174	-33,62
737,358	17,58
737,543	25,77
737,727	42,15
737,911	58,54
738,096	-2,9
738,28	60,59
738,465	40,11
738,649	1,19
738,833	33,96
739,018	17,58
739,202	-54,1
739,386	-15,19
739,57	-27,48
739,755	38,06
739,939	-7
740,123	-39,76
740,307	5,29
740,491	-2,9
740,676	42,15
740,86	-17,24
741,044	33,96
741,228	11,43
741,412	-19,29
741,596	-52,05
741,78	-52,05
741,964	-54,1
742,148	-64,34
742,332	-11,09
742,516	-105,3
742,7	27,82
742,884	1,19
743,068	42,15
743,252	54,44
743,436	79,02
743,62	-37,72
743,804	142,5
743,988	111,78
744,172	38,06
744,356	-31,57
744,539	-0,85
744,723	-29,52
744,907	-4,95
745,091	36,01
745,275	117,93
745,458	33,96
745,642	27,82
745,826	60,59
746,009	-13,14
746,193	107,69
746,377	91,31
746,56	-7
746,744	87,21
746,928	3,24
747,111	3,24
747,295	40,11
747,478	38,06
747,662	-45,91
747,846	9,39
748,029	13,48
748,213	25,77
748,396	27,82
748,58	-29,52
748,763	40,11
748,946	-29,52
749,13	-23,38
749,313	-13,14
749,497	27,82
749,68	38,06
749,863	52,39
750,047	-27,48
750,23	44,2
750,413	62,63
750,597	11,43
750,78	-4,95
750,963	74,92
751,146	-56,15
751,33	21,67
751,513	62,63
751,696	-31,57
751,879	40,11
752,062	-25,43
752,246	95,4
752,429	-15,19
752,612	-2,9
752,795	-15,19
752,978	-23,38
753,161	-76,63
753,344	-0,85
753,527	33,96
753,71	-27,48
753,893	33,96
754,076	-29,52
754,259	68,78
754,442	70,83
754,625	-29,52
754,808	66,73
754,991	17,58
755,174	-103,25
755,357	13,48
755,539	25,77
755,722	83,11
755,905	19,63
756,088	-31,57
756,271	25,77
756,453	3,24
756,636	-72,53
756,819	58,54
757,002	-54,1
757,184	87,21
757,367	107,69
757,55	29,87
757,732	83,11
757,915	-39,76
758,098	-88,92
758,28	-9,05
758,463	13,48
758,645	-15,19
758,828	124,07
759,011	25,77
759,193	-39,76
759,376	64,68
759,558	17,58
759,741	42,15
759,923	-13,14
760,105	60,59
760,288	5,29
760,47	-86,87
760,653	11,43
760,835	46,25
761,017	-82,77
761,2	-35,67
761,382	68,78
761,564	3,24
761,747	93,35
761,929	-54,1
762,111	27,82
762,294	50,35
762,476	140,46
762,658	-64,34
762,84	165,03
763,022	15,53
763,205	-2,9
763,387	91,31
763,569	21,67
763,751	-82,77
763,933	1,19
764,115	54,44
764,297	19,63
764,479	64,68
764,661	-47,96
764,843	99,5
765,025	-9,05
765,207	13,48
765,389	-31,57
765,571	-43,86
765,753	13,48
765,935	66,73
766,117	-29,52
766,299	97,45
766,481	99,5
766,663	1,19
766,845	-45,91
767,026	-45,91
767,208	101,55
767,39	1,19
767,572	-54,1
767,753	58,54
767,935	-39,76
768,117	58,54
768,299	68,78
768,48	-47,96
768,662	9,39
768,844	-37,72
769,025	142,5
769,207	-45,91
769,389	50,35
769,57	79,02
769,752	56,49
769,933	23,72
770,115	58,54
770,296	-29,52
770,478	79,02
770,659	-19,29
770,841	222,38
771,022	27,82
771,204	9,39
771,385	58,54
771,567	74,92
771,748	52,39
771,929	50,35
772,111	-23,38
772,292	91,31
772,473	27,82
772,655	13,48
772,836	5,29
773,017	103,59
773,199	38,06
773,38	-23,38
773,561	13,48
773,742	-7
773,923	-7
774,105	117,93
774,286	27,82
774,467	9,39
774,648	13,48
774,829	50,35
775,01	-27,48
775,191	-15,19
775,372	50,35
775,553	23,72
775,734	-21,33
775,915	-31,57
776,096	17,58
776,277	36,01
776,458	-47,96
776,639	76,97
776,82	169,13
777,001	21,67
777,182	-7
777,363	-31,57
777,544	58,54
777,725	117,93
777,906	68,78
778,086	17,58
778,267	111,78
778,448	-4,95
778,629	-52,05
778,809	66,73
778,99	25,77
779,171	-97,11
779,352	50,35
779,532	-82,77
779,713	-23,38
779,894	-27,48
780,074	165,03
780,255	95,4
780,435	29,87
780,616	25,77
780,797	79,02
780,977	-80,72
781,158	1,19
781,338	-31,57
781,519	-4,95
781,699	132,26
781,88	25,77
782,06	36,01
782,241	-72,53
782,421	-62,29
782,601	91,31
782,782	58,54
782,962	-41,81
783,142	-7
783,323	25,77
783,503	70,83
783,683	70,83
783,864	36,01
784,044	85,16
784,224	33,96
784,404	58,54
784,585	33,96
784,765	25,77
784,945	167,08
785,125	38,06
785,305	103,59
785,485	101,55
785,666	83,11
785,846	9,39
786,026	-39,76
786,206	19,63
786,386	136,36
786,566	74,92
786,746	-43,86
786,926	19,63
787,106	9,39
787,286	42,15
787,466	-9,05
787,646	13,48
787,826	9,39
788,006	50,35
788,185	52,39
788,365	23,72
788,545	66,73
788,725	17,58
788,905	50,35
789,085	58,54
789,264	-52,05
789,444	1,19
789,624	5,29
789,804	19,63
789,983	66,73
790,163	42,15
790,343	27,82
790,522	-45,91
790,702	-17,24
790,882	-0,85
791,061	148,65
791,241	-17,24
791,42	-31,57
791,6	50,35
791,78	29,87
791,959	5,29
792,139	-41,81
792,318	68,78
792,498	89,26
792,677	85,16
792,856	-7
793,036	-56,15
793,215	44,2
793,395	46,25
793,574	-23,38
793,753	27,82
793,933	93,35
794,112	58,54
794,291	-7
794,471	54,44
794,65	1,19
794,829	-15,19
795,008	-7
795,188	44,2
795,367	54,44
795,546	9,39
795,725	33,96
795,904	-64,34
796,084	93,35
796,263	76,97
796,442	70,83
796,621	11,43
796,8	126,12
796,979	70,83
797,158	33,96
797,337	-39,76
797,516	68,78
797,695	183,46
797,874	99,5
798,053	126,12
798,232	60,59
798,411	-23,38
798,59	-35,67
798,769	33,96
798,947	-7
799,126	21,67
799,305	101,55
799,484	38,06
799,663	-41,81
799,842	33,96
800,02	146,6
800,199	-60,24
800,378	91,31
800,557	5,29
800,735	-78,68
800,914	-93,01
801,093	38,06
801,271	21,67
801,45	66,73
801,628	50,35
801,807	17,58
801,986	5,29
802,164	17,58
802,343	-97,11
802,521	-80,72
802,7	-13,14
802,878	76,97
803,057	68,78
803,235	-15,19
803,414	68,78
803,592	19,63
803,771	-11,09
803,949	-64,34
804,127	44,2
804,306	36,01
804,484	17,58
804,662	115,88
804,841	-27,48
805,019	115,88
805,197	56,49
805,375	42,15
805,554	17,58
805,732	74,92
805,91	-13,14
806,088	5,29
806,266	-123,73
806,445	38,06
806,623	60,59
806,801	132,26
806,979	3,24
807,157	44,2
807,335	-43,86
807,513	23,72
807,691	58,54
807,869	-21,33
808,047	-4,95
808,225	-56,15
808,403	111,78
808,581	3,24
808,759	160,94
808,937	38,06
809,115	58,54
809,293	40,11
809,471	1,19
809,649	66,73
809,826	79,02
810,004	-7
810,182	-45,91
810,36	9,39
810,538	74,92
810,715	13,48
810,893	5,29
811,071	7,34
811,248	58,54
811,426	-15,19
811,604	66,73
811,781	5,29
811,959	50,35
812,137	21,67
812,314	13,48
812,492	15,53
812,669	70,83
812,847	-15,19
813,024	-23,38
813,202	68,78
813,379	33,96
813,557	-21,33
813,734	76,97
813,912	68,78
814,089	-76,63
814,267	99,5
814,444	42,15
814,621	9,39
814,799	-37,72
814,976	126,12
815,153	107,69
815,331	91,31
815,508	27,82
815,685	-7
815,862	107,69
816,04	-76,63
816,217	7,34
816,394	-31,57
816,571	38,06
816,748	205,99
816,926	173,22
817,103	246,95
817,28	9,39
817,457	9,39
817,634	214,18
817,811	-19,29
817,988	-19,29
818,165	79,02
818,342	44,2
818,519	-27,48
818,696	27,82
818,873	-27,48
819,05	115,88
819,227	-72,53
819,404	11,43
819,581	-54,1
819,758	5,29
819,934	-13,14
820,111	-86,87
820,288	-2,9
820,465	105,64
820,642	33,96
820,818	17,58
820,995	-7
821,172	21,67
821,349	58,54
821,525	132,26
821,702	44,2
821,879	-86,87
822,055	99,5
822,232	58,54
822,409	33,96
822,585	44,2
822,762	87,21
822,938	29,87
823,115	50,35
823,291	-21,33
823,468	216,23
823,644	40,11
823,821	13,48
823,997	3,24
824,174	-41,81
824,35	-35,67
824,527	36,01
824,703	27,82
824,879	-33,62
825,056	-39,76
825,232	58,54
825,408	-31,57
825,585	50,35
825,761	-37,72
825,937	-64,34
826,113	-7
826,29	117,93
826,466	-4,95
826,642	337,06
826,818	-19,29
826,994	42,15
827,17	-39,76
827,347	-43,86
827,523	-66,39
827,699	-17,24
827,875	42,15
828,051	25,77
828,227	27,82
828,403	85,16
828,579	72,87
828,755	113,83
828,931	46,25
829,107	-11,09
829,283	109,74
829,459	-80,72
829,635	-27,48
829,811	33,96
829,986	156,84
830,162	42,15
830,338	-35,67
830,514	-54,1
830,69	-4,95
830,865	17,58
831,041	19,63
831,217	-31,57
831,393	-23,38
831,568	-56,15
831,744	132,26
831,92	19,63
832,095	-2,9
832,271	27,82
832,447	21,67
832,622	50,35
832,798	42,15
832,973	-2,9
833,149	9,39
833,325	38,06
833,5	17,58
833,676	38,06
833,851	66,73
834,027	79,02
834,202	11,43
834,377	52,39
834,553	9,39
834,728	72,87
834,904	9,39
835,079	-52,05
835,254	-4,95
835,43	17,58
835,605	-0,85
835,78	25,77
835,955	76,97
836,131	-27,48
836,306	-43,86
836,481	1,19
836,656	38,06
836,832	95,4
837,007	-80,72
837,182	-7
837,357	17,58
837,532	11,43
837,707	-33,62
837,882	38,06
838,057	58,54
838,232	70,83
838,407	17,58
838,582	-2,9
838,757	31,91
838,932	74,92
839,107	9,39
839,282	-68,44
839,457	-41,81
839,632	9,39
839,807	58,54
839,982	27,82
840,157	17,58
840,332	87,21
840,506	21,67
840,681	-54,1
840,856	27,82
841,031	-4,95
841,205	-21,33
841,38	132,26
841,555	85,16
841,73	50,35
841,904	-27,48
842,079	52,39
842,254	19,63
842,428	27,82
842,603	-4,95
842,777	-62,29
842,952	-29,52
843,126	-19,29
843,301	111,78
843,476	-0,85
843,65	3,24
843,825	91,31
843,999	-7
844,173	-31,57
844,348	25,77
844,522	38,06
844,697	-15,19
844,871	25,77
845,045	42,15
845,22	27,82
845,394	140,46
845,568	-47,96
845,743	99,5
845,917	3,24
846,091	-23,38
846,265	44,2
846,44	-4,95
846,614	87,21
846,788	-4,95
846,962	95,4
847,136	46,25
847,31	-76,63
847,485	134,31
847,659	-95,06
847,833	62,63
848,007	19,63
848,181	33,96
848,355	42,15
848,529	103,59
848,703	76,97
848,877	-72,53
849,051	42,15
849,225	52,39
849,399	-13,14
849,573	-23,38
849,746	-4,95
849,92	1,19
850,094	58,54
850,268	1,19
850,442	97,45
850,616	-4,95
850,789	7,34
850,963	-56,15
851,137	-47,96
851,311	128,17
851,484	-15,19
851,658	9,39
851,832	-117,59
852,005	9,39
852,179	29,87
852,352	60,59
852,526	50,35
852,7	-39,76
852,873	-47,96
853,047	54,44
853,22	83,11
853,394	107,69
853,567	33,96
853,741	-15,19
853,914	-7
854,088	42,15
854,261	-4,95
854,434	-25,43
854,608	13,48
854,781	-54,1
854,955	40,11
855,128	25,77
855,301	-47,96
855,475	74,92
855,648	21,67
855,821	58,54
855,994	19,63
856,168	33,96
856,341	122,02
856,514	-72,53
856,687	31,91
856,86	33,96
857,033	58,54
857,207	5,29
857,38	-80,72
857,553	85,16
857,726	-19,29
857,899	85,16
858,072	-31,57
858,245	-4,95
858,418	-31,57
858,591	5,29
858,764	29,87
858,937	25,77
859,11	29,87
859,283	25,77
859,455	-52,05
859,628	5,29
859,801	74,92
859,974	113,83
860,147	-50
860,32	29,87
860,492	25,77
860,665	-105,3
860,838	38,06
861,011	27,82
861,183	101,55
861,356	109,74
861,529	44,2
861,701	1,19
861,874	83,11
862,047	60,59
862,219	70,83
862,392	66,73
862,564	68,78
862,737	9,39
862,909	29,87
863,082	-31,57
863,254	87,21
863,427	27,82
863,599	107,69
863,772	-39,76
863,944	54,44
864,117	48,3
864,289	9,39
864,461	-76,63
864,634	11,43
864,806	-27,48
864,978	21,67
865,151	-21,33
865,323	91,31
865,495	93,35
865,667	-21,33
865,84	195,75
866,012	-47,96
866,184	126,12
866,356	-23,38
866,528	11,43
866,7	-25,43
866,873	-43,86
867,045	-23,38
867,217	-64,34
867,389	-39,76
867,561	21,67
867,733	103,59
867,905	11,43
868,077	-52,05
868,249	11,43
868,421	-31,57
868,593	9,39
868,765	101,55
868,936	-80,72
869,108	79,02
869,28	156,84
869,452	-43,86
869,624	-62,29
869,796	-4,95
869,968	83,11
870,139	115,88
870,311	-33,62
870,483	117,93
870,654	-45,91
870,826	-4,95
870,998	15,53
871,17	-52,05
871,341	1,19
871,513	52,39
871,684	-56,15
871,856	-17,24
872,028	91,31
872,199	56,49
872,371	-23,38
872,542	17,58
872,714	17,58
872,885	68,78
873,057	58,54
873,228	19,63
873,4	60,59
873,571	171,18
873,742	-31,57
873,914	9,39
874,085	-37,72
874,256	44,2
874,428	-64,34
874,599	-15,19
874,77	85,16
874,942	-29,52
875,113	48,3
875,284	1,19
875,455	13,48
875,626	-11,09
875,798	52,39
875,969	42,15
876,14	44,2
876,311	76,97
876,482	68,78
876,653	44,2
876,824	60,59
876,995	40,11
877,166	70,83
877,337	-2,9
877,508	-21,33
877,679	11,43
877,85	-4,95
878,021	-64,34
878,192	93,35
878,363	-31,57
878,534	19,63
878,705	-84,82
878,876	-15,19
879,047	21,67
879,217	-37,72
879,388	97,45
879,559	1,19
879,73	91,31
879,9	-47,96
880,071	9,39
880,242	33,96
880,413	-15,19
880,583	50,35
880,754	85,16
880,924	-31,57
881,095	-31,57
881,266	-11,09
881,436	115,88
881,607	136,36
881,777	42,15
881,948	-7
882,118	48,3
882,289	-23,38
882,459	23,72
882,63	25,77
882,8	70,83
882,971	3,24
883,141	83,11
883,311	29,87
883,482	105,64
883,652	15,53
883,822	-7
883,993	-72,53
884,163	11,43
884,333	89,26
884,504	50,35
884,674	52,39
884,844	11,43
885,014	17,58
885,184	-27,48
885,355	-2,9
885,525	-2,9
885,695	54,44
885,865	72,87
886,035	33,96
886,205	29,87
886,375	19,63
886,545	42,15
886,715	-84,82
886,885	74,92
887,055	11,43
887,225	9,39
887,395	3,24
887,565	62,63
887,735	-27,48
887,905	60,59
888,075	25,77
888,244	158,89
888,414	-31,57
888,584	3,24
888,754	5,29
888,924	-7
889,093	146,6
889,263	13,48
889,433	29,87
889,603	52,39
889,772	124,07
889,942	76,97
890,111	50,35
890,281	115,88
890,451	3,24
890,62	119,98
890,79	-41,81
890,959	33,96
891,129	17,58
891,298	9,39
891,468	-33,62
891,637	-13,14
891,807	38,06
891,976	40,11
892,146	-23,38
892,315	27,82
892,485	89,26
892,654	-64,34
892,823	-31,57
892,993	-54,1
893,162	44,2
893,331	62,63
893,501	66,73
893,67	107,69
893,839	-2,9
894,008	-2,9
894,177	-15,19
894,347	29,87
894,516	124,07
894,685	56,49
894,854	17,58
895,023	25,77
895,192	1,19
