Data from he_USB4F104161__20__11-53-37-358.txt Node

Date: Tue Apr 14 11:53:37 EDT 2026
User: LaboPhy
Spectrometer: USB4F10416
Trigger mode: 4
Integration Time (sec): 1,000000E-1
Scans to average: 1
Electric dark correction enabled: true
Nonlinearity correction enabled: false
Boxcar width: 0
XAxis mode: Wavelengths
Number of Pixels in Spectrum: 3648
>>>>>Begin Spectral Data<<<<<
177,847	-224,76
178,066	-224,76
178,284	-224,76
178,502	-114,17
178,72	-169,47
178,939	51,71
179,157	-9,73
179,375	-56,83
179,593	4,61
179,812	47,62
180,03	80,38
180,248	-81,41
180,466	6,66
180,685	14,85
180,903	-48,64
181,121	-67,07
181,339	57,86
181,557	14,85
181,775	16,9
181,994	10,75
182,212	-32,26
182,43	23,04
182,648	6,66
182,866	-1,54
183,084	98,81
183,302	18,94
183,52	4,61
183,739	14,85
183,957	-1,54
184,175	2,56
184,393	82,43
184,611	-1,54
184,829	55,81
185,047	8,7
185,265	98,81
185,483	-50,69
185,701	53,76
185,919	2,56
186,137	-17,92
186,355	23,04
186,573	66,05
186,791	115,2
187,009	94,72
187,227	107,01
187,445	25,09
187,663	23,04
187,881	-13,82
188,098	16,9
188,316	53,76
188,534	35,33
188,752	31,23
188,97	-13,82
189,188	23,04
189,406	43,52
189,624	31,23
189,841	14,85
190,059	-67,07
190,277	-91,65
190,495	37,38
190,713	72,19
190,931	88,57
191,148	137,73
191,366	25,09
191,584	-71,17
191,802	96,77
192,019	145,92
192,237	137,73
192,455	14,85
192,673	53,76
192,89	2,56
193,108	39,42
193,326	-17,92
193,543	51,71
193,761	10,75
193,979	82,43
194,196	57,86
194,414	31,23
194,632	23,04
194,849	-22,02
195,067	-34,3
195,285	27,14
195,502	8,7
195,72	47,62
195,937	51,71
196,155	70,14
196,373	41,47
196,59	-22,02
196,808	41,47
197,025	109,05
197,243	256,51
197,46	88,57
197,678	2,56
197,895	39,42
198,113	14,85
198,33	0,51
198,548	53,76
198,765	-30,21
198,983	64
199,2	-13,82
199,418	66,05
199,635	-24,06
199,853	80,38
200,07	31,23
200,288	6,66
200,505	-30,21
200,722	111,1
200,94	117,25
201,157	43,52
201,375	43,52
201,592	18,94
201,809	74,24
202,027	98,81
202,244	0,51
202,461	55,81
202,679	98,81
202,896	57,86
203,113	-62,98
203,331	49,66
203,548	-28,16
203,765	0,51
203,982	-7,68
204,2	41,47
204,417	70,14
204,634	162,3
204,851	47,62
205,069	72,19
205,286	82,43
205,503	64
205,72	-17,92
205,937	107,01
206,155	-9,73
206,372	92,67
206,589	-26,11
206,806	82,43
207,023	-42,5
207,24	109,05
207,458	-15,87
207,675	41,47
207,892	8,7
208,109	-58,88
208,326	-24,06
208,543	80,38
208,76	-26,11
208,977	121,34
209,194	113,15
209,411	14,85
209,628	25,09
209,845	49,66
210,062	-34,3
210,279	-54,78
210,496	31,23
210,713	-50,69
210,93	-34,3
211,147	64
211,364	43,52
211,581	29,18
211,798	186,88
212,015	-32,26
212,232	8,7
212,449	41,47
212,666	10,75
212,883	-32,26
213,1	14,85
213,317	-22,02
213,533	31,23
213,75	29,18
213,967	0,51
214,184	-3,58
214,401	104,96
214,618	-40,45
214,835	39,42
215,051	64
215,268	72,19
215,485	100,86
215,702	29,18
215,919	-9,73
216,135	127,49
216,352	-17,92
216,569	72,19
216,786	41,47
217,002	35,33
217,219	76,29
217,436	47,62
217,652	-26,11
217,869	47,62
218,086	113,15
218,302	117,25
218,519	113,15
218,736	-9,73
218,952	-52,74
219,169	8,7
219,386	14,85
219,602	74,24
219,819	47,62
220,036	-9,73
220,252	137,73
220,469	-15,87
220,685	88,57
220,902	43,52
221,118	8,7
221,335	2,56
221,552	-34,3
221,768	154,11
221,985	-40,45
222,201	-13,82
222,418	64
222,634	68,09
222,851	20,99
223,067	12,8
223,284	-17,92
223,5	49,66
223,716	10,75
223,933	-3,58
224,149	-40,45
224,366	76,29
224,582	-24,06
224,799	6,66
225,015	-9,73
225,231	-44,54
225,448	14,85
225,664	47,62
225,88	-17,92
226,097	41,47
226,313	-40,45
226,529	47,62
226,746	31,23
226,962	64
227,178	39,42
227,395	27,14
227,611	0,51
227,827	-9,73
228,044	82,43
228,26	107,01
228,476	88,57
228,692	74,24
228,909	92,67
229,125	47,62
229,341	-9,73
229,557	-56,83
229,773	-60,93
229,99	107,01
230,206	-1,54
230,422	113,15
230,638	-9,73
230,854	6,66
231,07	-116,22
231,286	107,01
231,503	23,04
231,719	0,51
231,935	31,23
232,151	-26,11
232,367	147,97
232,583	64
232,799	113,15
233,015	66,05
233,231	6,66
233,447	23,04
233,663	2,56
233,879	8,7
234,095	-62,98
234,311	55,81
234,527	55,81
234,743	115,2
234,959	90,62
235,175	23,04
235,391	-9,73
235,607	10,75
235,823	92,67
236,039	4,61
236,255	-11,78
236,471	23,04
236,687	47,62
236,903	-65,02
237,118	59,9
237,334	49,66
237,55	72,19
237,766	-112,13
237,982	107,01
238,198	-1,54
238,413	0,51
238,629	104,96
238,845	23,04
239,061	57,86
239,277	20,99
239,492	-95,74
239,708	23,04
239,924	18,94
240,14	51,71
240,355	150,01
240,571	-26,11
240,787	80,38
241,003	76,29
241,218	6,66
241,434	-1,54
241,65	23,04
241,865	14,85
242,081	88,57
242,297	-40,45
242,512	-1,54
242,728	-67,07
242,944	64
243,159	57,86
243,375	8,7
243,59	14,85
243,806	49,66
244,022	61,95
244,237	31,23
244,453	55,81
244,668	59,9
244,884	143,87
245,099	57,86
245,315	156,16
245,53	41,47
245,746	84,48
245,961	88,57
246,177	-1,54
246,392	64
246,608	121,34
246,823	72,19
247,039	-7,68
247,254	39,42
247,47	55,81
247,685	-24,06
247,9	-36,35
248,116	16,9
248,331	8,7
248,547	64
248,762	-67,07
248,977	59,9
249,193	57,86
249,408	64
249,623	80,38
249,839	-26,11
250,054	-79,36
250,269	12,8
250,485	64
250,7	6,66
250,915	104,96
251,13	78,33
251,346	8,7
251,561	96,77
251,776	74,24
251,991	-118,27
252,207	129,53
252,422	72,19
252,637	-28,16
252,852	35,33
253,067	31,23
253,283	-13,82
253,498	47,62
253,713	23,04
253,928	41,47
254,143	39,42
254,358	47,62
254,573	-40,45
254,788	-105,98
255,004	59,9
255,219	-42,5
255,434	35,33
255,649	-54,78
255,864	121,34
256,079	-19,97
256,294	-5,63
256,509	-50,69
256,724	0,51
256,939	27,14
257,154	41,47
257,369	80,38
257,584	68,09
257,799	-13,82
258,014	64
258,229	35,33
258,444	12,8
258,659	51,71
258,874	23,04
259,089	31,23
259,304	23,04
259,518	-34,3
259,733	6,66
259,948	16,9
260,163	104,96
260,378	80,38
260,593	55,81
260,808	72,19
261,022	-83,45
261,237	55,81
261,452	55,81
261,667	49,66
261,882	96,77
262,096	90,62
262,311	121,34
262,526	-42,5
262,741	-13,82
262,955	-32,26
263,17	39,42
263,385	23,04
263,6	-83,45
263,814	-38,4
264,029	-9,73
264,244	113,15
264,458	80,38
264,673	47,62
264,888	25,09
265,102	8,7
265,317	-65,02
265,532	-28,16
265,746	43,52
265,961	45,57
266,175	33,28
266,39	23,04
266,605	-38,4
266,819	100,86
267,034	33,28
267,248	-15,87
267,463	104,96
267,677	39,42
267,892	39,42
268,106	-58,88
268,321	10,75
268,535	80,38
268,75	23,04
268,964	-1,54
269,179	104,96
269,393	47,62
269,608	2,56
269,822	14,85
270,036	-52,74
270,251	-67,07
270,465	16,9
270,68	37,38
270,894	2,56
271,108	190,97
271,323	70,14
271,537	16,9
271,752	14,85
271,966	25,09
272,18	-81,41
272,394	74,24
272,609	72,19
272,823	-9,73
273,037	33,28
273,252	23,04
273,466	0,51
273,68	98,81
273,894	72,19
274,109	68,09
274,323	39,42
274,537	47,62
274,751	-13,82
274,966	39,42
275,18	-1,54
275,394	-15,87
275,608	8,7
275,822	41,47
276,036	-9,73
276,25	43,52
276,465	55,81
276,679	49,66
276,893	-52,74
277,107	64
277,321	-36,35
277,535	47,62
277,749	59,9
277,963	16,9
278,177	-71,17
278,391	39,42
278,605	-22,02
278,819	-9,73
279,033	-36,35
279,247	-46,59
279,461	104,96
279,675	8,7
279,889	41,47
280,103	51,71
280,317	43,52
280,531	-56,83
280,745	64
280,959	-40,45
281,173	125,44
281,387	88,57
281,601	145,92
281,815	18,94
282,029	2,56
282,242	41,47
282,456	80,38
282,67	23,04
282,884	-67,07
283,098	0,51
283,312	37,38
283,525	-7,68
283,739	39,42
283,953	31,23
284,167	18,94
284,381	23,04
284,594	-67,07
284,808	51,71
285,022	-75,26
285,235	-48,64
285,449	115,2
285,663	-46,59
285,877	27,14
286,09	37,38
286,304	113,15
286,518	-1,54
286,731	-138,75
286,945	37,38
287,159	-87,55
287,372	41,47
287,586	72,19
287,799	18,94
288,013	-79,36
288,227	47,62
288,44	223,74
288,654	90,62
288,867	-7,68
289,081	6,66
289,294	129,53
289,508	88,57
289,721	-62,98
289,935	25,09
290,148	49,66
290,362	119,29
290,575	14,85
290,789	-22,02
291,002	-19,97
291,216	33,28
291,429	8,7
291,643	47,62
291,856	-95,74
292,069	-9,73
292,283	55,81
292,496	55,81
292,71	35,33
292,923	27,14
293,136	31,23
293,35	12,8
293,563	-1,54
293,776	86,53
293,99	100,86
294,203	31,23
294,416	76,29
294,63	-13,82
294,843	25,09
295,056	72,19
295,269	-9,73
295,483	-89,6
295,696	-54,78
295,909	31,23
296,122	90,62
296,335	66,05
296,549	25,09
296,762	-38,4
296,975	18,94
297,188	25,09
297,401	-40,45
297,615	129,53
297,828	-5,63
298,041	115,2
298,254	-34,3
298,467	8,7
298,68	2,56
298,893	-5,63
299,106	88,57
299,319	74,24
299,532	-38,4
299,745	2,56
299,958	23,04
300,171	-30,21
300,384	12,8
300,598	-67,07
300,81	68,09
301,023	6,66
301,236	-140,8
301,449	39,42
301,662	-54,78
301,875	-7,68
302,088	64
302,301	-3,58
302,514	-65,02
302,727	64
302,94	-1,54
303,153	31,23
303,366	-26,11
303,579	-75,26
303,791	49,66
304,004	-1,54
304,217	66,05
304,43	-48,64
304,643	55,81
304,855	-83,45
305,068	86,53
305,281	-17,92
305,494	6,66
305,707	33,28
305,919	100,86
306,132	-1,54
306,345	31,23
306,558	72,19
306,77	-32,26
306,983	-67,07
307,196	14,85
307,408	-9,73
307,621	39,42
307,834	6,66
308,046	-30,21
308,259	-44,54
308,472	-58,88
308,684	29,18
308,897	16,9
309,109	16,9
309,322	-40,45
309,535	121,34
309,747	82,43
309,96	80,38
310,172	92,67
310,385	31,23
310,597	-50,69
310,81	20,99
311,022	23,04
311,235	-26,11
311,447	-1,54
311,66	27,14
311,872	121,34
312,085	-1,54
312,297	-26,11
312,51	-15,87
312,722	-9,73
312,934	31,23
313,147	-28,16
313,359	-83,45
313,572	-17,92
313,784	10,75
313,996	64
314,209	49,66
314,421	-34,3
314,633	-17,92
314,846	-9,73
315,058	88,57
315,27	-60,93
315,483	-9,73
315,695	-17,92
315,907	-34,3
316,119	-26,11
316,332	-36,35
316,544	80,38
316,756	64
316,968	57,86
317,181	68,09
317,393	55,81
317,605	8,7
317,817	143,87
318,029	145,92
318,241	55,81
318,454	64
318,666	154,11
318,878	-24,06
319,09	82,43
319,302	145,92
319,514	174,59
319,726	82,43
319,938	129,53
320,15	96,77
320,362	195,07
320,574	-30,21
320,786	-79,36
320,999	6,66
321,211	129,53
321,423	-34,3
321,635	-26,11
321,847	82,43
322,058	-5,63
322,27	53,76
322,482	35,33
322,694	96,77
322,906	10,75
323,118	55,81
323,33	94,72
323,542	53,76
323,754	35,33
323,966	-128,51
324,178	-7,68
324,389	-1,54
324,601	39,42
324,813	-65,02
325,025	51,71
325,237	0,51
325,449	55,81
325,66	-26,11
325,872	-13,82
326,084	-11,78
326,296	14,85
326,507	51,71
326,719	43,52
326,931	-91,65
327,143	41,47
327,354	117,25
327,566	86,53
327,778	68,09
327,989	96,77
328,201	-5,63
328,413	14,85
328,624	154,11
328,836	-7,68
329,048	-34,3
329,259	72,19
329,471	-1,54
329,682	2,56
329,894	27,14
330,106	-71,17
330,317	-7,68
330,529	23,04
330,74	31,23
330,952	-9,73
331,163	6,66
331,375	131,58
331,586	74,24
331,798	-9,73
332,009	-17,92
332,221	61,95
332,432	137,73
332,644	16,9
332,855	43,52
333,067	-1,54
333,278	55,81
333,489	61,95
333,701	-26,11
333,912	-17,92
334,124	31,23
334,335	-11,78
334,546	2,56
334,758	8,7
334,969	188,93
335,18	113,15
335,392	74,24
335,603	-15,87
335,814	86,53
336,025	-83,45
336,237	-40,45
336,448	-52,74
336,659	35,33
336,87	64
337,082	115,2
337,293	64
337,504	23,04
337,715	23,04
337,926	-50,69
338,138	6,66
338,349	31,23
338,56	41,47
338,771	-83,45
338,982	57,86
339,193	-42,5
339,404	162,3
339,616	2,56
339,827	64
340,038	-40,45
340,249	31,23
340,46	-32,26
340,671	64
340,882	76,29
341,093	55,81
341,304	41,47
341,515	6,66
341,726	18,94
341,937	-40,45
342,148	6,66
342,359	-17,92
342,57	-54,78
342,781	107,01
342,992	64
343,203	-26,11
343,414	131,58
343,624	-26,11
343,835	31,23
344,046	88,57
344,257	55,81
344,468	-38,4
344,679	-24,06
344,89	80,38
345,1	-81,41
345,311	-7,68
345,522	49,66
345,733	16,9
345,944	74,24
346,154	-9,73
346,365	96,77
346,576	-22,02
346,787	-30,21
346,997	92,67
347,208	14,85
347,419	-81,41
347,629	33,28
347,84	164,35
348,051	23,04
348,261	72,19
348,472	-30,21
348,683	39,42
348,893	-15,87
349,104	-7,68
349,315	25,09
349,525	-71,17
349,736	4,61
349,946	72,19
350,157	125,44
350,368	117,25
350,578	-28,16
350,789	137,73
350,999	35,33
351,21	0,51
351,42	-50,69
351,631	-26,11
351,841	-83,45
352,052	64
352,262	23,04
352,472	-46,59
352,683	25,09
352,893	18,94
353,104	-48,64
353,314	129,53
353,525	379,39
353,735	39,42
353,945	-13,82
354,156	0,51
354,366	88,57
354,576	162,3
354,787	104,96
354,997	-71,17
355,207	-15,87
355,418	-9,73
355,628	-67,07
355,838	39,42
356,048	82,43
356,259	51,71
356,469	-17,92
356,679	66,05
356,889	82,43
357,1	-34,3
357,31	-95,74
357,52	33,28
357,73	2,56
357,94	-28,16
358,15	-54,78
358,361	59,9
358,571	33,28
358,781	35,33
358,991	-50,69
359,201	39,42
359,411	-9,73
359,621	-9,73
359,831	88,57
360,041	-9,73
360,251	-15,87
360,461	16,9
360,672	-26,11
360,882	-67,07
361,092	18,94
361,302	39,42
361,512	59,9
361,721	-13,82
361,931	66,05
362,141	41,47
362,351	104,96
362,561	35,33
362,771	-9,73
362,981	98,81
363,191	-54,78
363,401	33,28
363,611	-3,58
363,821	-65,02
364,03	10,75
364,24	59,9
364,45	64
364,66	190,97
364,87	31,23
365,08	137,73
365,289	-26,11
365,499	47,62
365,709	64
365,919	82,43
366,128	12,8
366,338	16,9
366,548	-15,87
366,758	23,04
366,967	-89,6
367,177	-7,68
367,387	16,9
367,596	49,66
367,806	57,86
368,016	43,52
368,225	74,24
368,435	152,06
368,644	23,04
368,854	41,47
369,064	31,23
369,273	96,77
369,483	14,85
369,692	88,57
369,902	41,47
370,111	86,53
370,321	-22,02
370,53	47,62
370,74	-26,11
370,949	82,43
371,159	96,77
371,368	96,77
371,578	72,19
371,787	-54,78
371,997	64
372,206	6,66
372,416	33,28
372,625	47,62
372,834	125,44
373,044	10,75
373,253	59,9
373,462	74,24
373,672	31,23
373,881	49,66
374,09	-67,07
374,3	-13,82
374,509	41,47
374,718	-32,26
374,928	61,95
375,137	-17,92
375,346	-24,06
375,555	74,24
375,765	39,42
375,974	-26,11
376,183	64
376,392	-26,11
376,601	64
376,811	72,19
377,02	109,05
377,229	121,34
377,438	31,23
377,647	117,25
377,856	23,04
378,065	25,09
378,275	-32,26
378,484	-9,73
378,693	98,81
378,902	0,51
379,111	66,05
379,32	-3,58
379,529	8,7
379,738	27,14
379,947	113,15
380,156	47,62
380,365	31,23
380,574	88,57
380,783	16,9
380,992	39,42
381,201	31,23
381,41	10,75
381,619	47,62
381,828	68,09
382,037	64
382,245	203,26
382,454	145,92
382,663	90,62
382,872	31,23
383,081	64
383,29	164,35
383,499	88,57
383,707	64
383,916	131,58
384,125	147,97
384,334	51,71
384,542	64
384,751	72,19
384,96	-13,82
385,169	-34,3
385,377	131,58
385,586	2,56
385,795	47,62
386,004	96,77
386,212	-7,68
386,421	96,77
386,63	293,37
386,838	817,65
387,047	1227,25
387,255	2060,77
387,464	2841,04
387,673	3828,17
387,881	4919,73
388,09	5816,74
388,298	6758,81
388,507	8323,46
388,715	10205,54
388,924	11338,07
389,133	10639,71
389,341	10563,93
389,55	9118,07
389,758	6810,01
389,967	4532,67
390,175	2931,16
390,383	2296,28
390,592	1751,53
390,8	1083,89
391,009	793,08
391,217	520,7
391,426	328,19
391,634	74,24
391,842	100,86
392,051	33,28
392,259	170,49
392,467	27,14
392,676	-99,84
392,884	64
393,092	96,77
393,301	39,42
393,509	-1,54
393,717	123,39
393,925	47,62
394,134	25,09
394,342	82,43
394,55	53,76
394,758	80,38
394,967	66,05
395,175	88,57
395,383	125,44
395,591	137,73
395,799	100,86
396,007	125,44
396,216	248,32
396,424	266,75
396,632	244,22
396,84	141,82
397,048	174,59
397,256	147,97
397,464	78,33
397,672	150,01
397,88	14,85
398,088	35,33
398,296	107,01
398,504	107,01
398,712	6,66
398,92	96,77
399,128	-7,68
399,336	-50,69
399,544	51,71
399,752	35,33
399,96	23,04
400,168	39,42
400,376	-24,06
400,584	90,62
400,792	104,96
401	123,39
401,207	90,62
401,415	238,08
401,623	164,35
401,831	233,98
402,039	358,91
402,247	301,56
402,454	453,11
402,662	492,02
402,87	399,87
403,078	522,74
403,285	469,5
403,493	240,12
403,701	291,32
403,909	96,77
404,116	178,69
404,324	90,62
404,532	23,04
404,739	31,23
404,947	41,47
405,155	78,33
405,362	59,9
405,57	88,57
405,778	-75,26
405,985	39,42
406,193	59,9
406,4	-26,11
406,608	23,04
406,816	80,38
407,023	47,62
407,231	-44,54
407,438	96,77
407,646	76,29
407,853	23,04
408,061	-17,92
408,268	68,09
408,476	-24,06
408,683	72,19
408,89	27,14
409,098	88,57
409,305	80,38
409,513	39,42
409,72	80,38
409,927	-1,54
410,135	51,71
410,342	-5,63
410,55	162,3
410,757	68,09
410,964	14,85
411,172	117,25
411,379	61,95
411,586	55,81
411,793	-5,63
412,001	37,38
412,208	29,18
412,415	98,81
412,622	147,97
412,83	72,19
413,037	186,88
413,244	39,42
413,451	182,78
413,658	121,34
413,866	45,57
414,073	23,04
414,28	107,01
414,487	-15,87
414,694	66,05
414,901	80,38
415,108	80,38
415,315	31,23
415,522	53,76
415,73	74,24
415,937	-28,16
416,144	49,66
416,351	-1,54
416,558	-50,69
416,765	55,81
416,972	12,8
417,179	18,94
417,386	64
417,593	-9,73
417,8	23,04
418,006	64
418,213	47,62
418,42	25,09
418,627	139,77
418,834	-15,87
419,041	14,85
419,248	39,42
419,455	0,51
419,661	33,28
419,868	-9,73
420,075	51,71
420,282	-50,69
420,489	31,23
420,696	88,57
420,902	-9,73
421,109	107,01
421,316	-77,31
421,523	96,77
421,729	-5,63
421,936	35,33
422,143	72,19
422,349	55,81
422,556	47,62
422,763	31,23
422,969	39,42
423,176	-24,06
423,383	88,57
423,589	285,18
423,796	59,9
424,002	6,66
424,209	98,81
424,416	39,42
424,622	-48,64
424,829	-34,3
425,035	-65,02
425,242	-58,88
425,448	-48,64
425,655	72,19
425,861	64
426,068	57,86
426,274	90,62
426,481	74,24
426,687	64
426,894	39,42
427,1	-11,78
427,306	-7,68
427,513	113,15
427,719	25,09
427,926	80,38
428,132	23,04
428,338	47,62
428,545	-42,5
428,751	-24,06
428,957	49,66
429,163	2,56
429,37	53,76
429,576	76,29
429,782	10,75
429,989	27,14
430,195	33,28
430,401	10,75
430,607	23,04
430,813	6,66
431,02	80,38
431,226	68,09
431,432	88,57
431,638	39,42
431,844	-34,3
432,05	-34,3
432,257	-9,73
432,463	-1,54
432,669	33,28
432,875	68,09
433,081	-50,69
433,287	33,28
433,493	-38,4
433,699	14,85
433,905	37,38
434,111	-54,78
434,317	-56,83
434,523	164,35
434,729	-22,02
434,935	-83,45
435,141	72,19
435,347	8,7
435,553	33,28
435,759	57,86
435,965	55,81
436,171	14,85
436,377	57,86
436,582	64
436,788	-42,5
436,994	158,21
437,2	-54,78
437,406	-40,45
437,612	129,53
437,818	115,2
438,023	-34,3
438,229	223,74
438,435	88,57
438,641	139,77
438,846	4,61
439,052	123,39
439,258	154,11
439,464	113,15
439,669	41,47
439,875	178,69
440,081	31,23
440,286	31,23
440,492	-1,54
440,698	-73,21
440,903	23,04
441,109	115,2
441,314	4,61
441,52	-9,73
441,726	45,57
441,931	64
442,137	-9,73
442,342	-22,02
442,548	88,57
442,753	127,49
442,959	23,04
443,164	-5,63
443,37	51,71
443,575	59,9
443,781	47,62
443,986	113,15
444,192	55,81
444,397	31,23
444,602	23,04
444,808	-15,87
445,013	59,9
445,219	203,26
445,424	432,63
445,629	729,59
445,835	1067,5
446,04	1288,68
446,245	1563,11
446,451	1866,21
446,656	2193,89
446,861	2636,25
447,066	3275,21
447,272	3586,51
447,477	3467,72
447,682	3174,86
447,887	2671,06
448,093	2243,04
448,298	1706,47
448,503	1100,27
448,708	735,73
448,913	375,29
449,118	375,29
449,324	334,33
449,529	139,77
449,734	82,43
449,939	-67,07
450,144	121,34
450,349	123,39
450,554	64
450,759	55,81
450,964	27,14
451,169	84,48
451,374	18,94
451,579	47,62
451,784	45,57
451,989	-1,54
452,194	119,29
452,399	0,51
452,604	6,66
452,809	-67,07
453,014	-58,88
453,219	25,09
453,424	96,77
453,629	39,42
453,833	-62,98
454,038	66,05
454,243	12,8
454,448	47,62
454,653	117,25
454,858	0,51
455,062	-9,73
455,267	14,85
455,472	137,73
455,677	23,04
455,882	47,62
456,086	64
456,291	102,91
456,496	-46,59
456,7	33,28
456,905	64
457,11	39,42
457,314	18,94
457,519	10,75
457,724	64
457,928	90,62
458,133	-24,06
458,338	31,23
458,542	23,04
458,747	10,75
458,951	-73,21
459,156	61,95
459,36	-50,69
459,565	141,82
459,769	18,94
459,974	4,61
460,178	-7,68
460,383	0,51
460,587	-42,5
460,792	76,29
460,996	25,09
461,201	43,52
461,405	-17,92
461,61	-71,17
461,814	104,96
462,018	-65,02
462,223	-5,63
462,427	-7,68
462,631	94,72
462,836	49,66
463,04	57,86
463,244	76,29
463,449	-34,3
463,653	88,57
463,857	74,24
464,062	115,2
464,266	55,81
464,47	53,76
464,674	66,05
464,878	88,57
465,083	-1,54
465,287	152,06
465,491	72,19
465,695	84,48
465,899	76,29
466,104	88,57
466,308	59,9
466,512	-5,63
466,716	74,24
466,92	23,04
467,124	143,87
467,328	-1,54
467,532	39,42
467,736	53,76
467,94	115,2
468,144	80,38
468,348	16,9
468,552	160,25
468,756	23,04
468,96	-17,92
469,164	-44,54
469,368	129,53
469,572	119,29
469,776	172,54
469,98	190,97
470,184	307,71
470,388	408,06
470,591	481,78
470,795	588,28
470,999	737,78
471,203	745,97
471,407	813,56
471,611	868,85
471,814	809,46
472,018	600,57
472,222	637,43
472,426	532,98
472,63	322,04
472,833	279,04
473,037	207,36
473,241	137,73
473,444	164,35
473,648	489,98
473,852	-50,69
474,055	-9,73
474,259	10,75
474,463	51,71
474,666	41,47
474,87	55,81
475,074	168,45
475,277	51,71
475,481	102,91
475,684	35,33
475,888	-34,3
476,091	-13,82
476,295	31,23
476,498	-17,92
476,702	16,9
476,905	121,34
477,109	57,86
477,312	-46,59
477,516	-22,02
477,719	80,38
477,923	-50,69
478,126	-13,82
478,329	-7,68
478,533	35,33
478,736	57,86
478,94	61,95
479,143	-42,5
479,346	16,9
479,55	-5,63
479,753	47,62
479,956	-15,87
480,159	-83,45
480,363	104,96
480,566	-7,68
480,769	18,94
480,972	-32,26
481,176	20,99
481,379	80,38
481,582	88,57
481,785	6,66
481,988	57,86
482,192	88,57
482,395	-52,74
482,598	88,57
482,801	23,04
483,004	90,62
483,207	-15,87
483,41	72,19
483,613	82,43
483,817	51,71
484,02	39,42
484,223	31,23
484,426	39,42
484,629	76,29
484,832	123,39
485,035	14,85
485,238	92,67
485,441	109,05
485,644	70,14
485,846	41,47
486,049	-5,63
486,252	47,62
486,455	-7,68
486,658	-15,87
486,861	88,57
487,064	88,57
487,267	-42,5
487,47	98,81
487,672	47,62
487,875	31,23
488,078	39,42
488,281	64
488,484	64
488,686	25,09
488,889	-11,78
489,092	-11,78
489,295	29,18
489,497	115,2
489,7	33,28
489,903	-24,06
490,105	35,33
490,308	100,86
490,511	260,6
490,713	236,03
490,916	391,67
491,118	590,33
491,321	745,97
491,524	883,19
491,726	1063,41
491,929	1202,67
492,131	1329,64
492,334	1466,86
492,536	1518,06
492,739	1378,79
492,941	1317,36
493,144	1047,02
493,346	899,57
493,549	686,58
493,751	457,21
493,954	311,8
494,156	186,88
494,359	156,16
494,561	45,57
494,763	98,81
494,966	109,05
495,168	129,53
495,37	-13,82
495,573	6,66
495,775	88,57
495,977	23,04
496,18	92,67
496,382	104,96
496,584	14,85
496,787	121,34
496,989	-7,68
497,191	29,18
497,393	88,57
497,595	-32,26
497,798	-50,69
498	72,19
498,202	139,77
498,404	33,28
498,606	14,85
498,808	147,97
499,011	57,86
499,213	123,39
499,415	-1,54
499,617	293,37
499,819	596,47
500,021	897,52
500,223	1157,61
500,425	1720,81
500,627	2261,47
500,829	2869,72
501,031	3500,49
501,233	4006,34
501,435	4659,64
501,637	4979,12
501,839	5013,94
502,041	4995,51
502,243	4645,31
502,445	3930,56
502,647	3369,42
502,848	2466,27
503,05	1911,27
503,252	1448,43
503,454	891,38
503,656	678,39
503,858	430,59
504,059	350,71
504,261	391,67
504,463	326,14
504,665	244,22
504,867	244,22
505,068	293,37
505,27	244,22
505,472	326,14
505,673	233,98
505,875	76,29
506,077	90,62
506,278	102,91
506,48	100,86
506,682	64
506,883	64
507,085	72,19
507,287	6,66
507,488	2,56
507,69	92,67
507,891	-79,36
508,093	156,16
508,294	-26,11
508,496	82,43
508,697	6,66
508,899	-30,21
509,1	6,66
509,302	64
509,503	-38,4
509,705	49,66
509,906	14,85
510,108	8,7
510,309	76,29
510,51	31,23
510,712	-24,06
510,913	14,85
511,114	20,99
511,316	6,66
511,517	29,18
511,718	6,66
511,92	59,9
512,121	121,34
512,322	18,94
512,524	66,05
512,725	47,62
512,926	104,96
513,127	-15,87
513,329	72,19
513,53	37,38
513,731	107,01
513,932	-7,68
514,133	74,24
514,334	-65,02
514,536	145,92
514,737	55,81
514,938	31,23
515,139	23,04
515,34	-32,26
515,541	186,88
515,742	-13,82
515,943	14,85
516,144	51,71
516,345	72,19
516,546	74,24
516,747	86,53
516,948	2,56
517,149	-42,5
517,35	0,51
517,551	-17,92
517,752	-26,11
517,953	-17,92
518,154	80,38
518,355	123,39
518,556	74,24
518,756	-1,54
518,957	18,94
519,158	145,92
519,359	39,42
519,56	-26,11
519,761	10,75
519,961	64
520,162	172,54
520,363	41,47
520,564	0,51
520,764	59,9
520,965	31,23
521,166	61,95
521,366	33,28
521,567	137,73
521,768	72,19
521,968	8,7
522,169	53,76
522,37	-15,87
522,57	-62,98
522,771	80,38
522,972	6,66
523,172	57,86
523,373	162,3
523,573	74,24
523,774	25,09
523,974	90,62
524,175	-83,45
524,375	43,52
524,576	-13,82
524,776	35,33
524,977	14,85
525,177	41,47
525,378	-13,82
525,578	84,48
525,778	74,24
525,979	41,47
526,179	47,62
526,38	70,14
526,58	-34,3
526,78	-24,06
526,981	86,53
527,181	47,62
527,381	14,85
527,582	94,72
527,782	55,81
527,982	86,53
528,182	72,19
528,383	129,53
528,583	16,9
528,783	-7,68
528,983	84,48
529,183	64
529,384	96,77
529,584	141,82
529,784	137,73
529,984	59,9
530,184	74,24
530,384	20,99
530,584	6,66
530,784	64
530,984	4,61
531,185	158,21
531,385	27,14
531,585	59,9
531,785	109,05
531,985	31,23
532,185	-24,06
532,385	-58,88
532,585	51,71
532,785	2,56
532,984	154,11
533,184	152,06
533,384	43,52
533,584	-99,84
533,784	82,43
533,984	107,01
534,184	-62,98
534,384	80,38
534,583	57,86
534,783	80,38
534,983	158,21
535,183	8,7
535,383	-50,69
535,582	57,86
535,782	-42,5
535,982	100,86
536,182	8,7
536,381	-46,59
536,581	-17,92
536,781	37,38
536,98	35,33
537,18	-13,82
537,38	43,52
537,579	59,9
537,779	41,47
537,979	51,71
538,178	-17,92
538,378	96,77
538,577	23,04
538,777	-5,63
538,976	-9,73
539,176	23,04
539,376	-24,06
539,575	-42,5
539,774	51,71
539,974	25,09
540,173	131,58
540,373	-62,98
540,572	84,48
540,772	80,38
540,971	-34,3
541,171	82,43
541,37	98,81
541,569	37,38
541,769	-50,69
541,968	25,09
542,167	-9,73
542,367	39,42
542,566	23,04
542,765	-11,78
542,965	-7,68
543,164	2,56
543,363	6,66
543,562	-22,02
543,761	14,85
543,961	72,19
544,16	-50,69
544,359	121,34
544,558	74,24
544,757	39,42
544,957	-13,82
545,156	104,96
545,355	31,23
545,554	4,61
545,753	-7,68
545,952	74,24
546,151	59,9
546,35	39,42
546,549	8,7
546,748	41,47
546,947	-1,54
547,146	-42,5
547,345	31,23
547,544	-42,5
547,743	68,09
547,942	76,29
548,141	64
548,34	80,38
548,539	39,42
548,738	-75,26
548,937	86,53
549,135	100,86
549,334	31,23
549,533	-19,97
549,732	47,62
549,931	80,38
550,13	27,14
550,328	33,28
550,527	-38,4
550,726	39,42
550,925	-5,63
551,123	72,19
551,322	-26,11
551,521	104,96
551,72	76,29
551,918	90,62
552,117	72,19
552,315	39,42
552,514	14,85
552,713	-22,02
552,911	23,04
553,11	-62,98
553,309	-24,06
553,507	72,19
553,706	72,19
553,904	137,73
554,103	64
554,301	29,18
554,5	-19,97
554,698	96,77
554,897	25,09
555,095	23,04
555,294	-97,79
555,492	-30,21
555,69	64
555,889	-50,69
556,087	66,05
556,286	59,9
556,484	16,9
556,682	53,76
556,881	6,66
557,079	39,42
557,277	-40,45
557,476	55,81
557,674	88,57
557,872	8,7
558,07	12,8
558,269	-9,73
558,467	109,05
558,665	41,47
558,863	72,19
559,062	64
559,26	31,23
559,458	-13,82
559,656	47,62
559,854	16,9
560,052	43,52
560,25	66,05
560,449	317,95
560,647	39,42
560,845	-17,92
561,043	90,62
561,241	158,21
561,439	186,88
561,637	8,7
561,835	68,09
562,033	74,24
562,231	41,47
562,429	16,9
562,627	72,19
562,825	31,23
563,023	51,71
563,221	35,33
563,418	70,14
563,616	109,05
563,814	150,01
564,012	74,24
564,21	121,34
564,408	80,38
564,605	127,49
564,803	-34,3
565,001	238,08
565,199	-56,83
565,397	39,42
565,594	129,53
565,792	172,54
565,99	16,9
566,188	23,04
566,385	-67,07
566,583	80,38
566,781	76,29
566,978	100,86
567,176	158,21
567,373	107,01
567,571	0,51
567,769	86,53
567,966	47,62
568,164	104,96
568,361	84,48
568,559	88,57
568,756	123,39
568,954	88,57
569,151	125,44
569,349	88,57
569,546	76,29
569,744	131,58
569,941	64
570,139	64
570,336	119,29
570,534	80,38
570,731	-7,68
570,928	31,23
571,126	170,49
571,323	125,44
571,52	23,04
571,718	33,28
571,915	84,48
572,112	27,14
572,31	70,14
572,507	94,72
572,704	25,09
572,901	98,81
573,099	121,34
573,296	182,78
573,493	2,56
573,69	84,48
573,887	23,04
574,085	158,21
574,282	31,23
574,479	72,19
574,676	100,86
574,873	102,91
575,07	64
575,267	-3,58
575,464	59,9
575,661	127,49
575,858	57,86
576,055	16,9
576,252	96,77
576,449	104,96
576,646	127,49
576,843	66,05
577,04	113,15
577,237	119,29
577,434	178,69
577,631	8,7
577,828	215,55
578,025	2,56
578,222	10,75
578,419	64
578,615	0,51
578,812	29,18
579,009	154,11
579,206	137,73
579,403	72,19
579,599	260,6
579,796	39,42
579,993	145,92
580,19	82,43
580,386	57,86
580,583	172,54
580,78	74,24
580,976	129,53
581,173	96,77
581,37	131,58
581,566	145,92
581,763	147,97
581,96	178,69
582,156	115,2
582,353	166,4
582,549	186,88
582,746	117,25
582,942	68,09
583,139	223,74
583,335	150,01
583,532	158,21
583,728	109,05
583,925	176,64
584,121	244,22
584,318	221,69
584,514	268,8
584,711	205,31
584,907	289,28
585,103	240,12
585,3	358,91
585,496	492,02
585,693	1116,65
585,889	3766,73
586,085	8317,31
586,281	14395,68
586,478	21987,5
586,674	29618,24
586,87	38303,67
587,067	46962,48
587,263	52569,82
587,459	56108,71
587,655	59459,19
587,851	60302,95
588,048	59256,44
588,244	55770,8
588,44	52557,53
588,636	46597,94
588,832	39770,02
589,028	33386,5
589,224	27121,76
589,42	21338,3
589,617	15456,53
589,813	10287,46
590,009	6240,67
590,205	3875,27
590,401	2347,48
590,597	1475,05
590,793	1147,37
590,989	815,6
591,185	702,97
591,38	449,02
591,576	334,33
591,772	283,13
591,968	303,61
592,164	320
592,36	231,93
592,556	156,16
592,752	236,03
592,948	47,62
593,143	117,25
593,339	113,15
593,535	23,04
593,731	211,45
593,926	104,96
594,122	92,67
594,318	59,9
594,514	223,74
594,709	90,62
594,905	219,64
595,101	68,09
595,296	74,24
595,492	180,73
595,688	14,85
595,883	109,05
596,079	92,67
596,275	84,48
596,47	68,09
596,666	-1,54
596,861	96,77
597,057	39,42
597,252	18,94
597,448	80,38
597,643	145,92
597,839	115,2
598,034	107,01
598,23	20,99
598,425	80,38
598,621	88,57
598,816	131,58
599,011	2,56
599,207	47,62
599,402	61,95
599,597	104,96
599,793	76,29
599,988	80,38
600,183	29,18
600,379	141,82
600,574	92,67
600,769	113,15
600,965	72,19
601,16	72,19
601,355	31,23
601,55	170,49
601,745	57,86
601,941	104,96
602,136	107,01
602,331	2,56
602,526	90,62
602,721	104,96
602,916	64
603,111	35,33
603,307	88,57
603,502	178,69
603,697	8,7
603,892	82,43
604,087	104,96
604,282	152,06
604,477	170,49
604,672	41,47
604,867	78,33
605,062	16,9
605,257	137,73
605,452	219,64
605,646	96,77
605,841	80,38
606,036	74,24
606,231	-1,54
606,426	41,47
606,621	82,43
606,816	152,06
607,01	145,92
607,205	72,19
607,4	25,09
607,595	74,24
607,79	68,09
607,984	39,42
608,179	31,23
608,374	76,29
608,569	-3,58
608,763	-22,02
608,958	41,47
609,153	98,81
609,347	96,77
609,542	39,42
609,736	113,15
609,931	39,42
610,126	92,67
610,32	57,86
610,515	0,51
610,709	303,61
610,904	131,58
611,098	57,86
611,293	-7,68
611,487	150,01
611,682	-24,06
611,876	-34,3
612,071	61,95
612,265	55,81
612,46	-24,06
612,654	102,91
612,848	43,52
613,043	18,94
613,237	25,09
613,432	14,85
613,626	57,86
613,82	23,04
614,014	98,81
614,209	31,23
614,403	-3,58
614,597	43,52
614,792	100,86
614,986	61,95
615,18	154,11
615,374	139,77
615,568	133,63
615,763	57,86
615,957	25,09
616,151	129,53
616,345	86,53
616,539	72,19
616,733	14,85
616,927	80,38
617,121	35,33
617,316	31,23
617,51	96,77
617,704	113,15
617,898	195,07
618,092	33,28
618,286	84,48
618,48	18,94
618,674	154,11
618,868	121,34
619,061	2,56
619,255	121,34
619,449	57,86
619,643	27,14
619,837	139,77
620,031	10,75
620,225	64
620,419	31,23
620,612	152,06
620,806	57,86
621	119,29
621,194	-30,21
621,388	33,28
621,581	23,04
621,775	47,62
621,969	76,29
622,162	-32,26
622,356	68,09
622,55	55,81
622,743	-34,3
622,937	76,29
623,131	8,7
623,324	133,63
623,518	41,47
623,712	23,04
623,905	39,42
624,099	166,4
624,292	90,62
624,486	74,24
624,679	27,14
624,873	29,18
625,066	154,11
625,26	14,85
625,453	14,85
625,647	-60,93
625,84	47,62
626,034	137,73
626,227	80,38
626,42	49,66
626,614	51,71
626,807	162,3
627	31,23
627,194	74,24
627,387	10,75
627,58	8,7
627,774	92,67
627,967	88,57
628,16	-13,82
628,353	80,38
628,547	80,38
628,74	176,64
628,933	-26,11
629,126	129,53
629,319	55,81
629,513	49,66
629,706	64
629,899	76,29
630,092	23,04
630,285	-22,02
630,478	33,28
630,671	2,56
630,864	-56,83
631,057	41,47
631,25	121,34
631,443	64
631,636	39,42
631,829	82,43
632,022	170,49
632,215	-26,11
632,408	57,86
632,601	180,73
632,794	23,04
632,987	4,61
633,18	64
633,373	68,09
633,566	-105,98
633,758	4,61
633,951	-15,87
634,144	88,57
634,337	-11,78
634,53	107,01
634,722	100,86
634,915	23,04
635,108	-1,54
635,301	74,24
635,493	86,53
635,686	158,21
635,879	35,33
636,071	-26,11
636,264	74,24
636,457	227,84
636,649	-26,11
636,842	66,05
637,034	113,15
637,227	37,38
637,42	10,75
637,612	55,81
637,805	31,23
637,997	107,01
638,19	145,92
638,382	49,66
638,575	-30,21
638,767	47,62
638,96	96,77
639,152	57,86
639,344	139,77
639,537	23,04
639,729	47,62
639,922	109,05
640,114	109,05
640,306	59,9
640,499	90,62
640,691	-9,73
640,883	-58,88
641,075	39,42
641,268	147,97
641,46	72,19
641,652	61,95
641,844	31,23
642,037	64
642,229	96,77
642,421	119,29
642,613	88,57
642,805	-7,68
642,998	14,85
643,19	57,86
643,382	125,44
643,574	39,42
643,766	109,05
643,958	-17,92
644,15	121,34
644,342	203,26
644,534	102,91
644,726	-30,21
644,918	109,05
645,11	0,51
645,302	113,15
645,494	57,86
645,686	-17,92
645,878	20,99
646,07	76,29
646,262	80,38
646,453	6,66
646,645	53,76
646,837	98,81
647,029	25,09
647,221	14,85
647,413	47,62
647,604	-7,68
647,796	104,96
647,988	80,38
648,18	31,23
648,371	53,76
648,563	-26,11
648,755	55,81
648,947	59,9
649,138	14,85
649,33	80,38
649,521	14,85
649,713	88,57
649,905	55,81
650,096	31,23
650,288	104,96
650,479	37,38
650,671	76,29
650,863	29,18
651,054	-1,54
651,246	66,05
651,437	82,43
651,629	90,62
651,82	160,25
652,011	57,86
652,203	39,42
652,394	57,86
652,586	43,52
652,777	39,42
652,968	72,19
653,16	-89,6
653,351	66,05
653,542	145,92
653,734	150,01
653,925	27,14
654,116	64
654,308	55,81
654,499	39,42
654,69	31,23
654,881	49,66
655,073	-11,78
655,264	166,4
655,455	-40,45
655,646	107,01
655,837	109,05
656,028	76,29
656,219	8,7
656,411	-34,3
656,602	41,47
656,793	47,62
656,984	68,09
657,175	53,76
657,366	107,01
657,557	131,58
657,748	16,9
657,939	2,56
658,13	4,61
658,321	147,97
658,512	219,64
658,703	141,82
658,894	61,95
659,084	82,43
659,275	74,24
659,466	72,19
659,657	174,59
659,848	104,96
660,039	78,33
660,23	35,33
660,42	10,75
660,611	76,29
660,802	76,29
660,993	66,05
661,183	59,9
661,374	68,09
661,565	174,59
661,755	84,48
661,946	74,24
662,137	57,86
662,327	6,66
662,518	39,42
662,709	8,7
662,899	16,9
663,09	51,71
663,28	137,73
663,471	39,42
663,662	256,51
663,852	66,05
664,043	47,62
664,233	113,15
664,424	82,43
664,614	72,19
664,804	14,85
664,995	137,73
665,185	66,05
665,376	49,66
665,566	139,77
665,756	82,43
665,947	156,16
666,137	246,27
666,328	1014,26
666,518	2128,35
666,708	3795,4
666,898	5458,35
667,089	7698,83
667,279	9429,36
667,469	10987,86
667,659	12015,94
667,85	11999,56
668,04	12663,1
668,23	12140,87
668,42	11376,98
668,61	10682,72
668,8	9916,78
668,991	8698,24
669,181	7666,06
669,371	6676,89
669,561	5773,74
669,751	4954,55
669,941	4006,34
670,131	3060,18
670,321	2210,27
670,511	1403,37
670,701	915,95
670,891	592,37
671,081	459,26
671,271	330,23
671,461	195,07
671,651	211,45
671,841	168,45
672,03	129,53
672,22	90,62
672,41	113,15
672,6	131,58
672,79	162,3
672,98	107,01
673,169	64
673,359	39,42
673,549	47,62
673,739	-9,73
673,928	80,38
674,118	41,47
674,308	31,23
674,497	100,86
674,687	-60,93
674,877	43,52
675,066	23,04
675,256	59,9
675,446	96,77
675,635	6,66
675,825	2,56
676,014	59,9
676,204	80,38
676,393	82,43
676,583	57,86
676,772	70,14
676,962	14,85
677,151	57,86
677,341	0,51
677,53	121,34
677,72	129,53
677,909	133,63
678,099	-17,92
678,288	-7,68
678,477	113,15
678,667	55,81
678,856	72,19
679,045	74,24
679,235	80,38
679,424	82,43
679,613	133,63
679,802	80,38
679,992	66,05
680,181	39,42
680,37	145,92
680,559	14,85
680,748	39,42
680,938	147,97
681,127	14,85
681,316	135,68
681,505	72,19
681,694	90,62
681,883	90,62
682,072	23,04
682,261	66,05
682,45	-40,45
682,639	-54,78
682,828	96,77
683,017	172,54
683,206	-17,92
683,395	47,62
683,584	66,05
683,773	82,43
683,962	-34,3
684,151	66,05
684,34	-17,92
684,529	-1,54
684,718	39,42
684,907	25,09
685,095	39,42
685,284	147,97
685,473	96,77
685,662	27,14
685,851	100,86
686,039	113,15
686,228	16,9
686,417	-19,97
686,606	172,54
686,794	80,38
686,983	35,33
687,172	49,66
687,36	-19,97
687,549	-54,78
687,738	55,81
687,926	-9,73
688,115	39,42
688,303	39,42
688,492	154,11
688,68	2,56
688,869	6,66
689,057	-17,92
689,246	-50,69
689,434	78,33
689,623	29,18
689,811	64
690	31,23
690,188	-83,45
690,377	14,85
690,565	100,86
690,753	96,77
690,942	82,43
691,13	6,66
691,318	23,04
691,507	25,09
691,695	76,29
691,883	41,47
692,072	80,38
692,26	121,34
692,448	25,09
692,636	-73,21
692,824	-11,78
693,013	39,42
693,201	64
693,389	-50,69
693,577	49,66
693,765	80,38
693,953	129,53
694,141	-15,87
694,329	-7,68
694,518	115,2
694,706	51,71
694,894	14,85
695,082	55,81
695,27	64
695,458	64
695,646	123,39
695,834	102,91
696,022	90,62
696,209	20,99
696,397	84,48
696,585	74,24
696,773	35,33
696,961	41,47
697,149	10,75
697,337	131,58
697,525	100,86
697,712	31,23
697,9	145,92
698,088	53,76
698,276	80,38
698,463	55,81
698,651	80,38
698,839	55,81
699,027	80,38
699,214	92,67
699,402	41,47
699,59	37,38
699,777	20,99
699,965	33,28
700,152	72,19
700,34	6,66
700,528	72,19
700,715	-9,73
700,903	74,24
701,09	64
701,278	100,86
701,465	64
701,653	29,18
701,84	4,61
702,028	72,19
702,215	203,26
702,402	80,38
702,59	180,73
702,777	131,58
702,965	43,52
703,152	197,12
703,339	68,09
703,527	80,38
703,714	119,29
703,901	66,05
704,088	100,86
704,276	168,45
704,463	145,92
704,65	80,38
704,837	272,89
705,025	883,19
705,212	2734,55
705,399	6070,69
705,586	9374,06
705,773	13216,05
705,96	17258,74
706,147	19892,43
706,335	21909,68
706,522	23304,35
706,709	22649
706,896	22444,2
707,083	20838,59
707,27	19871,95
707,457	17967,34
707,644	16335,11
707,831	14432,55
708,018	12534,08
708,205	10738,01
708,392	9034,1
708,578	8010,12
708,765	6412,7
708,952	5314,99
709,139	4133,31
709,326	2871,76
709,513	2005,47
709,7	1266,16
709,886	893,43
710,073	762,36
710,26	514,55
710,447	358,91
710,633	268,8
710,82	279,04
711,007	113,15
711,193	102,91
711,38	186,88
711,567	102,91
711,753	137,73
711,94	156,16
712,127	111,1
712,313	145,92
712,5	49,66
712,686	72,19
712,873	31,23
713,059	66,05
713,246	172,54
713,432	59,9
713,619	-83,45
713,805	74,24
713,992	113,15
714,178	16,9
714,365	72,19
714,551	188,93
714,737	74,24
714,924	-97,79
715,11	57,86
715,297	47,62
715,483	64
715,669	92,67
715,855	35,33
716,042	141,82
716,228	64
716,414	150,01
716,6	23,04
716,787	72,19
716,973	57,86
717,159	113,15
717,345	-5,63
717,531	47,62
717,718	64
717,904	74,24
718,09	23,04
718,276	121,34
718,462	20,99
718,648	55,81
718,834	10,75
719,02	25,09
719,206	-50,69
719,392	-58,88
719,578	-3,58
719,764	14,85
719,95	-9,73
720,136	125,44
720,322	39,42
720,508	66,05
720,694	64
720,879	23,04
721,065	107,01
721,251	80,38
721,437	-17,92
721,623	41,47
721,809	113,15
721,994	117,25
722,18	0,51
722,366	109,05
722,552	-3,58
722,737	64
722,923	70,14
723,109	90,62
723,294	41,47
723,48	39,42
723,666	147,97
723,851	8,7
724,037	172,54
724,222	39,42
724,408	47,62
724,593	131,58
724,779	-1,54
724,965	49,66
725,15	29,18
725,336	35,33
725,521	162,3
725,706	-17,92
725,892	-1,54
726,077	31,23
726,263	16,9
726,448	127,49
726,634	107,01
726,819	260,6
727,004	539,13
727,19	965,11
727,375	1260,01
727,56	1599,98
727,745	1888,74
727,931	2259,42
728,116	2386,4
728,301	2304,48
728,486	2222,56
728,672	2015,71
728,857	1958,37
729,042	1833,44
729,227	1530,34
729,412	1399,27
729,597	1284,59
729,783	1092,08
729,968	829,94
730,153	788,98
730,338	680,44
730,523	641,53
730,708	481,78
730,893	383,48
731,078	350,71
731,263	176,64
731,448	104,96
731,633	88,57
731,818	72,19
732,003	-1,54
732,187	31,23
732,372	-19,97
732,557	107,01
732,742	-34,3
732,927	33,28
733,112	131,58
733,297	55,81
733,481	47,62
733,666	31,23
733,851	57,86
734,036	31,23
734,22	-15,87
734,405	254,46
734,59	41,47
734,774	-5,63
734,959	33,28
735,144	104,96
735,328	70,14
735,513	-30,21
735,698	-34,3
735,882	137,73
736,067	117,25
736,251	6,66
736,436	41,47
736,62	16,9
736,805	64
736,989	37,38
737,174	51,71
737,358	14,85
737,543	27,14
737,727	23,04
737,911	104,96
738,096	6,66
738,28	55,81
738,465	-9,73
738,649	14,85
738,833	88,57
739,018	-42,5
739,202	-7,68
739,386	6,66
739,57	47,62
739,755	14,85
739,939	96,77
740,123	-105,98
740,307	47,62
740,491	43,52
740,676	-30,21
740,86	47,62
741,044	82,43
741,228	150,01
741,412	-26,11
741,596	-7,68
741,78	-54,78
741,964	74,24
742,148	57,86
742,332	-9,73
742,516	-65,02
742,7	96,77
742,884	-26,11
743,068	-22,02
743,252	117,25
743,436	76,29
743,62	-81,41
743,804	123,39
743,988	88,57
744,172	96,77
744,356	-1,54
744,539	86,53
744,723	-69,12
744,907	-99,84
745,091	14,85
745,275	14,85
745,458	43,52
745,642	-15,87
745,826	137,73
746,009	80,38
746,193	25,09
746,377	92,67
746,56	6,66
746,744	88,57
746,928	66,05
747,111	39,42
747,295	25,09
747,478	-5,63
747,662	-17,92
747,846	74,24
748,029	74,24
748,213	16,9
748,396	23,04
748,58	64
748,763	74,24
748,946	-38,4
749,13	14,85
749,313	47,62
749,497	20,99
749,68	82,43
749,863	80,38
750,047	10,75
750,23	31,23
750,413	90,62
750,597	29,18
750,78	-32,26
750,963	10,75
751,146	31,23
751,33	64
751,513	23,04
751,696	10,75
751,879	57,86
752,062	-7,68
752,246	39,42
752,429	6,66
752,612	-1,54
752,795	-24,06
752,978	-15,87
753,161	-116,22
753,344	0,51
753,527	100,86
753,71	8,7
753,893	88,57
754,076	-40,45
754,259	94,72
754,442	14,85
754,625	6,66
754,808	107,01
754,991	86,53
755,174	35,33
755,357	-7,68
755,539	51,71
755,722	166,4
755,905	25,09
756,088	12,8
756,271	23,04
756,453	27,14
756,636	2,56
756,819	55,81
757,002	6,66
757,184	84,48
757,367	109,05
757,55	86,53
757,732	107,01
757,915	-26,11
758,098	107,01
758,28	10,75
758,463	-46,59
758,645	61,95
758,828	100,86
759,011	47,62
759,193	35,33
759,376	74,24
759,558	-1,54
759,741	-17,92
759,923	-1,54
760,105	31,23
760,288	31,23
760,47	-122,37
760,653	6,66
760,835	10,75
761,017	-58,88
761,2	-32,26
761,382	113,15
761,564	0,51
761,747	152,06
761,929	39,42
762,111	-83,45
762,294	43,52
762,476	231,93
762,658	86,53
762,84	158,21
763,022	-34,3
763,205	115,2
763,387	117,25
763,569	72,19
763,751	-118,27
763,933	-28,16
764,115	-24,06
764,297	57,86
764,479	70,14
764,661	55,81
764,843	64
765,025	-17,92
765,207	25,09
765,389	-15,87
765,571	-91,65
765,753	-9,73
765,935	-15,87
766,117	47,62
766,299	98,81
766,481	88,57
766,663	-9,73
766,845	-28,16
767,026	96,77
767,208	-1,54
767,39	-56,83
767,572	90,62
767,753	88,57
767,935	-9,73
768,117	2,56
768,299	139,77
768,48	39,42
768,662	45,57
768,844	23,04
769,025	88,57
769,207	-28,16
769,389	-42,5
769,57	47,62
769,752	39,42
769,933	-9,73
770,115	37,38
770,296	-7,68
770,478	90,62
770,659	-28,16
770,841	276,99
771,022	39,42
771,204	23,04
771,385	18,94
771,567	111,1
771,748	139,77
771,929	33,28
772,111	16,9
772,292	47,62
772,473	33,28
772,655	47,62
772,836	39,42
773,017	96,77
773,199	74,24
773,38	66,05
773,561	74,24
773,742	80,38
773,923	-9,73
774,105	90,62
774,286	55,81
774,467	45,57
774,648	-116,22
774,829	74,24
775,01	6,66
775,191	-32,26
775,372	27,14
775,553	66,05
775,734	-56,83
775,915	-28,16
776,096	55,81
776,277	37,38
776,458	23,04
776,639	78,33
776,82	123,39
777,001	41,47
777,182	70,14
777,363	-24,06
777,544	59,9
777,725	68,09
777,906	23,04
778,086	115,2
778,267	129,53
778,448	8,7
778,629	23,04
778,809	115,2
778,99	82,43
779,171	-17,92
779,352	6,66
779,532	-40,45
779,713	-50,69
779,894	39,42
780,074	121,34
780,255	43,52
780,435	94,72
780,616	55,81
780,797	72,19
780,977	23,04
781,158	-5,63
781,338	0,51
781,519	-42,5
781,699	123,39
781,88	27,14
782,06	41,47
782,241	0,51
782,421	-114,17
782,601	39,42
782,782	72,19
782,962	74,24
783,142	8,7
783,323	-9,73
783,503	121,34
783,683	33,28
783,864	-9,73
784,044	92,67
784,224	2,56
784,404	41,47
784,585	158,21
784,765	39,42
784,945	64
785,125	8,7
785,305	84,48
785,485	145,92
785,666	70,14
785,846	-24,06
786,026	-48,64
786,206	-34,3
786,386	84,48
786,566	66,05
786,746	100,86
786,926	39,42
787,106	10,75
787,286	59,9
787,466	-26,11
787,646	23,04
787,826	-42,5
788,006	178,69
788,185	14,85
788,365	-34,3
788,545	131,58
788,725	55,81
788,905	80,38
789,085	96,77
789,264	-7,68
789,444	88,57
789,624	23,04
789,804	-62,98
789,983	0,51
790,163	20,99
790,343	23,04
790,522	80,38
790,702	59,9
790,882	8,7
791,061	43,52
791,241	6,66
791,42	2,56
791,6	45,57
791,78	23,04
791,959	-50,69
792,139	-30,21
792,318	-17,92
792,498	29,18
792,677	88,57
792,856	0,51
793,036	2,56
793,215	12,8
793,395	96,77
793,574	53,76
793,753	-17,92
793,933	55,81
794,112	80,38
794,291	35,33
794,471	109,05
794,65	14,85
794,829	-38,4
795,008	6,66
795,188	96,77
795,367	64
795,546	80,38
795,725	43,52
795,904	72,19
796,084	2,56
796,263	86,53
796,442	168,45
796,621	55,81
796,8	72,19
796,979	109,05
797,158	-5,63
797,337	31,23
797,516	109,05
797,695	96,77
797,874	121,34
798,053	115,2
798,232	84,48
798,411	-34,3
798,59	88,57
798,769	43,52
798,947	80,38
799,126	35,33
799,305	31,23
799,484	23,04
799,663	31,23
799,842	59,9
800,02	8,7
800,199	-34,3
800,378	129,53
800,557	8,7
800,735	-58,88
800,914	31,23
801,093	35,33
801,271	2,56
801,45	64
801,628	125,44
801,807	43,52
801,986	47,62
802,164	10,75
802,343	25,09
802,521	-77,31
802,7	98,81
802,878	98,81
803,057	39,42
803,235	23,04
803,414	-40,45
803,592	100,86
803,771	25,09
803,949	59,9
804,127	41,47
804,306	90,62
804,484	39,42
804,662	23,04
804,841	-122,37
805,019	57,86
805,197	23,04
805,375	55,81
805,554	33,28
805,732	-40,45
805,91	12,8
806,088	10,75
806,266	-24,06
806,445	37,38
806,623	55,81
806,801	104,96
806,979	55,81
807,157	18,94
807,335	23,04
807,513	41,47
807,691	139,77
807,869	-19,97
808,047	23,04
808,225	-54,78
808,403	-17,92
808,581	27,14
808,759	158,21
808,937	104,96
809,115	111,1
809,293	113,15
809,471	29,18
809,649	49,66
809,826	137,73
810,004	12,8
810,182	-17,92
810,36	-3,58
810,538	109,05
810,715	39,42
810,893	-34,3
811,071	86,53
811,248	57,86
811,426	66,05
811,604	41,47
811,781	68,09
811,959	47,62
812,137	68,09
812,314	25,09
812,492	53,76
812,669	6,66
812,847	-11,78
813,024	-81,41
813,202	104,96
813,379	0,51
813,557	-22,02
813,734	80,38
813,912	61,95
814,089	39,42
814,267	135,68
814,444	8,7
814,621	84,48
814,799	-9,73
814,976	90,62
815,153	27,14
815,331	-28,16
815,508	-50,69
815,685	18,94
815,862	43,52
816,04	41,47
816,217	-32,26
816,394	14,85
816,571	33,28
816,748	252,41
816,926	33,28
817,103	281,08
817,28	10,75
817,457	-36,35
817,634	82,43
817,811	-32,26
817,988	14,85
818,165	0,51
818,342	64
818,519	66,05
818,696	-81,41
818,873	-58,88
819,05	74,24
819,227	33,28
819,404	-15,87
819,581	8,7
819,758	-22,02
819,934	55,81
820,111	-58,88
820,288	16,9
820,465	131,58
820,642	59,9
820,818	14,85
820,995	113,15
821,172	88,57
821,349	64
821,525	104,96
821,702	39,42
821,879	14,85
822,055	64
822,232	14,85
822,409	23,04
822,585	66,05
822,762	55,81
822,938	94,72
823,115	23,04
823,291	33,28
823,468	131,58
823,644	-38,4
823,821	113,15
823,997	-40,45
824,174	-30,21
824,35	39,42
824,527	156,16
824,703	16,9
824,879	-15,87
825,056	-22,02
825,232	137,73
825,408	-9,73
825,585	0,51
825,761	33,28
825,937	39,42
826,113	-24,06
826,29	55,81
826,466	-26,11
826,642	418,3
826,818	25,09
826,994	31,23
827,17	-56,83
827,347	6,66
827,523	-108,03
827,699	49,66
827,875	18,94
828,051	25,09
828,227	57,86
828,403	66,05
828,579	84,48
828,755	78,33
828,931	47,62
829,107	84,48
829,283	160,25
829,459	-26,11
829,635	-15,87
829,811	43,52
829,986	39,42
830,162	-1,54
830,338	55,81
830,514	-67,07
830,69	8,7
830,865	-1,54
831,041	-30,21
831,217	33,28
831,393	-32,26
831,568	-1,54
831,744	100,86
831,92	35,33
832,095	-5,63
832,271	-50,69
832,447	74,24
832,622	133,63
832,798	55,81
832,973	18,94
833,149	55,81
833,325	8,7
833,5	-26,11
833,676	41,47
833,851	57,86
834,027	6,66
834,202	113,15
834,377	104,96
834,553	14,85
834,728	129,53
834,904	16,9
835,079	72,19
835,254	47,62
835,43	-13,82
835,605	55,81
835,78	23,04
835,955	2,56
836,131	31,23
836,306	-40,45
836,481	10,75
836,656	64
836,832	53,76
837,007	-34,3
837,182	-15,87
837,357	6,66
837,532	8,7
837,707	41,47
837,882	-40,45
838,057	-5,63
838,232	137,73
838,407	49,66
838,582	23,04
838,757	137,73
838,932	72,19
839,107	29,18
839,282	8,7
839,457	64
839,632	90,62
839,807	82,43
839,982	10,75
840,157	-17,92
840,332	104,96
840,506	31,23
840,681	-1,54
840,856	80,38
841,031	4,61
841,205	31,23
841,38	-1,54
841,555	14,85
841,73	-17,92
841,904	14,85
842,079	-17,92
842,254	43,52
842,428	16,9
842,603	-32,26
842,777	-15,87
842,952	-46,59
843,126	-5,63
843,301	35,33
843,476	47,62
843,65	104,96
843,825	104,96
843,999	72,19
844,173	23,04
844,348	43,52
844,522	59,9
844,697	37,38
844,871	27,14
845,045	72,19
845,22	45,57
845,394	25,09
845,568	-71,17
845,743	107,01
845,917	-17,92
846,091	23,04
846,265	-24,06
846,44	82,43
846,614	2,56
846,788	-15,87
846,962	20,99
847,136	18,94
847,31	-36,35
847,485	113,15
847,659	47,62
847,833	80,38
848,007	53,76
848,181	55,81
848,355	-50,69
848,529	96,77
848,703	82,43
848,877	-79,36
849,051	39,42
849,225	88,57
849,399	-26,11
849,573	-9,73
849,746	-30,21
849,92	47,62
850,094	72,19
850,268	33,28
850,442	59,9
850,616	27,14
850,789	-1,54
850,963	-36,35
851,137	-34,3
851,311	203,26
851,484	96,77
851,658	31,23
851,832	14,85
852,005	23,04
852,179	6,66
852,352	35,33
852,526	-26,11
852,7	14,85
852,873	-34,3
853,047	137,73
853,22	-17,92
853,394	64
853,567	-22,02
853,741	39,42
853,914	23,04
854,088	8,7
854,261	31,23
854,434	-24,06
854,608	49,66
854,781	-112,13
854,955	66,05
855,128	53,76
855,301	20,99
855,475	14,85
855,648	8,7
855,821	47,62
855,994	129,53
856,168	55,81
856,341	113,15
856,514	-101,89
856,687	72,19
856,86	64
857,033	137,73
857,207	117,25
857,38	16,9
857,553	92,67
857,726	-17,92
857,899	152,06
858,072	6,66
858,245	20,99
858,418	-42,5
858,591	6,66
858,764	-7,68
858,937	-19,97
859,11	121,34
859,283	59,9
859,455	-15,87
859,628	-24,06
859,801	82,43
859,974	104,96
860,147	-114,17
860,32	109,05
860,492	-17,92
860,665	-40,45
860,838	33,28
861,011	78,33
861,183	109,05
861,356	125,44
861,529	43,52
861,701	8,7
861,874	35,33
862,047	135,68
862,219	25,09
862,392	57,86
862,564	-26,11
862,737	-5,63
862,909	107,01
863,082	43,52
863,254	57,86
863,427	94,72
863,599	121,34
863,772	47,62
863,944	43,52
864,117	-73,21
864,289	64
864,461	23,04
864,634	66,05
864,806	25,09
864,978	64
865,151	0,51
865,323	125,44
865,495	107,01
865,667	-9,73
865,84	139,77
866,012	16,9
866,184	133,63
866,356	-9,73
866,528	72,19
866,7	59,9
866,873	-17,92
867,045	-48,64
867,217	-38,4
867,389	39,42
867,561	-48,64
867,733	31,23
867,905	16,9
868,077	55,81
868,249	57,86
868,421	76,29
868,593	53,76
868,765	113,15
868,936	-26,11
869,108	66,05
869,28	6,66
869,452	8,7
869,624	-17,92
869,796	55,81
869,968	47,62
870,139	98,81
870,311	47,62
870,483	139,77
870,654	6,66
870,826	-19,97
870,998	2,56
871,17	27,14
871,341	33,28
871,513	190,97
871,684	-7,68
871,856	41,47
872,028	39,42
872,199	8,7
872,371	23,04
872,542	23,04
872,714	45,57
872,885	72,19
873,057	-46,59
873,228	-3,58
873,4	100,86
873,571	139,77
873,742	-62,98
873,914	107,01
874,085	64
874,256	96,77
874,428	-50,69
874,599	-60,93
874,77	154,11
874,942	0,51
875,113	-1,54
875,284	-26,11
875,455	-75,26
875,626	25,09
875,798	-17,92
875,969	2,56
876,14	18,94
876,311	137,73
876,482	74,24
876,653	55,81
876,824	49,66
876,995	96,77
877,166	64
877,337	8,7
877,508	-17,92
877,679	10,75
877,85	23,04
878,021	-9,73
878,192	49,66
878,363	6,66
878,534	16,9
878,705	-24,06
878,876	-17,92
879,047	92,67
879,217	-17,92
879,388	18,94
879,559	88,57
879,73	98,81
879,9	31,23
880,071	10,75
880,242	27,14
880,413	-1,54
880,583	80,38
880,754	41,47
880,924	23,04
881,095	-7,68
881,266	-34,3
881,436	66,05
881,607	113,15
881,777	104,96
881,948	6,66
882,118	145,92
882,289	-30,21
882,459	-30,21
882,63	121,34
882,8	123,39
882,971	-46,59
883,141	2,56
883,311	72,19
883,482	66,05
883,652	53,76
883,822	-24,06
883,993	31,23
884,163	39,42
884,333	-1,54
884,504	115,2
884,674	164,35
884,844	29,18
885,014	55,81
885,184	47,62
885,355	-54,78
885,525	-15,87
885,695	123,39
885,865	129,53
886,035	57,86
886,205	55,81
886,375	96,77
886,545	74,24
886,715	-30,21
886,885	74,24
887,055	-1,54
887,225	39,42
887,395	-81,41
887,565	98,81
887,735	23,04
887,905	107,01
888,075	-26,11
888,244	100,86
888,414	74,24
888,584	121,34
888,754	16,9
888,924	25,09
889,093	121,34
889,263	-9,73
889,433	129,53
889,603	33,28
889,772	18,94
889,942	47,62
890,111	107,01
890,281	109,05
890,451	39,42
890,62	72,19
890,79	-5,63
890,959	16,9
891,129	29,18
891,298	16,9
891,468	49,66
891,637	51,71
891,807	14,85
891,976	119,29
892,146	39,42
892,315	84,48
892,485	64
892,654	-7,68
892,823	25,09
892,993	2,56
893,162	80,38
893,331	100,86
893,501	-1,54
893,67	-34,3
893,839	14,85
894,008	14,85
894,177	96,77
894,347	6,66
894,516	0,51
894,685	72,19
894,854	39,42
895,023	-9,73
895,192	6,66
