Data from he_USB4F104161__31__11-53-38-424.txt Node

Date: Tue Apr 14 11:53:38 EDT 2026
User: LaboPhy
Spectrometer: USB4F10416
Trigger mode: 4
Integration Time (sec): 1,000000E-1
Scans to average: 1
Electric dark correction enabled: true
Nonlinearity correction enabled: false
Boxcar width: 0
XAxis mode: Wavelengths
Number of Pixels in Spectrum: 3648
>>>>>Begin Spectral Data<<<<<
177,847	-272,21
178,066	-272,21
178,284	-272,21
178,502	-173,91
178,72	-165,71
178,939	63,66
179,157	92,33
179,375	-20,31
179,593	-44,88
179,812	-3,93
180,03	53,42
180,248	-14,17
180,466	-14,17
180,685	-40,79
180,903	-10,07
181,121	-53,08
181,339	-8,02
181,557	-73,56
181,775	-20,31
181,994	28,84
182,212	-36,69
182,43	4,27
182,648	-8,02
182,866	6,31
183,084	84,14
183,302	-75,6
183,52	-16,21
183,739	65,71
183,957	73,9
184,175	-3,93
184,393	65,71
184,611	61,61
184,829	-75,6
185,047	-53,08
185,265	69,8
185,483	28,84
185,701	94,38
185,919	77,99
186,137	-3,93
186,355	94,38
186,573	30,89
186,791	28,84
187,009	14,51
187,227	73,9
187,445	2,22
187,663	-20,31
187,881	-24,4
188,098	39,08
188,316	86,19
188,534	135,34
188,752	-3,93
188,97	-91,99
189,188	-20,31
189,406	168,1
189,624	-8,02
189,841	57,51
190,059	-149,33
190,277	-26,45
190,495	-53,08
190,713	45,23
190,931	116,9
191,148	20,65
191,366	57,51
191,584	6,31
191,802	47,27
192,019	49,32
192,237	0,17
192,455	53,42
192,673	82,09
192,89	-32,6
193,108	61,61
193,326	-96,08
193,543	4,27
193,761	102,57
193,979	18,6
194,196	-28,5
194,414	12,46
194,632	106,67
194,849	-118,61
195,067	-118,61
195,285	80,04
195,502	-65,36
195,72	-10,07
195,937	0,17
196,155	32,94
196,373	32,94
196,59	-38,74
196,808	49,32
197,025	-20,31
197,243	211,11
197,46	104,62
197,678	67,75
197,895	0,17
198,113	102,57
198,33	-40,79
198,548	16,55
198,765	8,36
198,983	94,38
199,2	-8,02
199,418	82,09
199,635	-10,07
199,853	12,46
200,07	16,55
200,288	37,03
200,505	45,23
200,722	112,81
200,94	69,8
201,157	53,42
201,375	57,51
201,592	6,31
201,809	6,31
202,027	45,23
202,244	77,99
202,461	32,94
202,679	12,46
202,896	61,61
203,113	-12,12
203,331	80,04
203,548	-18,26
203,765	22,7
203,982	88,23
204,2	-130,9
204,417	-40,79
204,634	147,62
204,851	18,6
205,069	77,99
205,286	24,75
205,503	-10,07
205,72	8,36
205,937	10,41
206,155	-98,13
206,372	82,09
206,589	-12,12
206,806	71,85
207,023	47,27
207,24	16,55
207,458	-36,69
207,675	-3,93
207,892	-1,88
208,109	-3,93
208,326	8,36
208,543	22,7
208,76	-51,03
208,977	57,51
209,194	57,51
209,411	-8,02
209,628	-48,98
209,845	63,66
210,062	10,41
210,279	-59,22
210,496	4,27
210,713	-61,27
210,93	4,27
211,147	106,67
211,364	-24,4
211,581	0,17
211,798	45,23
212,015	-59,22
212,232	-36,69
212,449	4,27
212,666	12,46
212,883	-81,75
213,1	-91,99
213,317	-32,6
213,533	18,6
213,75	-53,08
213,967	-53,08
214,184	-42,84
214,401	39,08
214,618	24,75
214,835	12,46
215,051	90,28
215,268	37,03
215,485	80,04
215,702	-1,88
215,919	-20,31
216,135	166,06
216,352	-32,6
216,569	-73,56
216,786	22,7
217,002	0,17
217,219	-10,07
217,436	24,75
217,652	0,17
217,869	61,61
218,086	86,19
218,302	37,03
218,519	69,8
218,736	49,32
218,952	-28,5
219,169	39,08
219,386	18,6
219,602	47,27
219,819	6,31
220,036	-53,08
220,252	108,71
220,469	-44,88
220,685	77,99
220,902	28,84
221,118	-3,93
221,335	20,65
221,552	-53,08
221,768	67,75
221,985	4,27
222,201	6,31
222,418	45,23
222,634	-69,46
222,851	-12,12
223,067	12,46
223,284	-20,31
223,5	55,47
223,716	-1,88
223,933	45,23
224,149	0,17
224,366	45,23
224,582	-65,36
224,799	-36,69
225,015	2,22
225,231	61,61
225,448	-53,08
225,664	77,99
225,88	12,46
226,097	77,99
226,313	-63,32
226,529	-55,12
226,746	28,84
226,962	47,27
227,178	53,42
227,395	-44,88
227,611	-53,08
227,827	-44,88
228,044	53,42
228,26	110,76
228,476	12,46
228,692	88,23
228,909	51,37
229,125	0,17
229,341	16,55
229,557	-24,4
229,773	12,46
229,99	-48,98
230,206	-10,07
230,422	-61,27
230,638	-28,5
230,854	57,51
231,07	-110,42
231,286	73,9
231,503	4,27
231,719	-44,88
231,935	16,55
232,151	28,84
232,367	104,62
232,583	102,57
232,799	63,66
233,015	77,99
233,231	-28,5
233,447	16,55
233,663	22,7
233,879	-20,31
234,095	-32,6
234,311	-20,31
234,527	37,03
234,743	-16,21
234,959	37,03
235,175	-34,64
235,391	20,65
235,607	43,18
235,823	-1,88
236,039	12,46
236,255	14,51
236,471	-20,31
236,687	39,08
236,903	26,79
237,118	53,42
237,334	-36,69
237,55	67,75
237,766	-44,88
237,982	90,28
238,198	24,75
238,413	28,84
238,629	129,19
238,845	-1,88
239,061	-8,02
239,277	-14,17
239,492	-83,8
239,708	30,89
239,924	4,27
240,14	22,7
240,355	86,19
240,571	55,47
240,787	-48,98
241,003	102,57
241,218	14,51
241,434	-3,93
241,65	69,8
241,865	-26,45
242,081	168,1
242,297	-44,88
242,512	12,46
242,728	28,84
242,944	-32,6
243,159	55,47
243,375	-48,98
243,59	-20,31
243,806	-1,88
244,022	73,9
244,237	41,13
244,453	20,65
244,668	37,03
244,884	94,38
245,099	77,99
245,315	104,62
245,53	24,75
245,746	96,43
245,961	4,27
246,177	88,23
246,392	67,75
246,608	55,47
246,823	-53,08
247,039	-28,5
247,254	-12,12
247,47	71,85
247,685	-22,36
247,9	-42,84
248,116	-3,93
248,331	-3,93
248,547	88,23
248,762	4,27
248,977	73,9
249,193	28,84
249,408	-26,45
249,623	10,41
249,839	16,55
250,054	-135
250,269	12,46
250,485	30,89
250,7	18,6
250,915	4,27
251,13	34,99
251,346	-44,88
251,561	121
251,776	4,27
251,991	-1,88
252,207	176,3
252,422	6,31
252,637	18,6
252,852	28,84
253,067	-1,88
253,283	41,13
253,498	4,27
253,713	28,84
253,928	-42,84
254,143	22,7
254,358	18,6
254,573	-42,84
254,788	4,27
255,004	30,89
255,219	-85,84
255,434	-10,07
255,649	-18,26
255,864	55,47
256,079	-59,22
256,294	-34,64
256,509	-32,6
256,724	30,89
256,939	-42,84
257,154	53,42
257,369	-42,84
257,584	4,27
257,799	-40,79
258,014	-91,99
258,229	6,31
258,444	16,55
258,659	53,42
258,874	-12,12
259,089	77,99
259,304	-22,36
259,518	-36,69
259,733	67,75
259,948	82,09
260,163	114,86
260,378	22,7
260,593	39,08
260,808	-1,88
261,022	-149,33
261,237	-3,93
261,452	8,36
261,667	65,71
261,882	86,19
262,096	94,38
262,311	121
262,526	-61,27
262,741	-22,36
262,955	-36,69
263,17	39,08
263,385	-20,31
263,6	88,23
263,814	-36,69
264,029	-91,99
264,244	69,8
264,458	22,7
264,673	-12,12
264,888	47,27
265,102	43,18
265,317	0,17
265,532	0,17
265,746	75,95
265,961	77,99
266,175	53,42
266,39	-53,08
266,605	-8,02
266,819	-1,88
267,034	92,33
267,248	-81,75
267,463	-36,69
267,677	41,13
267,892	30,89
268,106	-36,69
268,321	47,27
268,535	69,8
268,75	94,38
268,964	-3,93
269,179	53,42
269,393	-36,69
269,608	57,51
269,822	2,22
270,036	-94,04
270,251	-44,88
270,465	-67,41
270,68	24,75
270,894	32,94
271,108	112,81
271,323	-10,07
271,537	39,08
271,752	65,71
271,966	65,71
272,18	-34,64
272,394	6,31
272,609	20,65
272,823	45,23
273,037	-44,88
273,252	77,99
273,466	2,22
273,68	92,33
273,894	-16,21
274,109	39,08
274,323	20,65
274,537	12,46
274,751	-61,27
274,966	32,94
275,18	-94,04
275,394	-57,17
275,608	-55,12
275,822	-18,26
276,036	34,99
276,25	47,27
276,465	18,6
276,679	4,27
276,893	32,94
277,107	77,99
277,321	-65,36
277,535	65,71
277,749	135,34
277,963	102,57
278,177	-53,08
278,391	49,32
278,605	-65,36
278,819	104,62
279,033	34,99
279,247	-42,84
279,461	14,51
279,675	69,8
279,889	4,27
280,103	65,71
280,317	69,8
280,531	-36,69
280,745	-1,88
280,959	-18,26
281,173	4,27
281,387	82,09
281,601	65,71
281,815	145,58
282,029	8,36
282,242	30,89
282,456	82,09
282,67	8,36
282,884	-34,64
283,098	-40,79
283,312	4,27
283,525	4,27
283,739	-18,26
283,953	-44,88
284,167	69,8
284,381	45,23
284,594	6,31
284,808	-89,94
285,022	-79,7
285,235	-34,64
285,449	-22,36
285,663	4,27
285,877	-48,98
286,09	-44,88
286,304	-20,31
286,518	-18,26
286,731	-32,6
286,945	-12,12
287,159	-85,84
287,372	-75,6
287,586	-46,93
287,799	71,85
288,013	-14,17
288,227	26,79
288,44	241,83
288,654	61,61
288,867	8,36
289,081	22,7
289,294	28,84
289,508	151,72
289,721	22,7
289,935	53,42
290,148	8,36
290,362	77,99
290,575	53,42
290,789	-3,93
291,002	-28,5
291,216	94,38
291,429	-28,5
291,643	51,37
291,856	-8,02
292,069	51,37
292,283	-20,31
292,496	8,36
292,71	57,51
292,923	14,51
293,136	-85,84
293,35	-34,64
293,563	12,46
293,776	-85,84
293,99	-3,93
294,203	14,51
294,416	121
294,63	53,42
294,843	-3,93
295,056	20,65
295,269	-1,88
295,483	-51,03
295,696	51,37
295,909	4,27
296,122	0,17
296,335	28,84
296,549	102,57
296,762	20,65
296,975	14,51
297,188	14,51
297,401	55,47
297,615	63,66
297,828	16,55
298,041	-32,6
298,254	-67,41
298,467	45,23
298,68	-36,69
298,893	6,31
299,106	-5,97
299,319	45,23
299,532	18,6
299,745	-42,84
299,958	-53,08
300,171	-44,88
300,384	-46,93
300,598	-16,21
300,81	49,32
301,023	-94,04
301,236	-100,18
301,449	-69,46
301,662	-12,12
301,875	-44,88
302,088	-24,4
302,301	-53,08
302,514	-51,03
302,727	39,08
302,94	-69,46
303,153	-16,21
303,366	22,7
303,579	-48,98
303,791	39,08
304,004	-48,98
304,217	110,76
304,43	55,47
304,643	30,89
304,855	-42,84
305,068	71,85
305,281	20,65
305,494	26,79
305,707	61,61
305,919	151,72
306,132	-28,5
306,345	53,42
306,558	98,47
306,77	-132,95
306,983	55,47
307,196	75,95
307,408	-10,07
307,621	26,79
307,834	-5,97
308,046	8,36
308,259	-59,22
308,472	22,7
308,684	22,7
308,897	-53,08
309,109	-75,6
309,322	28,84
309,535	28,84
309,747	106,67
309,96	6,31
310,172	61,61
310,385	39,08
310,597	-3,93
310,81	12,46
311,022	-30,55
311,235	-18,26
311,447	-42,84
311,66	-18,26
311,872	118,95
312,085	43,18
312,297	12,46
312,51	-132,95
312,722	-32,6
312,934	82,09
313,147	-67,41
313,359	-71,51
313,572	-48,98
313,784	20,65
313,996	34,99
314,209	135,34
314,421	-28,5
314,633	-48,98
314,846	4,27
315,058	49,32
315,27	30,89
315,483	-26,45
315,695	43,18
315,907	-18,26
316,119	-20,31
316,332	-36,69
316,544	88,23
316,756	49,32
316,968	-1,88
317,181	20,65
317,393	-32,6
317,605	73,9
317,817	88,23
318,029	112,81
318,241	73,9
318,454	110,76
318,666	168,1
318,878	-16,21
319,09	82,09
319,302	145,58
319,514	94,38
319,726	110,76
319,938	112,81
320,15	131,24
320,362	-55,12
320,574	-75,6
320,786	-32,6
320,999	-53,08
321,211	37,03
321,423	37,03
321,635	2,22
321,847	49,32
322,058	8,36
322,27	112,81
322,482	39,08
322,694	77,99
322,906	32,94
323,118	-3,93
323,33	47,27
323,542	6,31
323,754	8,36
323,966	-67,41
324,178	26,79
324,389	14,51
324,601	143,53
324,813	-85,84
325,025	69,8
325,237	-83,8
325,449	8,36
325,66	0,17
325,872	-53,08
326,084	-28,5
326,296	-8,02
326,507	22,7
326,719	-44,88
326,931	-12,12
327,143	139,43
327,354	110,76
327,566	18,6
327,778	98,47
327,989	4,27
328,201	-12,12
328,413	-14,17
328,624	73,9
328,836	22,7
329,048	-81,75
329,259	0,17
329,471	-8,02
329,682	-28,5
329,894	4,27
330,106	-61,27
330,317	32,94
330,529	-1,88
330,74	-61,27
330,952	-16,21
331,163	-42,84
331,375	86,19
331,586	69,8
331,798	-28,5
332,009	-69,46
332,221	28,84
332,432	100,52
332,644	32,94
332,855	-98,13
333,067	-28,5
333,278	8,36
333,489	37,03
333,701	-24,4
333,912	-85,84
334,124	20,65
334,335	-51,03
334,546	0,17
334,758	22,7
334,969	110,76
335,18	-34,64
335,392	-26,45
335,603	102,57
335,814	47,27
336,025	-51,03
336,237	30,89
336,448	-69,46
336,659	28,84
336,87	161,96
337,082	143,53
337,293	4,27
337,504	4,27
337,715	-10,07
337,926	-20,31
338,138	-12,12
338,349	-20,31
338,56	63,66
338,771	-98,13
338,982	12,46
339,193	-26,45
339,404	63,66
339,616	55,47
339,827	-18,26
340,038	-147,28
340,249	-18,26
340,46	-85,84
340,671	45,23
340,882	28,84
341,093	-5,97
341,304	-61,27
341,515	-28,5
341,726	-55,12
341,937	43,18
342,148	20,65
342,359	-53,08
342,57	-32,6
342,781	98,47
342,992	-16,21
343,203	-34,64
343,414	69,8
343,624	-53,08
343,835	20,65
344,046	24,75
344,257	-3,93
344,468	-81,75
344,679	-104,28
344,89	0,17
345,1	-42,84
345,311	-24,4
345,522	-3,93
345,733	77,99
345,944	39,08
346,154	6,31
346,365	104,62
346,576	6,31
346,787	-3,93
346,997	24,75
347,208	16,55
347,419	-100,18
347,629	86,19
347,84	18,6
348,051	-53,08
348,261	-5,97
348,472	-18,26
348,683	30,89
348,893	-77,65
349,104	-12,12
349,315	-67,41
349,525	-44,88
349,736	30,89
349,946	6,31
350,157	100,52
350,368	55,47
350,578	-94,04
350,789	20,65
350,999	26,79
351,21	43,18
351,42	6,31
351,631	0,17
351,841	-40,79
352,052	-10,07
352,262	30,89
352,472	-14,17
352,683	-61,27
352,893	12,46
353,104	-102,23
353,314	69,8
353,525	301,22
353,735	-24,4
353,945	-75,6
354,156	-61,27
354,366	-18,26
354,576	53,42
354,787	24,75
354,997	-40,79
355,207	-73,56
355,418	45,23
355,628	-28,5
355,838	37,03
356,048	-14,17
356,259	88,23
356,469	24,75
356,679	2,22
356,889	28,84
357,1	-81,75
357,31	20,65
357,52	-28,5
357,73	-40,79
357,94	12,46
358,15	4,27
358,361	-71,51
358,571	61,61
358,781	41,13
358,991	-122,71
359,201	12,46
359,411	6,31
359,621	-108,37
359,831	112,81
360,041	-36,69
360,251	47,27
360,461	-26,45
360,672	39,08
360,882	-79,7
361,092	61,61
361,302	88,23
361,512	45,23
361,721	-61,27
361,931	45,23
362,141	-1,88
362,351	-40,79
362,561	55,47
362,771	39,08
362,981	16,55
363,191	-20,31
363,401	-28,5
363,611	-3,93
363,821	-44,88
364,03	-77,65
364,24	53,42
364,45	71,85
364,66	311,46
364,87	-57,17
365,08	88,23
365,289	-3,93
365,499	63,66
365,709	12,46
365,919	20,65
366,128	-42,84
366,338	57,51
366,548	-143,19
366,758	-38,74
366,967	-12,12
367,177	82,09
367,387	65,71
367,596	20,65
367,806	125,1
368,016	-32,6
368,225	-8,02
368,435	102,57
368,644	-16,21
368,854	-3,93
369,064	20,65
369,273	114,86
369,483	12,46
369,692	-48,98
369,902	-32,6
370,111	73,9
370,321	39,08
370,53	71,85
370,74	14,51
370,949	45,23
371,159	45,23
371,368	86,19
371,578	-26,45
371,787	22,7
371,997	-67,41
372,206	94,38
372,416	20,65
372,625	24,75
372,834	20,65
373,044	-12,12
373,253	-16,21
373,462	77,99
373,672	65,71
373,881	47,27
374,09	30,89
374,3	37,03
374,509	-12,12
374,718	-73,56
374,928	110,76
375,137	-16,21
375,346	18,6
375,555	104,62
375,765	-26,45
375,974	12,46
376,183	43,18
376,392	18,6
376,601	49,32
376,811	110,76
377,02	98,47
377,229	20,65
377,438	77,99
377,647	-51,03
377,856	-77,65
378,065	20,65
378,275	-40,79
378,484	4,27
378,693	0,17
378,902	-1,88
379,111	55,47
379,32	-59,22
379,529	-3,93
379,738	55,47
379,947	22,7
380,156	49,32
380,365	-77,65
380,574	90,28
380,783	82,09
380,992	-28,5
381,201	20,65
381,41	-36,69
381,619	69,8
381,828	53,42
382,037	61,61
382,245	114,86
382,454	100,52
382,663	86,19
382,872	22,7
383,081	118,95
383,29	168,1
383,499	14,51
383,707	139,43
383,916	88,23
384,125	57,51
384,334	41,13
384,542	86,19
384,751	151,72
384,96	65,71
385,169	-26,45
385,377	45,23
385,586	-3,93
385,795	14,51
386,004	125,1
386,212	-20,31
386,421	112,81
386,63	383,14
386,838	610,47
387,047	1274,01
387,255	1896,59
387,464	2707,59
387,673	3606,64
387,881	4837,47
388,09	5828,69
388,298	6574,15
388,507	8237,1
388,715	9885,72
388,924	10901,51
389,133	10285,07
389,341	10131,47
389,55	8863,78
389,758	6707,27
389,967	4282,47
390,175	2785,41
390,383	2265,22
390,592	1740,94
390,8	1063,07
391,009	727,2
391,217	389,28
391,426	372,9
391,634	127,14
391,842	153,77
392,051	14,51
392,259	34,99
392,467	98,47
392,676	-51,03
392,884	61,61
393,092	53,42
393,301	20,65
393,509	61,61
393,717	75,95
393,925	106,67
394,134	-44,88
394,342	45,23
394,55	84,14
394,758	73,9
394,967	24,75
395,175	0,17
395,383	53,42
395,591	12,46
395,799	110,76
396,007	86,19
396,216	315,56
396,424	184,49
396,632	190,63
396,84	161,96
397,048	121
397,256	202,92
397,464	69,8
397,672	61,61
397,88	28,84
398,088	26,79
398,296	22,7
398,504	71,85
398,712	73,9
398,92	26,79
399,128	-8,02
399,336	28,84
399,544	-85,84
399,752	-53,08
399,96	77,99
400,168	63,66
400,376	18,6
400,584	84,14
400,792	-10,07
401	55,47
401,207	112,81
401,415	118,95
401,623	209,06
401,831	129,19
402,039	270,5
402,247	260,26
402,454	463,01
402,662	417,96
402,87	446,63
403,078	516,26
403,285	409,76
403,493	266,41
403,701	200,87
403,909	88,23
404,116	151,72
404,324	34,99
404,532	110,76
404,739	-44,88
404,947	-36,69
405,155	47,27
405,362	12,46
405,57	73,9
405,778	-83,8
405,985	16,55
406,193	37,03
406,4	-24,4
406,608	88,23
406,816	0,17
407,023	55,47
407,231	-16,21
407,438	0,17
407,646	110,76
407,853	0,17
408,061	16,55
408,268	65,71
408,476	-38,74
408,683	53,42
408,89	96,43
409,098	88,23
409,305	12,46
409,513	41,13
409,72	57,51
409,927	-42,84
410,135	67,75
410,342	12,46
410,55	139,43
410,757	-3,93
410,964	16,55
411,172	45,23
411,379	4,27
411,586	-10,07
411,793	24,75
412,001	4,27
412,208	20,65
412,415	121
412,622	172,2
412,83	131,24
413,037	32,94
413,244	-53,08
413,451	57,51
413,658	139,43
413,866	47,27
414,073	22,7
414,28	98,47
414,487	4,27
414,694	49,32
414,901	37,03
415,108	30,89
415,315	-71,51
415,522	34,99
415,73	-34,64
415,937	28,84
416,144	-16,21
416,351	49,32
416,558	4,27
416,765	-12,12
416,972	-3,93
417,179	-61,27
417,386	30,89
417,593	24,75
417,8	-12,12
418,006	-26,45
418,213	80,04
418,42	90,28
418,627	104,62
418,834	-61,27
419,041	-67,41
419,248	22,7
419,455	4,27
419,661	-26,45
419,868	-36,69
420,075	-12,12
420,282	-44,88
420,489	20,65
420,696	-38,74
420,902	30,89
421,109	82,09
421,316	-10,07
421,523	28,84
421,729	28,84
421,936	77,99
422,143	82,09
422,349	65,71
422,556	41,13
422,763	20,65
422,969	30,89
423,176	-77,65
423,383	-20,31
423,589	252,07
423,796	20,65
424,002	-126,8
424,209	30,89
424,416	28,84
424,622	4,27
424,829	-61,27
425,035	-124,76
425,242	20,65
425,448	-57,17
425,655	32,94
425,861	12,46
426,068	69,8
426,274	82,09
426,481	30,89
426,687	37,03
426,894	-48,98
427,1	-53,08
427,306	-28,5
427,513	-73,56
427,719	39,08
427,926	22,7
428,132	-16,21
428,338	-38,74
428,545	37,03
428,751	-22,36
428,957	30,89
429,163	-89,94
429,37	57,51
429,576	61,61
429,782	20,65
429,989	-18,26
430,195	-40,79
430,401	24,75
430,607	55,47
430,813	-32,6
431,02	71,85
431,226	6,31
431,432	-32,6
431,638	-34,64
431,844	4,27
432,05	-69,46
432,257	-28,5
432,463	-12,12
432,669	90,28
432,875	37,03
433,081	12,46
433,287	-3,93
433,493	-116,56
433,699	114,86
433,905	20,65
434,111	-42,84
434,317	20,65
434,523	71,85
434,729	4,27
434,935	-53,08
435,141	37,03
435,347	30,89
435,553	-44,88
435,759	-26,45
435,965	-65,36
436,171	-126,8
436,377	16,55
436,582	39,08
436,788	-44,88
436,994	137,38
437,2	-3,93
437,406	86,19
437,612	82,09
437,818	96,43
438,023	-53,08
438,229	166,06
438,435	37,03
438,641	80,04
438,846	45,23
439,052	69,8
439,258	182,44
439,464	69,8
439,669	69,8
439,875	172,2
440,081	51,37
440,286	26,79
440,492	-10,07
440,698	28,84
440,903	-55,12
441,109	149,67
441,314	-28,5
441,52	-20,31
441,726	8,36
441,931	61,61
442,137	18,6
442,342	61,61
442,548	41,13
442,753	127,14
442,959	-91,99
443,164	-1,88
443,37	69,8
443,575	-16,21
443,781	6,31
443,986	82,09
444,192	10,41
444,397	-20,31
444,602	-51,03
444,808	14,51
445,013	90,28
445,219	192,68
445,424	497,83
445,629	667,81
445,835	1036,44
446,04	1259,67
446,245	1681,55
446,451	1929,36
446,656	2177,16
446,861	2504,84
447,066	3074,17
447,272	3403,89
447,477	3453,05
447,682	3166,33
447,887	2586,76
448,093	2216,07
448,298	1685,65
448,503	1020,06
448,708	708,77
448,913	348,33
449,118	391,33
449,324	221,35
449,529	94,38
449,734	63,66
449,939	-51,03
450,144	123,05
450,349	61,61
450,554	32,94
450,759	45,23
450,964	47,27
451,169	28,84
451,374	28,84
451,579	20,65
451,784	-1,88
451,989	22,7
452,194	-28,5
452,399	37,03
452,604	-8,02
452,809	-24,4
453,014	-77,65
453,219	-10,07
453,424	49,32
453,629	4,27
453,833	-85,84
454,038	18,6
454,243	12,46
454,448	-40,79
454,653	135,34
454,858	-26,45
455,062	55,47
455,267	22,7
455,472	30,89
455,677	47,27
455,882	-36,69
456,086	84,14
456,291	-36,69
456,496	-34,64
456,7	8,36
456,905	-3,93
457,11	39,08
457,314	-28,5
457,519	28,84
457,724	88,23
457,928	4,27
458,133	4,27
458,338	53,42
458,542	28,84
458,747	86,19
458,951	26,79
459,156	16,55
459,36	-24,4
459,565	98,47
459,769	12,46
459,974	77,99
460,178	20,65
460,383	-10,07
460,587	-34,64
460,792	43,18
460,996	-53,08
461,201	-38,74
461,405	-12,12
461,61	-26,45
461,814	37,03
462,018	-28,5
462,223	24,75
462,427	-20,31
462,631	43,18
462,836	10,41
463,04	104,62
463,244	118,95
463,449	-44,88
463,653	178,34
463,857	14,51
464,062	65,71
464,266	59,56
464,47	59,56
464,674	77,99
464,878	73,9
465,083	-24,4
465,287	133,29
465,491	55,47
465,695	145,58
465,899	20,65
466,104	-1,88
466,308	28,84
466,512	51,37
466,716	53,42
466,92	8,36
467,124	77,99
467,328	20,65
467,532	61,61
467,736	-36,69
467,94	94,38
468,144	49,32
468,348	84,14
468,552	88,23
468,756	37,03
468,96	8,36
469,164	-53,08
469,368	47,27
469,572	61,61
469,776	188,58
469,98	233,64
470,184	295,08
470,388	387,24
470,591	415,91
470,795	594,08
470,999	608,42
471,203	725,15
471,407	823,45
471,611	776,35
471,814	774,3
472,018	594,08
472,222	635,04
472,426	553,12
472,63	325,8
472,833	290,98
473,037	168,1
473,241	135,34
473,444	151,72
473,648	512,16
473,852	14,51
474,055	47,27
474,259	12,46
474,463	94,38
474,666	28,84
474,87	53,42
475,074	30,89
475,277	4,27
475,481	112,81
475,684	-34,64
475,888	-26,45
476,091	61,61
476,295	-38,74
476,498	-118,61
476,702	4,27
476,905	39,08
477,109	159,91
477,312	12,46
477,516	-34,64
477,719	-1,88
477,923	4,27
478,126	-42,84
478,329	-36,69
478,533	6,31
478,736	102,57
478,94	0,17
479,143	41,13
479,346	45,23
479,55	39,08
479,753	8,36
479,956	-89,94
480,159	-98,13
480,363	168,1
480,566	94,38
480,769	-53,08
480,972	-3,93
481,176	0,17
481,379	86,19
481,582	106,67
481,785	-12,12
481,988	43,18
482,192	127,14
482,395	-12,12
482,598	-53,08
482,801	-3,93
483,004	98,47
483,207	12,46
483,41	8,36
483,613	102,57
483,817	86,19
484,02	-94,04
484,223	-77,65
484,426	-28,5
484,629	-110,42
484,832	41,13
485,035	16,55
485,238	88,23
485,441	37,03
485,644	6,31
485,846	-3,93
486,049	-34,64
486,252	-24,4
486,455	4,27
486,658	-57,17
486,861	88,23
487,064	61,61
487,267	-73,56
487,47	102,57
487,672	20,65
487,875	4,27
488,078	-20,31
488,281	73,9
488,484	18,6
488,686	28,84
488,889	-36,69
489,092	26,79
489,295	63,66
489,497	151,72
489,7	0,17
489,903	-24,4
490,105	-44,88
490,308	86,19
490,511	176,3
490,713	372,9
490,916	372,9
491,118	471,2
491,321	798,88
491,524	798,88
491,726	1052,83
491,929	1118,36
492,131	1378,45
492,334	1446,04
492,536	1419,41
492,739	1421,46
492,941	1331,35
493,144	1132,7
493,346	893,09
493,549	653,47
493,751	446,63
493,954	323,75
494,156	192,68
494,359	143,53
494,561	8,36
494,763	28,84
494,966	127,14
495,168	69,8
495,37	-81,75
495,573	-34,64
495,775	55,47
495,977	57,51
496,18	6,31
496,382	143,53
496,584	41,13
496,787	98,47
496,989	-69,46
497,191	41,13
497,393	47,27
497,595	-3,93
497,798	65,71
498	16,55
498,202	55,47
498,404	24,75
498,606	-20,31
498,808	82,09
499,011	53,42
499,213	71,85
499,415	53,42
499,617	247,97
499,819	465,06
500,021	829,6
500,223	1138,84
500,425	1675,41
500,627	2119,82
500,829	2758,78
501,031	3338,36
501,233	3919,98
501,435	4460,65
501,637	4892,77
501,839	4909,15
502,041	4737,12
502,243	4477,03
502,445	3784,82
502,647	3217,53
502,848	2472,07
503,05	1953,93
503,252	1200,28
503,454	880,8
503,656	592,03
503,858	463,01
504,059	258,21
504,261	323,75
504,463	403,62
504,665	184,49
504,867	151,72
505,068	209,06
505,27	252,07
505,472	266,41
505,673	184,49
505,875	129,19
506,077	116,9
506,278	22,7
506,48	82,09
506,682	61,61
506,883	30,89
507,085	45,23
507,287	-18,26
507,488	39,08
507,69	37,03
507,891	12,46
508,093	217,26
508,294	-44,88
508,496	-36,69
508,697	-28,5
508,899	4,27
509,1	71,85
509,302	71,85
509,503	4,27
509,705	143,53
509,906	55,47
510,108	-53,08
510,309	-40,79
510,51	32,94
510,712	-28,5
510,913	45,23
511,114	94,38
511,316	-28,5
511,517	49,32
511,718	-16,21
511,92	-59,22
512,121	-28,5
512,322	77,99
512,524	168,1
512,725	55,47
512,926	4,27
513,127	41,13
513,329	110,76
513,53	-20,31
513,731	47,27
513,932	-61,27
514,133	18,6
514,334	-71,51
514,536	77,99
514,737	98,47
514,938	37,03
515,139	65,71
515,34	-69,46
515,541	16,55
515,742	-69,46
515,943	82,09
516,144	63,66
516,345	12,46
516,546	-16,21
516,747	80,04
516,948	20,65
517,149	-53,08
517,35	-67,41
517,551	-32,6
517,752	30,89
517,953	47,27
518,154	2,22
518,355	65,71
518,556	153,77
518,756	8,36
518,957	-48,98
519,158	77,99
519,359	-28,5
519,56	-28,5
519,761	61,61
519,961	121
520,162	217,26
520,363	-77,65
520,564	-26,45
520,764	151,72
520,965	-34,64
521,166	71,85
521,366	-1,88
521,567	53,42
521,768	-26,45
521,968	22,7
522,169	-14,17
522,37	61,61
522,57	-53,08
522,771	-24,4
522,972	-51,03
523,172	153,77
523,373	24,75
523,573	20,65
523,774	12,46
523,974	65,71
524,175	104,62
524,375	24,75
524,576	-42,84
524,776	-22,36
524,977	-51,03
525,177	86,19
525,378	77,99
525,578	20,65
525,778	8,36
525,979	53,42
526,179	22,7
526,38	-3,93
526,58	-34,64
526,78	-67,41
526,981	77,99
527,181	61,61
527,381	-40,79
527,582	143,53
527,782	82,09
527,982	39,08
528,182	-28,5
528,383	86,19
528,583	-24,4
528,783	0,17
528,983	16,55
529,183	92,33
529,384	-18,26
529,584	102,57
529,784	118,95
529,984	37,03
530,184	12,46
530,384	-46,93
530,584	45,23
530,784	80,04
530,984	12,46
531,185	61,61
531,385	102,57
531,585	47,27
531,785	39,08
531,985	-32,6
532,185	-20,31
532,385	-26,45
532,585	12,46
532,785	61,61
532,984	43,18
533,184	37,03
533,384	-44,88
533,584	-59,22
533,784	12,46
533,984	67,75
534,184	-57,17
534,384	-44,88
534,583	12,46
534,783	-44,88
534,983	-44,88
535,183	-28,5
535,383	-67,41
535,582	-16,21
535,782	-85,84
535,982	86,19
536,182	-20,31
536,381	-34,64
536,581	-110,42
536,781	-36,69
536,98	37,03
537,18	51,37
537,38	22,7
537,579	20,65
537,779	32,94
537,979	6,31
538,178	6,31
538,378	127,14
538,577	-71,51
538,777	-36,69
538,976	28,84
539,176	61,61
539,376	28,84
539,575	-1,88
539,774	12,46
539,974	14,51
540,173	28,84
540,373	41,13
540,572	-3,93
540,772	24,75
540,971	-36,69
541,171	37,03
541,37	20,65
541,569	24,75
541,769	55,47
541,968	24,75
542,167	-53,08
542,367	-51,03
542,566	28,84
542,765	-44,88
542,965	39,08
543,164	53,42
543,363	-12,12
543,562	-73,56
543,761	45,23
543,961	-38,74
544,16	-81,75
544,359	96,43
544,558	53,42
544,757	-26,45
544,957	12,46
545,156	110,76
545,355	63,66
545,554	47,27
545,753	-91,99
545,952	-20,31
546,151	73,9
546,35	-28,5
546,549	-36,69
546,748	114,86
546,947	4,27
547,146	-36,69
547,345	24,75
547,544	37,03
547,743	-30,55
547,942	-44,88
548,141	39,08
548,34	28,84
548,539	16,55
548,738	6,31
548,937	47,27
549,135	45,23
549,334	20,65
549,533	86,19
549,732	86,19
549,931	30,89
550,13	-1,88
550,328	-18,26
550,527	-48,98
550,726	-1,88
550,925	-51,03
551,123	41,13
551,322	4,27
551,521	45,23
551,72	20,65
551,918	53,42
552,117	88,23
552,315	8,36
552,514	-30,55
552,713	-98,13
552,911	-10,07
553,11	-126,8
553,309	-22,36
553,507	-28,5
553,706	-16,21
553,904	73,9
554,103	88,23
554,301	12,46
554,5	20,65
554,698	-5,97
554,897	12,46
555,095	-44,88
555,294	-110,42
555,492	-1,88
555,69	12,46
555,889	8,36
556,087	28,84
556,286	86,19
556,484	20,65
556,682	12,46
556,881	45,23
557,079	-61,27
557,277	39,08
557,476	55,47
557,674	102,57
557,872	61,61
558,07	-44,88
558,269	61,61
558,467	-3,93
558,665	96,43
558,863	12,46
559,062	20,65
559,26	-1,88
559,458	-51,03
559,656	55,47
559,854	39,08
560,052	16,55
560,25	0,17
560,449	327,85
560,647	59,56
560,845	12,46
561,043	37,03
561,241	77,99
561,439	121
561,637	-3,93
561,835	53,42
562,033	41,13
562,231	-26,45
562,429	37,03
562,627	-1,88
562,825	49,32
563,023	67,75
563,221	47,27
563,418	55,47
563,616	65,71
563,814	118,95
564,012	45,23
564,21	80,04
564,408	63,66
564,605	-30,55
564,803	-102,23
565,001	200,87
565,199	-48,98
565,397	69,8
565,594	82,09
565,792	86,19
565,99	28,84
566,188	14,51
566,385	-1,88
566,583	-44,88
566,781	45,23
566,978	-8,02
567,176	176,3
567,373	114,86
567,571	28,84
567,769	88,23
567,966	4,27
568,164	49,32
568,361	57,51
568,559	20,65
568,756	37,03
568,954	77,99
569,151	88,23
569,349	84,14
569,546	63,66
569,744	90,28
569,941	82,09
570,139	39,08
570,336	-18,26
570,534	102,57
570,731	41,13
570,928	32,94
571,126	176,3
571,323	131,24
571,52	37,03
571,718	47,27
571,915	37,03
572,112	22,7
572,31	61,61
572,507	147,62
572,704	94,38
572,901	24,75
573,099	77,99
573,296	86,19
573,493	24,75
573,69	16,55
573,887	61,61
574,085	161,96
574,282	77,99
574,479	-51,03
574,676	-18,26
574,873	96,43
575,07	88,23
575,267	-44,88
575,464	20,65
575,661	143,53
575,858	-14,17
576,055	73,9
576,252	139,43
576,449	69,8
576,646	2,22
576,843	41,13
577,04	63,66
577,237	121
577,434	82,09
577,631	45,23
577,828	213,16
578,025	57,51
578,222	41,13
578,419	94,38
578,615	34,99
578,812	110,76
579,009	51,37
579,206	63,66
579,403	110,76
579,599	143,53
579,796	63,66
579,993	157,86
580,19	24,75
580,386	55,47
580,583	12,46
580,78	55,47
580,976	164,01
581,173	51,37
581,37	106,67
581,566	96,43
581,763	71,85
581,96	69,8
582,156	102,57
582,353	135,34
582,549	200,87
582,746	110,76
582,942	88,23
583,139	121
583,335	123,05
583,532	174,25
583,728	219,3
583,925	141,48
584,121	178,34
584,318	266,41
584,514	225,45
584,711	348,33
584,907	235,69
585,103	331,94
585,3	389,28
585,496	506,02
585,693	1118,36
585,889	3602,55
586,085	8009,78
586,281	14204,88
586,478	21305,19
586,674	28823,28
586,87	37619,31
587,067	45575,67
587,263	50865,57
587,459	54910,31
587,655	58617,13
587,851	58793,26
588,048	57681,21
588,244	54306,16
588,44	51160,48
588,636	45649,39
588,832	38563,42
589,028	32800,44
589,224	26373,91
589,42	20674,42
589,617	14731,21
589,813	9979,92
590,009	6096,97
590,205	3829,87
590,401	2179,21
590,597	1511,57
590,793	1020,06
590,989	770,21
591,185	565,41
591,38	481,44
591,576	383,14
591,772	344,23
591,968	276,65
592,164	297,13
592,36	225,45
592,556	192,68
592,752	241,83
592,948	77,99
593,143	104,62
593,339	47,27
593,535	102,57
593,731	129,19
593,926	77,99
594,122	86,19
594,318	59,56
594,514	145,58
594,709	34,99
594,905	71,85
595,101	49,32
595,296	37,03
595,492	82,09
595,688	51,37
595,883	170,15
596,079	118,95
596,275	45,23
596,47	100,52
596,666	135,34
596,861	-16,21
597,057	22,7
597,252	53,42
597,448	-18,26
597,643	86,19
597,839	143,53
598,034	69,8
598,23	37,03
598,425	112,81
598,621	80,04
598,816	45,23
599,011	73,9
599,207	-3,93
599,402	73,9
599,597	55,47
599,793	151,72
599,988	63,66
600,183	110,76
600,379	34,99
600,574	47,27
600,769	112,81
600,965	94,38
601,16	37,03
601,355	10,41
601,55	14,51
601,745	118,95
601,941	80,04
602,136	114,86
602,331	26,79
602,526	73,9
602,721	80,04
602,916	-10,07
603,111	57,51
603,307	63,66
603,502	63,66
603,697	-20,31
603,892	102,57
604,087	34,99
604,282	114,86
604,477	168,1
604,672	12,46
604,867	55,47
605,062	4,27
605,257	53,42
605,452	129,19
605,646	77,99
605,841	-3,93
606,036	18,6
606,231	24,75
606,426	20,65
606,621	-1,88
606,816	14,51
607,01	84,14
607,205	80,04
607,4	-51,03
607,595	28,84
607,79	61,61
607,984	55,47
608,179	65,71
608,374	-42,84
608,569	30,89
608,763	8,36
608,958	-118,61
609,153	98,47
609,347	118,95
609,542	45,23
609,736	61,61
609,931	12,46
610,126	22,7
610,32	32,94
610,515	-24,4
610,709	299,17
610,904	32,94
611,098	-1,88
611,293	28,84
611,487	22,7
611,682	-20,31
611,876	34,99
612,071	63,66
612,265	39,08
612,46	-5,97
612,654	106,67
612,848	-30,55
613,043	4,27
613,237	57,51
613,432	-12,12
613,626	-59,22
613,82	8,36
614,014	135,34
614,209	77,99
614,403	-73,56
614,597	57,51
614,792	63,66
614,986	-106,32
615,18	129,19
615,374	71,85
615,568	4,27
615,763	49,32
615,957	43,18
616,151	155,82
616,345	118,95
616,539	-28,5
616,733	84,14
616,927	71,85
617,121	-32,6
617,316	86,19
617,51	59,56
617,704	88,23
617,898	94,38
618,092	-26,45
618,286	-22,36
618,48	-20,31
618,674	108,71
618,868	86,19
619,061	-8,02
619,255	121
619,449	67,75
619,643	-12,12
619,837	184,49
620,031	8,36
620,225	82,09
620,419	-20,31
620,612	80,04
620,806	110,76
621	151,72
621,194	22,7
621,388	-12,12
621,581	86,19
621,775	-16,21
621,969	37,03
622,162	55,47
622,356	0,17
622,55	80,04
622,743	-53,08
622,937	12,46
623,131	32,94
623,324	88,23
623,518	-40,79
623,712	30,89
623,905	94,38
624,099	104,62
624,292	41,13
624,486	69,8
624,679	94,38
624,873	28,84
625,066	47,27
625,26	88,23
625,453	-1,88
625,647	-22,36
625,84	49,32
626,034	28,84
626,227	37,03
626,42	80,04
626,614	110,76
626,807	153,77
627	-12,12
627,194	28,84
627,387	45,23
627,58	-20,31
627,774	-32,6
627,967	53,42
628,16	55,47
628,353	22,7
628,547	88,23
628,74	133,29
628,933	0,17
629,126	53,42
629,319	53,42
629,513	18,6
629,706	41,13
629,899	102,57
630,092	20,65
630,285	34,99
630,478	-8,02
630,671	102,57
630,864	37,03
631,057	18,6
631,25	82,09
631,443	-16,21
631,636	6,31
631,829	123,05
632,022	63,66
632,215	100,52
632,408	14,51
632,601	53,42
632,794	20,65
632,987	84,14
633,18	-40,79
633,373	8,36
633,566	-20,31
633,758	-57,17
633,951	49,32
634,144	63,66
634,337	22,7
634,53	55,47
634,722	143,53
634,915	-42,84
635,108	-75,6
635,301	30,89
635,493	-53,08
635,686	94,38
635,879	-20,31
636,071	-8,02
636,264	20,65
636,457	69,8
636,649	32,94
636,842	-22,36
637,034	114,86
637,227	20,65
637,42	47,27
637,612	20,65
637,805	34,99
637,997	96,43
638,19	55,47
638,382	-20,31
638,575	-53,08
638,767	47,27
638,96	-5,97
639,152	98,47
639,344	82,09
639,537	8,36
639,729	34,99
639,922	84,14
640,114	-14,17
640,306	90,28
640,499	86,19
640,691	65,71
640,883	-20,31
641,075	57,51
641,268	61,61
641,46	118,95
641,652	-3,93
641,844	-42,84
642,037	-53,08
642,229	67,75
642,421	37,03
642,613	92,33
642,805	16,55
642,998	4,27
643,19	-46,93
643,382	176,3
643,574	69,8
643,766	55,47
643,958	39,08
644,15	82,09
644,342	69,8
644,534	84,14
644,726	0,17
644,918	12,46
645,11	-28,5
645,302	41,13
645,494	77,99
645,686	-10,07
645,878	8,36
646,07	-8,02
646,262	-1,88
646,453	20,65
646,645	-3,93
646,837	34,99
647,029	63,66
647,221	69,8
647,413	-59,22
647,604	88,23
647,796	80,04
647,988	69,8
648,18	28,84
648,371	61,61
648,563	53,42
648,755	88,23
648,947	-79,7
649,138	41,13
649,33	69,8
649,521	77,99
649,713	65,71
649,905	63,66
650,096	30,89
650,288	55,47
650,479	-24,4
650,671	53,42
650,863	24,75
651,054	6,31
651,246	59,56
651,437	45,23
651,629	147,62
651,82	-20,31
652,011	-3,93
652,203	98,47
652,394	86,19
652,586	16,55
652,777	102,57
652,968	4,27
653,16	-18,26
653,351	92,33
653,542	135,34
653,734	0,17
653,925	-108,37
654,116	71,85
654,308	37,03
654,499	-51,03
654,69	-28,5
654,881	69,8
655,073	-1,88
655,264	80,04
655,455	28,84
655,646	47,27
655,837	65,71
656,028	57,51
656,219	12,46
656,411	34,99
656,602	-73,56
656,793	26,79
656,984	45,23
657,175	-34,64
657,366	12,46
657,557	94,38
657,748	77,99
657,939	12,46
658,13	-26,45
658,321	69,8
658,512	100,52
658,703	141,48
658,894	55,47
659,084	22,7
659,275	55,47
659,466	47,27
659,657	88,23
659,848	63,66
660,039	86,19
660,23	16,55
660,42	-8,02
660,611	90,28
660,802	-26,45
660,993	28,84
661,183	45,23
661,374	61,61
661,565	147,62
661,755	151,72
661,946	28,84
662,137	41,13
662,327	4,27
662,518	-12,12
662,709	37,03
662,899	-34,64
663,09	92,33
663,28	16,55
663,471	55,47
663,662	168,1
663,852	135,34
664,043	-3,93
664,233	28,84
664,424	32,94
664,614	30,89
664,804	37,03
664,995	161,96
665,185	110,76
665,376	-1,88
665,566	53,42
665,756	0,17
665,947	94,38
666,137	243,88
666,328	1048,73
666,518	2035,85
666,708	3682,42
666,898	5132,38
667,089	7450,68
667,279	9187,36
667,469	10670,09
667,659	11718,65
667,85	11751,42
668,04	12019,7
668,23	11558,91
668,42	11202,56
668,61	10254,35
668,8	9646,1
668,991	8419,37
669,181	7286,84
669,371	6379,59
669,561	5400,66
669,751	4821,09
669,941	3725,43
670,131	2855,04
670,321	2066,57
670,511	1300,63
670,701	876,7
670,891	598,18
671,081	354,47
671,271	268,45
671,461	143,53
671,651	227,5
671,841	106,67
672,03	98,47
672,22	61,61
672,41	37,03
672,6	164,01
672,79	102,57
672,98	14,51
673,169	53,42
673,359	12,46
673,549	186,54
673,739	20,65
673,928	28,84
674,118	86,19
674,308	-8,02
674,497	137,38
674,687	-24,4
674,877	-32,6
675,066	24,75
675,256	-20,31
675,446	47,27
675,635	45,23
675,825	-28,5
676,014	118,95
676,204	102,57
676,393	129,19
676,583	53,42
676,772	34,99
676,962	4,27
677,151	88,23
677,341	-16,21
677,53	-42,84
677,72	12,46
677,909	8,36
678,099	8,36
678,288	45,23
678,477	45,23
678,667	37,03
678,856	69,8
679,045	53,42
679,235	114,86
679,424	102,57
679,613	61,61
679,802	22,7
679,992	6,31
680,181	30,89
680,37	55,47
680,559	102,57
680,748	182,44
680,938	14,51
681,127	39,08
681,316	22,7
681,505	20,65
681,694	-53,08
681,883	-28,5
682,072	-51,03
682,261	28,84
682,45	-3,93
682,639	-18,26
682,828	90,28
683,017	43,18
683,206	37,03
683,395	63,66
683,584	32,94
683,773	88,23
683,962	8,36
684,151	-18,26
684,34	39,08
684,529	145,58
684,718	102,57
684,907	55,47
685,095	110,76
685,284	45,23
685,473	-3,93
685,662	-40,79
685,851	86,19
686,039	16,55
686,228	49,32
686,417	49,32
686,606	88,23
686,794	-59,22
686,983	-87,89
687,172	0,17
687,36	51,37
687,549	-16,21
687,738	-40,79
687,926	32,94
688,115	34,99
688,303	41,13
688,492	-20,31
688,68	41,13
688,869	22,7
689,057	41,13
689,246	-26,45
689,434	0,17
689,623	12,46
689,811	86,19
690	-34,64
690,188	24,75
690,377	49,32
690,565	47,27
690,753	143,53
690,942	55,47
691,13	8,36
691,318	98,47
691,507	71,85
691,695	67,75
691,883	22,7
692,072	55,47
692,26	82,09
692,448	129,19
692,636	28,84
692,824	-36,69
693,013	37,03
693,201	12,46
693,389	28,84
693,577	4,27
693,765	12,46
693,953	-59,22
694,141	61,61
694,329	-102,23
694,518	-3,93
694,706	49,32
694,894	45,23
695,082	-1,88
695,27	47,27
695,458	86,19
695,646	84,14
695,834	16,55
696,022	37,03
696,209	37,03
696,397	118,95
696,585	32,94
696,773	57,51
696,961	61,61
697,149	28,84
697,337	6,31
697,525	80,04
697,712	34,99
697,9	82,09
698,088	49,32
698,276	18,6
698,463	32,94
698,651	121
698,839	-3,93
699,027	37,03
699,214	57,51
699,402	55,47
699,59	32,94
699,777	28,84
699,965	45,23
700,152	45,23
700,34	77,99
700,528	-42,84
700,715	88,23
700,903	45,23
701,09	71,85
701,278	65,71
701,465	88,23
701,653	65,71
701,84	-57,17
702,028	77,99
702,215	47,27
702,402	139,43
702,59	12,46
702,777	184,49
702,965	143,53
703,152	61,61
703,339	110,76
703,527	55,47
703,714	209,06
703,901	49,32
704,088	63,66
704,276	112,81
704,463	235,69
704,65	139,43
704,837	331,94
705,025	964,76
705,212	2652,29
705,399	5914,7
705,586	9044
705,773	12797,93
705,96	16547,76
706,147	19453,83
706,335	21333,86
706,522	22689,62
706,709	22320,98
706,896	22253,4
707,083	20795,25
707,27	19459,97
707,457	17504,16
707,644	15839,16
707,831	13914,07
708,018	12308,46
708,205	10440,72
708,392	8978,47
708,578	7686,2
708,765	6262,86
708,952	5337,18
709,139	3911,79
709,326	2678,91
709,513	1931,41
709,7	1360,02
709,886	905,37
710,073	651,42
710,26	483,49
710,447	237,74
710,633	180,39
710,82	211,11
711,007	106,67
711,193	92,33
711,38	153,77
711,567	116,9
711,753	98,47
711,94	61,61
712,127	65,71
712,313	116,9
712,5	61,61
712,686	28,84
712,873	6,31
713,059	53,42
713,246	143,53
713,432	114,86
713,619	-8,02
713,805	88,23
713,992	108,71
714,178	28,84
714,365	61,61
714,551	84,14
714,737	26,79
714,924	-10,07
715,11	32,94
715,297	-18,26
715,483	-69,46
715,669	24,75
715,855	45,23
716,042	41,13
716,228	4,27
716,414	112,81
716,6	88,23
716,787	-3,93
716,973	-3,93
717,159	77,99
717,345	28,84
717,531	-44,88
717,718	53,42
717,904	98,47
718,09	4,27
718,276	16,55
718,462	88,23
718,648	32,94
718,834	-40,79
719,02	86,19
719,206	88,23
719,392	57,51
719,578	-28,5
719,764	-32,6
719,95	-57,17
720,136	127,14
720,322	22,7
720,508	8,36
720,694	61,61
720,879	-22,36
721,065	225,45
721,251	47,27
721,437	24,75
721,623	43,18
721,809	143,53
721,994	8,36
722,18	-26,45
722,366	-10,07
722,552	-46,93
722,737	-53,08
722,923	22,7
723,109	88,23
723,294	-18,26
723,48	59,56
723,666	61,61
723,851	57,51
724,037	77,99
724,222	159,91
724,408	14,51
724,593	82,09
724,779	-26,45
724,965	-3,93
725,15	63,66
725,336	43,18
725,521	49,32
725,706	28,84
725,892	61,61
726,077	-12,12
726,263	32,94
726,448	184,49
726,634	200,87
726,819	293,03
727,004	628,9
727,19	872,61
727,375	1282,2
727,56	1505,43
727,745	1810,58
727,931	2046,09
728,116	2218,12
728,301	2332,81
728,486	2406,53
728,672	1994,89
728,857	1984,65
729,042	1783,95
729,227	1634,45
729,412	1257,62
729,597	1122,46
729,783	1036,44
729,968	972,96
730,153	766,11
730,338	635,04
730,523	524,45
730,708	473,25
730,893	356,52
731,078	299,17
731,263	225,45
731,448	45,23
731,633	143,53
731,818	-10,07
732,003	12,46
732,187	-3,93
732,372	-20,31
732,557	45,23
732,742	-18,26
732,927	-14,17
733,112	102,57
733,297	-28,5
733,481	0,17
733,666	63,66
733,851	-16,21
734,036	12,46
734,22	-26,45
734,405	121
734,59	16,55
734,774	0,17
734,959	-3,93
735,144	41,13
735,328	37,03
735,513	-36,69
735,698	4,27
735,882	98,47
736,067	69,8
736,251	69,8
736,436	-51,03
736,62	-81,75
736,805	80,04
736,989	63,66
737,174	-110,42
737,358	-26,45
737,543	28,84
737,727	63,66
737,911	0,17
738,096	6,31
738,28	-8,02
738,465	-69,46
738,649	39,08
738,833	-3,93
739,018	61,61
739,202	-20,31
739,386	14,51
739,57	0,17
739,755	63,66
739,939	41,13
740,123	-61,27
740,307	16,55
740,491	2,22
740,676	-3,93
740,86	30,89
741,044	8,36
741,228	-20,31
741,412	-61,27
741,596	-89,94
741,78	-106,32
741,964	20,65
742,148	-36,69
742,332	20,65
742,516	-59,22
742,7	32,94
742,884	-3,93
743,068	-1,88
743,252	90,28
743,436	92,33
743,62	-94,04
743,804	-14,17
743,988	133,29
744,172	24,75
744,356	24,75
744,539	-65,36
744,723	-51,03
744,907	-40,79
745,091	51,37
745,275	-1,88
745,458	63,66
745,642	-40,79
745,826	22,7
746,009	69,8
746,193	45,23
746,377	65,71
746,56	6,31
746,744	127,14
746,928	-20,31
747,111	-3,93
747,295	-110,42
747,478	-20,31
747,662	-24,4
747,846	30,89
748,029	55,47
748,213	69,8
748,396	16,55
748,58	0,17
748,763	-24,4
748,946	-10,07
749,13	-67,41
749,313	-51,03
749,497	55,47
749,68	-20,31
749,863	22,7
750,047	77,99
750,23	-10,07
750,413	116,9
750,597	-10,07
750,78	-36,69
750,963	102,57
751,146	80,04
751,33	69,8
751,513	39,08
751,696	-42,84
751,879	-10,07
752,062	-20,31
752,246	45,23
752,429	61,61
752,612	41,13
752,795	41,13
752,978	37,03
753,161	-91,99
753,344	-122,71
753,527	61,61
753,71	-42,84
753,893	67,75
754,076	-36,69
754,259	94,38
754,442	-1,88
754,625	-77,65
754,808	80,04
754,991	12,46
755,174	-26,45
755,357	-51,03
755,539	28,84
755,722	94,38
755,905	49,32
756,088	12,46
756,271	-34,64
756,453	12,46
756,636	-53,08
756,819	41,13
757,002	-22,36
757,184	67,75
757,367	28,84
757,55	41,13
757,732	114,86
757,915	-65,36
758,098	37,03
758,28	71,85
758,463	20,65
758,645	28,84
758,828	12,46
759,011	-36,69
759,193	-44,88
759,376	55,47
759,558	4,27
759,741	37,03
759,923	-36,69
760,105	-57,17
760,288	-69,46
760,47	-79,7
760,653	2,22
760,835	8,36
761,017	-3,93
761,2	-85,84
761,382	102,57
761,564	88,23
761,747	53,42
761,929	-16,21
762,111	-24,4
762,294	69,8
762,476	151,72
762,658	14,51
762,84	135,34
763,022	20,65
763,205	10,41
763,387	69,8
763,569	86,19
763,751	-75,6
763,933	6,31
764,115	-65,36
764,297	-3,93
764,479	86,19
764,661	34,99
764,843	39,08
765,025	20,65
765,207	106,67
765,389	-85,84
765,571	8,36
765,753	39,08
765,935	12,46
766,117	-61,27
766,299	49,32
766,481	180,39
766,663	-48,98
766,845	-96,08
767,026	34,99
767,208	114,86
767,39	-16,21
767,572	-69,46
767,753	69,8
767,935	-36,69
768,117	8,36
768,299	118,95
768,48	-16,21
768,662	139,43
768,844	-3,93
769,025	65,71
769,207	-36,69
769,389	4,27
769,57	102,57
769,752	16,55
769,933	55,47
770,115	131,24
770,296	20,65
770,478	100,52
770,659	-10,07
770,841	227,5
771,022	63,66
771,204	-28,5
771,385	12,46
771,567	118,95
771,748	155,82
771,929	-3,93
772,111	16,55
772,292	94,38
772,473	53,42
772,655	28,84
772,836	-44,88
773,017	37,03
773,199	53,42
773,38	-61,27
773,561	90,28
773,742	69,8
773,923	28,84
774,105	57,51
774,286	45,23
774,467	8,36
774,648	-65,36
774,829	168,1
775,01	-46,93
775,191	-53,08
775,372	-12,12
775,553	-14,17
775,734	-14,17
775,915	6,31
776,096	28,84
776,277	45,23
776,458	4,27
776,639	26,79
776,82	37,03
777,001	28,84
777,182	-26,45
777,363	-34,64
777,544	49,32
777,725	168,1
777,906	73,9
778,086	100,52
778,267	61,61
778,448	86,19
778,629	28,84
778,809	37,03
778,99	-44,88
779,171	-51,03
779,352	63,66
779,532	-77,65
779,713	34,99
779,894	-89,94
780,074	61,61
780,255	53,42
780,435	41,13
780,616	49,32
780,797	45,23
780,977	-30,55
781,158	-28,5
781,338	-36,69
781,519	-42,84
781,699	143,53
781,88	22,7
782,06	112,81
782,241	10,41
782,421	-67,41
782,601	20,65
782,782	86,19
782,962	-18,26
783,142	-3,93
783,323	77,99
783,503	88,23
783,683	14,51
783,864	18,6
784,044	147,62
784,224	77,99
784,404	37,03
784,585	4,27
784,765	-3,93
784,945	145,58
785,125	-10,07
785,305	2,22
785,485	102,57
785,666	-12,12
785,846	55,47
786,026	28,84
786,206	-28,5
786,386	18,6
786,566	49,32
786,746	4,27
786,926	55,47
787,106	20,65
787,286	-12,12
787,466	67,75
787,646	32,94
787,826	37,03
788,006	6,31
788,185	80,04
788,365	30,89
788,545	28,84
788,725	-10,07
788,905	-42,84
789,085	-32,6
789,264	-20,31
789,444	14,51
789,624	-24,4
789,804	-3,93
789,983	20,65
790,163	22,7
790,343	39,08
790,522	-3,93
790,702	-3,93
790,882	28,84
791,061	155,82
791,241	-28,5
791,42	-24,4
791,6	73,9
791,78	45,23
791,959	-20,31
792,139	-67,41
792,318	86,19
792,498	69,8
792,677	88,23
792,856	41,13
793,036	22,7
793,215	61,61
793,395	37,03
793,574	14,51
793,753	-26,45
793,933	84,14
794,112	45,23
794,291	24,75
794,471	14,51
794,65	49,32
794,829	-28,5
795,008	71,85
795,188	69,8
795,367	114,86
795,546	-16,21
795,725	80,04
795,904	-28,5
796,084	24,75
796,263	26,79
796,442	88,23
796,621	-24,4
796,8	77,99
796,979	57,51
797,158	-44,88
797,337	0,17
797,516	65,71
797,695	43,18
797,874	55,47
798,053	98,47
798,232	-36,69
798,411	-20,31
798,59	-44,88
798,769	16,55
798,947	12,46
799,126	43,18
799,305	4,27
799,484	39,08
799,663	22,7
799,842	20,65
800,02	2,22
800,199	-26,45
800,378	86,19
800,557	-63,32
800,735	16,55
800,914	6,31
801,093	47,27
801,271	12,46
801,45	4,27
801,628	57,51
801,807	14,51
801,986	39,08
802,164	41,13
802,343	-1,88
802,521	-102,23
802,7	34,99
802,878	-36,69
803,057	-42,84
803,235	28,84
803,414	12,46
803,592	77,99
803,771	8,36
803,949	20,65
804,127	-24,4
804,306	86,19
804,484	-42,84
804,662	47,27
804,841	-57,17
805,019	77,99
805,197	8,36
805,375	102,57
805,554	22,7
805,732	32,94
805,91	-12,12
806,088	4,27
806,266	-42,84
806,445	-44,88
806,623	16,55
806,801	39,08
806,979	28,84
807,157	71,85
807,335	-3,93
807,513	14,51
807,691	0,17
807,869	-53,08
808,047	-3,93
808,225	-20,31
808,403	-36,69
808,581	-38,74
808,759	200,87
808,937	67,75
809,115	86,19
809,293	63,66
809,471	-44,88
809,649	127,14
809,826	-10,07
810,004	102,57
810,182	-1,88
810,36	-3,93
810,538	86,19
810,715	22,7
810,893	-98,13
811,071	118,95
811,248	69,8
811,426	-48,98
811,604	6,31
811,781	53,42
811,959	43,18
812,137	-18,26
812,314	-16,21
812,492	-12,12
812,669	37,03
812,847	-28,5
813,024	-77,65
813,202	61,61
813,379	-42,84
813,557	-20,31
813,734	102,57
813,912	-28,5
814,089	-28,5
814,267	98,47
814,444	14,51
814,621	37,03
814,799	37,03
814,976	55,47
815,153	57,51
815,331	-10,07
815,508	88,23
815,685	-26,45
815,862	-20,31
816,04	-28,5
816,217	-28,5
816,394	-51,03
816,571	63,66
816,748	135,34
816,926	127,14
817,103	196,78
817,28	59,56
817,457	-12,12
817,634	63,66
817,811	-63,32
817,988	16,55
818,165	-10,07
818,342	22,7
818,519	-44,88
818,696	49,32
818,873	4,27
819,05	102,57
819,227	37,03
819,404	69,8
819,581	-26,45
819,758	-36,69
819,934	20,65
820,111	-10,07
820,288	30,89
820,465	6,31
820,642	90,28
820,818	-3,93
820,995	-8,02
821,172	24,75
821,349	69,8
821,525	8,36
821,702	135,34
821,879	-40,79
822,055	24,75
822,232	-1,88
822,409	-16,21
822,585	135,34
822,762	37,03
822,938	77,99
823,115	-40,79
823,291	-18,26
823,468	47,27
823,644	0,17
823,821	61,61
823,997	-26,45
824,174	-12,12
824,35	-42,84
824,527	45,23
824,703	8,36
824,879	-36,69
825,056	4,27
825,232	129,19
825,408	-59,22
825,585	63,66
825,761	16,55
825,937	-24,4
826,113	24,75
826,29	45,23
826,466	-102,23
826,642	377
826,818	20,65
826,994	-16,21
827,17	-112,47
827,347	-24,4
827,523	-53,08
827,699	-1,88
827,875	69,8
828,051	20,65
828,227	-3,93
828,403	88,23
828,579	106,67
828,755	71,85
828,931	61,61
829,107	53,42
829,283	90,28
829,459	0,17
829,635	6,31
829,811	26,79
829,986	6,31
830,162	20,65
830,338	67,75
830,514	-22,36
830,69	-28,5
830,865	-57,17
831,041	16,55
831,217	-57,17
831,393	-85,84
831,568	4,27
831,744	14,51
831,92	-10,07
832,095	-12,12
832,271	4,27
832,447	41,13
832,622	104,62
832,798	92,33
832,973	20,65
833,149	77,99
833,325	12,46
833,5	20,65
833,676	69,8
833,851	61,61
834,027	-8,02
834,202	127,14
834,377	34,99
834,553	-36,69
834,728	-10,07
834,904	47,27
835,079	37,03
835,254	8,36
835,43	59,56
835,605	-3,93
835,78	61,61
835,955	16,55
836,131	47,27
836,306	12,46
836,481	10,41
836,656	80,04
836,832	84,14
837,007	-20,31
837,182	-67,41
837,357	20,65
837,532	-18,26
837,707	16,55
837,882	4,27
838,057	45,23
838,232	59,56
838,407	77,99
838,582	-10,07
838,757	61,61
838,932	55,47
839,107	61,61
839,282	-83,8
839,457	6,31
839,632	84,14
839,807	88,23
839,982	96,43
840,157	20,65
840,332	61,61
840,506	-26,45
840,681	4,27
840,856	-42,84
841,031	-48,98
841,205	61,61
841,38	45,23
841,555	73,9
841,73	-26,45
841,904	30,89
842,079	-3,93
842,254	34,99
842,428	24,75
842,603	8,36
842,777	-36,69
842,952	8,36
843,126	-36,69
843,301	30,89
843,476	-30,55
843,65	-20,31
843,825	75,95
843,999	63,66
844,173	8,36
844,348	-20,31
844,522	47,27
844,697	-12,12
844,871	12,46
845,045	92,33
845,22	53,42
845,394	77,99
845,568	-10,07
845,743	106,67
845,917	4,27
846,091	12,46
846,265	51,37
846,44	12,46
846,614	57,51
846,788	-44,88
846,962	59,56
847,136	30,89
847,31	32,94
847,485	200,87
847,659	37,03
847,833	90,28
848,007	45,23
848,181	22,7
848,355	6,31
848,529	61,61
848,703	61,61
848,877	-32,6
849,051	127,14
849,225	24,75
849,399	14,51
849,573	-59,22
849,746	30,89
849,92	-12,12
850,094	37,03
850,268	-20,31
850,442	61,61
850,616	-83,8
850,789	-57,17
850,963	32,94
851,137	-34,64
851,311	12,46
851,484	143,53
851,658	20,65
851,832	-40,79
852,005	4,27
852,179	-26,45
852,352	-40,79
852,526	-20,31
852,7	30,89
852,873	-32,6
853,047	53,42
853,22	55,47
853,394	143,53
853,567	59,56
853,741	-44,88
853,914	-61,27
854,088	125,1
854,261	12,46
854,434	-28,5
854,608	-65,36
854,781	0,17
854,955	-22,36
855,128	67,75
855,301	-40,79
855,475	102,57
855,648	-26,45
855,821	-3,93
855,994	61,61
856,168	53,42
856,341	4,27
856,514	-34,64
856,687	-67,41
856,86	8,36
857,033	6,31
857,207	-3,93
857,38	-44,88
857,553	53,42
857,726	24,75
857,899	32,94
858,072	-61,27
858,245	-57,17
858,418	4,27
858,591	0,17
858,764	28,84
858,937	59,56
859,11	10,41
859,283	22,7
859,455	-34,64
859,628	-3,93
859,801	47,27
859,974	153,77
860,147	47,27
860,32	73,9
860,492	-34,64
860,665	12,46
860,838	22,7
861,011	12,46
861,183	77,99
861,356	127,14
861,529	26,79
861,701	0,17
861,874	41,13
862,047	73,9
862,219	86,19
862,392	63,66
862,564	-36,69
862,737	12,46
862,909	61,61
863,082	-1,88
863,254	69,8
863,427	-18,26
863,599	121
863,772	-96,08
863,944	88,23
864,117	-53,08
864,289	37,03
864,461	-91,99
864,634	-24,4
864,806	73,9
864,978	14,51
865,151	2,22
865,323	96,43
865,495	96,43
865,667	12,46
865,84	151,72
866,012	4,27
866,184	0,17
866,356	37,03
866,528	-20,31
866,7	-20,31
866,873	-67,41
867,045	53,42
867,217	-89,94
867,389	49,32
867,561	-12,12
867,733	26,79
867,905	-24,4
868,077	4,27
868,249	53,42
868,421	-20,31
868,593	-18,26
868,765	16,55
868,936	-51,03
869,108	102,57
869,28	30,89
869,452	45,23
869,624	-42,84
869,796	77,99
869,968	-51,03
870,139	147,62
870,311	-91,99
870,483	51,37
870,654	-10,07
870,826	-16,21
870,998	-10,07
871,17	53,42
871,341	-89,94
871,513	77,99
871,684	-48,98
871,856	-48,98
872,028	6,31
872,199	-3,93
872,371	-44,88
872,542	14,51
872,714	-61,27
872,885	84,14
873,057	-26,45
873,228	8,36
873,4	63,66
873,571	77,99
873,742	-77,65
873,914	28,84
874,085	8,36
874,256	8,36
874,428	-116,56
874,599	8,36
874,77	20,65
874,942	12,46
875,113	53,42
875,284	-20,31
875,455	4,27
875,626	16,55
875,798	-36,69
875,969	30,89
876,14	53,42
876,311	30,89
876,482	129,19
876,653	98,47
876,824	53,42
876,995	24,75
877,166	63,66
877,337	47,27
877,508	-65,36
877,679	4,27
877,85	-44,88
878,021	-20,31
878,192	86,19
878,363	-18,26
878,534	0,17
878,705	-94,04
878,876	39,08
879,047	57,51
879,217	-85,84
879,388	37,03
879,559	2,22
879,73	39,08
879,9	45,23
880,071	61,61
880,242	22,7
880,413	110,76
880,583	37,03
880,754	37,03
880,924	22,7
881,095	-44,88
881,266	-42,84
881,436	118,95
881,607	164,01
881,777	12,46
881,948	-12,12
882,118	16,55
882,289	-63,32
882,459	-20,31
882,63	20,65
882,8	34,99
882,971	37,03
883,141	-1,88
883,311	45,23
883,482	61,61
883,652	-12,12
883,822	-22,36
883,993	6,31
884,163	37,03
884,333	-24,4
884,504	55,47
884,674	12,46
884,844	16,55
885,014	-18,26
885,184	24,75
885,355	12,46
885,525	12,46
885,695	110,76
885,865	143,53
886,035	-18,26
886,205	6,31
886,375	47,27
886,545	57,51
886,715	-67,41
886,885	14,51
887,055	8,36
887,225	28,84
887,395	-44,88
887,565	80,04
887,735	20,65
887,905	41,13
888,075	-51,03
888,244	96,43
888,414	77,99
888,584	-14,17
888,754	12,46
888,924	-12,12
889,093	82,09
889,263	-24,4
889,433	-10,07
889,603	-3,93
889,772	-1,88
889,942	129,19
890,111	123,05
890,281	32,94
890,451	-40,79
890,62	4,27
890,79	16,55
890,959	10,41
891,129	-1,88
891,298	135,34
891,468	37,03
891,637	-26,45
891,807	-8,02
891,976	-73,56
892,146	-57,17
892,315	-20,31
892,485	24,75
892,654	-12,12
892,823	12,46
892,993	-61,27
893,162	0,17
893,331	6,31
893,501	-14,17
893,67	45,23
893,839	4,27
894,008	6,31
894,177	73,9
894,347	61,61
894,516	102,57
894,685	39,08
894,854	-44,88
895,023	127,14
895,192	96,43
