Data from he_USB4F104161__29__11-53-38-238.txt Node

Date: Tue Apr 14 11:53:38 EDT 2026
User: LaboPhy
Spectrometer: USB4F10416
Trigger mode: 4
Integration Time (sec): 1,000000E-1
Scans to average: 1
Electric dark correction enabled: true
Nonlinearity correction enabled: false
Boxcar width: 0
XAxis mode: Wavelengths
Number of Pixels in Spectrum: 3648
>>>>>Begin Spectral Data<<<<<
177,847	-125,78
178,066	-125,78
178,284	-125,78
178,502	-166,74
178,72	-146,26
178,939	29,87
179,157	9,39
179,375	-39,76
179,593	19,63
179,812	62,63
180,03	-13,14
180,248	-33,62
180,466	-27,48
180,685	-9,05
180,903	-29,52
181,121	-33,62
181,339	64,68
181,557	-9,05
181,775	46,25
181,994	5,29
182,212	17,58
182,43	-58,2
182,648	56,49
182,866	95,4
183,084	62,63
183,302	1,19
183,52	38,06
183,739	117,93
183,957	99,5
184,175	54,44
184,393	11,43
184,611	38,06
184,829	85,16
185,047	-33,62
185,265	52,39
185,483	29,87
185,701	107,69
185,919	72,87
186,137	5,29
186,355	58,54
186,573	54,44
186,791	99,5
187,009	29,87
187,227	54,44
187,445	42,15
187,663	21,67
187,881	38,06
188,098	72,87
188,316	48,3
188,534	177,32
188,752	-13,14
188,97	31,91
189,188	-74,58
189,406	101,55
189,624	58,54
189,841	25,77
190,059	-62,29
190,277	130,22
190,495	87,21
190,713	103,59
190,931	156,84
191,148	62,63
191,366	38,06
191,584	-25,43
191,802	66,73
192,019	128,17
192,237	48,3
192,455	21,67
192,673	33,96
192,89	-109,4
193,108	25,77
193,326	70,83
193,543	68,78
193,761	40,11
193,979	21,67
194,196	-13,14
194,414	29,87
194,632	5,29
194,849	5,29
195,067	-74,58
195,285	89,26
195,502	-27,48
195,72	13,48
195,937	27,82
196,155	64,68
196,373	70,83
196,59	11,43
196,808	38,06
197,025	21,67
197,243	287,91
197,46	150,7
197,678	74,92
197,895	70,83
198,113	7,34
198,33	-9,05
198,548	40,11
198,765	9,39
198,983	70,83
199,2	-50
199,418	79,02
199,635	-33,62
199,853	17,58
200,07	7,34
200,288	29,87
200,505	21,67
200,722	40,11
200,94	99,5
201,157	99,5
201,375	72,87
201,592	1,19
201,809	17,58
202,027	87,21
202,244	128,17
202,461	38,06
202,679	103,59
202,896	11,43
203,113	-27,48
203,331	-25,43
203,548	9,39
203,765	64,68
203,982	130,22
204,2	-2,9
204,417	-54,1
204,634	234,66
204,851	60,59
205,069	9,39
205,286	46,25
205,503	50,35
205,72	46,25
205,937	64,68
206,155	-19,29
206,372	152,74
206,589	5,29
206,806	-19,29
207,023	70,83
207,24	40,11
207,458	-4,95
207,675	-19,29
207,892	70,83
208,109	-17,24
208,326	-23,38
208,543	48,3
208,76	19,63
208,977	72,87
209,194	46,25
209,411	46,25
209,628	-21,33
209,845	89,26
210,062	-50
210,279	50,35
210,496	19,63
210,713	7,34
210,93	13,48
211,147	111,78
211,364	-41,81
211,581	21,67
211,798	-7
212,015	-74,58
212,232	79,02
212,449	9,39
212,666	40,11
212,883	21,67
213,1	23,72
213,317	48,3
213,533	89,26
213,75	48,3
213,967	-2,9
214,184	-56,15
214,401	-52,05
214,618	17,58
214,835	-13,14
215,051	70,83
215,268	72,87
215,485	54,44
215,702	29,87
215,919	13,48
216,135	95,4
216,352	3,24
216,569	21,67
216,786	70,83
217,002	-11,09
217,219	70,83
217,436	29,87
217,652	21,67
217,869	54,44
218,086	91,31
218,302	33,96
218,519	97,45
218,736	-11,09
218,952	23,72
219,169	46,25
219,386	60,59
219,602	15,53
219,819	40,11
220,036	38,06
220,252	115,88
220,469	5,29
220,685	27,82
220,902	33,96
221,118	-19,29
221,335	9,39
221,552	-19,29
221,768	46,25
221,985	13,48
222,201	21,67
222,418	70,83
222,634	-50
222,851	7,34
223,067	48,3
223,284	-68,44
223,5	-19,29
223,716	-27,48
223,933	91,31
224,149	23,72
224,366	-11,09
224,582	21,67
224,799	54,44
225,015	-11,09
225,231	19,63
225,448	-35,67
225,664	38,06
225,88	-31,57
226,097	58,54
226,313	-60,24
226,529	54,44
226,746	54,44
226,962	74,92
227,178	7,34
227,395	-43,86
227,611	-27,48
227,827	13,48
228,044	136,36
228,26	105,64
228,476	38,06
228,692	42,15
228,909	40,11
229,125	101,55
229,341	29,87
229,557	-7
229,773	7,34
229,99	111,78
230,206	-80,72
230,422	64,68
230,638	-19,29
230,854	-31,57
231,07	-52,05
231,286	95,4
231,503	-31,57
231,719	-62,29
231,935	17,58
232,151	-0,85
232,367	74,92
232,583	50,35
232,799	29,87
233,015	89,26
233,231	19,63
233,447	23,72
233,663	46,25
233,879	29,87
234,095	-4,95
234,311	5,29
234,527	-11,09
234,743	136,36
234,959	54,44
235,175	21,67
235,391	-64,34
235,607	99,5
235,823	87,21
236,039	15,53
236,255	46,25
236,471	46,25
236,687	38,06
236,903	52,39
237,118	87,21
237,334	5,29
237,55	81,07
237,766	-19,29
237,982	27,82
238,198	46,25
238,413	54,44
238,629	81,07
238,845	42,15
239,061	5,29
239,277	-7
239,492	-39,76
239,708	40,11
239,924	-25,43
240,14	7,34
240,355	136,36
240,571	62,63
240,787	31,91
241,003	66,73
241,218	-56,15
241,434	60,59
241,65	144,55
241,865	-23,38
242,081	79,02
242,297	-15,19
242,512	42,15
242,728	70,83
242,944	-9,05
243,159	95,4
243,375	23,72
243,59	13,48
243,806	128,17
244,022	40,11
244,237	-2,9
244,453	13,48
244,668	97,45
244,884	165,03
245,099	72,87
245,315	95,4
245,53	23,72
245,746	119,98
245,961	17,58
246,177	54,44
246,392	242,85
246,608	111,78
246,823	50,35
247,039	19,63
247,254	-15,19
247,47	40,11
247,685	27,82
247,9	-25,43
248,116	-25,43
248,331	-43,86
248,547	58,54
248,762	-56,15
248,977	87,21
249,193	70,83
249,408	103,59
249,623	138,41
249,839	-43,86
250,054	-19,29
250,269	-27,48
250,485	97,45
250,7	-15,19
250,915	107,69
251,13	95,4
251,346	15,53
251,561	70,83
251,776	38,06
251,991	-109,4
252,207	91,31
252,422	-11,09
252,637	-11,09
252,852	21,67
253,067	23,72
253,283	99,5
253,498	46,25
253,713	21,67
253,928	-52,05
254,143	-19,29
254,358	38,06
254,573	1,19
254,788	-19,29
255,004	33,96
255,219	-35,67
255,434	-47,96
255,649	1,19
255,864	60,59
256,079	5,29
256,294	58,54
256,509	5,29
256,724	23,72
256,939	-60,24
257,154	13,48
257,369	83,11
257,584	70,83
257,799	7,34
258,014	-33,62
258,229	13,48
258,444	31,91
258,659	-43,86
258,874	79,02
259,089	48,3
259,304	-23,38
259,518	-19,29
259,733	15,53
259,948	17,58
260,163	107,69
260,378	42,15
260,593	-9,05
260,808	-33,62
261,022	-90,96
261,237	46,25
261,452	42,15
261,667	72,87
261,882	21,67
262,096	54,44
262,311	72,87
262,526	-0,85
262,741	25,77
262,955	-43,86
263,17	31,91
263,385	13,48
263,6	5,29
263,814	-15,19
264,029	-27,48
264,244	38,06
264,458	33,96
264,673	48,3
264,888	79,02
265,102	101,55
265,317	46,25
265,532	-58,2
265,746	95,4
265,961	103,59
266,175	13,48
266,39	-27,48
266,605	27,82
266,819	13,48
267,034	169,13
267,248	-66,39
267,463	-13,14
267,677	54,44
267,892	23,72
268,106	-117,59
268,321	124,07
268,535	40,11
268,75	132,26
268,964	-82,77
269,179	93,35
269,393	29,87
269,608	-0,85
269,822	-35,67
270,036	-56,15
270,251	62,63
270,465	-25,43
270,68	33,96
270,894	56,49
271,108	179,37
271,323	42,15
271,537	33,96
271,752	25,77
271,966	79,02
272,18	-21,33
272,394	-72,53
272,609	5,29
272,823	62,63
273,037	52,39
273,252	40,11
273,466	11,43
273,68	162,98
273,894	115,88
274,109	68,78
274,323	60,59
274,537	9,39
274,751	-21,33
274,966	146,6
275,18	23,72
275,394	83,11
275,608	-4,95
275,822	-43,86
276,036	54,44
276,25	3,24
276,465	66,73
276,679	154,79
276,893	15,53
277,107	177,32
277,321	-41,81
277,535	62,63
277,749	87,21
277,963	54,44
278,177	-27,48
278,391	56,49
278,605	-80,72
278,819	-27,48
279,033	-78,68
279,247	-58,2
279,461	-21,33
279,675	56,49
279,889	23,72
280,103	29,87
280,317	70,83
280,531	-52,05
280,745	23,72
280,959	-19,29
281,173	48,3
281,387	56,49
281,601	62,63
281,815	87,21
282,029	-72,53
282,242	38,06
282,456	13,48
282,67	15,53
282,884	15,53
283,098	-33,62
283,312	-41,81
283,525	13,48
283,739	38,06
283,953	50,35
284,167	66,73
284,381	66,73
284,594	17,58
284,808	-58,2
285,022	-9,05
285,235	5,29
285,449	29,87
285,663	48,3
285,877	36,01
286,09	-7
286,304	29,87
286,518	21,67
286,731	-21,33
286,945	46,25
287,159	9,39
287,372	70,83
287,586	64,68
287,799	5,29
288,013	-7
288,227	-2,9
288,44	269,48
288,654	111,78
288,867	85,16
289,081	31,91
289,294	97,45
289,508	126,12
289,721	7,34
289,935	7,34
290,148	62,63
290,362	79,02
290,575	79,02
290,789	-60,24
291,002	-27,48
291,216	105,64
291,429	9,39
291,643	-15,19
291,856	-41,81
292,069	31,91
292,283	23,72
292,496	-2,9
292,71	-23,38
292,923	-35,67
293,136	72,87
293,35	79,02
293,563	66,73
293,776	42,15
293,99	50,35
294,203	72,87
294,416	79,02
294,63	31,91
294,843	21,67
295,056	31,91
295,269	-19,29
295,483	-93,01
295,696	-33,62
295,909	87,21
296,122	70,83
296,335	87,21
296,549	11,43
296,762	-52,05
296,975	-31,57
297,188	38,06
297,401	25,77
297,615	38,06
297,828	-15,19
298,041	138,41
298,254	-123,73
298,467	1,19
298,68	21,67
298,893	3,24
299,106	-39,76
299,319	111,78
299,532	50,35
299,745	38,06
299,958	-17,24
300,171	-58,2
300,384	46,25
300,598	-35,67
300,81	64,68
301,023	-58,2
301,236	-52,05
301,449	66,73
301,662	-97,11
301,875	1,19
302,088	-7
302,301	87,21
302,514	-2,9
302,727	52,39
302,94	-25,43
303,153	21,67
303,366	9,39
303,579	-52,05
303,791	9,39
304,004	72,87
304,217	70,83
304,43	50,35
304,643	38,06
304,855	-64,34
305,068	111,78
305,281	113,83
305,494	25,77
305,707	-4,95
305,919	169,13
306,132	42,15
306,345	13,48
306,558	89,26
306,77	-66,39
306,983	-15,19
307,196	83,11
307,408	40,11
307,621	79,02
307,834	-29,52
308,046	21,67
308,259	-9,05
308,472	-21,33
308,684	72,87
308,897	-76,63
309,109	46,25
309,322	29,87
309,535	-11,09
309,747	138,41
309,96	64,68
310,172	103,59
310,385	60,59
310,597	-35,67
310,81	60,59
311,022	-60,24
311,235	21,67
311,447	-7
311,66	15,53
311,872	72,87
312,085	5,29
312,297	-23,38
312,51	-43,86
312,722	-17,24
312,934	17,58
313,147	-29,52
313,359	-43,86
313,572	-33,62
313,784	21,67
313,996	54,44
314,209	56,49
314,421	-2,9
314,633	-52,05
314,846	-9,05
315,058	3,24
315,27	46,25
315,483	21,67
315,695	89,26
315,907	-11,09
316,119	-15,19
316,332	-9,05
316,544	134,31
316,756	111,78
316,968	3,24
317,181	17,58
317,393	19,63
317,605	95,4
317,817	50,35
318,029	109,74
318,241	126,12
318,454	171,18
318,666	105,64
318,878	31,91
319,09	95,4
319,302	162,98
319,514	122,02
319,726	-15,19
319,938	81,07
320,15	128,17
320,362	105,64
320,574	-109,4
320,786	-19,29
320,999	-88,92
321,211	46,25
321,423	111,78
321,635	-35,67
321,847	50,35
322,058	-41,81
322,27	85,16
322,482	105,64
322,694	124,07
322,906	13,48
323,118	-43,86
323,33	79,02
323,542	93,35
323,754	-31,57
323,966	-101,2
324,178	126,12
324,389	7,34
324,601	105,64
324,813	97,45
325,025	27,82
325,237	40,11
325,449	142,5
325,66	46,25
325,872	70,83
326,084	-11,09
326,296	46,25
326,507	29,87
326,719	13,48
326,931	-52,05
327,143	95,4
327,354	29,87
327,566	111,78
327,778	38,06
327,989	60,59
328,201	-52,05
328,413	29,87
328,624	109,74
328,836	42,15
329,048	-27,48
329,259	21,67
329,471	13,48
329,682	23,72
329,894	-19,29
330,106	-93,01
330,317	13,48
330,529	62,63
330,74	13,48
330,952	38,06
331,163	21,67
331,375	21,67
331,586	-9,05
331,798	-60,24
332,009	-25,43
332,221	27,82
332,432	19,63
332,644	15,53
332,855	-35,67
333,067	23,72
333,278	81,07
333,489	130,22
333,701	17,58
333,912	-9,05
334,124	-50
334,335	7,34
334,546	25,77
334,758	-7
334,969	246,95
335,18	-52,05
335,392	50,35
335,603	103,59
335,814	70,83
336,025	-39,76
336,237	-41,81
336,448	-84,82
336,659	40,11
336,87	93,35
337,082	46,25
337,293	46,25
337,504	21,67
337,715	31,91
337,926	7,34
338,138	38,06
338,349	25,77
338,56	38,06
338,771	23,72
338,982	50,35
339,193	-11,09
339,404	95,4
339,616	1,19
339,827	74,92
340,038	31,91
340,249	-11,09
340,46	5,29
340,671	54,44
340,882	144,55
341,093	103,59
341,304	5,29
341,515	-9,05
341,726	17,58
341,937	-21,33
342,148	38,06
342,359	-64,34
342,57	29,87
342,781	91,31
342,992	-41,81
343,203	5,29
343,414	31,91
343,624	-52,05
343,835	-93,01
344,046	40,11
344,257	54,44
344,468	-11,09
344,679	40,11
344,89	21,67
345,1	9,39
345,311	29,87
345,522	-29,52
345,733	91,31
345,944	119,98
346,154	83,11
346,365	79,02
346,576	1,19
346,787	-9,05
346,997	105,64
347,208	91,31
347,419	-47,96
347,629	70,83
347,84	81,07
348,051	46,25
348,261	70,83
348,472	-25,43
348,683	89,26
348,893	-52,05
349,104	15,53
349,315	-74,58
349,525	-35,67
349,736	54,44
349,946	-60,24
350,157	138,41
350,368	144,55
350,578	-11,09
350,789	-4,95
350,999	-27,48
351,21	52,39
351,42	-129,88
351,631	7,34
351,841	-60,24
352,052	15,53
352,262	33,96
352,472	-43,86
352,683	-2,9
352,893	29,87
353,104	-15,19
353,314	140,46
353,525	455,84
353,735	7,34
353,945	-27,48
354,156	-35,67
354,366	54,44
354,576	103,59
354,787	38,06
354,997	-35,67
355,207	-64,34
355,418	1,19
355,628	-43,86
355,838	13,48
356,048	-33,62
356,259	103,59
356,469	1,19
356,679	29,87
356,889	81,07
357,1	-0,85
357,31	-0,85
357,52	-27,48
357,73	-19,29
357,94	-11,09
358,15	-17,24
358,361	38,06
358,571	56,49
358,781	42,15
358,991	-121,68
359,201	42,15
359,411	-41,81
359,621	5,29
359,831	40,11
360,041	7,34
360,251	23,72
360,461	13,48
360,672	62,63
360,882	-99,16
361,092	-7
361,302	79,02
361,512	115,88
361,721	-27,48
361,931	23,72
362,141	33,96
362,351	27,82
362,561	122,02
362,771	-9,05
362,981	40,11
363,191	-68,44
363,401	9,39
363,611	-0,85
363,821	-23,38
364,03	-21,33
364,24	21,67
364,45	-11,09
364,66	314,53
364,87	21,67
365,08	81,07
365,289	-35,67
365,499	-50
365,709	44,2
365,919	29,87
366,128	15,53
366,338	79,02
366,548	-7
366,758	-31,57
366,967	21,67
367,177	89,26
367,387	38,06
367,596	46,25
367,806	46,25
368,016	33,96
368,225	42,15
368,435	115,88
368,644	-19,29
368,854	72,87
369,064	115,88
369,273	79,02
369,483	68,78
369,692	-39,76
369,902	-2,9
370,111	105,64
370,321	17,58
370,53	-41,81
370,74	-76,63
370,949	66,73
371,159	95,4
371,368	54,44
371,578	42,15
371,787	5,29
371,997	79,02
372,206	21,67
372,416	23,72
372,625	38,06
372,834	50,35
373,044	-31,57
373,253	119,98
373,462	64,68
373,672	42,15
373,881	-35,67
374,09	83,11
374,3	62,63
374,509	-31,57
374,718	40,11
374,928	54,44
375,137	58,54
375,346	40,11
375,555	193,7
375,765	-0,85
375,974	46,25
376,183	29,87
376,392	54,44
376,601	48,3
376,811	29,87
377,02	46,25
377,229	29,87
377,438	111,78
377,647	-27,48
377,856	62,63
378,065	44,2
378,275	40,11
378,484	21,67
378,693	5,29
378,902	60,59
379,111	70,83
379,32	-11,09
379,529	3,24
379,738	42,15
379,947	40,11
380,156	-25,43
380,365	27,82
380,574	103,59
380,783	9,39
380,992	44,2
381,201	95,4
381,41	72,87
381,619	-9,05
381,828	64,68
382,037	40,11
382,245	111,78
382,454	193,7
382,663	52,39
382,872	9,39
383,081	46,25
383,29	87,21
383,499	81,07
383,707	95,4
383,916	62,63
384,125	48,3
384,334	76,97
384,542	111,78
384,751	89,26
384,96	13,48
385,169	13,48
385,377	83,11
385,586	87,21
385,795	144,55
386,004	113,83
386,212	-11,09
386,421	72,87
386,63	406,69
386,838	736,42
387,047	1244,31
387,255	1897,61
387,464	2784,38
387,673	3789,94
387,881	4998,24
388,09	5772,37
388,298	6825,03
388,507	8381,48
388,715	10161,17
388,924	11269,12
389,133	10769,41
389,341	10454,03
389,55	9036,83
389,758	6896,71
389,967	4535,4
390,175	2890,88
390,383	2370,69
390,592	1823,89
390,8	1113,24
391,009	754,85
391,217	545,95
391,426	347,3
391,634	111,78
391,842	113,83
392,051	113,83
392,259	148,65
392,467	21,67
392,676	-4,95
392,884	19,63
393,092	62,63
393,301	101,55
393,509	13,48
393,717	56,49
393,925	97,45
394,134	-43,86
394,342	62,63
394,55	107,69
394,758	89,26
394,967	-2,9
395,175	27,82
395,383	138,41
395,591	122,02
395,799	136,36
396,007	160,94
396,216	283,81
396,424	218,28
396,632	234,66
396,84	216,23
397,048	277,67
397,256	193,7
397,464	56,49
397,672	119,98
397,88	25,77
398,088	81,07
398,296	13,48
398,504	9,39
398,712	21,67
398,92	36,01
399,128	-76,63
399,336	-35,67
399,544	-2,9
399,752	-60,24
399,96	29,87
400,168	25,77
400,376	21,67
400,584	66,73
400,792	58,54
401	-11,09
401,207	54,44
401,415	214,18
401,623	201,9
401,831	162,98
402,039	269,48
402,247	326,82
402,454	406,69
402,662	414,88
402,87	435,36
403,078	480,42
403,285	375,97
403,493	283,81
403,701	269,48
403,909	105,64
404,116	138,41
404,324	109,74
404,532	93,35
404,739	25,77
404,947	3,24
405,155	25,77
405,362	31,91
405,57	109,74
405,778	-76,63
405,985	31,91
406,193	-33,62
406,4	-43,86
406,608	87,21
406,816	13,48
407,023	5,29
407,231	-4,95
407,438	66,73
407,646	36,01
407,853	-27,48
408,061	7,34
408,268	62,63
408,476	-101,2
408,683	56,49
408,89	115,88
409,098	128,17
409,305	46,25
409,513	66,73
409,72	5,29
409,927	5,29
410,135	62,63
410,342	-19,29
410,55	107,69
410,757	91,31
410,964	-15,19
411,172	111,78
411,379	60,59
411,586	152,74
411,793	62,63
412,001	31,91
412,208	91,31
412,415	83,11
412,622	103,59
412,83	54,44
413,037	128,17
413,244	-11,09
413,451	87,21
413,658	130,22
413,866	64,68
414,073	38,06
414,28	158,89
414,487	7,34
414,694	54,44
414,901	103,59
415,108	111,78
415,315	95,4
415,522	154,79
415,73	5,29
415,937	42,15
416,144	-35,67
416,351	42,15
416,558	54,44
416,765	-41,81
416,972	70,83
417,179	62,63
417,386	89,26
417,593	29,87
417,8	-35,67
418,006	13,48
418,213	103,59
418,42	74,92
418,627	107,69
418,834	-35,67
419,041	62,63
419,248	13,48
419,455	29,87
419,661	119,98
419,868	64,68
420,075	40,11
420,282	7,34
420,489	-41,81
420,696	-35,67
420,902	21,67
421,109	-17,24
421,316	5,29
421,523	79,02
421,729	79,02
421,936	-2,9
422,143	66,73
422,349	-2,9
422,556	-21,33
422,763	42,15
422,969	-0,85
423,176	-31,57
423,383	124,07
423,589	261,29
423,796	79,02
424,002	-58,2
424,209	66,73
424,416	23,72
424,622	-84,82
424,829	-29,52
425,035	-90,96
425,242	19,63
425,448	-17,24
425,655	66,73
425,861	79,02
426,068	40,11
426,274	124,07
426,481	-11,09
426,687	33,96
426,894	-43,86
427,1	-52,05
427,306	64,68
427,513	-31,57
427,719	1,19
427,926	56,49
428,132	95,4
428,338	21,67
428,545	66,73
428,751	-15,19
428,957	25,77
429,163	9,39
429,37	111,78
429,576	33,96
429,782	17,58
429,989	13,48
430,195	13,48
430,401	54,44
430,607	-2,9
430,813	13,48
431,02	83,11
431,226	111,78
431,432	21,67
431,638	-19,29
431,844	-68,44
432,05	5,29
432,257	-43,86
432,463	-2,9
432,669	62,63
432,875	-7
433,081	-11,09
433,287	52,39
433,493	-11,09
433,699	74,92
433,905	46,25
434,111	-62,29
434,317	-23,38
434,523	72,87
434,729	-27,48
434,935	-11,09
435,141	158,89
435,347	40,11
435,553	38,06
435,759	13,48
435,965	58,54
436,171	5,29
436,377	62,63
436,582	64,68
436,788	-31,57
436,994	111,78
437,2	5,29
437,406	48,3
437,612	70,83
437,818	79,02
438,023	-84,82
438,229	236,71
438,435	160,94
438,641	136,36
438,846	197,8
439,052	156,84
439,258	249
439,464	74,92
439,669	103,59
439,875	144,55
440,081	95,4
440,286	33,96
440,492	87,21
440,698	15,53
440,903	21,67
441,109	140,46
441,314	5,29
441,52	-7
441,726	62,63
441,931	38,06
442,137	38,06
442,342	44,2
442,548	95,4
442,753	183,46
442,959	19,63
443,164	15,53
443,37	115,88
443,575	70,83
443,781	23,72
443,986	87,21
444,192	31,91
444,397	7,34
444,602	23,72
444,808	-25,43
445,013	64,68
445,219	259,24
445,424	447,65
445,629	703,65
445,835	963,74
446,04	1301,65
446,245	1610,9
446,451	1887,37
446,656	2217,1
446,861	2618,5
447,066	3259,51
447,272	3511,41
447,477	3429,49
447,682	3196,03
447,887	2700,42
448,093	2266,25
448,298	1778,83
448,503	1088,67
448,708	705,7
448,913	408,74
449,118	349,35
449,324	173,22
449,529	148,65
449,734	72,87
449,939	29,87
450,144	29,87
450,349	79,02
450,554	17,58
450,759	107,69
450,964	31,91
451,169	64,68
451,374	-47,96
451,579	46,25
451,784	-2,9
451,989	56,49
452,194	5,29
452,399	13,48
452,604	25,77
452,809	21,67
453,014	15,53
453,219	23,72
453,424	122,02
453,629	5,29
453,833	7,34
454,038	9,39
454,243	-11,09
454,448	-29,52
454,653	79,02
454,858	13,48
455,062	-2,9
455,267	50,35
455,472	97,45
455,677	60,59
455,882	3,24
456,086	89,26
456,291	119,98
456,496	-80,72
456,7	-0,85
456,905	33,96
457,11	21,67
457,314	15,53
457,519	-9,05
457,724	38,06
457,928	85,16
458,133	-33,62
458,338	-39,76
458,542	89,26
458,747	38,06
458,951	50,35
459,156	93,35
459,36	-35,67
459,565	93,35
459,769	-4,95
459,974	187,56
460,178	-43,86
460,383	29,87
460,587	7,34
460,792	-4,95
460,996	-37,72
461,201	-52,05
461,405	-0,85
461,61	-107,35
461,814	9,39
462,018	-76,63
462,223	-11,09
462,427	-25,43
462,631	54,44
462,836	5,29
463,04	83,11
463,244	97,45
463,449	29,87
463,653	128,17
463,857	38,06
464,062	152,74
464,266	46,25
464,47	66,73
464,674	29,87
464,878	103,59
465,083	103,59
465,287	72,87
465,491	9,39
465,695	56,49
465,899	38,06
466,104	113,83
466,308	70,83
466,512	23,72
466,716	72,87
466,92	38,06
467,124	103,59
467,328	52,39
467,532	85,16
467,736	44,2
467,94	103,59
468,144	-56,15
468,348	25,77
468,552	130,22
468,756	54,44
468,96	19,63
469,164	-2,9
469,368	5,29
469,572	115,88
469,776	255,14
469,98	292,01
470,184	277,67
470,388	408,74
470,591	513,19
470,795	576,67
470,999	662,69
471,203	752,8
471,407	906,4
471,611	834,72
471,814	693,41
472,018	623,78
472,222	623,78
472,426	513,19
472,63	431,27
472,833	341,16
473,037	234,66
473,241	113,83
473,444	99,5
473,648	441,51
473,852	42,15
474,055	124,07
474,259	87,21
474,463	83,11
474,666	72,87
474,87	9,39
475,074	56,49
475,277	62,63
475,481	64,68
475,684	-19,29
475,888	21,67
476,091	33,96
476,295	62,63
476,498	-13,14
476,702	33,96
476,905	99,5
477,109	111,78
477,312	50,35
477,516	-27,48
477,719	89,26
477,923	-86,87
478,126	48,3
478,329	-27,48
478,533	-29,52
478,736	97,45
478,94	11,43
479,143	-23,38
479,346	95,4
479,55	9,39
479,753	5,29
479,956	-60,24
480,159	-17,24
480,363	33,96
480,566	115,88
480,769	-9,05
480,972	-27,48
481,176	-27,48
481,379	218,28
481,582	124,07
481,785	-58,2
481,988	29,87
482,192	95,4
482,395	48,3
482,598	-41,81
482,801	56,49
483,004	113,83
483,207	21,67
483,41	64,68
483,613	128,17
483,817	54,44
484,02	-11,09
484,223	-27,48
484,426	21,67
484,629	-47,96
484,832	81,07
485,035	70,83
485,238	38,06
485,441	87,21
485,644	23,72
485,846	7,34
486,049	-9,05
486,252	13,48
486,455	-99,16
486,658	29,87
486,861	58,54
487,064	95,4
487,267	-50
487,47	64,68
487,672	33,96
487,875	42,15
488,078	-11,09
488,281	87,21
488,484	25,77
488,686	115,88
488,889	-2,9
489,092	-31,57
489,295	31,91
489,497	122,02
489,7	64,68
489,903	21,67
490,105	29,87
490,308	128,17
490,511	201,9
490,713	316,58
490,916	441,51
491,118	588,96
491,321	709,79
491,524	910,49
491,726	1051,8
491,929	1160,34
492,131	1254,55
492,334	1416,34
492,536	1520,79
492,739	1377,43
492,941	1297,56
493,144	1064,09
493,346	879,77
493,549	722,08
493,751	418,98
493,954	263,33
494,156	222,38
494,359	128,17
494,561	58,54
494,763	40,11
494,966	58,54
495,168	79,02
495,37	-19,29
495,573	36,01
495,775	113,83
495,977	62,63
496,18	70,83
496,382	87,21
496,584	46,25
496,787	103,59
496,989	-9,05
497,191	29,87
497,393	115,88
497,595	-43,86
497,798	38,06
498	85,16
498,202	-41,81
498,404	-2,9
498,606	58,54
498,808	154,79
499,011	91,31
499,213	54,44
499,415	140,46
499,617	253,09
499,819	591,01
500,021	844,96
500,223	1215,64
500,425	1737,87
500,627	2266,25
500,829	2868,35
501,031	3576,95
501,233	3935,34
501,435	4539,49
501,637	5082,21
501,839	4895,84
502,041	5010,53
502,243	4691,04
502,445	4037,74
502,647	3327,1
502,848	2548,87
503,05	1895,57
503,252	1365,14
503,454	1008,8
503,656	627,87
503,858	459,94
504,059	349,35
504,261	283,81
504,463	447,65
504,665	191,66
504,867	316,58
505,068	269,48
505,27	226,47
505,472	246,95
505,673	249
505,875	189,61
506,077	93,35
506,278	13,48
506,48	115,88
506,682	-39,76
506,883	21,67
507,085	72,87
507,287	7,34
507,488	81,07
507,69	38,06
507,891	5,29
508,093	87,21
508,294	-50
508,496	36,01
508,697	-82,77
508,899	9,39
509,1	89,26
509,302	60,59
509,503	56,49
509,705	38,06
509,906	1,19
510,108	7,34
510,309	-13,14
510,51	72,87
510,712	-9,05
510,913	9,39
511,114	54,44
511,316	-146,26
511,517	54,44
511,718	-39,76
511,92	19,63
512,121	-43,86
512,322	23,72
512,524	140,46
512,725	-4,95
512,926	50,35
513,127	-11,09
513,329	29,87
513,53	-11,09
513,731	70,83
513,932	38,06
514,133	5,29
514,334	-68,44
514,536	119,98
514,737	152,74
514,938	33,96
515,139	15,53
515,34	-2,9
515,541	46,25
515,742	40,11
515,943	89,26
516,144	66,73
516,345	58,54
516,546	-19,29
516,747	29,87
516,948	119,98
517,149	-64,34
517,35	-50
517,551	38,06
517,752	46,25
517,953	58,54
518,154	-19,29
518,355	103,59
518,556	-13,14
518,756	-35,67
518,957	15,53
519,158	103,59
519,359	19,63
519,56	48,3
519,761	-39,76
519,961	31,91
520,162	183,46
520,363	-50
520,564	46,25
520,764	138,41
520,965	-21,33
521,166	21,67
521,366	54,44
521,567	54,44
521,768	128,17
521,968	15,53
522,169	-2,9
522,37	-27,48
522,57	-27,48
522,771	70,83
522,972	-23,38
523,172	169,13
523,373	46,25
523,573	50,35
523,774	50,35
523,974	58,54
524,175	23,72
524,375	66,73
524,576	13,48
524,776	13,48
524,977	-19,29
525,177	72,87
525,378	46,25
525,578	31,91
525,778	70,83
525,979	72,87
526,179	-25,43
526,38	-64,34
526,58	-17,24
526,78	-2,9
526,981	79,02
527,181	105,64
527,381	-9,05
527,582	97,45
527,782	136,36
527,982	62,63
528,182	54,44
528,383	46,25
528,583	-19,29
528,783	79,02
528,983	19,63
529,183	19,63
529,384	-7
529,584	81,07
529,784	72,87
529,984	91,31
530,184	-33,62
530,384	-43,86
530,584	-39,76
530,784	58,54
530,984	89,26
531,185	165,03
531,385	122,02
531,585	107,69
531,785	152,74
531,985	-50
532,185	66,73
532,385	15,53
532,585	74,92
532,785	31,91
532,984	44,2
533,184	54,44
533,384	33,96
533,584	-93,01
533,784	107,69
533,984	23,72
534,184	-33,62
534,384	25,77
534,583	128,17
534,783	-52,05
534,983	79,02
535,183	-17,24
535,383	5,29
535,582	68,78
535,782	21,67
535,982	54,44
536,182	-19,29
536,381	54,44
536,581	-11,09
536,781	15,53
536,98	-15,19
537,18	46,25
537,38	33,96
537,579	58,54
537,779	95,4
537,979	31,91
538,178	-19,29
538,378	89,26
538,577	29,87
538,777	-60,24
538,976	7,34
539,176	70,83
539,376	13,48
539,575	21,67
539,774	183,46
539,974	-50
540,173	40,11
540,373	15,53
540,572	-74,58
540,772	31,91
540,971	-41,81
541,171	95,4
541,37	46,25
541,569	-23,38
541,769	36,01
541,968	33,96
542,167	33,96
542,367	152,74
542,566	62,63
542,765	23,72
542,965	21,67
543,164	-47,96
543,363	-58,2
543,562	38,06
543,761	76,97
543,961	5,29
544,16	-90,96
544,359	152,74
544,558	79,02
544,757	-99,16
544,957	-41,81
545,156	119,98
545,355	21,67
545,554	105,64
545,753	7,34
545,952	56,49
546,151	113,83
546,35	-9,05
546,549	95,4
546,748	21,67
546,947	-23,38
547,146	-43,86
547,345	25,77
547,544	-17,24
547,743	89,26
547,942	66,73
548,141	117,93
548,34	62,63
548,539	-54,1
548,738	-29,52
548,937	140,46
549,135	42,15
549,334	38,06
549,533	13,48
549,732	66,73
549,931	15,53
550,13	27,82
550,328	-2,9
550,527	-2,9
550,726	68,78
550,925	-64,34
551,123	72,87
551,322	-68,44
551,521	122,02
551,72	13,48
551,918	46,25
552,117	81,07
552,315	-25,43
552,514	21,67
552,713	-0,85
552,911	-74,58
553,11	-9,05
553,309	-9,05
553,507	81,07
553,706	-11,09
553,904	-37,72
554,103	21,67
554,301	48,3
554,5	-50
554,698	23,72
554,897	-43,86
555,095	15,53
555,294	-60,24
555,492	38,06
555,69	95,4
555,889	-70,48
556,087	48,3
556,286	113,83
556,484	74,92
556,682	15,53
556,881	128,17
557,079	-2,9
557,277	38,06
557,476	46,25
557,674	99,5
557,872	79,02
558,07	17,58
558,269	-0,85
558,467	79,02
558,665	115,88
558,863	72,87
559,062	107,69
559,26	38,06
559,458	-64,34
559,656	64,68
559,854	25,77
560,052	46,25
560,25	38,06
560,449	277,67
560,647	95,4
560,845	29,87
561,043	70,83
561,241	148,65
561,439	79,02
561,637	-0,85
561,835	95,4
562,033	158,89
562,231	27,82
562,429	27,82
562,627	29,87
562,825	19,63
563,023	130,22
563,221	54,44
563,418	31,91
563,616	105,64
563,814	83,11
564,012	62,63
564,21	107,69
564,408	87,21
564,605	27,82
564,803	-2,9
565,001	230,57
565,199	15,53
565,397	48,3
565,594	162,98
565,792	140,46
565,99	87,21
566,188	128,17
566,385	79,02
566,583	29,87
566,781	107,69
566,978	154,79
567,176	136,36
567,373	95,4
567,571	15,53
567,769	58,54
567,966	23,72
568,164	87,21
568,361	-19,29
568,559	74,92
568,756	5,29
568,954	119,98
569,151	119,98
569,349	140,46
569,546	111,78
569,744	105,64
569,941	99,5
570,139	62,63
570,336	21,67
570,534	44,2
570,731	15,53
570,928	29,87
571,126	169,13
571,323	58,54
571,52	-33,62
571,718	68,78
571,915	79,02
572,112	-64,34
572,31	97,45
572,507	156,84
572,704	62,63
572,901	62,63
573,099	72,87
573,296	197,8
573,493	89,26
573,69	74,92
573,887	38,06
574,085	199,85
574,282	62,63
574,479	95,4
574,676	93,35
574,873	46,25
575,07	142,5
575,267	-11,09
575,464	46,25
575,661	203,94
575,858	95,4
576,055	79,02
576,252	107,69
576,449	136,36
576,646	79,02
576,843	7,34
577,04	124,07
577,237	144,55
577,434	107,69
577,631	46,25
577,828	199,85
578,025	33,96
578,222	148,65
578,419	144,55
578,615	54,44
578,812	54,44
579,009	-0,85
579,206	72,87
579,403	95,4
579,599	162,98
579,796	5,29
579,993	185,51
580,19	42,15
580,386	140,46
580,583	111,78
580,78	64,68
580,976	113,83
581,173	117,93
581,37	93,35
581,566	140,46
581,763	119,98
581,96	179,37
582,156	122,02
582,353	99,5
582,549	218,28
582,746	156,84
582,942	54,44
583,139	142,5
583,335	119,98
583,532	267,43
583,728	122,02
583,925	238,76
584,121	128,17
584,318	173,22
584,514	181,42
584,711	310,44
584,907	244,9
585,103	316,58
585,3	310,44
585,496	455,84
585,693	1014,94
585,889	3773,55
586,085	8412,2
586,281	14509,01
586,478	22170,46
586,674	29590,25
586,87	38693,47
587,067	47507,93
587,263	52492,68
587,459	56265,04
587,655	59656,48
587,851	60381,46
588,048	59597,09
588,244	55869,78
588,44	53090,69
588,636	46731,75
588,832	40106,57
589,028	33352,37
589,224	27196,17
589,42	21541,73
589,617	15621,05
589,813	10368,01
590,009	6161,48
590,205	3892,34
590,401	2380,93
590,597	1498,26
590,793	1127,58
590,989	861,34
591,185	717,98
591,38	580,77
591,576	398,5
591,772	328,87
591,968	373,92
592,164	316,58
592,36	251,05
592,556	226,47
592,752	292,01
592,948	138,41
593,143	70,83
593,339	70,83
593,535	83,11
593,731	95,4
593,926	169,13
594,122	115,88
594,318	212,14
594,514	158,89
594,709	64,68
594,905	154,79
595,101	1,19
595,296	62,63
595,492	185,51
595,688	74,92
595,883	130,22
596,079	138,41
596,275	40,11
596,47	56,49
596,666	122,02
596,861	21,67
597,057	83,11
597,252	-15,19
597,448	42,15
597,643	130,22
597,839	119,98
598,034	146,6
598,23	21,67
598,425	146,6
598,621	99,5
598,816	62,63
599,011	99,5
599,207	40,11
599,402	58,54
599,597	152,74
599,793	115,88
599,988	-4,95
600,183	83,11
600,379	58,54
600,574	62,63
600,769	171,18
600,965	103,59
601,16	70,83
601,355	74,92
601,55	107,69
601,745	33,96
601,941	152,74
602,136	132,26
602,331	62,63
602,526	17,58
602,721	119,98
602,916	79,02
603,111	-19,29
603,307	21,67
603,502	62,63
603,697	-11,09
603,892	144,55
604,087	13,48
604,282	203,94
604,477	99,5
604,672	64,68
604,867	-11,09
605,062	83,11
605,257	85,16
605,452	83,11
605,646	136,36
605,841	17,58
606,036	46,25
606,231	29,87
606,426	-9,05
606,621	-27,48
606,816	89,26
607,01	111,78
607,205	81,07
607,4	70,83
607,595	1,19
607,79	1,19
607,984	29,87
608,179	87,21
608,374	115,88
608,569	62,63
608,763	13,48
608,958	25,77
609,153	87,21
609,347	56,49
609,542	48,3
609,736	126,12
609,931	64,68
610,126	87,21
610,32	93,35
610,515	-103,25
610,709	349,35
610,904	89,26
611,098	62,63
611,293	56,49
611,487	107,69
611,682	21,67
611,876	38,06
612,071	58,54
612,265	1,19
612,46	46,25
612,654	165,03
612,848	-9,05
613,043	54,44
613,237	27,82
613,432	-76,63
613,626	62,63
613,82	13,48
614,014	97,45
614,209	62,63
614,403	7,34
614,597	-0,85
614,792	171,18
614,986	54,44
615,18	62,63
615,374	111,78
615,568	-23,38
615,763	15,53
615,957	23,72
616,151	83,11
616,345	136,36
616,539	-25,43
616,733	15,53
616,927	128,17
617,121	-9,05
617,316	89,26
617,51	52,39
617,704	87,21
617,898	146,6
618,092	52,39
618,286	-15,19
618,48	-31,57
618,674	95,4
618,868	136,36
619,061	38,06
619,255	105,64
619,449	99,5
619,643	29,87
619,837	97,45
620,031	33,96
620,225	134,31
620,419	66,73
620,612	99,5
620,806	124,07
621	87,21
621,194	46,25
621,388	46,25
621,581	122,02
621,775	-0,85
621,969	124,07
622,162	64,68
622,356	31,91
622,55	93,35
622,743	79,02
622,937	83,11
623,131	103,59
623,324	140,46
623,518	-25,43
623,712	25,77
623,905	62,63
624,099	83,11
624,292	29,87
624,486	23,72
624,679	29,87
624,873	97,45
625,066	85,16
625,26	42,15
625,453	25,77
625,647	-43,86
625,84	160,94
626,034	103,59
626,227	95,4
626,42	130,22
626,614	11,43
626,807	128,17
627	5,29
627,194	87,21
627,387	128,17
627,58	-27,48
627,774	62,63
627,967	97,45
628,16	42,15
628,353	38,06
628,547	101,55
628,74	148,65
628,933	-90,96
629,126	38,06
629,319	48,3
629,513	38,06
629,706	21,67
629,899	95,4
630,092	5,29
630,285	-0,85
630,478	-13,14
630,671	-33,62
630,864	99,5
631,057	13,48
631,25	46,25
631,443	62,63
631,636	-31,57
631,829	160,94
632,022	175,27
632,215	48,3
632,408	23,72
632,601	72,87
632,794	1,19
632,987	21,67
633,18	79,02
633,373	146,6
633,566	54,44
633,758	-35,67
633,951	38,06
634,144	-25,43
634,337	9,39
634,53	56,49
634,722	128,17
634,915	21,67
635,108	23,72
635,301	70,83
635,493	115,88
635,686	220,33
635,879	-43,86
636,071	-7
636,264	56,49
636,457	70,83
636,649	21,67
636,842	1,19
637,034	72,87
637,227	40,11
637,42	40,11
637,612	25,77
637,805	-109,4
637,997	111,78
638,19	33,96
638,382	19,63
638,575	5,29
638,767	38,06
638,96	62,63
639,152	68,78
639,344	119,98
639,537	29,87
639,729	38,06
639,922	46,25
640,114	85,16
640,306	95,4
640,499	70,83
640,691	56,49
640,883	-27,48
641,075	64,68
641,268	103,59
641,46	5,29
641,652	46,25
641,844	25,77
642,037	70,83
642,229	40,11
642,421	107,69
642,613	38,06
642,805	29,87
642,998	15,53
643,19	29,87
643,382	160,94
643,574	113,83
643,766	31,91
643,958	79,02
644,15	83,11
644,342	91,31
644,534	93,35
644,726	25,77
644,918	70,83
645,11	-43,86
645,302	76,97
645,494	70,83
645,686	-17,24
645,878	50,35
646,07	15,53
646,262	29,87
646,453	31,91
646,645	50,35
646,837	119,98
647,029	-23,38
647,221	23,72
647,413	17,58
647,604	7,34
647,796	99,5
647,988	54,44
648,18	-25,43
648,371	52,39
648,563	38,06
648,755	87,21
648,947	-41,81
649,138	-17,24
649,33	13,48
649,521	-35,67
649,713	50,35
649,905	13,48
650,096	5,29
650,288	54,44
650,479	74,92
650,671	72,87
650,863	5,29
651,054	62,63
651,246	122,02
651,437	89,26
651,629	105,64
651,82	81,07
652,011	46,25
652,203	56,49
652,394	95,4
652,586	124,07
652,777	-58,2
652,968	62,63
653,16	-0,85
653,351	52,39
653,542	169,13
653,734	38,06
653,925	-60,24
654,116	29,87
654,308	54,44
654,499	-25,43
654,69	25,77
654,881	130,22
655,073	33,96
655,264	117,93
655,455	-2,9
655,646	87,21
655,837	136,36
656,028	122,02
656,219	1,19
656,411	105,64
656,602	83,11
656,793	169,13
656,984	79,02
657,175	5,29
657,366	-17,24
657,557	89,26
657,748	40,11
657,939	46,25
658,13	50,35
658,321	81,07
658,512	85,16
658,703	156,84
658,894	72,87
659,084	124,07
659,275	89,26
659,466	103,59
659,657	132,26
659,848	130,22
660,039	76,97
660,23	50,35
660,42	54,44
660,611	21,67
660,802	54,44
660,993	25,77
661,183	64,68
661,374	-0,85
661,565	119,98
661,755	79,02
661,946	48,3
662,137	74,92
662,327	72,87
662,518	46,25
662,709	31,91
662,899	-23,38
663,09	103,59
663,28	81,07
663,471	154,79
663,662	177,32
663,852	46,25
664,043	74,92
664,233	25,77
664,424	42,15
664,614	87,21
664,804	5,29
664,995	160,94
665,185	95,4
665,376	56,49
665,566	156,84
665,756	-35,67
665,947	154,79
666,137	304,29
666,328	1045,66
666,518	2260,1
666,708	4019,31
666,898	5567,57
667,089	7693,37
667,279	9321,5
667,469	11015,17
667,659	11781,11
667,85	12256,24
668,04	12344,3
668,23	12049,39
668,42	11600,89
668,61	10540,04
668,8	9724,95
668,991	8805,41
669,181	7621,69
669,371	6476,87
669,561	5780,56
669,751	4920,42
669,941	3945,58
670,131	2974,85
670,321	2126,99
670,511	1371,29
670,701	963,74
670,891	701,6
671,081	492,71
671,271	228,52
671,461	160,94
671,651	179,37
671,841	70,83
672,03	240,81
672,22	72,87
672,41	148,65
672,6	169,13
672,79	150,7
672,98	29,87
673,169	87,21
673,359	36,01
673,549	40,11
673,739	7,34
673,928	-2,9
674,118	46,25
674,308	46,25
674,497	136,36
674,687	-27,48
674,877	56,49
675,066	50,35
675,256	58,54
675,446	42,15
675,635	15,53
675,825	5,29
676,014	81,07
676,204	70,83
676,393	70,83
676,583	42,15
676,772	132,26
676,962	40,11
677,151	15,53
677,341	5,29
677,53	95,4
677,72	101,55
677,909	9,39
678,099	13,48
678,288	-17,24
678,477	160,94
678,667	79,02
678,856	58,54
679,045	148,65
679,235	64,68
679,424	89,26
679,613	154,79
679,802	62,63
679,992	109,74
680,181	23,72
680,37	95,4
680,559	79,02
680,748	42,15
680,938	152,74
681,127	95,4
681,316	146,6
681,505	-23,38
681,694	23,72
681,883	17,58
682,072	13,48
682,261	89,26
682,45	21,67
682,639	-76,63
682,828	87,21
683,017	128,17
683,206	54,44
683,395	-15,19
683,584	101,55
683,773	29,87
683,962	46,25
684,151	-43,86
684,34	54,44
684,529	-43,86
684,718	21,67
684,907	48,3
685,095	144,55
685,284	119,98
685,473	126,12
685,662	-78,68
685,851	58,54
686,039	60,59
686,228	66,73
686,417	-2,9
686,606	130,22
686,794	5,29
686,983	-0,85
687,172	140,46
687,36	7,34
687,549	17,58
687,738	-27,48
687,926	-4,95
688,115	62,63
688,303	9,39
688,492	81,07
688,68	-2,9
688,869	-9,05
689,057	-52,05
689,246	-23,38
689,434	101,55
689,623	-35,67
689,811	40,11
690	79,02
690,188	42,15
690,377	21,67
690,565	105,64
690,753	197,8
690,942	54,44
691,13	70,83
691,318	81,07
691,507	38,06
691,695	128,17
691,883	50,35
692,072	25,77
692,26	169,13
692,448	54,44
692,636	-19,29
692,824	7,34
693,013	31,91
693,201	38,06
693,389	-2,9
693,577	48,3
693,765	99,5
693,953	15,53
694,141	17,58
694,329	-19,29
694,518	-27,48
694,706	122,02
694,894	70,83
695,082	74,92
695,27	66,73
695,458	83,11
695,646	87,21
695,834	62,63
696,022	46,25
696,209	48,3
696,397	58,54
696,585	15,53
696,773	38,06
696,961	9,39
697,149	74,92
697,337	54,44
697,525	62,63
697,712	-13,14
697,9	89,26
698,088	111,78
698,276	54,44
698,463	46,25
698,651	64,68
698,839	-23,38
699,027	95,4
699,214	70,83
699,402	93,35
699,59	50,35
699,777	9,39
699,965	87,21
700,152	-31,57
700,34	95,4
700,528	-35,67
700,715	29,87
700,903	31,91
701,09	81,07
701,278	105,64
701,465	87,21
701,653	95,4
701,84	29,87
702,028	162,98
702,215	40,11
702,402	128,17
702,59	87,21
702,777	177,32
702,965	79,02
703,152	64,68
703,339	132,26
703,527	107,69
703,714	113,83
703,901	72,87
704,088	136,36
704,276	185,51
704,463	208,04
704,65	179,37
704,837	324,77
705,025	894,11
705,212	2653,31
705,399	6126,67
705,586	9327,64
705,773	13454,3
705,96	16845,74
706,147	20024,19
706,335	21951,32
706,522	22981,45
706,709	23030,6
706,896	22301,53
707,083	21138,28
707,27	19817,34
707,457	18490,26
707,644	16556,97
707,831	14666,7
708,018	12514,28
708,205	10925,06
708,392	9180,19
708,578	7898,16
708,765	6585,41
708,952	5340,25
709,139	4125,8
709,326	2942,08
709,513	1979,53
709,7	1350,81
709,886	947,36
710,073	709,79
710,26	603,3
710,447	242,85
710,633	259,24
710,82	160,94
711,007	154,79
711,193	95,4
711,38	140,46
711,567	148,65
711,753	38,06
711,94	179,37
712,127	136,36
712,313	97,45
712,5	42,15
712,686	64,68
712,873	46,25
713,059	48,3
713,246	136,36
713,432	111,78
713,619	9,39
713,805	27,82
713,992	52,39
714,178	89,26
714,365	42,15
714,551	89,26
714,737	38,06
714,924	-82,77
715,11	81,07
715,297	21,67
715,483	21,67
715,669	99,5
715,855	128,17
716,042	70,83
716,228	-64,34
716,414	197,8
716,6	87,21
716,787	107,69
716,973	38,06
717,159	113,83
717,345	113,83
717,531	-35,67
717,718	62,63
717,904	97,45
718,09	-58,2
718,276	-2,9
718,462	46,25
718,648	85,16
718,834	38,06
719,02	111,78
719,206	64,68
719,392	-11,09
719,578	-2,9
719,764	31,91
719,95	-0,85
720,136	185,51
720,322	46,25
720,508	11,43
720,694	29,87
720,879	-41,81
721,065	169,13
721,251	42,15
721,437	-66,39
721,623	152,74
721,809	72,87
721,994	132,26
722,18	3,24
722,366	40,11
722,552	21,67
722,737	136,36
722,923	56,49
723,109	33,96
723,294	-72,53
723,48	99,5
723,666	119,98
723,851	31,91
724,037	31,91
724,222	89,26
724,408	48,3
724,593	81,07
724,779	25,77
724,965	5,29
725,15	95,4
725,336	79,02
725,521	144,55
725,706	74,92
725,892	21,67
726,077	-60,24
726,263	70,83
726,448	130,22
726,634	66,73
726,819	269,48
727,004	724,13
727,19	947,36
727,375	1367,19
727,56	1557,65
727,745	1875,09
727,931	2237,58
728,116	2102,41
728,301	2333,83
728,486	2333,83
728,672	2159,75
728,857	1954,96
729,042	1793,17
729,227	1612,95
729,412	1436,82
729,597	1170,58
729,783	1090,71
729,968	908,44
730,153	783,52
730,338	646,3
730,523	578,72
730,708	545,95
730,893	390,31
731,078	316,58
731,263	275,62
731,448	87,21
731,633	128,17
731,818	-19,29
732,003	29,87
732,187	21,67
732,372	25,77
732,557	87,21
732,742	44,2
732,927	7,34
733,112	54,44
733,297	7,34
733,481	93,35
733,666	85,16
733,851	29,87
734,036	-9,05
734,22	9,39
734,405	144,55
734,59	-43,86
734,774	72,87
734,959	-13,14
735,144	122,02
735,328	-31,57
735,513	-60,24
735,698	52,39
735,882	62,63
736,067	46,25
736,251	21,67
736,436	-15,19
736,62	44,2
736,805	-58,2
736,989	154,79
737,174	-99,16
737,358	-43,86
737,543	64,68
737,727	87,21
737,911	138,41
738,096	7,34
738,28	122,02
738,465	31,91
738,649	87,21
738,833	95,4
739,018	-41,81
739,202	-17,24
739,386	-17,24
739,57	-33,62
739,755	79,02
739,939	64,68
740,123	-45,91
740,307	-2,9
740,491	72,87
740,676	-60,24
740,86	62,63
741,044	38,06
741,228	21,67
741,412	-68,44
741,596	-54,1
741,78	-52,05
741,964	29,87
742,148	5,29
742,332	79,02
742,516	-80,72
742,7	15,53
742,884	38,06
743,068	72,87
743,252	87,21
743,436	103,59
743,62	5,29
743,804	103,59
743,988	29,87
744,172	19,63
744,356	-35,67
744,539	9,39
744,723	1,19
744,907	-25,43
745,091	31,91
745,275	70,83
745,458	13,48
745,642	64,68
745,826	-15,19
746,009	103,59
746,193	101,55
746,377	54,44
746,56	54,44
746,744	103,59
746,928	7,34
747,111	-19,29
747,295	29,87
747,478	52,39
747,662	9,39
747,846	-2,9
748,029	42,15
748,213	56,49
748,396	21,67
748,58	101,55
748,763	-19,29
748,946	-58,2
749,13	46,25
749,313	-0,85
749,497	119,98
749,68	66,73
749,863	27,82
750,047	-15,19
750,23	-23,38
750,413	40,11
750,597	-7
750,78	23,72
750,963	111,78
751,146	29,87
751,33	83,11
751,513	119,98
751,696	29,87
751,879	58,54
752,062	-52,05
752,246	25,77
752,429	25,77
752,612	-68,44
752,795	70,83
752,978	-27,48
753,161	-41,81
753,344	-72,53
753,527	29,87
753,71	-11,09
753,893	79,02
754,076	29,87
754,259	46,25
754,442	-93,01
754,625	-74,58
754,808	105,64
754,991	44,2
755,174	38,06
755,357	-2,9
755,539	31,91
755,722	148,65
755,905	5,29
756,088	103,59
756,271	-19,29
756,453	21,67
756,636	-29,52
756,819	70,83
757,002	-43,86
757,184	160,94
757,367	132,26
757,55	40,11
757,732	144,55
757,915	-35,67
758,098	29,87
758,28	21,67
758,463	-11,09
758,645	56,49
758,828	89,26
759,011	54,44
759,193	70,83
759,376	15,53
759,558	-19,29
759,741	-41,81
759,923	-0,85
760,105	7,34
760,288	40,11
760,47	-84,82
760,653	9,39
760,835	25,77
761,017	-17,24
761,2	-74,58
761,382	66,73
761,564	13,48
761,747	97,45
761,929	1,19
762,111	-52,05
762,294	-19,29
762,476	175,27
762,658	79,02
762,84	124,07
763,022	40,11
763,205	38,06
763,387	50,35
763,569	124,07
763,751	-76,63
763,933	-31,57
764,115	-60,24
764,297	15,53
764,479	99,5
764,661	21,67
764,843	111,78
765,025	64,68
765,207	-41,81
765,389	3,24
765,571	-76,63
765,753	-0,85
765,935	31,91
766,117	-2,9
766,299	136,36
766,481	203,94
766,663	-35,67
766,845	5,29
767,026	-41,81
767,208	93,35
767,39	-27,48
767,572	-27,48
767,753	64,68
767,935	-31,57
768,117	36,01
768,299	97,45
768,48	-19,29
768,662	56,49
768,844	-19,29
769,025	154,79
769,207	87,21
769,389	19,63
769,57	111,78
769,752	72,87
769,933	21,67
770,115	31,91
770,296	38,06
770,478	156,84
770,659	-107,35
770,841	300,2
771,022	5,29
771,204	46,25
771,385	25,77
771,567	128,17
771,748	169,13
771,929	-52,05
772,111	46,25
772,292	115,88
772,473	103,59
772,655	58,54
772,836	79,02
773,017	99,5
773,199	44,2
773,38	31,91
773,561	146,6
773,742	5,29
773,923	-2,9
774,105	122,02
774,286	38,06
774,467	62,63
774,648	-0,85
774,829	33,96
775,01	13,48
775,191	-68,44
775,372	29,87
775,553	-25,43
775,734	-52,05
775,915	-7
776,096	-7
776,277	23,72
776,458	-60,24
776,639	79,02
776,82	87,21
777,001	5,29
777,182	31,91
777,363	-9,05
777,544	58,54
777,725	148,65
777,906	-11,09
778,086	107,69
778,267	87,21
778,448	107,69
778,629	-13,14
778,809	74,92
778,99	15,53
779,171	-2,9
779,352	56,49
779,532	-2,9
779,713	-2,9
779,894	-17,24
780,074	132,26
780,255	9,39
780,435	31,91
780,616	136,36
780,797	128,17
780,977	-45,91
781,158	9,39
781,338	29,87
781,519	19,63
781,699	222,38
781,88	5,29
782,06	60,59
782,241	15,53
782,421	-60,24
782,601	201,9
782,782	89,26
782,962	97,45
783,142	-2,9
783,323	42,15
783,503	62,63
783,683	128,17
783,864	111,78
784,044	-35,67
784,224	54,44
784,404	83,11
784,585	79,02
784,765	40,11
784,945	105,64
785,125	15,53
785,305	91,31
785,485	142,5
785,666	19,63
785,846	1,19
786,026	-19,29
786,206	21,67
786,386	-41,81
786,566	50,35
786,746	48,3
786,926	17,58
787,106	-43,86
787,286	-2,9
787,466	44,2
787,646	72,87
787,826	56,49
788,006	103,59
788,185	70,83
788,365	-60,24
788,545	97,45
788,725	-11,09
788,905	58,54
789,085	-0,85
789,264	-41,81
789,444	-7
789,624	54,44
789,804	-0,85
789,983	62,63
790,163	-15,19
790,343	-0,85
790,522	21,67
790,702	29,87
790,882	13,48
791,061	152,74
791,241	-2,9
791,42	31,91
791,6	91,31
791,78	42,15
791,959	-4,95
792,139	9,39
792,318	-74,58
792,498	54,44
792,677	136,36
792,856	-25,43
793,036	-19,29
793,215	5,29
793,395	124,07
793,574	-21,33
793,753	27,82
793,933	177,32
794,112	99,5
794,291	119,98
794,471	177,32
794,65	-11,09
794,829	58,54
795,008	23,72
795,188	140,46
795,367	87,21
795,546	-35,67
795,725	66,73
795,904	7,34
796,084	-2,9
796,263	64,68
796,442	101,55
796,621	122,02
796,8	103,59
796,979	95,4
797,158	13,48
797,337	58,54
797,516	36,01
797,695	109,74
797,874	48,3
798,053	101,55
798,232	79,02
798,411	-58,2
798,59	-82,77
798,769	5,29
798,947	101,55
799,126	15,53
799,305	85,16
799,484	48,3
799,663	-27,48
799,842	105,64
800,02	87,21
800,199	-19,29
800,378	85,16
800,557	-56,15
800,735	7,34
800,914	-11,09
801,093	-35,67
801,271	42,15
801,45	33,96
801,628	29,87
801,807	54,44
801,986	50,35
802,164	7,34
802,343	1,19
802,521	-103,25
802,7	48,3
802,878	105,64
803,057	13,48
803,235	-7
803,414	70,83
803,592	74,92
803,771	33,96
803,949	83,11
804,127	-43,86
804,306	162,98
804,484	23,72
804,662	36,01
804,841	-76,63
805,019	17,58
805,197	29,87
805,375	46,25
805,554	38,06
805,732	21,67
805,91	-11,09
806,088	62,63
806,266	-37,72
806,445	36,01
806,623	-43,86
806,801	58,54
806,979	107,69
807,157	87,21
807,335	-99,16
807,513	87,21
807,691	52,39
807,869	-11,09
808,047	50,35
808,225	13,48
808,403	38,06
808,581	-2,9
808,759	144,55
808,937	23,72
809,115	81,07
809,293	64,68
809,471	-27,48
809,649	79,02
809,826	-9,05
810,004	89,26
810,182	-35,67
810,36	-11,09
810,538	40,11
810,715	-2,9
810,893	-47,96
811,071	-0,85
811,248	31,91
811,426	48,3
811,604	70,83
811,781	66,73
811,959	-33,62
812,137	-11,09
812,314	-35,67
812,492	9,39
812,669	64,68
812,847	1,19
813,024	-0,85
813,202	48,3
813,379	38,06
813,557	29,87
813,734	83,11
813,912	29,87
814,089	-19,29
814,267	128,17
814,444	56,49
814,621	5,29
814,799	-7
814,976	103,59
815,153	21,67
815,331	-35,67
815,508	40,11
815,685	-17,24
815,862	83,11
816,04	-7
816,217	21,67
816,394	7,34
816,571	31,91
816,748	169,13
816,926	160,94
817,103	296,1
817,28	79,02
817,457	-17,24
817,634	87,21
817,811	1,19
817,988	56,49
818,165	93,35
818,342	62,63
818,519	56,49
818,696	-27,48
818,873	-31,57
819,05	105,64
819,227	-60,24
819,404	89,26
819,581	13,48
819,758	13,48
819,934	44,2
820,111	-2,9
820,288	-27,48
820,465	113,83
820,642	99,5
820,818	128,17
820,995	-41,81
821,172	72,87
821,349	27,82
821,525	29,87
821,702	-13,14
821,879	-52,05
822,055	3,24
822,232	13,48
822,409	48,3
822,585	79,02
822,762	70,83
822,938	103,59
823,115	25,77
823,291	-52,05
823,468	160,94
823,644	95,4
823,821	85,16
823,997	-23,38
824,174	-72,53
824,35	-7
824,527	58,54
824,703	5,29
824,879	-7
825,056	-0,85
825,232	136,36
825,408	29,87
825,585	38,06
825,761	-35,67
825,937	15,53
826,113	87,21
826,29	44,2
826,466	-21,33
826,642	423,08
826,818	15,53
826,994	9,39
827,17	-35,67
827,347	-58,2
827,523	-64,34
827,699	105,64
827,875	21,67
828,051	48,3
828,227	-2,9
828,403	103,59
828,579	91,31
828,755	79,02
828,931	-4,95
829,107	70,83
829,283	70,83
829,459	-2,9
829,635	-0,85
829,811	29,87
829,986	89,26
830,162	-0,85
830,338	105,64
830,514	7,34
830,69	-19,29
830,865	56,49
831,041	58,54
831,217	46,25
831,393	-17,24
831,568	-7
831,744	40,11
831,92	79,02
832,095	58,54
832,271	-27,48
832,447	87,21
832,622	70,83
832,798	13,48
832,973	15,53
833,149	70,83
833,325	-2,9
833,5	38,06
833,676	95,4
833,851	83,11
834,027	-9,05
834,202	-23,38
834,377	83,11
834,553	-9,05
834,728	79,02
834,904	-25,43
835,079	-43,86
835,254	21,67
835,43	5,29
835,605	-39,76
835,78	-39,76
835,955	-19,29
836,131	64,68
836,306	-43,86
836,481	-66,39
836,656	113,83
836,832	111,78
837,007	-27,48
837,182	-21,33
837,357	-11,09
837,532	-13,14
837,707	66,73
837,882	33,96
838,057	44,2
838,232	136,36
838,407	54,44
838,582	33,96
838,757	83,11
838,932	72,87
839,107	5,29
839,282	-13,14
839,457	13,48
839,632	99,5
839,807	31,91
839,982	48,3
840,157	7,34
840,332	64,68
840,506	23,72
840,681	21,67
840,856	36,01
841,031	50,35
841,205	87,21
841,38	23,72
841,555	138,41
841,73	42,15
841,904	-15,19
842,079	-2,9
842,254	36,01
842,428	74,92
842,603	-58,2
842,777	-33,62
842,952	29,87
843,126	-19,29
843,301	87,21
843,476	-2,9
843,65	62,63
843,825	52,39
843,999	152,74
844,173	15,53
844,348	58,54
844,522	58,54
844,697	-15,19
844,871	-37,72
845,045	87,21
845,22	62,63
845,394	124,07
845,568	-29,52
845,743	70,83
845,917	21,67
846,091	-0,85
846,265	72,87
846,44	23,72
846,614	-35,67
846,788	31,91
846,962	21,67
847,136	48,3
847,31	46,25
847,485	87,21
847,659	-39,76
847,833	7,34
848,007	52,39
848,181	-31,57
848,355	62,63
848,529	70,83
848,703	165,03
848,877	-15,19
849,051	70,83
849,225	-2,9
849,399	-11,09
849,573	-11,09
849,746	1,19
849,92	-39,76
850,094	21,67
850,268	58,54
850,442	76,97
850,616	15,53
850,789	-21,33
850,963	-84,82
851,137	19,63
851,311	197,8
851,484	72,87
851,658	103,59
851,832	-93,01
852,005	3,24
852,179	-2,9
852,352	56,49
852,526	-43,86
852,7	95,4
852,873	-19,29
853,047	38,06
853,22	23,72
853,394	111,78
853,567	74,92
853,741	15,53
853,914	48,3
854,088	42,15
854,261	19,63
854,434	13,48
854,608	31,91
854,781	29,87
854,955	-43,86
855,128	83,11
855,301	-15,19
855,475	29,87
855,648	103,59
855,821	76,97
855,994	58,54
856,168	91,31
856,341	130,22
856,514	-58,2
856,687	58,54
856,86	-0,85
857,033	38,06
857,207	70,83
857,38	17,58
857,553	79,02
857,726	66,73
857,899	50,35
858,072	-7
858,245	-58,2
858,418	40,11
858,591	31,91
858,764	23,72
858,937	58,54
859,11	87,21
859,283	15,53
859,455	-9,05
859,628	-7
859,801	13,48
859,974	128,17
860,147	21,67
860,32	95,4
860,492	-11,09
860,665	-39,76
860,838	38,06
861,011	87,21
861,183	29,87
861,356	179,37
861,529	91,31
861,701	-27,48
861,874	13,48
862,047	81,07
862,219	-4,95
862,392	76,97
862,564	58,54
862,737	48,3
862,909	64,68
863,082	-35,67
863,254	5,29
863,427	7,34
863,599	74,92
863,772	1,19
863,944	40,11
864,117	-11,09
864,289	25,77
864,461	7,34
864,634	93,35
864,806	-31,57
864,978	40,11
865,151	31,91
865,323	89,26
865,495	83,11
865,667	36,01
865,84	136,36
866,012	-50
866,184	46,25
866,356	21,67
866,528	38,06
866,7	-7
866,873	-43,86
867,045	-19,29
867,217	-9,05
867,389	-9,05
867,561	46,25
867,733	-60,24
867,905	21,67
868,077	74,92
868,249	27,82
868,421	-9,05
868,593	-54,1
868,765	130,22
868,936	-43,86
869,108	-2,9
869,28	138,41
869,452	-0,85
869,624	-17,24
869,796	132,26
869,968	19,63
870,139	83,11
870,311	-7
870,483	46,25
870,654	48,3
870,826	-11,09
870,998	-19,29
871,17	29,87
871,341	-19,29
871,513	17,58
871,684	-9,05
871,856	25,77
872,028	1,19
872,199	-9,05
872,371	5,29
872,542	-27,48
872,714	40,11
872,885	119,98
873,057	38,06
873,228	91,31
873,4	54,44
873,571	87,21
873,742	9,39
873,914	68,78
874,085	31,91
874,256	31,91
874,428	-11,09
874,599	-41,81
874,77	99,5
874,942	-35,67
875,113	-13,14
875,284	-39,76
875,455	-0,85
875,626	68,78
875,798	-21,33
875,969	-23,38
876,14	113,83
876,311	31,91
876,482	46,25
876,653	3,24
876,824	152,74
876,995	-27,48
877,166	158,89
877,337	83,11
877,508	-21,33
877,679	-11,09
877,85	-2,9
878,021	72,87
878,192	29,87
878,363	38,06
878,534	21,67
878,705	-33,62
878,876	13,48
879,047	52,39
879,217	-11,09
879,388	103,59
879,559	130,22
879,73	56,49
879,9	15,53
880,071	31,91
880,242	33,96
880,413	99,5
880,583	64,68
880,754	103,59
880,924	38,06
881,095	-68,44
881,266	46,25
881,436	46,25
881,607	89,26
881,777	31,91
881,948	-43,86
882,118	33,96
882,289	-84,82
882,459	58,54
882,63	33,96
882,8	-0,85
882,971	56,49
883,141	38,06
883,311	62,63
883,482	54,44
883,652	-68,44
883,822	-0,85
883,993	40,11
884,163	-17,24
884,333	1,19
884,504	62,63
884,674	40,11
884,844	-11,09
885,014	-15,19
885,184	38,06
885,355	15,53
885,525	-35,67
885,695	68,78
885,865	138,41
886,035	105,64
886,205	-7
886,375	105,64
886,545	25,77
886,715	-21,33
886,885	132,26
887,055	31,91
887,225	-47,96
887,395	25,77
887,565	128,17
887,735	7,34
887,905	-17,24
888,075	23,72
888,244	101,55
888,414	99,5
888,584	46,25
888,754	48,3
888,924	81,07
889,093	136,36
889,263	33,96
889,433	38,06
889,603	91,31
889,772	13,48
889,942	95,4
890,111	13,48
890,281	46,25
890,451	-9,05
890,62	64,68
890,79	-41,81
890,959	74,92
891,129	13,48
891,298	54,44
891,468	13,48
891,637	-17,24
891,807	52,39
891,976	31,91
892,146	-2,9
892,315	99,5
892,485	72,87
892,654	-25,43
892,823	13,48
892,993	64,68
893,162	42,15
893,331	158,89
893,501	50,35
893,67	25,77
893,839	29,87
894,008	31,91
894,177	-19,29
894,347	3,24
894,516	169,13
894,685	97,45
894,854	-19,29
895,023	85,16
895,192	46,25
