Data from he_USB4F104161__28__11-53-38-149.txt Node

Date: Tue Apr 14 11:53:38 EDT 2026
User: LaboPhy
Spectrometer: USB4F10416
Trigger mode: 4
Integration Time (sec): 1,000000E-1
Scans to average: 1
Electric dark correction enabled: true
Nonlinearity correction enabled: false
Boxcar width: 0
XAxis mode: Wavelengths
Number of Pixels in Spectrum: 3648
>>>>>Begin Spectral Data<<<<<
177,847	-155,82
178,066	-155,82
178,284	-155,82
178,502	-190,63
178,72	-168,1
178,939	-34,99
179,157	63,32
179,375	-63,66
179,593	51,03
179,812	57,17
180,03	32,6
180,248	32,6
180,466	40,79
180,685	-34,99
180,903	-84,14
181,121	-67,75
181,339	8,02
181,557	-90,28
181,775	-34,99
181,994	-32,94
182,212	-75,95
182,43	-43,18
182,648	-34,99
182,866	-10,41
183,084	67,41
183,302	-43,18
183,52	69,46
183,739	-0,17
183,957	-30,89
184,175	34,64
184,393	30,55
184,611	18,26
184,829	79,7
185,047	-24,75
185,265	67,41
185,483	38,74
185,701	24,4
185,919	5,97
186,137	-2,22
186,355	48,98
186,573	89,94
186,791	75,6
187,009	5,97
187,227	61,27
187,445	75,6
187,663	10,07
187,881	-75,95
188,098	89,94
188,316	-18,6
188,534	118,61
188,752	32,6
188,97	-67,75
189,188	38,74
189,406	89,94
189,624	40,79
189,841	40,79
190,059	-129,19
190,277	38,74
190,495	40,79
190,713	30,55
190,931	108,37
191,148	63,32
191,366	46,93
191,584	18,26
191,802	130,9
192,019	130,9
192,237	-0,17
192,455	-26,79
192,673	14,17
192,89	-26,79
193,108	1,88
193,326	-41,13
193,543	55,12
193,761	-41,13
193,979	55,12
194,196	-75,95
194,414	10,07
194,632	48,98
194,849	-2,22
195,067	-51,37
195,285	-0,17
195,502	-100,52
195,72	-18,6
195,937	55,12
196,155	57,17
196,373	14,17
196,59	-6,31
196,808	79,7
197,025	147,28
197,243	227,15
197,46	38,74
197,678	-12,46
197,895	44,88
198,113	-14,51
198,33	14,17
198,548	20,31
198,765	55,12
198,983	-18,6
199,2	-45,23
199,418	-2,22
199,635	-26,79
199,853	26,45
200,07	38,74
200,288	-26,79
200,505	-80,04
200,722	57,17
200,94	81,75
201,157	55,12
201,375	46,93
201,592	22,36
201,809	71,51
202,027	87,89
202,244	-24,75
202,461	5,97
202,679	-39,08
202,896	85,84
203,113	-26,79
203,331	-30,89
203,548	-2,22
203,765	16,21
203,982	110,42
204,2	-2,22
204,417	-34,99
204,634	227,15
204,851	18,26
205,069	48,98
205,286	83,8
205,503	22,36
205,72	46,93
205,937	65,36
206,155	-32,94
206,372	79,7
206,589	-18,6
206,806	10,07
207,023	57,17
207,24	30,55
207,458	-92,33
207,675	-6,31
207,892	46,93
208,109	-22,7
208,326	14,17
208,543	30,55
208,76	30,55
208,977	81,75
209,194	71,51
209,411	-43,18
209,628	14,17
209,845	40,79
210,062	-22,7
210,279	-121
210,496	55,12
210,713	5,97
210,93	-67,75
211,147	42,84
211,364	-2,22
211,581	-26,79
211,798	79,7
212,015	-37,03
212,232	-49,32
212,449	71,51
212,666	-51,37
212,883	65,36
213,1	-114,86
213,317	-8,36
213,533	65,36
213,75	81,75
213,967	-34,99
214,184	-57,51
214,401	-10,41
214,618	-53,42
214,835	28,5
215,051	91,99
215,268	32,6
215,485	42,84
215,702	-2,22
215,919	-67,75
216,135	81,75
216,352	-41,13
216,569	10,07
216,786	61,27
217,002	38,74
217,219	57,17
217,436	-18,6
217,652	-12,46
217,869	-26,79
218,086	91,99
218,302	34,64
218,519	-0,17
218,736	-59,56
218,952	-16,55
219,169	38,74
219,386	-24,75
219,602	14,17
219,819	-20,65
220,036	48,98
220,252	55,12
220,469	22,36
220,685	-24,75
220,902	-8,36
221,118	-39,08
221,335	-4,27
221,552	-2,22
221,768	102,23
221,985	87,89
222,201	32,6
222,418	5,97
222,634	-26,79
222,851	5,97
223,067	-96,43
223,284	-92,33
223,5	-45,23
223,716	55,12
223,933	-16,55
224,149	18,26
224,366	-63,66
224,582	-26,79
224,799	-18,6
225,015	30,55
225,231	14,17
225,448	-45,23
225,664	16,21
225,88	-88,23
226,097	30,55
226,313	-34,99
226,529	46,93
226,746	22,36
226,962	-20,65
227,178	-45,23
227,395	-63,66
227,611	-104,62
227,827	22,36
228,044	-6,31
228,26	112,47
228,476	51,03
228,692	116,56
228,909	106,32
229,125	71,51
229,341	-24,75
229,557	-88,23
229,773	-0,17
229,99	42,84
230,206	-114,86
230,422	112,47
230,638	-10,41
230,854	-59,56
231,07	-125,1
231,286	38,74
231,503	38,74
231,719	-49,32
231,935	22,36
232,151	-43,18
232,367	155,47
232,583	-8,36
232,799	40,79
233,015	-37,03
233,231	-39,08
233,447	-12,46
233,663	-82,09
233,879	-24,75
234,095	-43,18
234,311	48,98
234,527	40,79
234,743	-2,22
234,959	10,07
235,175	-41,13
235,391	-90,28
235,607	-16,55
235,823	-34,99
236,039	-67,75
236,255	24,4
236,471	48,98
236,687	26,45
236,903	38,74
237,118	26,45
237,334	-0,17
237,55	46,93
237,766	-67,75
237,982	8,02
238,198	53,08
238,413	-67,75
238,629	96,08
238,845	38,74
239,061	1,88
239,277	-125,1
239,492	16,21
239,708	-12,46
239,924	-65,71
240,14	8,02
240,355	161,62
240,571	32,6
240,787	-14,51
241,003	-26,79
241,218	-32,94
241,434	-26,79
241,65	10,07
241,865	-94,38
242,081	102,23
242,297	-18,6
242,512	61,27
242,728	-0,17
242,944	16,21
243,159	32,6
243,375	-8,36
243,59	-22,7
243,806	59,22
244,022	-39,08
244,237	-10,41
244,453	-2,22
244,668	89,94
244,884	96,08
245,099	-100,52
245,315	79,7
245,53	34,64
245,746	55,12
245,961	59,22
246,177	34,64
246,392	38,74
246,608	42,84
246,823	-51,37
247,039	-75,95
247,254	32,6
247,47	83,8
247,685	-2,22
247,9	-43,18
248,116	-32,94
248,331	-26,79
248,547	63,32
248,762	-10,41
248,977	-47,27
249,193	38,74
249,408	16,21
249,623	22,36
249,839	-53,42
250,054	-114,86
250,269	-0,17
250,485	55,12
250,7	44,88
250,915	-10,41
251,13	46,93
251,346	-2,22
251,561	122,71
251,776	42,84
251,991	-139,43
252,207	59,22
252,422	-8,36
252,637	-47,27
252,852	-24,75
253,067	34,64
253,283	59,22
253,498	38,74
253,713	-75,95
253,928	14,17
254,143	-18,6
254,358	-12,46
254,573	-92,33
254,788	-43,18
255,004	22,36
255,219	-12,46
255,434	46,93
255,649	-106,67
255,864	71,51
256,079	-39,08
256,294	30,55
256,509	22,36
256,724	5,97
256,939	-43,18
257,154	128,85
257,369	36,69
257,584	98,13
257,799	-22,7
258,014	-59,56
258,229	24,4
258,444	-51,37
258,659	-24,75
258,874	63,32
259,089	65,36
259,304	1,88
259,518	-41,13
259,733	1,88
259,948	63,32
260,163	63,32
260,378	5,97
260,593	10,07
260,808	48,98
261,022	-59,56
261,237	-2,22
261,452	-4,27
261,667	32,6
261,882	10,07
262,096	32,6
262,311	18,26
262,526	-0,17
262,741	-49,32
262,955	-39,08
263,17	24,4
263,385	-73,9
263,6	-80,04
263,814	5,97
264,029	-30,89
264,244	46,93
264,458	-2,22
264,673	16,21
264,888	10,07
265,102	57,17
265,317	40,79
265,532	-41,13
265,746	79,7
265,961	42,84
266,175	24,4
266,39	-49,32
266,605	-26,79
266,819	81,75
267,034	67,41
267,248	-30,89
267,463	5,97
267,677	-49,32
267,892	-92,33
268,106	-59,56
268,321	-24,75
268,535	100,18
268,75	8,02
268,964	-18,6
269,179	26,45
269,393	22,36
269,608	10,07
269,822	-37,03
270,036	-53,42
270,251	-26,79
270,465	67,41
270,68	71,51
270,894	65,36
271,108	178
271,323	-112,81
271,537	5,97
271,752	63,32
271,966	-49,32
272,18	-24,75
272,394	14,17
272,609	-26,79
272,823	38,74
273,037	-10,41
273,252	-34,99
273,466	-39,08
273,68	18,26
273,894	26,45
274,109	-10,41
274,323	-2,22
274,537	22,36
274,751	-84,14
274,966	26,45
275,18	-59,56
275,394	-51,37
275,608	-26,79
275,822	-22,7
276,036	16,21
276,25	71,51
276,465	-2,22
276,679	34,64
276,893	-67,75
277,107	28,5
277,321	-14,51
277,535	55,12
277,749	122,71
277,963	73,56
278,177	-51,37
278,391	-8,36
278,605	-106,67
278,819	26,45
279,033	-51,37
279,247	20,31
279,461	-8,36
279,675	-57,51
279,889	85,84
280,103	-16,55
280,317	32,6
280,531	30,55
280,745	-6,31
280,959	-10,41
281,173	-10,41
281,387	46,93
281,601	-24,75
281,815	38,74
282,029	-73,9
282,242	71,51
282,456	-37,03
282,67	48,98
282,884	-26,79
283,098	-34,99
283,312	22,36
283,525	22,36
283,739	104,28
283,953	-37,03
284,167	-8,36
284,381	-8,36
284,594	16,21
284,808	40,79
285,022	38,74
285,235	10,07
285,449	10,07
285,663	-12,46
285,877	-75,95
286,09	-26,79
286,304	83,8
286,518	-55,47
286,731	-20,65
286,945	-12,46
287,159	-26,79
287,372	63,32
287,586	-0,17
287,799	-2,22
288,013	-16,55
288,227	22,36
288,44	218,96
288,654	38,74
288,867	-26,79
289,081	-16,55
289,294	71,51
289,508	71,51
289,721	-26,79
289,935	-49,32
290,148	63,32
290,362	73,56
290,575	77,65
290,789	-51,37
291,002	-24,75
291,216	34,64
291,429	26,45
291,643	-2,22
291,856	-59,56
292,069	-6,31
292,283	-90,28
292,496	65,36
292,71	73,56
292,923	67,41
293,136	3,93
293,35	16,21
293,563	-75,95
293,776	59,22
293,99	81,75
294,203	-43,18
294,416	16,21
294,63	26,45
294,843	55,12
295,056	55,12
295,269	-4,27
295,483	-71,85
295,696	8,02
295,909	30,55
296,122	18,26
296,335	-26,79
296,549	55,12
296,762	-55,47
296,975	-16,55
297,188	-82,09
297,401	-39,08
297,615	120,66
297,828	-16,55
298,041	61,27
298,254	-75,95
298,467	-2,22
298,68	-10,41
298,893	-18,6
299,106	-49,32
299,319	24,4
299,532	-43,18
299,745	-98,47
299,958	34,64
300,171	-88,23
300,384	55,12
300,598	-182,44
300,81	5,97
301,023	-75,95
301,236	-22,7
301,449	-67,75
301,662	1,88
301,875	5,97
302,088	18,26
302,301	5,97
302,514	-71,85
302,727	75,6
302,94	-43,18
303,153	-10,41
303,366	5,97
303,579	-67,75
303,791	96,08
304,004	-45,23
304,217	36,69
304,43	16,21
304,643	-67,75
304,855	-164,01
305,068	63,32
305,281	14,17
305,494	-47,27
305,707	55,12
305,919	96,08
306,132	8,02
306,345	-37,03
306,558	112,47
306,77	-73,9
306,983	14,17
307,196	16,21
307,408	-84,14
307,621	-4,27
307,834	16,21
308,046	-10,41
308,259	-55,47
308,472	71,51
308,684	40,79
308,897	-59,56
309,109	-32,94
309,322	-84,14
309,535	-2,22
309,747	100,18
309,96	63,32
310,172	112,47
310,385	40,79
310,597	-2,22
310,81	55,12
311,022	-26,79
311,235	-34,99
311,447	-41,13
311,66	-10,41
311,872	48,98
312,085	-34,99
312,297	-34,99
312,51	-96,43
312,722	-28,84
312,934	26,45
313,147	-84,14
313,359	-49,32
313,572	16,21
313,784	-26,79
313,996	-16,55
314,209	-6,31
314,421	-71,85
314,633	-100,52
314,846	-47,27
315,058	24,4
315,27	42,84
315,483	-75,95
315,695	3,93
315,907	-75,95
316,119	-67,75
316,332	-43,18
316,544	38,74
316,756	-32,94
316,968	-10,41
317,181	5,97
317,393	5,97
317,605	12,12
317,817	5,97
318,029	79,7
318,241	96,08
318,454	73,56
318,666	91,99
318,878	5,97
319,09	81,75
319,302	153,43
319,514	42,84
319,726	20,31
319,938	132,95
320,15	40,79
320,362	-34,99
320,574	-57,51
320,786	-49,32
320,999	-34,99
321,211	116,56
321,423	8,02
321,635	-141,48
321,847	-92,33
322,058	-18,6
322,27	-30,89
322,482	112,47
322,694	104,28
322,906	16,21
323,118	18,26
323,33	40,79
323,542	-37,03
323,754	10,07
323,966	-159,91
324,178	85,84
324,389	51,03
324,601	5,97
324,813	8,02
325,025	-24,75
325,237	-75,95
325,449	8,02
325,66	46,93
325,872	-84,14
326,084	10,07
326,296	8,02
326,507	12,12
326,719	71,51
326,931	-51,37
327,143	81,75
327,354	83,8
327,566	-22,7
327,778	16,21
327,989	69,46
328,201	-18,6
328,413	46,93
328,624	65,36
328,836	-26,79
329,048	-129,19
329,259	51,03
329,471	-34,99
329,682	85,84
329,894	-65,71
330,106	-92,33
330,317	-2,22
330,529	28,5
330,74	-20,65
330,952	-39,08
331,163	-67,75
331,375	-43,18
331,586	16,21
331,798	-45,23
332,009	-88,23
332,221	-26,79
332,432	48,98
332,644	75,6
332,855	-67,75
333,067	1,88
333,278	59,22
333,489	96,08
333,701	-92,33
333,912	-51,37
334,124	20,31
334,335	-57,51
334,546	-82,09
334,758	-24,75
334,969	178
335,18	51,03
335,392	48,98
335,603	135
335,814	5,97
336,025	-92,33
336,237	-22,7
336,448	-57,51
336,659	-8,36
336,87	22,36
337,082	135
337,293	-49,32
337,504	-75,95
337,715	-16,55
337,926	1,88
338,138	34,64
338,349	-63,66
338,56	48,98
338,771	-10,41
338,982	-22,7
339,193	-30,89
339,404	-2,22
339,616	61,27
339,827	71,51
340,038	-28,84
340,249	-30,89
340,46	-2,22
340,671	22,36
340,882	48,98
341,093	-2,22
341,304	-112,81
341,515	-84,14
341,726	-65,71
341,937	40,79
342,148	65,36
342,359	14,17
342,57	59,22
342,781	132,95
342,992	-2,22
343,203	44,88
343,414	118,61
343,624	-24,75
343,835	-10,41
344,046	63,32
344,257	-16,55
344,468	-100,52
344,679	-0,17
344,89	-22,7
345,1	-110,76
345,311	-6,31
345,522	-6,31
345,733	104,28
345,944	-24,75
346,154	79,7
346,365	65,36
346,576	-61,61
346,787	-92,33
346,997	83,8
347,208	10,07
347,419	-82,09
347,629	32,6
347,84	106,32
348,051	-61,61
348,261	14,17
348,472	-106,67
348,683	5,97
348,893	-65,71
349,104	-43,18
349,315	-98,47
349,525	-8,36
349,736	-59,56
349,946	-51,37
350,157	71,51
350,368	59,22
350,578	-65,71
350,789	67,41
350,999	-8,36
351,21	-24,75
351,42	-8,36
351,631	-34,99
351,841	-63,66
352,052	-8,36
352,262	98,13
352,472	-45,23
352,683	-65,71
352,893	34,64
353,104	-65,71
353,314	87,89
353,525	374,61
353,735	-4,27
353,945	-108,71
354,156	-75,95
354,366	-43,18
354,576	71,51
354,787	55,12
354,997	-51,37
355,207	-82,09
355,418	-51,37
355,628	-41,13
355,838	8,02
356,048	-10,41
356,259	87,89
356,469	-75,95
356,679	-47,27
356,889	38,74
357,1	-57,51
357,31	-53,42
357,52	65,36
357,73	-55,47
357,94	-18,6
358,15	-92,33
358,361	22,36
358,571	18,26
358,781	14,17
358,991	-84,14
359,201	40,79
359,411	-49,32
359,621	-67,75
359,831	87,89
360,041	-28,84
360,251	38,74
360,461	38,74
360,672	26,45
360,882	-39,08
361,092	30,55
361,302	-8,36
361,512	91,99
361,721	-34,99
361,931	87,89
362,141	-18,6
362,351	-73,9
362,561	14,17
362,771	-75,95
362,981	30,55
363,191	5,97
363,401	55,12
363,611	-67,75
363,821	-118,95
364,03	-116,9
364,24	26,45
364,45	-12,46
364,66	180,05
364,87	22,36
365,08	5,97
365,289	-45,23
365,499	-34,99
365,709	57,17
365,919	38,74
366,128	-69,8
366,338	63,32
366,548	-10,41
366,758	-71,85
366,967	-24,75
367,177	112,47
367,387	-10,41
367,596	34,64
367,806	22,36
368,016	53,08
368,225	65,36
368,435	8,02
368,644	-18,6
368,854	-2,22
369,064	57,17
369,273	40,79
369,483	10,07
369,692	-32,94
369,902	34,64
370,111	-26,79
370,321	-43,18
370,53	8,02
370,74	-26,79
370,949	-34,99
371,159	-26,79
371,368	3,93
371,578	10,07
371,787	89,94
371,997	53,08
372,206	71,51
372,416	22,36
372,625	1,88
372,834	-22,7
373,044	-37,03
373,253	-26,79
373,462	38,74
373,672	-51,37
373,881	-22,7
374,09	-41,13
374,3	18,26
374,509	42,84
374,718	-26,79
374,928	79,7
375,137	-2,22
375,346	32,6
375,555	128,85
375,765	-18,6
375,974	-0,17
376,183	55,12
376,392	57,17
376,601	42,84
376,811	14,17
377,02	96,08
377,229	67,41
377,438	32,6
377,647	-16,55
377,856	-32,94
378,065	-59,56
378,275	-43,18
378,484	-51,37
378,693	12,12
378,902	-26,79
379,111	65,36
379,32	-49,32
379,529	14,17
379,738	63,32
379,947	-6,31
380,156	-26,79
380,365	10,07
380,574	5,97
380,783	-47,27
380,992	16,21
381,201	-24,75
381,41	-45,23
381,619	-2,22
381,828	87,89
382,037	22,36
382,245	96,08
382,454	120,66
382,663	53,08
382,872	26,45
383,081	89,94
383,29	147,28
383,499	-37,03
383,707	96,08
383,916	106,32
384,125	63,32
384,334	-24,75
384,542	87,89
384,751	65,36
384,96	-10,41
385,169	-26,79
385,377	67,41
385,586	38,74
385,795	89,94
386,004	91,99
386,212	26,45
386,421	75,6
386,63	300,88
386,838	704,33
387,047	1087,3
387,255	1881,91
387,464	2570,03
387,673	3751,71
387,881	4613,9
388,09	5750,53
388,298	6526,71
388,507	8097,5
388,715	10028,73
388,924	11019,95
389,133	10489,53
389,341	10090,17
389,55	8838,86
389,758	6715,12
389,967	4488,98
390,175	2823,98
390,383	2217,78
390,592	1664,83
390,8	991,05
391,009	751,43
391,217	489,29
391,426	315,22
391,634	-14,51
391,842	147,28
392,051	-18,6
392,259	145,24
392,467	63,32
392,676	5,97
392,884	-43,18
393,092	5,97
393,301	26,45
393,509	14,17
393,717	55,12
393,925	-14,51
394,134	-16,55
394,342	32,6
394,55	46,93
394,758	89,94
394,967	63,32
395,175	-18,6
395,383	79,7
395,591	63,32
395,799	57,17
396,007	53,08
396,216	264,02
396,424	223,06
396,632	188,24
396,84	135
397,048	194,39
397,256	169,81
397,464	73,56
397,672	69,46
397,88	24,4
398,088	26,45
398,296	3,93
398,504	16,21
398,712	63,32
398,92	-24,75
399,128	5,97
399,336	51,03
399,544	67,41
399,752	-0,17
399,96	79,7
400,168	-49,32
400,376	-14,51
400,584	120,66
400,792	8,02
401	1,88
401,207	112,47
401,415	202,58
401,623	257,87
401,831	257,87
402,039	309,07
402,247	245,59
402,454	366,42
402,662	450,38
402,87	333,65
403,078	458,57
403,285	390,99
403,493	276,31
403,701	169,81
403,909	98,13
404,116	173,91
404,324	-55,47
404,532	59,22
404,739	-41,13
404,947	-41,13
405,155	57,17
405,362	16,21
405,57	69,46
405,778	-6,31
405,985	-6,31
406,193	-18,6
406,4	-8,36
406,608	-47,27
406,816	-43,18
407,023	46,93
407,231	-2,22
407,438	10,07
407,646	-14,51
407,853	-53,42
408,061	-2,22
408,268	22,36
408,476	-96,43
408,683	-63,66
408,89	71,51
409,098	5,97
409,305	55,12
409,513	16,21
409,72	-8,36
409,927	-18,6
410,135	71,51
410,342	-59,56
410,55	173,91
410,757	-22,7
410,964	-71,85
411,172	-4,27
411,379	81,75
411,586	-10,41
411,793	44,88
412,001	8,02
412,208	3,93
412,415	120,66
412,622	126,8
412,83	79,7
413,037	114,52
413,244	-90,28
413,451	120,66
413,658	169,81
413,866	122,71
414,073	22,36
414,28	55,12
414,487	30,55
414,694	40,79
414,901	28,5
415,108	18,26
415,315	67,41
415,522	126,8
415,73	8,02
415,937	-71,85
416,144	-30,89
416,351	-41,13
416,558	-61,61
416,765	-14,51
416,972	-51,37
417,179	-26,79
417,386	46,93
417,593	5,97
417,8	14,17
418,006	38,74
418,213	-45,23
418,42	34,64
418,627	36,69
418,834	-73,9
419,041	8,02
419,248	30,55
419,455	22,36
419,661	75,6
419,868	-69,8
420,075	32,6
420,282	-24,75
420,489	10,07
420,696	71,51
420,902	63,32
421,109	73,56
421,316	-8,36
421,523	38,74
421,729	-12,46
421,936	-39,08
422,143	24,4
422,349	-49,32
422,556	-104,62
422,763	40,79
422,969	65,36
423,176	-114,86
423,383	-10,41
423,589	178
423,796	53,08
424,002	-10,41
424,209	32,6
424,416	-16,55
424,622	-80,04
424,829	-26,79
425,035	-67,75
425,242	-18,6
425,448	10,07
425,655	-30,89
425,861	-65,71
426,068	-2,22
426,274	180,05
426,481	-8,36
426,687	12,12
426,894	5,97
427,1	-18,6
427,306	-47,27
427,513	8,02
427,719	-2,22
427,926	-18,6
428,132	55,12
428,338	-10,41
428,545	14,17
428,751	32,6
428,957	40,79
429,163	-108,71
429,37	-8,36
429,576	36,69
429,782	-2,22
429,989	-43,18
430,195	-8,36
430,401	-34,99
430,607	-8,36
430,813	-59,56
431,02	55,12
431,226	12,12
431,432	48,98
431,638	77,65
431,844	-39,08
432,05	-121
432,257	-65,71
432,463	61,27
432,669	-57,51
432,875	10,07
433,081	28,5
433,287	-71,85
433,493	-34,99
433,699	-2,22
433,905	55,12
434,111	-73,9
434,317	-2,22
434,523	104,28
434,729	-10,41
434,935	-0,17
435,141	96,08
435,347	22,36
435,553	5,97
435,759	8,02
435,965	-20,65
436,171	-26,79
436,377	91,99
436,582	12,12
436,788	-34,99
436,994	91,99
437,2	-65,71
437,406	112,47
437,612	-34,99
437,818	63,32
438,023	-51,37
438,229	227,15
438,435	141,14
438,641	57,17
438,846	67,41
439,052	202,58
439,258	261,97
439,464	24,4
439,669	135
439,875	153,43
440,081	38,74
440,286	46,93
440,492	16,21
440,698	-16,55
440,903	-59,56
441,109	75,6
441,314	-67,75
441,52	-47,27
441,726	-8,36
441,931	16,21
442,137	32,6
442,342	63,32
442,548	63,32
442,753	98,13
442,959	-71,85
443,164	22,36
443,37	-30,89
443,575	-0,17
443,781	1,88
443,986	100,18
444,192	55,12
444,397	-55,47
444,602	-49,32
444,808	-18,6
445,013	63,32
445,219	163,67
445,424	468,81
445,629	747,34
445,835	993,09
446,04	1251,14
446,245	1541,95
446,451	1972,02
446,656	2324,27
446,861	2572,08
447,066	3090,21
447,272	3385,12
447,477	3290,92
447,682	2950,95
447,887	2545,45
448,093	2277,17
448,298	1679,16
448,503	984,9
448,708	587,6
448,913	380,75
449,118	382,8
449,324	204,63
449,529	196,43
449,734	38,74
449,939	30,55
450,144	171,86
450,349	-2,22
450,554	-2,22
450,759	14,17
450,964	5,97
451,169	40,79
451,374	22,36
451,579	-51,37
451,784	28,5
451,989	5,97
452,194	69,46
452,399	34,64
452,604	34,64
452,809	-51,37
453,014	-59,56
453,219	32,6
453,424	57,17
453,629	-125,1
453,833	-100,52
454,038	89,94
454,243	26,45
454,448	3,93
454,653	-18,6
454,858	14,17
455,062	-39,08
455,267	-55,47
455,472	46,93
455,677	-65,71
455,882	-65,71
456,086	79,7
456,291	-18,6
456,496	-63,66
456,7	91,99
456,905	32,6
457,11	79,7
457,314	-51,37
457,519	-67,75
457,724	-26,79
457,928	-16,55
458,133	-75,95
458,338	1,88
458,542	40,79
458,747	-73,9
458,951	-73,9
459,156	135
459,36	-39,08
459,565	30,55
459,769	-41,13
459,974	38,74
460,178	34,64
460,383	-92,33
460,587	-20,65
460,792	30,55
460,996	55,12
461,201	24,4
461,405	-26,79
461,61	-34,99
461,814	26,45
462,018	-41,13
462,223	-49,32
462,427	-57,51
462,631	40,79
462,836	30,55
463,04	-0,17
463,244	112,47
463,449	-34,99
463,653	91,99
463,857	-0,17
464,062	51,03
464,266	-30,89
464,47	38,74
464,674	67,41
464,878	5,97
465,083	-0,17
465,287	116,56
465,491	-22,7
465,695	44,88
465,899	40,79
466,104	81,75
466,308	57,17
466,512	63,32
466,716	18,26
466,92	79,7
467,124	137,04
467,328	36,69
467,532	32,6
467,736	12,12
467,94	34,64
468,144	-34,99
468,348	96,08
468,552	157,52
468,756	38,74
468,96	8,02
469,164	-108,71
469,368	-10,41
469,572	51,03
469,776	223,06
469,98	227,15
470,184	259,92
470,388	464,72
470,591	444,24
470,795	628,56
470,999	661,32
471,203	761,67
471,407	706,38
471,611	751,43
471,814	763,72
472,018	665,42
472,222	587,6
472,426	563,02
472,63	304,98
472,833	202,58
473,037	214,87
473,241	147,28
473,444	96,08
473,648	456,53
473,852	-49,32
474,055	16,21
474,259	18,26
474,463	-18,6
474,666	38,74
474,87	-2,22
475,074	30,55
475,277	-16,55
475,481	51,03
475,684	-75,95
475,888	3,93
476,091	34,64
476,295	-71,85
476,498	-84,14
476,702	26,45
476,905	85,84
477,109	8,02
477,312	-24,75
477,516	-10,41
477,719	-10,41
477,923	-22,7
478,126	48,98
478,329	-32,94
478,533	-10,41
478,736	59,22
478,94	-24,75
479,143	-10,41
479,346	26,45
479,55	-37,03
479,753	16,21
479,956	-51,37
480,159	-75,95
480,363	87,89
480,566	-18,6
480,769	-43,18
480,972	-51,37
481,176	30,55
481,379	10,07
481,582	63,32
481,785	-98,47
481,988	-6,31
482,192	65,36
482,395	-8,36
482,598	32,6
482,801	-22,7
483,004	130,9
483,207	-96,43
483,41	57,17
483,613	59,22
483,817	61,27
484,02	26,45
484,223	-12,46
484,426	-26,79
484,629	-49,32
484,832	100,18
485,035	8,02
485,238	26,45
485,441	57,17
485,644	30,55
485,846	24,4
486,049	-114,86
486,252	38,74
486,455	-47,27
486,658	-104,62
486,861	38,74
487,064	75,6
487,267	-92,33
487,47	63,32
487,672	-26,79
487,875	61,27
488,078	51,03
488,281	122,71
488,484	32,6
488,686	91,99
488,889	-0,17
489,092	-18,6
489,295	59,22
489,497	67,41
489,7	26,45
489,903	-34,99
490,105	-75,95
490,308	163,67
490,511	184,15
490,713	350,03
490,916	388,94
491,118	534,35
491,321	778,06
491,524	868,17
491,726	1046,34
491,929	1193,8
492,131	1263,43
492,334	1470,27
492,536	1484,61
492,739	1414,98
492,941	1234,75
493,144	1148,74
493,346	876,36
493,549	583,5
493,751	431,95
493,954	302,93
494,156	202,58
494,359	155,47
494,561	-53,42
494,763	42,84
494,966	-18,6
495,168	51,03
495,37	-82,09
495,573	1,88
495,775	-26,79
495,977	44,88
496,18	16,21
496,382	159,57
496,584	40,79
496,787	157,52
496,989	5,97
497,191	-43,18
497,393	98,13
497,595	-8,36
497,798	-47,27
498	30,55
498,202	67,41
498,404	-24,75
498,606	-12,46
498,808	34,64
499,011	26,45
499,213	55,12
499,415	-0,17
499,617	192,34
499,819	530,25
500,021	825,16
500,223	1062,73
500,425	1570,62
500,627	2193,2
500,829	2811,69
501,031	3340,07
501,233	3876,63
501,435	4323,09
501,637	4787,98
501,839	4914,95
502,041	4933,39
502,243	4357,91
502,445	3839,77
502,647	3385,12
502,848	2443,06
503,05	1771,32
503,252	1351,49
503,454	958,28
503,656	534,35
503,858	446,29
504,059	284,5
504,261	237,39
504,463	339,79
504,665	264,02
504,867	178
505,068	278,35
505,27	155,47
505,472	282,45
505,673	192,34
505,875	171,86
506,077	79,7
506,278	14,17
506,48	85,84
506,682	-2,22
506,883	114,52
507,085	-41,13
507,287	-49,32
507,488	71,51
507,69	40,79
507,891	-34,99
508,093	147,28
508,294	1,88
508,496	-6,31
508,697	28,5
508,899	-32,94
509,1	30,55
509,302	79,7
509,503	-16,55
509,705	65,36
509,906	8,02
510,108	-67,75
510,309	8,02
510,51	30,55
510,712	48,98
510,913	-8,36
511,114	-0,17
511,316	-133,29
511,517	71,51
511,718	65,36
511,92	73,56
512,121	81,75
512,322	-2,22
512,524	96,08
512,725	30,55
512,926	83,8
513,127	-10,41
513,329	51,03
513,53	-12,46
513,731	-0,17
513,932	38,74
514,133	-59,56
514,334	-63,66
514,536	128,85
514,737	104,28
514,938	14,17
515,139	-16,55
515,34	-129,19
515,541	-0,17
515,742	-63,66
515,943	-8,36
516,144	55,12
516,345	-47,27
516,546	40,79
516,747	59,22
516,948	-22,7
517,149	-20,65
517,35	-2,22
517,551	-49,32
517,752	38,74
517,953	16,21
518,154	-141,48
518,355	122,71
518,556	-10,41
518,756	-6,31
518,957	96,08
519,158	147,28
519,359	30,55
519,56	-2,22
519,761	55,12
519,961	87,89
520,162	83,8
520,363	-14,51
520,564	26,45
520,764	130,9
520,965	-67,75
521,166	96,08
521,366	1,88
521,567	-4,27
521,768	30,55
521,968	-34,99
522,169	-59,56
522,37	-96,43
522,57	-32,94
522,771	69,46
522,972	-65,71
523,172	75,6
523,373	14,17
523,573	12,12
523,774	-39,08
523,974	91,99
524,175	75,6
524,375	-30,89
524,576	-34,99
524,776	-18,6
524,977	-10,41
525,177	46,93
525,378	-16,55
525,578	118,61
525,778	91,99
525,979	87,89
526,179	5,97
526,38	-37,03
526,58	-14,51
526,78	-92,33
526,981	57,17
527,181	46,93
527,381	-90,28
527,582	-26,79
527,782	10,07
527,982	18,26
528,182	32,6
528,383	14,17
528,583	-59,56
528,783	38,74
528,983	42,84
529,183	-10,41
529,384	30,55
529,584	24,4
529,784	71,51
529,984	57,17
530,184	20,31
530,384	-26,79
530,584	-26,79
530,784	61,27
530,984	-0,17
531,185	5,97
531,385	112,47
531,585	137,04
531,785	5,97
531,985	-59,56
532,185	-32,94
532,385	-24,75
532,585	10,07
532,785	-51,37
532,984	30,55
533,184	42,84
533,384	-12,46
533,584	-32,94
533,784	55,12
533,984	-16,55
534,184	-73,9
534,384	-75,95
534,583	57,17
534,783	-26,79
534,983	24,4
535,183	57,17
535,383	-32,94
535,582	34,64
535,782	-22,7
535,982	94,04
536,182	30,55
536,381	30,55
536,581	3,93
536,781	-10,41
536,98	-71,85
537,18	-2,22
537,38	40,79
537,579	10,07
537,779	-57,51
537,979	-10,41
538,178	-18,6
538,378	83,8
538,577	-63,66
538,777	-26,79
538,976	-32,94
539,176	48,98
539,376	-2,22
539,575	-61,61
539,774	30,55
539,974	-116,9
540,173	61,27
540,373	46,93
540,572	-22,7
540,772	-24,75
540,971	-43,18
541,171	8,02
541,37	-0,17
541,569	-18,6
541,769	24,4
541,968	5,97
542,167	-65,71
542,367	12,12
542,566	-51,37
542,765	22,36
542,965	-26,79
543,164	-41,13
543,363	-0,17
543,562	46,93
543,761	46,93
543,961	75,6
544,16	-125,1
544,359	79,7
544,558	-8,36
544,757	30,55
544,957	16,21
545,156	89,94
545,355	10,07
545,554	51,03
545,753	-75,95
545,952	-88,23
546,151	57,17
546,35	28,5
546,549	-67,75
546,748	120,66
546,947	5,97
547,146	-96,43
547,345	-8,36
547,544	-65,71
547,743	-71,85
547,942	55,12
548,141	-34,99
548,34	-22,7
548,539	24,4
548,738	-88,23
548,937	65,36
549,135	-2,22
549,334	-26,79
549,533	10,07
549,732	-2,22
549,931	116,56
550,13	-67,75
550,328	-49,32
550,527	-59,56
550,726	69,46
550,925	-39,08
551,123	51,03
551,322	-65,71
551,521	48,98
551,72	-43,18
551,918	63,32
552,117	30,55
552,315	18,26
552,514	1,88
552,713	-16,55
552,911	-41,13
553,11	-59,56
553,309	-77,99
553,507	-8,36
553,706	-26,79
553,904	79,7
554,103	73,56
554,301	-16,55
554,5	-2,22
554,698	24,4
554,897	-0,17
555,095	24,4
555,294	-73,9
555,492	-0,17
555,69	44,88
555,889	-164,01
556,087	79,7
556,286	128,85
556,484	-71,85
556,682	48,98
556,881	32,6
557,079	34,64
557,277	79,7
557,476	106,32
557,674	24,4
557,872	83,8
558,07	-34,99
558,269	-12,46
558,467	46,93
558,665	65,36
558,863	48,98
559,062	14,17
559,26	22,36
559,458	-61,61
559,656	55,12
559,854	38,74
560,052	22,36
560,25	65,36
560,449	343,89
560,647	18,26
560,845	36,69
561,043	10,07
561,241	137,04
561,439	106,32
561,637	1,88
561,835	-4,27
562,033	128,85
562,231	8,02
562,429	89,94
562,627	-2,22
562,825	-18,6
563,023	194,39
563,221	71,51
563,418	104,28
563,616	89,94
563,814	141,14
564,012	112,47
564,21	98,13
564,408	108,37
564,605	59,22
564,803	-14,51
565,001	259,92
565,199	-63,66
565,397	30,55
565,594	34,64
565,792	57,17
565,99	65,36
566,188	67,41
566,385	44,88
566,583	40,79
566,781	10,07
566,978	112,47
567,176	155,47
567,373	75,6
567,571	71,51
567,769	34,64
567,966	-61,61
568,164	114,52
568,361	79,7
568,559	77,65
568,756	5,97
568,954	46,93
569,151	79,7
569,349	75,6
569,546	5,97
569,744	112,47
569,941	114,52
570,139	53,08
570,336	-51,37
570,534	63,32
570,731	-22,7
570,928	51,03
571,126	161,62
571,323	169,81
571,52	38,74
571,718	46,93
571,915	178
572,112	-24,75
572,31	89,94
572,507	149,33
572,704	63,32
572,901	-26,79
573,099	114,52
573,296	135
573,493	-34,99
573,69	53,08
573,887	46,93
574,085	32,6
574,282	36,69
574,479	112,47
574,676	137,04
574,873	79,7
575,07	128,85
575,267	-10,41
575,464	5,97
575,661	141,14
575,858	22,36
576,055	32,6
576,252	141,14
576,449	34,64
576,646	51,03
576,843	-26,79
577,04	87,89
577,237	112,47
577,434	178
577,631	10,07
577,828	132,95
578,025	-32,94
578,222	55,12
578,419	87,89
578,615	46,93
578,812	106,32
579,009	30,55
579,206	106,32
579,403	98,13
579,599	210,77
579,796	104,28
579,993	161,62
580,19	10,07
580,386	128,85
580,583	139,09
580,78	55,12
580,976	128,85
581,173	26,45
581,37	96,08
581,566	124,76
581,763	89,94
581,96	122,71
582,156	63,32
582,353	149,33
582,549	218,96
582,746	186,19
582,942	137,04
583,139	165,71
583,335	137,04
583,532	194,39
583,728	102,23
583,925	145,24
584,121	69,46
584,318	321,36
584,514	112,47
584,711	218,96
584,907	259,92
585,103	225,11
585,3	442,19
585,496	481,1
585,693	1120,07
585,889	3659,55
586,085	8120,03
586,281	14122,62
586,478	21409,29
586,674	28652,96
586,87	37530,9
587,067	45782,17
587,263	51598,4
587,459	54539,29
587,655	58217,44
587,851	58766,29
588,048	57865,19
588,244	54477,85
588,44	51237,96
588,636	45288,61
588,832	38532,36
589,028	32355,69
589,224	26326,47
589,42	20729,37
589,617	14997,1
589,813	10049,21
590,009	6108,92
590,205	3915,55
590,401	2291,51
590,597	1347,39
590,793	1140,55
590,989	638,8
591,185	556,88
591,38	460,62
591,576	343,89
591,772	278,35
591,968	294,74
592,164	268,11
592,36	210,77
592,556	132,95
592,752	169,81
592,948	89,94
593,143	96,08
593,339	106,32
593,535	85,84
593,731	65,36
593,926	130,9
594,122	61,27
594,318	137,04
594,514	132,95
594,709	24,4
594,905	153,43
595,101	34,64
595,296	75,6
595,492	75,6
595,688	46,93
595,883	112,47
596,079	153,43
596,275	10,07
596,47	137,04
596,666	5,97
596,861	118,61
597,057	-34,99
597,252	14,17
597,448	91,99
597,643	79,7
597,839	46,93
598,034	83,8
598,23	-51,37
598,425	91,99
598,621	65,36
598,816	26,45
599,011	63,32
599,207	42,84
599,402	67,41
599,597	137,04
599,793	87,89
599,988	-92,33
600,183	34,64
600,379	108,37
600,574	30,55
600,769	120,66
600,965	-2,22
601,16	-2,22
601,355	46,93
601,55	87,89
601,745	87,89
601,941	87,89
602,136	79,7
602,331	-4,27
602,526	-26,79
602,721	28,5
602,916	63,32
603,111	48,98
603,307	67,41
603,502	98,13
603,697	-84,14
603,892	16,21
604,087	42,84
604,282	169,81
604,477	59,22
604,672	69,46
604,867	-20,65
605,062	-14,51
605,257	12,12
605,452	155,47
605,646	75,6
605,841	22,36
606,036	32,6
606,231	57,17
606,426	59,22
606,621	-34,99
606,816	48,98
607,01	106,32
607,205	73,56
607,4	12,12
607,595	75,6
607,79	55,12
607,984	48,98
608,179	94,04
608,374	28,5
608,569	22,36
608,763	-37,03
608,958	55,12
609,153	79,7
609,347	5,97
609,542	-16,55
609,736	14,17
609,931	55,12
610,126	46,93
610,32	55,12
610,515	-75,95
610,709	214,87
610,904	112,47
611,098	30,55
611,293	-82,09
611,487	79,7
611,682	-28,84
611,876	71,51
612,071	104,28
612,265	46,93
612,46	65,36
612,654	73,56
612,848	57,17
613,043	22,36
613,237	75,6
613,432	-22,7
613,626	5,97
613,82	-6,31
614,014	73,56
614,209	128,85
614,403	-57,51
614,597	5,97
614,792	159,57
614,986	51,03
615,18	85,84
615,374	114,52
615,568	-0,17
615,763	-6,31
615,957	128,85
616,151	46,93
616,345	71,51
616,539	-34,99
616,733	-6,31
616,927	22,36
617,121	8,02
617,316	26,45
617,51	30,55
617,704	14,17
617,898	143,19
618,092	-51,37
618,286	71,51
618,48	-14,51
618,674	87,89
618,868	114,52
619,061	8,02
619,255	10,07
619,449	10,07
619,643	-16,55
619,837	202,58
620,031	16,21
620,225	126,8
620,419	16,21
620,612	87,89
620,806	137,04
621	135
621,194	1,88
621,388	71,51
621,581	71,51
621,775	57,17
621,969	69,46
622,162	89,94
622,356	-18,6
622,55	75,6
622,743	5,97
622,937	-41,13
623,131	8,02
623,324	137,04
623,518	5,97
623,712	-8,36
623,905	18,26
624,099	65,36
624,292	63,32
624,486	-34,99
624,679	-41,13
624,873	79,7
625,066	10,07
625,26	71,51
625,453	-22,7
625,647	12,12
625,84	48,98
626,034	94,04
626,227	75,6
626,42	77,65
626,614	89,94
626,807	100,18
627	73,56
627,194	24,4
627,387	81,75
627,58	-22,7
627,774	-2,22
627,967	1,88
628,16	38,74
628,353	32,6
628,547	71,51
628,74	83,8
628,933	-49,32
629,126	-32,94
629,319	34,64
629,513	14,17
629,706	38,74
629,899	104,28
630,092	-59,56
630,285	-26,79
630,478	32,6
630,671	-10,41
630,864	16,21
631,057	71,51
631,25	91,99
631,443	16,21
631,636	14,17
631,829	108,37
632,022	169,81
632,215	18,26
632,408	139,09
632,601	14,17
632,794	-39,08
632,987	65,36
633,18	44,88
633,373	38,74
633,566	-2,22
633,758	-65,71
633,951	-32,94
634,144	-8,36
634,337	26,45
634,53	51,03
634,722	55,12
634,915	24,4
635,108	10,07
635,301	79,7
635,493	59,22
635,686	186,19
635,879	34,64
636,071	-86,19
636,264	14,17
636,457	96,08
636,649	-10,41
636,842	57,17
637,034	24,4
637,227	100,18
637,42	42,84
637,612	-2,22
637,805	-41,13
637,997	48,98
638,19	26,45
638,382	24,4
638,575	-43,18
638,767	32,6
638,96	42,84
639,152	89,94
639,344	137,04
639,537	34,64
639,729	79,7
639,922	16,21
640,114	42,84
640,306	79,7
640,499	1,88
640,691	-0,17
640,883	30,55
641,075	-59,56
641,268	98,13
641,46	-0,17
641,652	-41,13
641,844	-67,75
642,037	-2,22
642,229	34,64
642,421	55,12
642,613	96,08
642,805	38,74
642,998	104,28
643,19	28,5
643,382	137,04
643,574	42,84
643,766	-10,41
643,958	30,55
644,15	116,56
644,342	145,24
644,534	36,69
644,726	-6,31
644,918	-28,84
645,11	-10,41
645,302	-43,18
645,494	14,17
645,686	-55,47
645,878	-41,13
646,07	51,03
646,262	-8,36
646,453	42,84
646,645	63,32
646,837	120,66
647,029	63,32
647,221	118,61
647,413	22,36
647,604	10,07
647,796	89,94
647,988	57,17
648,18	16,21
648,371	-8,36
648,563	-32,94
648,755	-24,75
648,947	5,97
649,138	-63,66
649,33	53,08
649,521	46,93
649,713	81,75
649,905	57,17
650,096	8,02
650,288	-4,27
650,479	-75,95
650,671	24,4
650,863	16,21
651,054	-8,36
651,246	57,17
651,437	14,17
651,629	122,71
651,82	145,24
652,011	40,79
652,203	55,12
652,394	120,66
652,586	73,56
652,777	65,36
652,968	48,98
653,16	5,97
653,351	8,02
653,542	106,32
653,734	5,97
653,925	-26,79
654,116	-18,6
654,308	46,93
654,499	5,97
654,69	-10,41
654,881	14,17
655,073	-0,17
655,264	57,17
655,455	55,12
655,646	-2,22
655,837	89,94
656,028	18,26
656,219	-14,51
656,411	-26,79
656,602	22,36
656,793	46,93
656,984	22,36
657,175	-10,41
657,366	-0,17
657,557	83,8
657,748	26,45
657,939	116,56
658,13	-20,65
658,321	120,66
658,512	106,32
658,703	122,71
658,894	159,57
659,084	98,13
659,275	-41,13
659,466	114,52
659,657	79,7
659,848	89,94
660,039	98,13
660,23	-14,51
660,42	-71,85
660,611	-55,47
660,802	-2,22
660,993	14,17
661,183	-0,17
661,374	5,97
661,565	153,43
661,755	22,36
661,946	104,28
662,137	40,79
662,327	46,93
662,518	120,66
662,709	14,17
662,899	8,02
663,09	22,36
663,28	24,4
663,471	3,93
663,662	112,47
663,852	112,47
664,043	38,74
664,233	14,17
664,424	79,7
664,614	18,26
664,804	22,36
664,995	87,89
665,185	89,94
665,376	79,7
665,566	65,36
665,756	30,55
665,947	102,23
666,137	210,77
666,328	1025,86
666,518	2111,29
666,708	3735,32
666,898	5396,23
667,089	7272,17
667,279	9090,76
667,469	10659,51
667,659	11656,87
667,85	11914,91
668,04	12002,97
668,23	11599,52
668,42	11040,43
668,61	10294,97
668,8	9635,52
668,991	8419,03
669,181	7528,16
669,371	6391,54
669,561	5521,15
669,751	4558,61
669,941	3897,11
670,131	2844,46
670,321	2176,82
670,511	1357,63
670,701	933,7
670,891	640,84
671,081	489,29
671,271	284,5
671,461	178
671,651	165,71
671,841	163,67
672,03	151,38
672,22	63,32
672,41	61,27
672,6	22,36
672,79	122,71
672,98	91,99
673,169	61,27
673,359	61,27
673,549	96,08
673,739	10,07
673,928	12,12
674,118	46,93
674,308	-18,6
674,497	10,07
674,687	38,74
674,877	-32,94
675,066	-18,6
675,256	-0,17
675,446	-14,51
675,635	48,98
675,825	-45,23
676,014	8,02
676,204	-2,22
676,393	32,6
676,583	38,74
676,772	26,45
676,962	1,88
677,151	1,88
677,341	22,36
677,53	55,12
677,72	24,4
677,909	42,84
678,099	51,03
678,288	-32,94
678,477	63,32
678,667	-28,84
678,856	30,55
679,045	87,89
679,235	98,13
679,424	30,55
679,613	122,71
679,802	55,12
679,992	38,74
680,181	-14,51
680,37	63,32
680,559	46,93
680,748	12,12
680,938	40,79
681,127	10,07
681,316	81,75
681,505	1,88
681,694	-82,09
681,883	16,21
682,072	44,88
682,261	104,28
682,45	-49,32
682,639	-47,27
682,828	81,75
683,017	137,04
683,206	10,07
683,395	-18,6
683,584	79,7
683,773	73,56
683,962	-18,6
684,151	-2,22
684,34	-2,22
684,529	-8,36
684,718	14,17
684,907	61,27
685,095	55,12
685,284	26,45
685,473	-10,41
685,662	-24,75
685,851	96,08
686,039	22,36
686,228	-10,41
686,417	18,26
686,606	132,95
686,794	38,74
686,983	30,55
687,172	1,88
687,36	18,26
687,549	-32,94
687,738	-24,75
687,926	-47,27
688,115	-45,23
688,303	18,26
688,492	-20,65
688,68	-51,37
688,869	-34,99
689,057	-18,6
689,246	18,26
689,434	161,62
689,623	-92,33
689,811	79,7
690	-59,56
690,188	16,21
690,377	-6,31
690,565	46,93
690,753	71,51
690,942	-12,46
691,13	67,41
691,318	30,55
691,507	-65,71
691,695	104,28
691,883	28,5
692,072	24,4
692,26	48,98
692,448	40,79
692,636	-0,17
692,824	-43,18
693,013	108,37
693,201	57,17
693,389	-47,27
693,577	-18,6
693,765	22,36
693,953	-16,55
694,141	-4,27
694,329	-47,27
694,518	-14,51
694,706	-2,22
694,894	79,7
695,082	26,45
695,27	100,18
695,458	24,4
695,646	5,97
695,834	-47,27
696,022	53,08
696,209	-10,41
696,397	22,36
696,585	26,45
696,773	10,07
696,961	-18,6
697,149	22,36
697,337	94,04
697,525	106,32
697,712	106,32
697,9	59,22
698,088	44,88
698,276	12,12
698,463	89,94
698,651	114,52
698,839	16,21
699,027	38,74
699,214	106,32
699,402	-18,6
699,59	63,32
699,777	-96,43
699,965	46,93
700,152	8,02
700,34	-24,75
700,528	1,88
700,715	65,36
700,903	-10,41
701,09	5,97
701,278	55,12
701,465	32,6
701,653	46,93
701,84	-39,08
702,028	145,24
702,215	120,66
702,402	-51,37
702,59	89,94
702,777	180,05
702,965	36,69
703,152	59,22
703,339	104,28
703,527	122,71
703,714	79,7
703,901	65,36
704,088	34,64
704,276	196,43
704,463	147,28
704,65	188,24
704,837	286,54
705,025	876,36
705,212	2750,25
705,399	5857,02
705,586	9025,23
705,773	12803,73
705,96	16436,83
706,147	19387,95
706,335	21259,79
706,522	22644,22
706,709	22330,88
706,896	21691,91
707,083	20080,16
707,27	19424,81
707,457	17407,56
707,644	16055,9
707,831	13874,82
708,018	12031,65
708,205	10311,35
708,392	9021,13
708,578	7589,6
708,765	6483,7
708,952	5072,65
709,139	4013,85
709,326	2821,93
709,513	1892,15
709,7	1316,67
709,886	890,7
710,073	636,75
710,26	489,29
710,447	300,88
710,633	276,31
710,82	194,39
711,007	167,76
711,193	87,89
711,38	137,04
711,567	32,6
711,753	79,7
711,94	30,55
712,127	55,12
712,313	59,22
712,5	12,12
712,686	104,28
712,873	-32,94
713,059	-20,65
713,246	91,99
713,432	132,95
713,619	-2,22
713,805	55,12
713,992	81,75
714,178	5,97
714,365	38,74
714,551	190,29
714,737	-16,55
714,924	-98,47
715,11	145,24
715,297	8,02
715,483	3,93
715,669	87,89
715,855	1,88
716,042	55,12
716,228	-41,13
716,414	79,7
716,6	42,84
716,787	26,45
716,973	75,6
717,159	77,65
717,345	63,32
717,531	22,36
717,718	71,51
717,904	51,03
718,09	-16,55
718,276	69,46
718,462	24,4
718,648	30,55
718,834	-14,51
719,02	112,47
719,206	100,18
719,392	-2,22
719,578	20,31
719,764	-59,56
719,95	24,4
720,136	59,22
720,322	-10,41
720,508	-16,55
720,694	14,17
720,879	-10,41
721,065	114,52
721,251	12,12
721,437	65,36
721,623	79,7
721,809	-0,17
721,994	100,18
722,18	14,17
722,366	40,79
722,552	-12,46
722,737	-10,41
722,923	73,56
723,109	-26,79
723,294	14,17
723,48	51,03
723,666	63,32
723,851	-24,75
724,037	1,88
724,222	137,04
724,408	38,74
724,593	14,17
724,779	30,55
724,965	-18,6
725,15	-26,79
725,336	55,12
725,521	12,12
725,706	-49,32
725,892	-20,65
726,077	-20,65
726,263	12,12
726,448	71,51
726,634	79,7
726,819	292,69
727,004	573,26
727,19	849,74
727,375	1337,15
727,56	1554,24
727,745	1767,23
727,931	2066,23
728,116	2189,11
728,301	2180,92
728,486	2225,97
728,672	2039,61
728,857	2039,61
729,042	1693,5
729,227	1533,76
729,412	1410,88
729,597	1169,22
729,783	1103,68
729,968	767,82
730,153	737,1
730,338	620,36
730,523	546,64
730,708	456,53
730,893	282,45
731,078	288,59
731,263	163,67
731,448	128,85
731,633	161,62
731,818	3,93
732,003	-92,33
732,187	-106,67
732,372	-8,36
732,557	-14,51
732,742	-77,99
732,927	-41,13
733,112	26,45
733,297	-6,31
733,481	-34,99
733,666	10,07
733,851	-8,36
734,036	-8,36
734,22	-84,14
734,405	106,32
734,59	-18,6
734,774	14,17
734,959	-8,36
735,144	61,27
735,328	-2,22
735,513	1,88
735,698	3,93
735,882	75,6
736,067	46,93
736,251	-8,36
736,436	24,4
736,62	14,17
736,805	-0,17
736,989	40,79
737,174	8,02
737,358	-10,41
737,543	30,55
737,727	-16,55
737,911	104,28
738,096	-26,79
738,28	5,97
738,465	-39,08
738,649	63,32
738,833	30,55
739,018	-41,13
739,202	-57,51
739,386	-90,28
739,57	-2,22
739,755	51,03
739,939	63,32
740,123	5,97
740,307	55,12
740,491	79,7
740,676	-6,31
740,86	-8,36
741,044	-14,51
741,228	24,4
741,412	-67,75
741,596	-67,75
741,78	-131,24
741,964	51,03
742,148	-2,22
742,332	-61,61
742,516	-125,1
742,7	-43,18
742,884	-10,41
743,068	-14,51
743,252	91,99
743,436	-6,31
743,62	-0,17
743,804	149,33
743,988	46,93
744,172	8,02
744,356	-10,41
744,539	-75,95
744,723	-32,94
744,907	-59,56
745,091	30,55
745,275	96,08
745,458	8,02
745,642	38,74
745,826	22,36
746,009	57,17
746,193	-10,41
746,377	57,17
746,56	22,36
746,744	132,95
746,928	24,4
747,111	16,21
747,295	-14,51
747,478	30,55
747,662	30,55
747,846	40,79
748,029	63,32
748,213	-16,55
748,396	-92,33
748,58	42,84
748,763	22,36
748,946	-98,47
749,13	24,4
749,313	-73,9
749,497	87,89
749,68	79,7
749,863	-2,22
750,047	-43,18
750,23	91,99
750,413	79,7
750,597	18,26
750,78	-16,55
750,963	26,45
751,146	32,6
751,33	16,21
751,513	8,02
751,696	-30,89
751,879	24,4
752,062	-116,9
752,246	-30,89
752,429	8,02
752,612	63,32
752,795	-10,41
752,978	-16,55
753,161	-45,23
753,344	-8,36
753,527	-18,6
753,71	-61,61
753,893	-16,55
754,076	-14,51
754,259	73,56
754,442	-51,37
754,625	-92,33
754,808	81,75
754,991	-10,41
755,174	-71,85
755,357	-2,22
755,539	16,21
755,722	79,7
755,905	-28,84
756,088	34,64
756,271	-55,47
756,453	-10,41
756,636	-63,66
756,819	48,98
757,002	-26,79
757,184	79,7
757,367	46,93
757,55	51,03
757,732	36,69
757,915	-63,66
758,098	30,55
758,28	16,21
758,463	-67,75
758,645	46,93
758,828	14,17
759,011	14,17
759,193	71,51
759,376	28,5
759,558	-65,71
759,741	14,17
759,923	-75,95
760,105	16,21
760,288	10,07
760,47	-92,33
760,653	1,88
760,835	57,17
761,017	-67,75
761,2	46,93
761,382	139,09
761,564	-10,41
761,747	96,08
761,929	-10,41
762,111	-75,95
762,294	-47,27
762,476	157,52
762,658	81,75
762,84	120,66
763,022	-0,17
763,205	81,75
763,387	48,98
763,569	46,93
763,751	-127,14
763,933	-37,03
764,115	-16,55
764,297	63,32
764,479	65,36
764,661	3,93
764,843	96,08
765,025	1,88
765,207	40,79
765,389	-0,17
765,571	-47,27
765,753	5,97
765,935	14,17
766,117	-20,65
766,299	81,75
766,481	79,7
766,663	-2,22
766,845	-16,55
767,026	16,21
767,208	38,74
767,39	-0,17
767,572	-6,31
767,753	87,89
767,935	-26,79
768,117	-34,99
768,299	24,4
768,48	8,02
768,662	40,79
768,844	-47,27
769,025	63,32
769,207	-10,41
769,389	-59,56
769,57	42,84
769,752	32,6
769,933	-22,7
770,115	42,84
770,296	-51,37
770,478	20,31
770,659	-102,57
770,841	237,39
771,022	16,21
771,204	67,41
771,385	46,93
771,567	98,13
771,748	96,08
771,929	-73,9
772,111	30,55
772,292	32,6
772,473	81,75
772,655	-0,17
772,836	16,21
773,017	69,46
773,199	63,32
773,38	75,6
773,561	16,21
773,742	-8,36
773,923	-22,7
774,105	112,47
774,286	65,36
774,467	-24,75
774,648	-28,84
774,829	-34,99
775,01	20,31
775,191	1,88
775,372	63,32
775,553	-30,89
775,734	46,93
775,915	-65,71
776,096	-43,18
776,277	22,36
776,458	-55,47
776,639	-6,31
776,82	59,22
777,001	-22,7
777,182	-18,6
777,363	-65,71
777,544	22,36
777,725	106,32
777,906	16,21
778,086	20,31
778,267	22,36
778,448	44,88
778,629	30,55
778,809	48,98
778,99	24,4
779,171	28,5
779,352	10,07
779,532	-43,18
779,713	-14,51
779,894	-49,32
780,074	42,84
780,255	-30,89
780,435	16,21
780,616	46,93
780,797	120,66
780,977	-12,46
781,158	-57,51
781,338	30,55
781,519	-18,6
781,699	120,66
781,88	-0,17
782,06	38,74
782,241	-92,33
782,421	20,31
782,601	91,99
782,782	71,51
782,962	63,32
783,142	5,97
783,323	-20,65
783,503	26,45
783,683	46,93
783,864	85,84
784,044	98,13
784,224	96,08
784,404	8,02
784,585	75,6
784,765	16,21
784,945	46,93
785,125	-18,6
785,305	24,4
785,485	106,32
785,666	-2,22
785,846	-57,51
786,026	-10,41
786,206	-55,47
786,386	14,17
786,566	-10,41
786,746	22,36
786,926	-2,22
787,106	38,74
787,286	-45,23
787,466	12,12
787,646	46,93
787,826	14,17
788,006	98,13
788,185	-43,18
788,365	-108,71
788,545	100,18
788,725	-14,51
788,905	8,02
789,085	14,17
789,264	-55,47
789,444	75,6
789,624	22,36
789,804	-82,09
789,983	24,4
790,163	-98,47
790,343	-24,75
790,522	-45,23
790,702	12,12
790,882	-18,6
791,061	135
791,241	-59,56
791,42	-39,08
791,6	34,64
791,78	26,45
791,959	-90,28
792,139	-65,71
792,318	-0,17
792,498	120,66
792,677	-51,37
792,856	-51,37
793,036	-43,18
793,215	-43,18
793,395	12,12
793,574	-10,41
793,753	-8,36
793,933	98,13
794,112	5,97
794,291	18,26
794,471	69,46
794,65	14,17
794,829	-88,23
795,008	-28,84
795,188	71,51
795,367	75,6
795,546	51,03
795,725	-43,18
795,904	-16,55
796,084	65,36
796,263	32,6
796,442	75,6
796,621	-32,94
796,8	75,6
796,979	-16,55
797,158	12,12
797,337	-2,22
797,516	-10,41
797,695	55,12
797,874	55,12
798,053	48,98
798,232	-8,36
798,411	-125,1
798,59	-37,03
798,769	5,97
798,947	30,55
799,126	65,36
799,305	40,79
799,484	-18,6
799,663	26,45
799,842	75,6
800,02	14,17
800,199	-73,9
800,378	69,46
800,557	-77,99
800,735	-100,52
800,914	-53,42
801,093	79,7
801,271	-47,27
801,45	22,36
801,628	112,47
801,807	48,98
801,986	10,07
802,164	46,93
802,343	-34,99
802,521	-102,57
802,7	104,28
802,878	112,47
803,057	-2,22
803,235	-63,66
803,414	34,64
803,592	128,85
803,771	8,02
803,949	18,26
804,127	-59,56
804,306	55,12
804,484	-28,84
804,662	5,97
804,841	-73,9
805,019	83,8
805,197	26,45
805,375	24,4
805,554	-43,18
805,732	77,65
805,91	8,02
806,088	16,21
806,266	-49,32
806,445	-2,22
806,623	26,45
806,801	57,17
806,979	-6,31
807,157	79,7
807,335	-59,56
807,513	14,17
807,691	-39,08
807,869	-59,56
808,047	-39,08
808,225	-20,65
808,403	63,32
808,581	14,17
808,759	75,6
808,937	71,51
809,115	55,12
809,293	-16,55
809,471	34,64
809,649	38,74
809,826	48,98
810,004	-16,55
810,182	5,97
810,36	-14,51
810,538	32,6
810,715	63,32
810,893	-51,37
811,071	-26,79
811,248	112,47
811,426	-39,08
811,604	14,17
811,781	59,22
811,959	14,17
812,137	14,17
812,314	10,07
812,492	14,17
812,669	-10,41
812,847	-22,7
813,024	-47,27
813,202	128,85
813,379	-6,31
813,557	-12,46
813,734	40,79
813,912	26,45
814,089	-20,65
814,267	73,56
814,444	14,17
814,621	22,36
814,799	-84,14
814,976	30,55
815,153	-32,94
815,331	-14,51
815,508	8,02
815,685	-39,08
815,862	46,93
816,04	14,17
816,217	-82,09
816,394	32,6
816,571	10,07
816,748	130,9
816,926	147,28
817,103	280,4
817,28	1,88
817,457	-51,37
817,634	128,85
817,811	-84,14
817,988	-18,6
818,165	34,64
818,342	-12,46
818,519	-2,22
818,696	-32,94
818,873	8,02
819,05	14,17
819,227	-30,89
819,404	30,55
819,581	14,17
819,758	-39,08
819,934	-6,31
820,111	-18,6
820,288	63,32
820,465	128,85
820,642	-51,37
820,818	22,36
820,995	67,41
821,172	-10,41
821,349	-24,75
821,525	8,02
821,702	32,6
821,879	-18,6
822,055	-59,56
822,232	-2,22
822,409	30,55
822,585	87,89
822,762	83,8
822,938	-2,22
823,115	48,98
823,291	-16,55
823,468	128,85
823,644	-41,13
823,821	98,13
823,997	-49,32
824,174	-61,61
824,35	8,02
824,527	38,74
824,703	20,31
824,879	-10,41
825,056	18,26
825,232	118,61
825,408	5,97
825,585	5,97
825,761	24,4
825,937	-34,99
826,113	-18,6
826,29	-51,37
826,466	30,55
826,642	345,94
826,818	-4,27
826,994	-75,95
827,17	-10,41
827,347	-55,47
827,523	-67,75
827,699	-8,36
827,875	57,17
828,051	46,93
828,227	5,97
828,403	104,28
828,579	114,52
828,755	40,79
828,931	-51,37
829,107	24,4
829,283	157,52
829,459	-49,32
829,635	14,17
829,811	28,5
829,986	5,97
830,162	3,93
830,338	5,97
830,514	-51,37
830,69	14,17
830,865	18,26
831,041	106,32
831,217	-49,32
831,393	79,7
831,568	-26,79
831,744	-16,55
831,92	1,88
832,095	-6,31
832,271	26,45
832,447	-0,17
832,622	24,4
832,798	46,93
832,973	-4,27
833,149	63,32
833,325	-34,99
833,5	-22,7
833,676	-24,75
833,851	57,17
834,027	-0,17
834,202	-26,79
834,377	-2,22
834,553	30,55
834,728	28,5
834,904	30,55
835,079	5,97
835,254	-14,51
835,43	65,36
835,605	-26,79
835,78	46,93
835,955	46,93
836,131	-51,37
836,306	-65,71
836,481	-34,99
836,656	32,6
836,832	98,13
837,007	-75,95
837,182	5,97
837,357	-2,22
837,532	5,97
837,707	-8,36
837,882	16,21
838,057	36,69
838,232	51,03
838,407	-0,17
838,582	1,88
838,757	3,93
838,932	137,04
839,107	32,6
839,282	-141,48
839,457	1,88
839,632	40,79
839,807	5,97
839,982	-43,18
840,157	-82,09
840,332	98,13
840,506	22,36
840,681	-45,23
840,856	67,41
841,031	-92,33
841,205	-10,41
841,38	-18,6
841,555	79,7
841,73	-18,6
841,904	16,21
842,079	24,4
842,254	24,4
842,428	-2,22
842,603	-6,31
842,777	-47,27
842,952	-43,18
843,126	-67,75
843,301	22,36
843,476	-125,1
843,65	55,12
843,825	79,7
843,999	-24,75
844,173	-10,41
844,348	24,4
844,522	10,07
844,697	14,17
844,871	16,21
845,045	91,99
845,22	32,6
845,394	75,6
845,568	-12,46
845,743	-4,27
845,917	-71,85
846,091	-24,75
846,265	-73,9
846,44	87,89
846,614	8,02
846,788	-0,17
846,962	106,32
847,136	-2,22
847,31	-69,8
847,485	110,42
847,659	-16,55
847,833	91,99
848,007	-0,17
848,181	1,88
848,355	-108,71
848,529	106,32
848,703	112,47
848,877	-30,89
849,051	46,93
849,225	-18,6
849,399	24,4
849,573	-106,67
849,746	-34,99
849,92	-0,17
850,094	18,26
850,268	-45,23
850,442	69,46
850,616	-59,56
850,789	-34,99
850,963	-8,36
851,137	-108,71
851,311	30,55
851,484	16,21
851,658	30,55
851,832	-71,85
852,005	-98,47
852,179	1,88
852,352	24,4
852,526	-92,33
852,7	87,89
852,873	-123,05
853,047	-8,36
853,22	-24,75
853,394	-2,22
853,567	14,17
853,741	-34,99
853,914	-37,03
854,088	-22,7
854,261	-22,7
854,434	14,17
854,608	-0,17
854,781	-75,95
854,955	-0,17
855,128	30,55
855,301	-18,6
855,475	-32,94
855,648	63,32
855,821	-2,22
855,994	42,84
856,168	81,75
856,341	57,17
856,514	-43,18
856,687	1,88
856,86	-16,55
857,033	-14,51
857,207	-10,41
857,38	-110,76
857,553	71,51
857,726	22,36
857,899	145,24
858,072	-34,99
858,245	-34,99
858,418	-2,22
858,591	-8,36
858,764	46,93
858,937	8,02
859,11	71,51
859,283	-65,71
859,455	63,32
859,628	24,4
859,801	40,79
859,974	8,02
860,147	10,07
860,32	32,6
860,492	-2,22
860,665	-100,52
860,838	-2,22
861,011	-16,55
861,183	71,51
861,356	137,04
861,529	26,45
861,701	-32,94
861,874	-41,13
862,047	65,36
862,219	-10,41
862,392	63,32
862,564	34,64
862,737	-34,99
862,909	5,97
863,082	-22,7
863,254	14,17
863,427	16,21
863,599	110,42
863,772	-2,22
863,944	108,37
864,117	8,02
864,289	48,98
864,461	-47,27
864,634	-10,41
864,806	-49,32
864,978	22,36
865,151	38,74
865,323	59,22
865,495	55,12
865,667	-4,27
865,84	120,66
866,012	-47,27
866,184	69,46
866,356	-55,47
866,528	-6,31
866,7	-2,22
866,873	-71,85
867,045	-6,31
867,217	-92,33
867,389	32,6
867,561	22,36
867,733	10,07
867,905	-16,55
868,077	46,93
868,249	44,88
868,421	-26,79
868,593	-61,61
868,765	26,45
868,936	-55,47
869,108	12,12
869,28	73,56
869,452	34,64
869,624	-61,61
869,796	87,89
869,968	-98,47
870,139	-6,31
870,311	-12,46
870,483	69,46
870,654	-51,37
870,826	81,75
870,998	22,36
871,17	36,69
871,341	-43,18
871,513	55,12
871,684	1,88
871,856	-14,51
872,028	-51,37
872,199	-26,79
872,371	-92,33
872,542	57,17
872,714	-18,6
872,885	96,08
873,057	-37,03
873,228	40,79
873,4	75,6
873,571	139,09
873,742	-12,46
873,914	36,69
874,085	26,45
874,256	44,88
874,428	-114,86
874,599	-69,8
874,77	57,17
874,942	-26,79
875,113	3,93
875,284	-14,51
875,455	5,97
875,626	24,4
875,798	30,55
875,969	63,32
876,14	30,55
876,311	48,98
876,482	89,94
876,653	116,56
876,824	81,75
876,995	87,89
877,166	32,6
877,337	-51,37
877,508	-34,99
877,679	-51,37
877,85	-2,22
878,021	-2,22
878,192	96,08
878,363	46,93
878,534	-18,6
878,705	-116,9
878,876	5,97
879,047	112,47
879,217	-34,99
879,388	-55,47
879,559	-2,22
879,73	26,45
879,9	-106,67
880,071	96,08
880,242	-2,22
880,413	30,55
880,583	65,36
880,754	1,88
880,924	51,03
881,095	-41,13
881,266	12,12
881,436	55,12
881,607	91,99
881,777	-12,46
881,948	-75,95
882,118	87,89
882,289	22,36
882,459	-14,51
882,63	24,4
882,8	24,4
882,971	16,21
883,141	-49,32
883,311	-8,36
883,482	57,17
883,652	61,27
883,822	-10,41
883,993	-34,99
884,163	-24,75
884,333	-43,18
884,504	71,51
884,674	69,46
884,844	3,93
885,014	-32,94
885,184	38,74
885,355	-16,55
885,525	-34,99
885,695	51,03
885,865	153,43
886,035	22,36
886,205	-43,18
886,375	71,51
886,545	5,97
886,715	-34,99
886,885	16,21
887,055	-10,41
887,225	-90,28
887,395	-73,9
887,565	130,9
887,735	100,18
887,905	116,56
888,075	-67,75
888,244	48,98
888,414	-0,17
888,584	59,22
888,754	-49,32
888,924	75,6
889,093	124,76
889,263	-2,22
889,433	-43,18
889,603	8,02
889,772	16,21
889,942	5,97
890,111	40,79
890,281	-12,46
890,451	-32,94
890,62	16,21
890,79	55,12
890,959	-57,51
891,129	-10,41
891,298	38,74
891,468	-90,28
891,637	-10,41
891,807	75,6
891,976	61,27
892,146	-32,94
892,315	-2,22
892,485	30,55
892,654	-10,41
892,823	-34,99
892,993	-47,27
893,162	51,03
893,331	38,74
893,501	-2,22
893,67	38,74
893,839	-43,18
894,008	16,21
894,177	14,17
894,347	-34,99
894,516	46,93
894,685	28,5
894,854	-26,79
895,023	89,94
895,192	-24,75
