Data from he_USB4F104161__21__11-53-37-468.txt Node

Date: Tue Apr 14 11:53:37 EDT 2026
User: LaboPhy
Spectrometer: USB4F10416
Trigger mode: 4
Integration Time (sec): 1,000000E-1
Scans to average: 1
Electric dark correction enabled: true
Nonlinearity correction enabled: false
Boxcar width: 0
XAxis mode: Wavelengths
Number of Pixels in Spectrum: 3648
>>>>>Begin Spectral Data<<<<<
177,847	-178
178,066	-178
178,284	-178
178,502	-180,05
178,72	-184,15
178,939	14,51
179,157	18,6
179,375	-59,22
179,593	14,51
179,812	37,03
180,03	24,75
180,248	-34,64
180,466	-36,69
180,685	0,17
180,903	-1,88
181,121	-46,93
181,339	69,8
181,557	-48,98
181,775	-3,93
181,994	22,7
182,212	-38,74
182,43	37,03
182,648	65,71
182,866	28,84
183,084	37,03
183,302	43,18
183,52	49,32
183,739	82,09
183,957	63,66
184,175	14,51
184,393	4,27
184,611	88,23
184,829	94,38
185,047	20,65
185,265	94,38
185,483	-36,69
185,701	12,46
185,919	53,42
186,137	-3,93
186,355	4,27
186,573	82,09
186,791	147,62
187,009	37,03
187,227	-16,21
187,445	24,75
187,663	4,27
187,881	-65,36
188,098	55,47
188,316	37,03
188,534	94,38
188,752	12,46
188,97	-110,42
189,188	-1,88
189,406	63,66
189,624	53,42
189,841	-24,4
190,059	-106,32
190,277	-24,4
190,495	-20,31
190,713	112,81
190,931	135,34
191,148	71,85
191,366	-24,4
191,584	80,04
191,802	12,46
192,019	147,62
192,237	28,84
192,455	90,28
192,673	182,44
192,89	20,65
193,108	96,43
193,326	49,32
193,543	6,31
193,761	-69,46
193,979	4,27
194,196	16,55
194,414	59,56
194,632	20,65
194,849	6,31
195,067	-24,4
195,285	45,23
195,502	-34,64
195,72	-12,12
195,937	24,75
196,155	69,8
196,373	14,51
196,59	88,23
196,808	53,42
197,025	176,3
197,243	315,56
197,46	18,6
197,678	-36,69
197,895	67,75
198,113	37,03
198,33	28,84
198,548	61,61
198,765	-1,88
198,983	102,57
199,2	-1,88
199,418	43,18
199,635	-12,12
199,853	69,8
200,07	37,03
200,288	32,94
200,505	28,84
200,722	84,14
200,94	47,27
201,157	12,46
201,375	100,52
201,592	4,27
201,809	104,62
202,027	47,27
202,244	2,22
202,461	-24,4
202,679	75,95
202,896	88,23
203,113	-30,55
203,331	65,71
203,548	10,41
203,765	6,31
203,982	75,95
204,2	-20,31
204,417	16,55
204,634	151,72
204,851	61,61
205,069	55,47
205,286	47,27
205,503	69,8
205,72	8,36
205,937	30,89
206,155	-3,93
206,372	172,2
206,589	-20,31
206,806	121
207,023	67,75
207,24	73,9
207,458	4,27
207,675	-3,93
207,892	-16,21
208,109	49,32
208,326	-14,17
208,543	26,79
208,76	12,46
208,977	176,3
209,194	63,66
209,411	37,03
209,628	-8,02
209,845	12,46
210,062	24,75
210,279	-100,18
210,496	80,04
210,713	-12,12
210,93	55,47
211,147	86,19
211,364	26,79
211,581	16,55
211,798	75,95
212,015	-69,46
212,232	20,65
212,449	51,37
212,666	-36,69
212,883	53,42
213,1	-12,12
213,317	-22,36
213,533	45,23
213,75	12,46
213,967	8,36
214,184	-53,08
214,401	37,03
214,618	-44,88
214,835	-1,88
215,051	110,76
215,268	-16,21
215,485	6,31
215,702	41,13
215,919	-1,88
216,135	178,34
216,352	12,46
216,569	4,27
216,786	24,75
217,002	127,14
217,219	114,86
217,436	24,75
217,652	22,7
217,869	30,89
218,086	90,28
218,302	86,19
218,519	69,8
218,736	61,61
218,952	-44,88
219,169	77,99
219,386	94,38
219,602	-20,31
219,819	20,65
220,036	-53,08
220,252	110,76
220,469	8,36
220,685	-34,64
220,902	-24,4
221,118	-12,12
221,335	94,38
221,552	-57,17
221,768	69,8
221,985	0,17
222,201	69,8
222,418	-1,88
222,634	47,27
222,851	61,61
223,067	12,46
223,284	69,8
223,5	-12,12
223,716	61,61
223,933	-18,26
224,149	18,6
224,366	65,71
224,582	-3,93
224,799	-36,69
225,015	39,08
225,231	-59,22
225,448	-63,32
225,664	129,19
225,88	-18,26
226,097	112,81
226,313	-12,12
226,529	47,27
226,746	39,08
226,962	12,46
227,178	82,09
227,395	-28,5
227,611	24,75
227,827	-44,88
228,044	39,08
228,26	143,53
228,476	18,6
228,692	121
228,909	28,84
229,125	-36,69
229,341	-20,31
229,557	-42,84
229,773	-8,02
229,99	61,61
230,206	12,46
230,422	28,84
230,638	-61,27
230,854	61,61
231,07	-32,6
231,286	135,34
231,503	53,42
231,719	4,27
231,935	-12,12
232,151	49,32
232,367	110,76
232,583	4,27
232,799	49,32
233,015	61,61
233,231	45,23
233,447	20,65
233,663	65,71
233,879	6,31
234,095	45,23
234,311	-3,93
234,527	-36,69
234,743	118,95
234,959	39,08
235,175	77,99
235,391	-12,12
235,607	12,46
235,823	69,8
236,039	24,75
236,255	-12,12
236,471	86,19
236,687	12,46
236,903	-34,64
237,118	53,42
237,334	12,46
237,55	51,37
237,766	-91,99
237,982	69,8
238,198	45,23
238,413	32,94
238,629	63,66
238,845	34,99
239,061	-8,02
239,277	61,61
239,492	-53,08
239,708	6,31
239,924	-14,17
240,14	22,7
240,355	135,34
240,571	30,89
240,787	4,27
241,003	61,61
241,218	22,7
241,434	69,8
241,65	82,09
241,865	-20,31
242,081	127,14
242,297	-77,65
242,512	82,09
242,728	6,31
242,944	-67,41
243,159	-8,02
243,375	-36,69
243,59	-65,36
243,806	118,95
244,022	45,23
244,237	-69,46
244,453	-10,07
244,668	53,42
244,884	164,01
245,099	-77,65
245,315	112,81
245,53	127,14
245,746	131,24
245,961	80,04
246,177	-3,93
246,392	37,03
246,608	96,43
246,823	12,46
247,039	45,23
247,254	-112,47
247,47	110,76
247,685	-3,93
247,9	-26,45
248,116	53,42
248,331	-36,69
248,547	24,75
248,762	-112,47
248,977	127,14
249,193	94,38
249,408	135,34
249,623	41,13
249,839	24,75
250,054	-69,46
250,269	77,99
250,485	41,13
250,7	28,84
250,915	-53,08
251,13	61,61
251,346	94,38
251,561	131,24
251,776	110,76
251,991	-57,17
252,207	121
252,422	-61,27
252,637	18,6
252,852	-12,12
253,067	53,42
253,283	-55,12
253,498	71,85
253,713	47,27
253,928	45,23
254,143	-32,6
254,358	37,03
254,573	-18,26
254,788	-42,84
255,004	-48,98
255,219	-114,52
255,434	53,42
255,649	-69,46
255,864	90,28
256,079	14,51
256,294	-36,69
256,509	57,51
256,724	28,84
256,939	-32,6
257,154	51,37
257,369	45,23
257,584	98,47
257,799	24,75
258,014	12,46
258,229	112,81
258,444	-28,5
258,659	63,66
258,874	114,86
259,089	41,13
259,304	12,46
259,518	30,89
259,733	65,71
259,948	-12,12
260,163	102,57
260,378	133,29
260,593	39,08
260,808	102,57
261,022	-32,6
261,237	69,8
261,452	90,28
261,667	28,84
261,882	84,14
262,096	49,32
262,311	96,43
262,526	-44,88
262,741	-16,21
262,955	-61,27
263,17	100,52
263,385	86,19
263,6	-10,07
263,814	-51,03
264,029	22,7
264,244	118,95
264,458	4,27
264,673	41,13
264,888	59,56
265,102	71,85
265,317	16,55
265,532	-28,5
265,746	104,62
265,961	153,77
266,175	69,8
266,39	86,19
266,605	-61,27
266,819	82,09
267,034	65,71
267,248	-79,7
267,463	67,75
267,677	-3,93
267,892	86,19
268,106	-3,93
268,321	69,8
268,535	39,08
268,75	12,46
268,964	-20,31
269,179	102,57
269,393	-10,07
269,608	77,99
269,822	-118,61
270,036	37,03
270,251	14,51
270,465	45,23
270,68	49,32
270,894	0,17
271,108	213,16
271,323	53,42
271,537	-3,93
271,752	110,76
271,966	30,89
272,18	-36,69
272,394	12,46
272,609	-18,26
272,823	80,04
273,037	41,13
273,252	28,84
273,466	22,7
273,68	102,57
273,894	30,89
274,109	4,27
274,323	57,51
274,537	-1,88
274,751	-1,88
274,966	16,55
275,18	-75,6
275,394	0,17
275,608	-42,84
275,822	-53,08
276,036	-44,88
276,25	-1,88
276,465	4,27
276,679	90,28
276,893	-12,12
277,107	73,9
277,321	-10,07
277,535	86,19
277,749	151,72
277,963	32,94
278,177	-46,93
278,391	-48,98
278,605	-77,65
278,819	39,08
279,033	-3,93
279,247	53,42
279,461	71,85
279,675	14,51
279,889	49,32
280,103	12,46
280,317	145,58
280,531	-28,5
280,745	-20,31
280,959	14,51
281,173	86,19
281,387	55,47
281,601	45,23
281,815	86,19
282,029	-28,5
282,242	-48,98
282,456	37,03
282,67	71,85
282,884	51,37
283,098	47,27
283,312	30,89
283,525	-59,22
283,739	102,57
283,953	-28,5
284,167	53,42
284,381	8,36
284,594	-3,93
284,808	-16,21
285,022	-75,6
285,235	-44,88
285,449	14,51
285,663	-12,12
285,877	-73,56
286,09	12,46
286,304	110,76
286,518	59,56
286,731	-44,88
286,945	53,42
287,159	-36,69
287,372	43,18
287,586	-24,4
287,799	0,17
288,013	57,51
288,227	4,27
288,44	254,12
288,654	77,99
288,867	-24,4
289,081	-18,26
289,294	63,66
289,508	41,13
289,721	45,23
289,935	94,38
290,148	77,99
290,362	77,99
290,575	16,55
290,789	-55,12
291,002	43,18
291,216	102,57
291,429	45,23
291,643	69,8
291,856	-24,4
292,069	0,17
292,283	-71,51
292,496	39,08
292,71	61,61
292,923	20,65
293,136	-12,12
293,35	-12,12
293,563	-3,93
293,776	63,66
293,99	51,37
294,203	69,8
294,416	69,8
294,63	-65,36
294,843	4,27
295,056	-32,6
295,269	39,08
295,483	-20,31
295,696	37,03
295,909	22,7
296,122	121
296,335	135,34
296,549	-16,21
296,762	-16,21
296,975	28,84
297,188	55,47
297,401	80,04
297,615	55,47
297,828	-57,17
298,041	161,96
298,254	-118,61
298,467	41,13
298,68	14,51
298,893	-26,45
299,106	-8,02
299,319	73,9
299,532	121
299,745	37,03
299,958	-18,26
300,171	-16,21
300,384	41,13
300,598	-44,88
300,81	112,81
301,023	-26,45
301,236	-26,45
301,449	-44,88
301,662	-36,69
301,875	57,51
302,088	26,79
302,301	20,65
302,514	-24,4
302,727	69,8
302,94	16,55
303,153	53,42
303,366	16,55
303,579	-16,21
303,791	49,32
304,004	-85,84
304,217	110,76
304,43	77,99
304,643	-3,93
304,855	8,36
305,068	102,57
305,281	65,71
305,494	69,8
305,707	47,27
305,919	161,96
306,132	86,19
306,345	45,23
306,558	75,95
306,77	-5,97
306,983	-20,31
307,196	8,36
307,408	-53,08
307,621	8,36
307,834	-20,31
308,046	49,32
308,259	-10,07
308,472	45,23
308,684	59,56
308,897	-1,88
309,109	6,31
309,322	-18,26
309,535	-12,12
309,747	45,23
309,96	77,99
310,172	86,19
310,385	176,3
310,597	16,55
310,81	32,94
311,022	28,84
311,235	-51,03
311,447	-34,64
311,66	-12,12
311,872	106,67
312,085	-26,45
312,297	39,08
312,51	-108,37
312,722	20,65
312,934	16,55
313,147	-24,4
313,359	-3,93
313,572	-18,26
313,784	30,89
313,996	47,27
314,209	118,95
314,421	-51,03
314,633	28,84
314,846	4,27
315,058	41,13
315,27	88,23
315,483	-3,93
315,695	-48,98
315,907	-55,12
316,119	-10,07
316,332	43,18
316,544	110,76
316,756	80,04
316,968	10,41
317,181	26,79
317,393	32,94
317,605	39,08
317,817	30,89
318,029	143,53
318,241	112,81
318,454	194,73
318,666	159,91
318,878	77,99
319,09	73,9
319,302	143,53
319,514	102,57
319,726	80,04
319,938	98,47
320,15	-3,93
320,362	90,28
320,574	-16,21
320,786	-79,7
320,999	18,6
321,211	131,24
321,423	10,41
321,635	-51,03
321,847	88,23
322,058	32,94
322,27	-20,31
322,482	104,62
322,694	53,42
322,906	45,23
323,118	102,57
323,33	127,14
323,542	57,51
323,754	-24,4
323,966	-28,5
324,178	-3,93
324,389	61,61
324,601	77,99
324,813	65,71
325,025	14,51
325,237	-42,84
325,449	110,76
325,66	-26,45
325,872	-32,6
326,084	-81,75
326,296	-20,31
326,507	16,55
326,719	-12,12
326,931	4,27
327,143	80,04
327,354	145,58
327,566	88,23
327,778	-18,26
327,989	131,24
328,201	16,55
328,413	57,51
328,624	49,32
328,836	41,13
329,048	-12,12
329,259	77,99
329,471	30,89
329,682	53,42
329,894	59,56
330,106	-44,88
330,317	37,03
330,529	-44,88
330,74	71,85
330,952	125,1
331,163	-18,26
331,375	-10,07
331,586	77,99
331,798	14,51
332,009	-44,88
332,221	32,94
332,432	37,03
332,644	55,47
332,855	-24,4
333,067	-53,08
333,278	-1,88
333,489	71,85
333,701	-38,74
333,912	45,23
334,124	4,27
334,335	-28,5
334,546	-3,93
334,758	-57,17
334,969	213,16
335,18	94,38
335,392	-42,84
335,603	118,95
335,814	75,95
336,025	-20,31
336,237	6,31
336,448	-85,84
336,659	-10,07
336,87	112,81
337,082	121
337,293	6,31
337,504	-32,6
337,715	45,23
337,926	28,84
338,138	-5,97
338,349	22,7
338,56	39,08
338,771	41,13
338,982	41,13
339,193	37,03
339,404	49,32
339,616	37,03
339,827	39,08
340,038	-36,69
340,249	30,89
340,46	47,27
340,671	61,61
340,882	73,9
341,093	14,51
341,304	16,55
341,515	-16,21
341,726	45,23
341,937	-8,02
342,148	37,03
342,359	-32,6
342,57	-32,6
342,781	75,95
342,992	-53,08
343,203	-51,03
343,414	61,61
343,624	39,08
343,835	-26,45
344,046	-40,79
344,257	77,99
344,468	28,84
344,679	-8,02
344,89	22,7
345,1	-98,13
345,311	-91,99
345,522	20,65
345,733	-75,6
345,944	-20,31
346,154	86,19
346,365	2,22
346,576	-110,42
346,787	-75,6
346,997	94,38
347,208	6,31
347,419	-65,36
347,629	45,23
347,84	118,95
348,051	4,27
348,261	82,09
348,472	-85,84
348,683	67,75
348,893	14,51
349,104	39,08
349,315	-69,46
349,525	-36,69
349,736	8,36
349,946	4,27
350,157	88,23
350,368	37,03
350,578	-26,45
350,789	57,51
350,999	14,51
351,21	14,51
351,42	14,51
351,631	-28,5
351,841	24,75
352,052	-12,12
352,262	22,7
352,472	-26,45
352,683	-14,17
352,893	37,03
353,104	-85,84
353,314	80,04
353,525	377
353,735	24,75
353,945	14,51
354,156	-59,22
354,366	22,7
354,576	71,85
354,787	73,9
354,997	18,6
355,207	-53,08
355,418	-36,69
355,628	14,51
355,838	-14,17
356,048	45,23
356,259	84,14
356,469	22,7
356,679	28,84
356,889	100,52
357,1	6,31
357,31	-36,69
357,52	-22,36
357,73	-40,79
357,94	-40,79
358,15	-75,6
358,361	-18,26
358,571	-5,97
358,781	-20,31
358,991	26,79
359,201	63,66
359,411	32,94
359,621	-73,56
359,831	110,76
360,041	34,99
360,251	34,99
360,461	41,13
360,672	8,36
360,882	-40,79
361,092	4,27
361,302	92,33
361,512	88,23
361,721	12,46
361,931	92,33
362,141	-12,12
362,351	-18,26
362,561	102,57
362,771	49,32
362,981	94,38
363,191	4,27
363,401	39,08
363,611	28,84
363,821	-40,79
364,03	-46,93
364,24	41,13
364,45	-3,93
364,66	237,74
364,87	-26,45
365,08	82,09
365,289	49,32
365,499	51,37
365,709	49,32
365,919	32,94
366,128	-36,69
366,338	84,14
366,548	-77,65
366,758	-63,32
366,967	45,23
367,177	102,57
367,387	-16,21
367,596	-28,5
367,806	-12,12
368,016	10,41
368,225	30,89
368,435	77,99
368,644	-67,41
368,854	2,22
369,064	41,13
369,273	-28,5
369,483	-28,5
369,692	-8,02
369,902	28,84
370,111	12,46
370,321	39,08
370,53	49,32
370,74	-12,12
370,949	20,65
371,159	32,94
371,368	108,71
371,578	-18,26
371,787	69,8
371,997	6,31
372,206	-12,12
372,416	67,75
372,625	37,03
372,834	8,36
373,044	0,17
373,253	71,85
373,462	123,05
373,672	-12,12
373,881	80,04
374,09	-12,12
374,3	-30,55
374,509	-12,12
374,718	47,27
374,928	118,95
375,137	37,03
375,346	69,8
375,555	96,43
375,765	-20,31
375,974	51,37
376,183	73,9
376,392	86,19
376,601	77,99
376,811	24,75
377,02	118,95
377,229	32,94
377,438	53,42
377,647	-8,02
377,856	-53,08
378,065	6,31
378,275	32,94
378,484	45,23
378,693	14,51
378,902	4,27
379,111	55,47
379,32	-36,69
379,529	45,23
379,738	-36,69
379,947	12,46
380,156	57,51
380,365	61,61
380,574	88,23
380,783	22,7
380,992	39,08
381,201	-3,93
381,41	-65,36
381,619	2,22
381,828	37,03
382,037	100,52
382,245	200,87
382,454	82,09
382,663	30,89
382,872	30,89
383,081	30,89
383,29	151,72
383,499	12,46
383,707	98,47
383,916	110,76
384,125	67,75
384,334	80,04
384,542	61,61
384,751	24,75
384,96	12,46
385,169	30,89
385,377	118,95
385,586	-3,93
385,795	28,84
386,004	143,53
386,212	28,84
386,421	45,23
386,63	409,76
386,838	712,86
387,047	1284,25
387,255	2039,95
387,464	2750,59
387,673	3840,11
387,881	4857,95
388,09	5849,17
388,298	6588,49
388,507	8372,27
388,715	10078,22
388,924	11055,11
389,133	10719,24
389,341	10297,36
389,55	8929,31
389,758	6781
389,967	4577,38
390,175	2910,33
390,383	2334,86
390,592	1742,99
390,8	1024,16
391,009	815,26
391,217	514,21
391,426	321,7
391,634	77,99
391,842	63,66
392,051	90,28
392,259	49,32
392,467	37,03
392,676	-24,4
392,884	53,42
393,092	22,7
393,301	82,09
393,509	12,46
393,717	71,85
393,925	22,7
394,134	-12,12
394,342	41,13
394,55	112,81
394,758	34,99
394,967	30,89
395,175	37,03
395,383	137,38
395,591	100,52
395,799	82,09
396,007	135,34
396,216	196,78
396,424	155,82
396,632	299,17
396,84	180,39
397,048	188,58
397,256	235,69
397,464	8,36
397,672	102,57
397,88	16,55
398,088	-18,26
398,296	-53,08
398,504	-40,79
398,712	12,46
398,92	94,38
399,128	-28,5
399,336	6,31
399,544	28,84
399,752	20,65
399,96	94,38
400,168	18,6
400,376	37,03
400,584	69,8
400,792	102,57
401	28,84
401,207	110,76
401,415	137,38
401,623	168,1
401,831	245,93
402,039	276,65
402,247	329,89
402,454	372,9
402,662	481,44
402,87	487,59
403,078	499,88
403,285	440,48
403,493	307,37
403,701	237,74
403,909	127,14
404,116	192,68
404,324	37,03
404,532	71,85
404,739	41,13
404,947	20,65
405,155	22,7
405,362	73,9
405,57	88,23
405,778	-28,5
405,985	82,09
406,193	71,85
406,4	-32,6
406,608	51,37
406,816	-12,12
407,023	77,99
407,231	37,03
407,438	24,75
407,646	41,13
407,853	20,65
408,061	-53,08
408,268	94,38
408,476	-8,02
408,683	34,99
408,89	80,04
409,098	43,18
409,305	41,13
409,513	69,8
409,72	8,36
409,927	-1,88
410,135	88,23
410,342	-32,6
410,55	161,96
410,757	6,31
410,964	73,9
411,172	20,65
411,379	65,71
411,586	12,46
411,793	80,04
412,001	30,89
412,208	-3,93
412,415	55,47
412,622	145,58
412,83	77,99
413,037	104,62
413,244	61,61
413,451	73,9
413,658	69,8
413,866	137,38
414,073	82,09
414,28	135,34
414,487	-53,08
414,694	63,66
414,901	61,61
415,108	45,23
415,315	4,27
415,522	34,99
415,73	86,19
415,937	-65,36
416,144	-20,31
416,351	-26,45
416,558	-28,5
416,765	-14,17
416,972	-20,31
417,179	37,03
417,386	110,76
417,593	49,32
417,8	-16,21
418,006	22,7
418,213	57,51
418,42	73,9
418,627	90,28
418,834	37,03
419,041	10,41
419,248	-3,93
419,455	47,27
419,661	55,47
419,868	12,46
420,075	45,23
420,282	-22,36
420,489	47,27
420,696	30,89
420,902	51,37
421,109	55,47
421,316	-14,17
421,523	41,13
421,729	28,84
421,936	47,27
422,143	53,42
422,349	-3,93
422,556	-10,07
422,763	-3,93
422,969	12,46
423,176	-71,51
423,383	92,33
423,589	225,45
423,796	26,79
424,002	22,7
424,209	28,84
424,416	61,61
424,622	-18,26
424,829	-1,88
425,035	18,6
425,242	-28,5
425,448	-3,93
425,655	98,47
425,861	61,61
426,068	12,46
426,274	217,26
426,481	32,94
426,687	32,94
426,894	-12,12
427,1	-1,88
427,306	-61,27
427,513	-32,6
427,719	20,65
427,926	65,71
428,132	39,08
428,338	20,65
428,545	94,38
428,751	47,27
428,957	20,65
429,163	0,17
429,37	106,67
429,576	-51,03
429,782	127,14
429,989	57,51
430,195	112,81
430,401	61,61
430,607	28,84
430,813	-42,84
431,02	55,47
431,226	80,04
431,432	-53,08
431,638	82,09
431,844	-44,88
432,05	-57,17
432,257	84,14
432,463	43,18
432,669	53,42
432,875	6,31
433,081	-94,04
433,287	12,46
433,493	-18,26
433,699	37,03
433,905	47,27
434,111	-28,5
434,317	55,47
434,523	143,53
434,729	88,23
434,935	-42,84
435,141	98,47
435,347	-44,88
435,553	61,61
435,759	39,08
435,965	32,94
436,171	-28,5
436,377	26,79
436,582	30,89
436,788	-89,94
436,994	94,38
437,2	-18,26
437,406	75,95
437,612	69,8
437,818	145,58
438,023	-44,88
438,229	252,07
438,435	82,09
438,641	118,95
438,846	102,57
439,052	135,34
439,258	258,21
439,464	98,47
439,669	153,77
439,875	155,82
440,081	80,04
440,286	-20,31
440,492	16,55
440,698	-3,93
440,903	12,46
441,109	39,08
441,314	-69,46
441,52	69,8
441,726	102,57
441,931	14,51
442,137	61,61
442,342	-1,88
442,548	110,76
442,753	143,53
442,959	-75,6
443,164	-5,97
443,37	135,34
443,575	51,37
443,781	-32,6
443,986	145,58
444,192	63,66
444,397	24,75
444,602	45,23
444,808	-14,17
445,013	65,71
445,219	305,32
445,424	532,64
445,629	694,43
445,835	1128,6
446,04	1239,19
446,245	1530
446,451	1847,44
446,656	2158,73
446,861	2691,2
447,066	3141,75
447,272	3453,05
447,477	3485,81
447,682	3174,52
447,887	2560,13
448,093	2343,05
448,298	1671,31
448,503	1052,83
448,708	684,19
448,913	395,43
449,118	307,37
449,324	217,26
449,529	225,45
449,734	90,28
449,939	-8,02
450,144	110,76
450,349	47,27
450,554	-75,6
450,759	49,32
450,964	123,05
451,169	14,51
451,374	39,08
451,579	114,86
451,784	12,46
451,989	32,94
452,194	28,84
452,399	55,47
452,604	2,22
452,809	6,31
453,014	-10,07
453,219	63,66
453,424	84,14
453,629	-44,88
453,833	0,17
454,038	86,19
454,243	4,27
454,448	94,38
454,653	94,38
454,858	47,27
455,062	-53,08
455,267	6,31
455,472	88,23
455,677	32,94
455,882	-83,8
456,086	32,94
456,291	12,46
456,496	-12,12
456,7	4,27
456,905	12,46
457,11	20,65
457,314	20,65
457,519	-26,45
457,724	28,84
457,928	59,56
458,133	28,84
458,338	71,85
458,542	-32,6
458,747	-75,6
458,951	14,51
459,156	106,67
459,36	-20,31
459,565	135,34
459,769	-8,02
459,974	123,05
460,178	30,89
460,383	4,27
460,587	24,75
460,792	45,23
460,996	-12,12
461,201	30,89
461,405	6,31
461,61	26,79
461,814	98,47
462,018	49,32
462,223	6,31
462,427	14,51
462,631	28,84
462,836	20,65
463,04	63,66
463,244	77,99
463,449	45,23
463,653	80,04
463,857	-1,88
464,062	123,05
464,266	37,03
464,47	-34,64
464,674	118,95
464,878	73,9
465,083	118,95
465,287	168,1
465,491	37,03
465,695	63,66
465,899	43,18
466,104	30,89
466,308	135,34
466,512	12,46
466,716	6,31
466,92	102,57
467,124	73,9
467,328	94,38
467,532	69,8
467,736	47,27
467,94	24,75
468,144	39,08
468,348	39,08
468,552	71,85
468,756	12,46
468,96	8,36
469,164	-14,17
469,368	86,19
469,572	73,9
469,776	225,45
469,98	225,45
470,184	280,74
470,388	456,87
470,591	546,98
470,795	567,46
470,999	712,86
471,203	676
471,407	815,26
471,611	794,78
471,814	749,73
472,018	612,51
472,222	602,27
472,426	614,56
472,63	354,47
472,833	258,21
473,037	233,64
473,241	59,56
473,444	209,06
473,648	487,59
473,852	41,13
474,055	55,47
474,259	53,42
474,463	69,8
474,666	84,14
474,87	28,84
475,074	34,99
475,277	53,42
475,481	102,57
475,684	102,57
475,888	0,17
476,091	-3,93
476,295	4,27
476,498	6,31
476,702	22,7
476,905	139,43
477,109	121
477,312	65,71
477,516	-24,4
477,719	102,57
477,923	14,51
478,126	41,13
478,329	12,46
478,533	18,6
478,736	34,99
478,94	57,51
479,143	82,09
479,346	-12,12
479,55	104,62
479,753	-20,31
479,956	-57,17
480,159	0,17
480,363	71,85
480,566	43,18
480,769	-36,69
480,972	-32,6
481,176	-36,69
481,379	159,91
481,582	96,43
481,785	-63,32
481,988	-32,6
482,192	94,38
482,395	-36,69
482,598	2,22
482,801	26,79
483,004	73,9
483,207	-20,31
483,41	69,8
483,613	67,75
483,817	94,38
484,02	-36,69
484,223	-18,26
484,426	118,95
484,629	-20,31
484,832	53,42
485,035	77,99
485,238	118,95
485,441	28,84
485,644	94,38
485,846	14,51
486,049	-16,21
486,252	37,03
486,455	-18,26
486,658	28,84
486,861	37,03
487,064	118,95
487,267	84,14
487,47	86,19
487,672	24,75
487,875	4,27
488,078	41,13
488,281	73,9
488,484	37,03
488,686	-94,04
488,889	-5,97
489,092	-48,98
489,295	77,99
489,497	63,66
489,7	0,17
489,903	20,65
490,105	30,89
490,308	118,95
490,511	215,21
490,713	274,6
490,916	362,66
491,118	639,14
491,321	815,26
491,524	872,61
491,726	1018,01
491,929	1257,62
492,131	1368,21
492,334	1392,79
492,536	1450,13
492,739	1437,84
492,941	1351,83
493,144	1183,9
493,346	932
493,549	630,95
493,751	446,63
493,954	293,03
494,156	254,12
494,359	178,34
494,561	20,65
494,763	45,23
494,966	88,23
495,168	118,95
495,37	-5,97
495,573	-16,21
495,775	-32,6
495,977	8,36
496,18	28,84
496,382	71,85
496,584	14,51
496,787	147,62
496,989	6,31
497,191	-75,6
497,393	49,32
497,595	4,27
497,798	-10,07
498	55,47
498,202	151,72
498,404	-36,69
498,606	71,85
498,808	118,95
499,011	106,67
499,213	110,76
499,415	49,32
499,617	209,06
499,819	463,01
500,021	888,99
500,223	1259,67
500,425	1601,68
500,627	2189,45
500,829	2953,34
501,031	3356,79
501,233	3874,93
501,435	4503,65
501,637	4943,97
501,839	4960,35
502,041	4927,58
502,243	4517,99
502,445	3932,27
502,647	3184,76
502,848	2461,83
503,05	1847,44
503,252	1388,69
503,454	938,14
503,656	587,94
503,858	383,14
504,059	364,71
504,261	299,17
504,463	360,61
504,665	282,79
504,867	235,69
505,068	268,45
505,27	303,27
505,472	299,17
505,673	178,34
505,875	135,34
506,077	82,09
506,278	106,67
506,48	49,32
506,682	114,86
506,883	106,67
507,085	57,51
507,287	28,84
507,488	-18,26
507,69	77,99
507,891	-26,45
508,093	192,68
508,294	-16,21
508,496	-12,12
508,697	30,89
508,899	-8,02
509,1	16,55
509,302	77,99
509,503	-24,4
509,705	37,03
509,906	45,23
510,108	6,31
510,309	90,28
510,51	6,31
510,712	57,51
510,913	-8,02
511,114	2,22
511,316	2,22
511,517	37,03
511,718	39,08
511,92	8,36
512,121	41,13
512,322	18,6
512,524	51,37
512,725	82,09
512,926	100,52
513,127	-1,88
513,329	32,94
513,53	20,65
513,731	-3,93
513,932	49,32
514,133	-12,12
514,334	-8,02
514,536	86,19
514,737	166,06
514,938	20,65
515,139	26,79
515,34	-3,93
515,541	69,8
515,742	-42,84
515,943	86,19
516,144	-12,12
516,345	65,71
516,546	37,03
516,747	90,28
516,948	-69,46
517,149	-34,64
517,35	-1,88
517,551	-51,03
517,752	20,65
517,953	86,19
518,154	12,46
518,355	67,75
518,556	63,66
518,756	-3,93
518,957	94,38
519,158	147,62
519,359	-24,4
519,56	-59,22
519,761	114,86
519,961	114,86
520,162	100,52
520,363	-3,93
520,564	0,17
520,764	112,81
520,965	30,89
521,166	98,47
521,366	20,65
521,567	94,38
521,768	129,19
521,968	-1,88
522,169	-20,31
522,37	28,84
522,57	-28,5
522,771	-1,88
522,972	-94,04
523,172	102,57
523,373	37,03
523,573	32,94
523,774	57,51
523,974	129,19
524,175	69,8
524,375	-3,93
524,576	20,65
524,776	4,27
524,977	65,71
525,177	135,34
525,378	39,08
525,578	63,66
525,778	28,84
525,979	53,42
526,179	-3,93
526,38	-16,21
526,58	-20,31
526,78	-26,45
526,981	39,08
527,181	12,46
527,381	-18,26
527,582	-12,12
527,782	143,53
527,982	39,08
528,182	102,57
528,383	37,03
528,583	26,79
528,783	184,49
528,983	28,84
529,183	-22,36
529,384	53,42
529,584	80,04
529,784	168,1
529,984	94,38
530,184	30,89
530,384	-20,31
530,584	-10,07
530,784	18,6
530,984	30,89
531,185	127,14
531,385	-10,07
531,585	59,56
531,785	55,47
531,985	-44,88
532,185	12,46
532,385	55,47
532,585	55,47
532,785	94,38
532,984	168,1
533,184	86,19
533,384	-8,02
533,584	-20,31
533,784	-16,21
533,984	28,84
534,184	-61,27
534,384	30,89
534,583	12,46
534,783	47,27
534,983	94,38
535,183	-51,03
535,383	-69,46
535,582	69,8
535,782	-40,79
535,982	114,86
536,182	55,47
536,381	26,79
536,581	6,31
536,781	45,23
536,98	47,27
537,18	75,95
537,38	28,84
537,579	-3,93
537,779	-28,5
537,979	57,51
538,178	-18,26
538,378	59,56
538,577	-16,21
538,777	16,55
538,976	16,55
539,176	100,52
539,376	86,19
539,575	-28,5
539,774	39,08
539,974	4,27
540,173	45,23
540,373	139,43
540,572	-16,21
540,772	47,27
540,971	-44,88
541,171	37,03
541,37	86,19
541,569	61,61
541,769	28,84
541,968	61,61
542,167	61,61
542,367	20,65
542,566	20,65
542,765	-12,12
542,965	73,9
543,164	94,38
543,363	-18,26
543,562	24,75
543,761	-40,79
543,961	57,51
544,16	-73,56
544,359	168,1
544,558	61,61
544,757	-3,93
544,957	-3,93
545,156	47,27
545,355	30,89
545,554	4,27
545,753	-1,88
545,952	41,13
546,151	71,85
546,35	121
546,549	37,03
546,748	39,08
546,947	6,31
547,146	-8,02
547,345	28,84
547,544	-24,4
547,743	28,84
547,942	20,65
548,141	-1,88
548,34	28,84
548,539	51,37
548,738	-53,08
548,937	71,85
549,135	53,42
549,334	-16,21
549,533	63,66
549,732	61,61
549,931	-12,12
550,13	-36,69
550,328	-24,4
550,527	20,65
550,726	32,94
550,925	-10,07
551,123	86,19
551,322	-12,12
551,521	129,19
551,72	69,8
551,918	69,8
552,117	98,47
552,315	69,8
552,514	45,23
552,713	90,28
552,911	82,09
553,11	-94,04
553,309	-3,93
553,507	-20,31
553,706	34,99
553,904	45,23
554,103	45,23
554,301	-36,69
554,5	-1,88
554,698	-3,93
554,897	22,7
555,095	37,03
555,294	10,41
555,492	-20,31
555,69	39,08
555,889	-12,12
556,087	86,19
556,286	135,34
556,484	39,08
556,682	-26,45
556,881	30,89
557,079	55,47
557,277	106,67
557,476	168,1
557,674	88,23
557,872	77,99
558,07	53,42
558,269	14,51
558,467	-10,07
558,665	82,09
558,863	86,19
559,062	-28,5
559,26	45,23
559,458	6,31
559,656	47,27
559,854	104,62
560,052	22,7
560,25	102,57
560,449	397,48
560,647	118,95
560,845	69,8
561,043	47,27
561,241	141,48
561,439	94,38
561,637	55,47
561,835	45,23
562,033	118,95
562,231	112,81
562,429	37,03
562,627	94,38
562,825	24,75
563,023	137,38
563,221	53,42
563,418	98,47
563,616	12,46
563,814	168,1
564,012	-10,07
564,21	69,8
564,408	22,7
564,605	-20,31
564,803	8,36
565,001	307,37
565,199	69,8
565,397	53,42
565,594	129,19
565,792	112,81
565,99	-16,21
566,188	20,65
566,385	94,38
566,583	-3,93
566,781	125,1
566,978	55,47
567,176	102,57
567,373	147,62
567,571	88,23
567,769	55,47
567,966	32,94
568,164	77,99
568,361	-12,12
568,559	75,95
568,756	110,76
568,954	32,94
569,151	57,51
569,349	176,3
569,546	34,99
569,744	94,38
569,941	41,13
570,139	84,14
570,336	-1,88
570,534	121
570,731	-81,75
570,928	-53,08
571,126	217,26
571,323	88,23
571,52	37,03
571,718	227,5
571,915	88,23
572,112	0,17
572,31	30,89
572,507	94,38
572,704	61,61
572,901	-3,93
573,099	114,86
573,296	118,95
573,493	30,89
573,69	86,19
573,887	94,38
574,085	159,91
574,282	55,47
574,479	155,82
574,676	53,42
574,873	161,96
575,07	94,38
575,267	61,61
575,464	-3,93
575,661	149,67
575,858	118,95
576,055	37,03
576,252	102,57
576,449	12,46
576,646	104,62
576,843	47,27
577,04	159,91
577,237	139,43
577,434	77,99
577,631	30,89
577,828	168,1
578,025	57,51
578,222	61,61
578,419	96,43
578,615	2,22
578,812	94,38
579,009	65,71
579,206	16,55
579,403	86,19
579,599	184,49
579,796	80,04
579,993	233,64
580,19	86,19
580,386	96,43
580,583	118,95
580,78	90,28
580,976	104,62
581,173	135,34
581,37	30,89
581,566	71,85
581,763	55,47
581,96	110,76
582,156	77,99
582,353	159,91
582,549	227,5
582,746	127,14
582,942	67,75
583,139	164,01
583,335	182,44
583,532	155,82
583,728	159,91
583,925	164,01
584,121	225,45
584,318	325,8
584,514	219,3
584,711	250,02
584,907	284,84
585,103	303,27
585,3	413,86
585,496	528,55
585,693	1126,55
585,889	3625,08
586,085	8392,75
586,281	14243,79
586,478	21598,05
586,674	29427,43
586,87	37955,18
587,067	46396,9
587,263	52432,27
587,459	55557,47
587,655	59415,84
587,851	59983,13
588,048	58965,29
588,244	54918,5
588,44	51651,99
588,636	46122,47
588,832	39470,67
589,028	33050,29
589,224	26662,68
589,42	21124,97
589,617	15368,13
589,813	9908,24
590,009	6109,26
590,205	3975,28
590,401	2312,33
590,597	1505,43
590,793	1181,85
590,989	796,83
591,185	678,05
591,38	553,12
591,576	366,76
591,772	280,74
591,968	309,41
592,164	252,07
592,36	262,31
592,556	192,68
592,752	264,36
592,948	194,73
593,143	77,99
593,339	63,66
593,535	102,57
593,731	90,28
593,926	200,87
594,122	178,34
594,318	100,52
594,514	153,77
594,709	57,51
594,905	219,3
595,101	102,57
595,296	53,42
595,492	159,91
595,688	118,95
595,883	110,76
596,079	143,53
596,275	110,76
596,47	100,52
596,666	133,29
596,861	63,66
597,057	67,75
597,252	49,32
597,448	4,27
597,643	102,57
597,839	141,48
598,034	102,57
598,23	37,03
598,425	118,95
598,621	88,23
598,816	20,65
599,011	96,43
599,207	139,43
599,402	90,28
599,597	151,72
599,793	153,77
599,988	116,9
600,183	51,37
600,379	59,56
600,574	88,23
600,769	94,38
600,965	53,42
601,16	-3,93
601,355	8,36
601,55	-12,12
601,745	47,27
601,941	80,04
602,136	98,47
602,331	112,81
602,526	90,28
602,721	86,19
602,916	22,7
603,111	102,57
603,307	41,13
603,502	41,13
603,697	-10,07
603,892	24,75
604,087	30,89
604,282	151,72
604,477	118,95
604,672	6,31
604,867	14,51
605,062	30,89
605,257	114,86
605,452	127,14
605,646	71,85
605,841	30,89
606,036	28,84
606,231	8,36
606,426	14,51
606,621	77,99
606,816	80,04
607,01	159,91
607,205	102,57
607,4	53,42
607,595	-10,07
607,79	121
607,984	20,65
608,179	96,43
608,374	110,76
608,569	-12,12
608,763	-57,17
608,958	14,51
609,153	112,81
609,347	30,89
609,542	112,81
609,736	77,99
609,931	82,09
610,126	47,27
610,32	110,76
610,515	-28,5
610,709	207,02
610,904	149,67
611,098	6,31
611,293	-36,69
611,487	57,51
611,682	49,32
611,876	-3,93
612,071	84,14
612,265	47,27
612,46	45,23
612,654	86,19
612,848	94,38
613,043	20,65
613,237	8,36
613,432	22,7
613,626	-5,97
613,82	94,38
614,014	84,14
614,209	118,95
614,403	8,36
614,597	94,38
614,792	82,09
614,986	80,04
615,18	86,19
615,374	131,24
615,568	55,47
615,763	77,99
615,957	14,51
616,151	73,9
616,345	96,43
616,539	55,47
616,733	86,19
616,927	110,76
617,121	37,03
617,316	20,65
617,51	145,58
617,704	110,76
617,898	172,2
618,092	12,46
618,286	-3,93
618,48	96,43
618,674	184,49
618,868	135,34
619,061	110,76
619,255	143,53
619,449	-1,88
619,643	-28,5
619,837	143,53
620,031	39,08
620,225	170,15
620,419	-10,07
620,612	260,26
620,806	110,76
621	94,38
621,194	49,32
621,388	37,03
621,581	77,99
621,775	73,9
621,969	69,8
622,162	69,8
622,356	-44,88
622,55	104,62
622,743	-51,03
622,937	45,23
623,131	-20,31
623,324	80,04
623,518	61,61
623,712	8,36
623,905	28,84
624,099	86,19
624,292	73,9
624,486	63,66
624,679	77,99
624,873	63,66
625,066	104,62
625,26	112,81
625,453	-8,02
625,647	8,36
625,84	53,42
626,034	161,96
626,227	86,19
626,42	145,58
626,614	98,47
626,807	37,03
627	30,89
627,194	53,42
627,387	63,66
627,58	-8,02
627,774	53,42
627,967	168,1
628,16	135,34
628,353	127,14
628,547	84,14
628,74	90,28
628,933	32,94
629,126	121
629,319	153,77
629,513	96,43
629,706	12,46
629,899	110,76
630,092	55,47
630,285	-18,26
630,478	-12,12
630,671	39,08
630,864	47,27
631,057	28,84
631,25	114,86
631,443	73,9
631,636	28,84
631,829	137,38
632,022	110,76
632,215	47,27
632,408	22,7
632,601	16,55
632,794	-1,88
632,987	67,75
633,18	-36,69
633,373	8,36
633,566	94,38
633,758	-106,32
633,951	88,23
634,144	37,03
634,337	-102,23
634,53	77,99
634,722	143,53
634,915	32,94
635,108	14,51
635,301	92,33
635,493	53,42
635,686	149,67
635,879	12,46
636,071	-42,84
636,264	47,27
636,457	88,23
636,649	4,27
636,842	26,79
637,034	69,8
637,227	106,67
637,42	-3,93
637,612	-24,4
637,805	32,94
637,997	71,85
638,19	45,23
638,382	4,27
638,575	12,46
638,767	77,99
638,96	178,34
639,152	121
639,344	219,3
639,537	2,22
639,729	51,37
639,922	22,7
640,114	104,62
640,306	98,47
640,499	-53,08
640,691	53,42
640,883	37,03
641,075	82,09
641,268	207,02
641,46	12,46
641,652	24,75
641,844	-67,41
642,037	8,36
642,229	-28,5
642,421	131,24
642,613	24,75
642,805	4,27
642,998	80,04
643,19	39,08
643,382	104,62
643,574	53,42
643,766	53,42
643,958	147,62
644,15	77,99
644,342	102,57
644,534	57,51
644,726	12,46
644,918	53,42
645,11	55,47
645,302	37,03
645,494	73,9
645,686	-14,17
645,878	16,55
646,07	71,85
646,262	88,23
646,453	-59,22
646,645	49,32
646,837	77,99
647,029	61,61
647,221	94,38
647,413	12,46
647,604	53,42
647,796	112,81
647,988	125,1
648,18	104,62
648,371	39,08
648,563	51,37
648,755	61,61
648,947	37,03
649,138	-18,26
649,33	94,38
649,521	92,33
649,713	28,84
649,905	26,79
650,096	88,23
650,288	59,56
650,479	-16,21
650,671	-3,93
650,863	28,84
651,054	-34,64
651,246	61,61
651,437	43,18
651,629	118,95
651,82	94,38
652,011	82,09
652,203	145,58
652,394	63,66
652,586	24,75
652,777	75,95
652,968	110,76
653,16	-10,07
653,351	61,61
653,542	71,85
653,734	53,42
653,925	-61,27
654,116	63,66
654,308	71,85
654,499	61,61
654,69	30,89
654,881	37,03
655,073	22,7
655,264	112,81
655,455	-1,88
655,646	92,33
655,837	127,14
656,028	57,51
656,219	75,95
656,411	155,82
656,602	53,42
656,793	67,75
656,984	178,34
657,175	-110,42
657,366	127,14
657,557	45,23
657,748	47,27
657,939	94,38
658,13	61,61
658,321	55,47
658,512	77,99
658,703	164,01
658,894	192,68
659,084	106,67
659,275	63,66
659,466	63,66
659,657	137,38
659,848	32,94
660,039	61,61
660,23	118,95
660,42	4,27
660,611	69,8
660,802	37,03
660,993	84,14
661,183	28,84
661,374	16,55
661,565	61,61
661,755	90,28
661,946	12,46
662,137	96,43
662,327	61,61
662,518	49,32
662,709	55,47
662,899	6,31
663,09	65,71
663,28	63,66
663,471	-20,31
663,662	123,05
663,852	112,81
664,043	20,65
664,233	88,23
664,424	47,27
664,614	37,03
664,804	37,03
664,995	96,43
665,185	137,38
665,376	4,27
665,566	166,06
665,756	49,32
665,947	121
666,137	268,45
666,328	1089,69
666,518	2224,26
666,708	3711,09
666,898	5402,71
667,089	7526,46
667,279	9207,84
667,469	10930,18
667,659	11747,32
667,85	12271,6
668,04	12296,18
668,23	11739,13
668,42	11286,53
668,61	10426,38
668,8	9764,89
668,991	8656,93
669,181	7376,95
669,371	6387,79
669,561	5705,81
669,751	4716,64
669,941	3899,5
670,131	3051,64
670,321	2064,52
670,511	1462,42
670,701	954,52
670,891	614,56
671,081	389,28
671,271	293,03
671,461	217,26
671,651	133,29
671,841	194,73
672,03	123,05
672,22	104,62
672,41	127,14
672,6	184,49
672,79	98,47
672,98	61,61
673,169	49,32
673,359	88,23
673,549	55,47
673,739	-20,31
673,928	39,08
674,118	102,57
674,308	69,8
674,497	202,92
674,687	30,89
674,877	-40,79
675,066	16,55
675,256	-42,84
675,446	-8,02
675,635	-10,07
675,825	22,7
676,014	168,1
676,204	32,94
676,393	77,99
676,583	61,61
676,772	57,51
676,962	-18,26
677,151	39,08
677,341	-20,31
677,53	-28,5
677,72	8,36
677,909	37,03
678,099	-69,46
678,288	22,7
678,477	61,61
678,667	55,47
678,856	127,14
679,045	67,75
679,235	47,27
679,424	45,23
679,613	157,86
679,802	77,99
679,992	12,46
680,181	86,19
680,37	12,46
680,559	67,75
680,748	45,23
680,938	94,38
681,127	20,65
681,316	170,15
681,505	45,23
681,694	53,42
681,883	61,61
682,072	28,84
682,261	92,33
682,45	-20,31
682,639	12,46
682,828	12,46
683,017	45,23
683,206	82,09
683,395	47,27
683,584	94,38
683,773	26,79
683,962	20,65
684,151	43,18
684,34	118,95
684,529	51,37
684,718	12,46
684,907	67,75
685,095	47,27
685,284	100,52
685,473	57,51
685,662	24,75
685,851	92,33
686,039	65,71
686,228	53,42
686,417	30,89
686,606	157,86
686,794	75,95
686,983	-12,12
687,172	77,99
687,36	20,65
687,549	12,46
687,738	-32,6
687,926	77,99
688,115	24,75
688,303	20,65
688,492	88,23
688,68	-12,12
688,869	-26,45
689,057	-32,6
689,246	39,08
689,434	6,31
689,623	22,7
689,811	-12,12
690	84,14
690,188	4,27
690,377	80,04
690,565	6,31
690,753	61,61
690,942	118,95
691,13	94,38
691,318	12,46
691,507	37,03
691,695	28,84
691,883	4,27
692,072	61,61
692,26	37,03
692,448	28,84
692,636	-26,45
692,824	80,04
693,013	114,86
693,201	65,71
693,389	14,51
693,577	55,47
693,765	-12,12
693,953	71,85
694,141	8,36
694,329	-16,21
694,518	-12,12
694,706	53,42
694,894	20,65
695,082	-3,93
695,27	53,42
695,458	53,42
695,646	47,27
695,834	86,19
696,022	45,23
696,209	47,27
696,397	69,8
696,585	-3,93
696,773	86,19
696,961	94,38
697,149	-73,56
697,337	28,84
697,525	63,66
697,712	151,72
697,9	84,14
698,088	53,42
698,276	39,08
698,463	61,61
698,651	112,81
698,839	39,08
699,027	94,38
699,214	47,27
699,402	71,85
699,59	6,31
699,777	30,89
699,965	41,13
700,152	39,08
700,34	-18,26
700,528	39,08
700,715	63,66
700,903	49,32
701,09	135,34
701,278	69,8
701,465	45,23
701,653	30,89
701,84	-14,17
702,028	127,14
702,215	8,36
702,402	55,47
702,59	135,34
702,777	118,95
702,965	123,05
703,152	37,03
703,339	118,95
703,527	94,38
703,714	157,86
703,901	168,1
704,088	149,67
704,276	135,34
704,463	155,82
704,65	135,34
704,837	288,93
705,025	987,29
705,212	2797,7
705,399	6029,39
705,586	9236,51
705,773	13031,4
705,96	16809,9
706,147	19804,03
706,335	21495,65
706,522	22714,19
706,709	22646,61
706,896	22048,6
707,083	20862,83
707,27	19533,7
707,457	17676,19
707,644	16678,83
707,831	14444,49
708,018	12341,23
708,205	10907,65
708,392	8974,37
708,578	7800,88
708,765	6451,27
708,952	5328,99
709,139	4132,97
709,326	2855,04
709,513	2027,66
709,7	1396,89
709,886	897,18
710,073	719,01
710,26	528,55
710,447	325,8
710,633	213,16
710,82	211,11
711,007	176,3
711,193	96,43
711,38	184,49
711,567	110,76
711,753	71,85
711,94	139,43
712,127	153,77
712,313	106,67
712,5	96,43
712,686	-3,93
712,873	49,32
713,059	28,84
713,246	133,29
713,432	88,23
713,619	8,36
713,805	61,61
713,992	28,84
714,178	82,09
714,365	110,76
714,551	53,42
714,737	-18,26
714,924	20,65
715,11	16,55
715,297	12,46
715,483	-12,12
715,669	-3,93
715,855	14,51
716,042	63,66
716,228	2,22
716,414	86,19
716,6	6,31
716,787	88,23
716,973	-10,07
717,159	30,89
717,345	71,85
717,531	-71,51
717,718	12,46
717,904	55,47
718,09	37,03
718,276	143,53
718,462	149,67
718,648	127,14
718,834	-85,84
719,02	71,85
719,206	45,23
719,392	-26,45
719,578	6,31
719,764	-16,21
719,95	22,7
720,136	196,78
720,322	24,75
720,508	28,84
720,694	102,57
720,879	37,03
721,065	153,77
721,251	45,23
721,437	110,76
721,623	94,38
721,809	96,43
721,994	16,55
722,18	0,17
722,366	24,75
722,552	16,55
722,737	-30,55
722,923	127,14
723,109	14,51
723,294	71,85
723,48	69,8
723,666	116,9
723,851	-18,26
724,037	137,38
724,222	127,14
724,408	45,23
724,593	114,86
724,779	18,6
724,965	-20,31
725,15	18,6
725,336	55,47
725,521	77,99
725,706	32,94
725,892	39,08
726,077	28,84
726,263	-10,07
726,448	266,41
726,634	143,53
726,819	278,69
727,004	544,93
727,19	901,28
727,375	1411,22
727,56	1552,53
727,745	1839,25
727,931	2240,65
728,116	2187,4
728,301	2326,66
728,486	2216,07
728,672	2148,49
728,857	1814,67
729,042	1745,04
729,227	1546,39
729,412	1398,93
729,597	1194,14
729,783	1001,63
729,968	815,26
730,153	766,11
730,338	657,57
730,523	530,59
730,708	422,05
730,893	381,09
731,078	391,33
731,263	254,12
731,448	192,68
731,633	118,95
731,818	-65,36
732,003	12,46
732,187	-53,08
732,372	32,94
732,557	24,75
732,742	-8,02
732,927	-94,04
733,112	77,99
733,297	45,23
733,481	0,17
733,666	65,71
733,851	20,65
734,036	20,65
734,22	-26,45
734,405	161,96
734,59	-40,79
734,774	12,46
734,959	-20,31
735,144	118,95
735,328	-12,12
735,513	8,36
735,698	0,17
735,882	98,47
736,067	14,51
736,251	110,76
736,436	-34,64
736,62	82,09
736,805	77,99
736,989	71,85
737,174	-53,08
737,358	-16,21
737,543	65,71
737,727	37,03
737,911	204,97
738,096	37,03
738,28	63,66
738,465	22,7
738,649	4,27
738,833	37,03
739,018	59,56
739,202	-48,98
739,386	80,04
739,57	-10,07
739,755	90,28
739,939	77,99
740,123	-44,88
740,307	96,43
740,491	41,13
740,676	-16,21
740,86	30,89
741,044	65,71
741,228	4,27
741,412	-36,69
741,596	0,17
741,78	-20,31
741,964	39,08
742,148	-85,84
742,332	-67,41
742,516	-57,17
742,7	73,9
742,884	47,27
743,068	39,08
743,252	6,31
743,436	47,27
743,62	-40,79
743,804	139,43
743,988	149,67
744,172	8,36
744,356	57,51
744,539	-3,93
744,723	45,23
744,907	-79,7
745,091	22,7
745,275	-69,46
745,458	110,76
745,642	59,56
745,826	-12,12
746,009	59,56
746,193	28,84
746,377	67,75
746,56	63,66
746,744	90,28
746,928	98,47
747,111	106,67
747,295	-5,97
747,478	57,51
747,662	-12,12
747,846	88,23
748,029	2,22
748,213	-48,98
748,396	-24,4
748,58	61,61
748,763	104,62
748,946	-83,8
749,13	30,89
749,313	-48,98
749,497	39,08
749,68	55,47
749,863	69,8
750,047	-67,41
750,23	-32,6
750,413	77,99
750,597	71,85
750,78	24,75
750,963	-12,12
751,146	71,85
751,33	4,27
751,513	57,51
751,696	69,8
751,879	61,61
752,062	28,84
752,246	53,42
752,429	-1,88
752,612	-12,12
752,795	65,71
752,978	16,55
753,161	-34,64
753,344	-3,93
753,527	47,27
753,71	14,51
753,893	45,23
754,076	-59,22
754,259	20,65
754,442	-18,26
754,625	-40,79
754,808	104,62
754,991	-10,07
755,174	12,46
755,357	-10,07
755,539	47,27
755,722	32,94
755,905	-12,12
756,088	-26,45
756,271	-26,45
756,453	96,43
756,636	-30,55
756,819	28,84
757,002	-28,5
757,184	102,57
757,367	77,99
757,55	4,27
757,732	65,71
757,915	-10,07
758,098	14,51
758,28	12,46
758,463	-10,07
758,645	-12,12
758,828	82,09
759,011	39,08
759,193	61,61
759,376	30,89
759,558	-12,12
759,741	-12,12
759,923	-20,31
760,105	-28,5
760,288	112,81
760,47	-112,47
760,653	-5,97
760,835	53,42
761,017	-14,17
761,2	28,84
761,382	170,15
761,564	24,75
761,747	6,31
761,929	20,65
762,111	28,84
762,294	-18,26
762,476	225,45
762,658	20,65
762,84	110,76
763,022	37,03
763,205	49,32
763,387	94,38
763,569	-12,12
763,751	-46,93
763,933	22,7
764,115	-77,65
764,297	45,23
764,479	143,53
764,661	-57,17
764,843	88,23
765,025	14,51
765,207	20,65
765,389	-42,84
765,571	-12,12
765,753	30,89
765,935	-42,84
766,117	61,61
766,299	112,81
766,481	102,57
766,663	49,32
766,845	28,84
767,026	32,94
767,208	47,27
767,39	51,37
767,572	28,84
767,753	80,04
767,935	-34,64
768,117	8,36
768,299	41,13
768,48	37,03
768,662	47,27
768,844	-44,88
769,025	155,82
769,207	41,13
769,389	-5,97
769,57	69,8
769,752	102,57
769,933	-42,84
770,115	10,41
770,296	30,89
770,478	125,1
770,659	-3,93
770,841	188,58
771,022	28,84
771,204	143,53
771,385	73,9
771,567	96,43
771,748	104,62
771,929	-18,26
772,111	-34,64
772,292	49,32
772,473	57,51
772,655	57,51
772,836	22,7
773,017	112,81
773,199	4,27
773,38	41,13
773,561	98,47
773,742	143,53
773,923	22,7
774,105	67,75
774,286	135,34
774,467	20,65
774,648	16,55
774,829	67,75
775,01	14,51
775,191	-40,79
775,372	28,84
775,553	82,09
775,734	-1,88
775,915	37,03
776,096	6,31
776,277	94,38
776,458	-36,69
776,639	104,62
776,82	118,95
777,001	0,17
777,182	8,36
777,363	-36,69
777,544	-12,12
777,725	196,78
777,906	43,18
778,086	129,19
778,267	121
778,448	37,03
778,629	57,51
778,809	80,04
778,99	-42,84
779,171	22,7
779,352	41,13
779,532	-34,64
779,713	14,51
779,894	-12,12
780,074	155,82
780,255	159,91
780,435	51,37
780,616	53,42
780,797	112,81
780,977	55,47
781,158	20,65
781,338	53,42
781,519	22,7
781,699	155,82
781,88	4,27
782,06	71,85
782,241	-44,88
782,421	-73,56
782,601	129,19
782,782	47,27
782,962	82,09
783,142	28,84
783,323	18,6
783,503	61,61
783,683	45,23
783,864	37,03
784,044	18,6
784,224	112,81
784,404	-12,12
784,585	41,13
784,765	-61,27
784,945	112,81
785,125	-40,79
785,305	53,42
785,485	77,99
785,666	100,52
785,846	16,55
786,026	57,51
786,206	-98,13
786,386	-20,31
786,566	73,9
786,746	-20,31
786,926	26,79
787,106	-26,45
787,286	-10,07
787,466	53,42
787,646	131,24
787,826	37,03
788,006	141,48
788,185	4,27
788,365	-48,98
788,545	90,28
788,725	-20,31
788,905	65,71
789,085	6,31
789,264	-3,93
789,444	12,46
789,624	6,31
789,804	28,84
789,983	49,32
790,163	28,84
790,343	63,66
790,522	4,27
790,702	71,85
790,882	-20,31
791,061	200,87
791,241	118,95
791,42	-28,5
791,6	127,14
791,78	24,75
791,959	-42,84
792,139	-12,12
792,318	41,13
792,498	135,34
792,677	77,99
792,856	32,94
793,036	63,66
793,215	-26,45
793,395	80,04
793,574	28,84
793,753	22,7
793,933	209,06
794,112	151,72
794,291	61,61
794,471	104,62
794,65	71,85
794,829	-18,26
795,008	45,23
795,188	12,46
795,367	139,43
795,546	63,66
795,725	106,67
795,904	12,46
796,084	133,29
796,263	102,57
796,442	94,38
796,621	-28,5
796,8	135,34
796,979	24,75
797,158	-106,32
797,337	18,6
797,516	59,56
797,695	102,57
797,874	118,95
798,053	77,99
798,232	-10,07
798,411	-1,88
798,59	6,31
798,769	12,46
798,947	12,46
799,126	-20,31
799,305	69,8
799,484	55,47
799,663	37,03
799,842	71,85
800,02	84,14
800,199	-38,74
800,378	86,19
800,557	-42,84
800,735	-59,22
800,914	-44,88
801,093	37,03
801,271	28,84
801,45	71,85
801,628	57,51
801,807	-44,88
801,986	49,32
802,164	61,61
802,343	0,17
802,521	-53,08
802,7	6,31
802,878	63,66
803,057	22,7
803,235	6,31
803,414	28,84
803,592	73,9
803,771	86,19
803,949	26,79
804,127	-36,69
804,306	47,27
804,484	-26,45
804,662	12,46
804,841	-14,17
805,019	61,61
805,197	-20,31
805,375	32,94
805,554	2,22
805,732	4,27
805,91	-10,07
806,088	-36,69
806,266	-8,02
806,445	0,17
806,623	18,6
806,801	4,27
806,979	69,8
807,157	0,17
807,335	-75,6
807,513	2,22
807,691	-20,31
807,869	-20,31
808,047	59,56
808,225	-34,64
808,403	49,32
808,581	24,75
808,759	190,63
808,937	22,7
809,115	114,86
809,293	14,51
809,471	6,31
809,649	69,8
809,826	37,03
810,004	53,42
810,182	-20,31
810,36	-5,97
810,538	43,18
810,715	-8,02
810,893	-26,45
811,071	49,32
811,248	112,81
811,426	-51,03
811,604	86,19
811,781	39,08
811,959	24,75
812,137	-83,8
812,314	-61,27
812,492	-28,5
812,669	32,94
812,847	-36,69
813,024	45,23
813,202	80,04
813,379	-28,5
813,557	-20,31
813,734	71,85
813,912	94,38
814,089	8,36
814,267	112,81
814,444	12,46
814,621	-5,97
814,799	-32,6
814,976	65,71
815,153	30,89
815,331	49,32
815,508	32,94
815,685	53,42
815,862	69,8
816,04	14,51
816,217	-28,5
816,394	-22,36
816,571	10,41
816,748	106,67
816,926	84,14
817,103	258,21
817,28	16,55
817,457	-8,02
817,634	114,86
817,811	-28,5
817,988	47,27
818,165	135,34
818,342	14,51
818,519	14,51
818,696	53,42
818,873	-32,6
819,05	106,67
819,227	-12,12
819,404	22,7
819,581	-12,12
819,758	-40,79
819,934	39,08
820,111	-51,03
820,288	24,75
820,465	55,47
820,642	4,27
820,818	55,47
820,995	24,75
821,172	49,32
821,349	-12,12
821,525	28,84
821,702	123,05
821,879	-85,84
822,055	37,03
822,232	-28,5
822,409	12,46
822,585	100,52
822,762	-8,02
822,938	137,38
823,115	63,66
823,291	-18,26
823,468	141,48
823,644	-36,69
823,821	14,51
823,997	37,03
824,174	37,03
824,35	-32,6
824,527	86,19
824,703	37,03
824,879	24,75
825,056	-36,69
825,232	184,49
825,408	-59,22
825,585	106,67
825,761	12,46
825,937	53,42
826,113	16,55
826,29	12,46
826,466	-32,6
826,642	426,15
826,818	61,61
826,994	69,8
827,17	-75,6
827,347	-34,64
827,523	63,66
827,699	57,51
827,875	0,17
828,051	39,08
828,227	4,27
828,403	61,61
828,579	75,95
828,755	71,85
828,931	-12,12
829,107	96,43
829,283	143,53
829,459	-77,65
829,635	65,71
829,811	57,51
829,986	34,99
830,162	57,51
830,338	65,71
830,514	4,27
830,69	-1,88
830,865	-28,5
831,041	90,28
831,217	-38,74
831,393	4,27
831,568	73,9
831,744	94,38
831,92	-34,64
832,095	4,27
832,271	43,18
832,447	82,09
832,622	28,84
832,798	-42,84
832,973	53,42
833,149	118,95
833,325	32,94
833,5	71,85
833,676	20,65
833,851	8,36
834,027	-20,31
834,202	90,28
834,377	24,75
834,553	4,27
834,728	41,13
834,904	121
835,079	-3,93
835,254	-3,93
835,43	92,33
835,605	86,19
835,78	6,31
835,955	61,61
836,131	0,17
836,306	-48,98
836,481	63,66
836,656	39,08
836,832	112,81
837,007	37,03
837,182	-48,98
837,357	-69,46
837,532	77,99
837,707	37,03
837,882	57,51
838,057	77,99
838,232	63,66
838,407	53,42
838,582	-38,74
838,757	71,85
838,932	104,62
839,107	-28,5
839,282	32,94
839,457	-14,17
839,632	-8,02
839,807	-1,88
839,982	63,66
840,157	-26,45
840,332	102,57
840,506	18,6
840,681	41,13
840,856	65,71
841,031	-20,31
841,205	12,46
841,38	47,27
841,555	39,08
841,73	-36,69
841,904	49,32
842,079	100,52
842,254	37,03
842,428	69,8
842,603	-26,45
842,777	37,03
842,952	61,61
843,126	-124,76
843,301	69,8
843,476	-69,46
843,65	86,19
843,825	49,32
843,999	8,36
844,173	28,84
844,348	41,13
844,522	-3,93
844,697	12,46
844,871	-32,6
845,045	14,51
845,22	37,03
845,394	110,76
845,568	24,75
845,743	88,23
845,917	-28,5
846,091	12,46
846,265	18,6
846,44	63,66
846,614	59,56
846,788	-61,27
846,962	77,99
847,136	77,99
847,31	45,23
847,485	118,95
847,659	-51,03
847,833	102,57
848,007	34,99
848,181	6,31
848,355	-51,03
848,529	102,57
848,703	147,62
848,877	-77,65
849,051	102,57
849,225	24,75
849,399	12,46
849,573	-36,69
849,746	-83,8
849,92	80,04
850,094	12,46
850,268	45,23
850,442	112,81
850,616	30,89
850,789	-75,6
850,963	-10,07
851,137	-53,08
851,311	104,62
851,484	16,55
851,658	143,53
851,832	12,46
852,005	14,51
852,179	-3,93
852,352	14,51
852,526	0,17
852,7	22,7
852,873	-44,88
853,047	53,42
853,22	32,94
853,394	49,32
853,567	127,14
853,741	30,89
853,914	6,31
854,088	4,27
854,261	55,47
854,434	63,66
854,608	-12,12
854,781	22,7
854,955	4,27
855,128	61,61
855,301	-53,08
855,475	30,89
855,648	94,38
855,821	151,72
855,994	102,57
856,168	61,61
856,341	98,47
856,514	-91,99
856,687	37,03
856,86	6,31
857,033	55,47
857,207	75,95
857,38	-40,79
857,553	125,1
857,726	0,17
857,899	114,86
858,072	-30,55
858,245	30,89
858,418	14,51
858,591	-24,4
858,764	12,46
858,937	43,18
859,11	65,71
859,283	20,65
859,455	-44,88
859,628	32,94
859,801	131,24
859,974	80,04
860,147	-61,27
860,32	49,32
860,492	41,13
860,665	-110,42
860,838	10,41
861,011	14,51
861,183	125,1
861,356	82,09
861,529	116,9
861,701	6,31
861,874	6,31
862,047	57,51
862,219	14,51
862,392	6,31
862,564	-20,31
862,737	45,23
862,909	45,23
863,082	84,14
863,254	129,19
863,427	6,31
863,599	118,95
863,772	-53,08
863,944	63,66
864,117	12,46
864,289	37,03
864,461	30,89
864,634	-94,04
864,806	-10,07
864,978	77,99
865,151	-36,69
865,323	125,1
865,495	104,62
865,667	-20,31
865,84	155,82
866,012	37,03
866,184	4,27
866,356	-34,64
866,528	-28,5
866,7	0,17
866,873	-3,93
867,045	6,31
867,217	-42,84
867,389	65,71
867,561	-8,02
867,733	-61,27
867,905	-1,88
868,077	67,75
868,249	22,7
868,421	0,17
868,593	2,22
868,765	127,14
868,936	-63,32
869,108	88,23
869,28	143,53
869,452	-28,5
869,624	-20,31
869,796	41,13
869,968	28,84
870,139	118,95
870,311	-3,93
870,483	139,43
870,654	16,55
870,826	4,27
870,998	53,42
871,17	28,84
871,341	-10,07
871,513	102,57
871,684	28,84
871,856	49,32
872,028	30,89
872,199	-36,69
872,371	-89,94
872,542	20,65
872,714	-53,08
872,885	98,47
873,057	20,65
873,228	104,62
873,4	41,13
873,571	98,47
873,742	53,42
873,914	-53,08
874,085	39,08
874,256	86,19
874,428	-69,46
874,599	30,89
874,77	159,91
874,942	-28,5
875,113	61,61
875,284	10,41
875,455	-16,21
875,626	-12,12
875,798	-28,5
875,969	45,23
876,14	53,42
876,311	102,57
876,482	80,04
876,653	77,99
876,824	121
876,995	94,38
877,166	32,94
877,337	30,89
877,508	0,17
877,679	-24,4
877,85	6,31
878,021	-53,08
878,192	41,13
878,363	-10,07
878,534	-18,26
878,705	-63,32
878,876	0,17
879,047	28,84
879,217	16,55
879,388	43,18
879,559	30,89
879,73	77,99
879,9	-61,27
880,071	28,84
880,242	86,19
880,413	28,84
880,583	-20,31
880,754	20,65
880,924	8,36
881,095	-28,5
881,266	45,23
881,436	16,55
881,607	168,1
881,777	28,84
881,948	-42,84
882,118	77,99
882,289	-48,98
882,459	26,79
882,63	73,9
882,8	-3,93
882,971	149,67
883,141	102,57
883,311	104,62
883,482	131,24
883,652	55,47
883,822	-20,31
883,993	37,03
884,163	61,61
884,333	110,76
884,504	63,66
884,674	77,99
884,844	61,61
885,014	8,36
885,184	-10,07
885,355	-85,84
885,525	14,51
885,695	110,76
885,865	194,73
886,035	22,7
886,205	-44,88
886,375	92,33
886,545	106,67
886,715	-34,64
886,885	63,66
887,055	14,51
887,225	-26,45
887,395	-14,17
887,565	121
887,735	110,76
887,905	-26,45
888,075	-3,93
888,244	80,04
888,414	102,57
888,584	63,66
888,754	43,18
888,924	49,32
889,093	290,98
889,263	14,51
889,433	4,27
889,603	45,23
889,772	53,42
889,942	118,95
890,111	86,19
890,281	22,7
890,451	28,84
890,62	-8,02
890,79	-10,07
890,959	-18,26
891,129	55,47
891,298	61,61
891,468	6,31
891,637	53,42
891,807	-10,07
891,976	-44,88
892,146	6,31
892,315	57,51
892,485	137,38
892,654	0,17
892,823	47,27
892,993	22,7
893,162	39,08
893,331	69,8
893,501	61,61
893,67	98,47
893,839	28,84
894,008	61,61
894,177	22,7
894,347	102,57
894,516	104,62
894,685	37,03
894,854	-20,31
895,023	94,38
895,192	30,89
