Data from he_USB4F104161__23__11-53-37-655.txt Node

Date: Tue Apr 14 11:53:37 EDT 2026
User: LaboPhy
Spectrometer: USB4F10416
Trigger mode: 4
Integration Time (sec): 1,000000E-1
Scans to average: 1
Electric dark correction enabled: true
Nonlinearity correction enabled: false
Boxcar width: 0
XAxis mode: Wavelengths
Number of Pixels in Spectrum: 3648
>>>>>Begin Spectral Data<<<<<
177,847	-208,72
178,066	-208,72
178,284	-208,72
178,502	-208,72
178,72	-94,04
178,939	-26,45
179,157	-1,88
179,375	-87,89
179,593	24,75
179,812	32,94
180,03	12,46
180,248	30,89
180,466	0,17
180,685	30,89
180,903	-36,69
181,121	4,27
181,339	16,55
181,557	4,27
181,775	-55,12
181,994	-69,46
182,212	47,27
182,43	-51,03
182,648	2,22
182,866	45,23
183,084	88,23
183,302	-32,6
183,52	-36,69
183,739	88,23
183,957	63,66
184,175	-18,26
184,393	28,84
184,611	45,23
184,829	18,6
185,047	-12,12
185,265	32,94
185,483	-40,79
185,701	61,61
185,919	4,27
186,137	-10,07
186,355	-22,36
186,573	90,28
186,791	69,8
187,009	4,27
187,227	86,19
187,445	30,89
187,663	24,75
187,881	22,7
188,098	-28,5
188,316	67,75
188,534	145,58
188,752	8,36
188,97	-75,6
189,188	24,75
189,406	-51,03
189,624	102,57
189,841	20,65
190,059	-73,56
190,277	6,31
190,495	-12,12
190,713	118,95
190,931	145,58
191,148	67,75
191,366	20,65
191,584	-3,93
191,802	96,43
192,019	20,65
192,237	4,27
192,455	20,65
192,673	80,04
192,89	4,27
193,108	12,46
193,326	-18,26
193,543	32,94
193,761	37,03
193,979	-32,6
194,196	-24,4
194,414	80,04
194,632	102,57
194,849	-71,51
195,067	-51,03
195,285	-20,31
195,502	-61,27
195,72	61,61
195,937	-12,12
196,155	20,65
196,373	73,9
196,59	-3,93
196,808	37,03
197,025	73,9
197,243	209,06
197,46	20,65
197,678	45,23
197,895	77,99
198,113	37,03
198,33	-26,45
198,548	90,28
198,765	-44,88
198,983	32,94
199,2	-5,97
199,418	41,13
199,635	-36,69
199,853	12,46
200,07	90,28
200,288	82,09
200,505	12,46
200,722	102,57
200,94	6,31
201,157	-40,79
201,375	86,19
201,592	-141,14
201,809	49,32
202,027	104,62
202,244	43,18
202,461	12,46
202,679	86,19
202,896	49,32
203,113	-48,98
203,331	8,36
203,548	39,08
203,765	-10,07
203,982	61,61
204,2	-18,26
204,417	-8,02
204,634	174,25
204,851	139,43
205,069	-12,12
205,286	102,57
205,503	41,13
205,72	20,65
205,937	71,85
206,155	-59,22
206,372	55,47
206,589	61,61
206,806	49,32
207,023	96,43
207,24	0,17
207,458	-40,79
207,675	-28,5
207,892	4,27
208,109	-69,46
208,326	30,89
208,543	-8,02
208,76	47,27
208,977	147,62
209,194	55,47
209,411	-12,12
209,628	0,17
209,845	-12,12
210,062	32,94
210,279	22,7
210,496	45,23
210,713	-36,69
210,93	-5,97
211,147	57,51
211,364	63,66
211,581	4,27
211,798	73,9
212,015	-48,98
212,232	43,18
212,449	14,51
212,666	0,17
212,883	-53,08
213,1	28,84
213,317	-69,46
213,533	-3,93
213,75	-30,55
213,967	30,89
214,184	-98,13
214,401	-8,02
214,618	-24,4
214,835	-18,26
215,051	-12,12
215,268	16,55
215,485	-3,93
215,702	-8,02
215,919	-48,98
216,135	202,92
216,352	-34,64
216,569	32,94
216,786	41,13
217,002	71,85
217,219	22,7
217,436	28,84
217,652	12,46
217,869	114,86
218,086	139,43
218,302	55,47
218,519	114,86
218,736	14,51
218,952	-24,4
219,169	47,27
219,386	32,94
219,602	63,66
219,819	-3,93
220,036	0,17
220,252	53,42
220,469	-132,95
220,685	37,03
220,902	28,84
221,118	45,23
221,335	-46,93
221,552	-12,12
221,768	47,27
221,985	-1,88
222,201	2,22
222,418	65,71
222,634	-61,27
222,851	-1,88
223,067	-12,12
223,284	-16,21
223,5	69,8
223,716	-8,02
223,933	12,46
224,149	-32,6
224,366	20,65
224,582	-75,6
224,799	-3,93
225,015	39,08
225,231	-1,88
225,448	57,51
225,664	55,47
225,88	-8,02
226,097	30,89
226,313	-10,07
226,529	75,95
226,746	-3,93
226,962	69,8
227,178	-12,12
227,395	-34,64
227,611	12,46
227,827	-26,45
228,044	80,04
228,26	45,23
228,476	45,23
228,692	209,06
228,909	59,56
229,125	12,46
229,341	86,19
229,557	-22,36
229,773	-51,03
229,99	4,27
230,206	-16,21
230,422	63,66
230,638	-18,26
230,854	94,38
231,07	-61,27
231,286	71,85
231,503	22,7
231,719	-44,88
231,935	4,27
232,151	12,46
232,367	118,95
232,583	45,23
232,799	20,65
233,015	37,03
233,231	4,27
233,447	96,43
233,663	-28,5
233,879	45,23
234,095	-12,12
234,311	94,38
234,527	37,03
234,743	88,23
234,959	61,61
235,175	-10,07
235,391	-26,45
235,607	20,65
235,823	-3,93
236,039	18,6
236,255	-28,5
236,471	-18,26
236,687	8,36
236,903	0,17
237,118	14,51
237,334	-3,93
237,55	37,03
237,766	10,41
237,982	39,08
238,198	-5,97
238,413	2,22
238,629	73,9
238,845	0,17
239,061	6,31
239,277	-26,45
239,492	0,17
239,708	45,23
239,924	-118,61
240,14	-3,93
240,355	131,24
240,571	28,84
240,787	22,7
241,003	98,47
241,218	-59,22
241,434	-34,64
241,65	45,23
241,865	57,51
242,081	39,08
242,297	-20,31
242,512	61,61
242,728	30,89
242,944	28,84
243,159	6,31
243,375	-83,8
243,59	-18,26
243,806	10,41
244,022	-10,07
244,237	20,65
244,453	2,22
244,668	104,62
244,884	77,99
245,099	26,79
245,315	94,38
245,53	80,04
245,746	159,91
245,961	8,36
246,177	30,89
246,392	123,05
246,608	86,19
246,823	39,08
247,039	12,46
247,254	-44,88
247,47	20,65
247,685	45,23
247,9	12,46
248,116	37,03
248,331	49,32
248,547	110,76
248,762	20,65
248,977	45,23
249,193	0,17
249,408	57,51
249,623	4,27
249,839	-26,45
250,054	-61,27
250,269	84,14
250,485	69,8
250,7	55,47
250,915	77,99
251,13	37,03
251,346	82,09
251,561	57,51
251,776	129,19
251,991	-89,94
252,207	102,57
252,422	-61,27
252,637	32,94
252,852	55,47
253,067	4,27
253,283	55,47
253,498	4,27
253,713	-22,36
253,928	-53,08
254,143	37,03
254,358	16,55
254,573	37,03
254,788	12,46
255,004	28,84
255,219	-53,08
255,434	24,75
255,649	-67,41
255,864	28,84
256,079	-89,94
256,294	-53,08
256,509	6,31
256,724	96,43
256,939	0,17
257,154	-34,64
257,369	24,75
257,584	43,18
257,799	0,17
258,014	-135
258,229	102,57
258,444	-12,12
258,659	-12,12
258,874	53,42
259,089	53,42
259,304	-12,12
259,518	-20,31
259,733	22,7
259,948	61,61
260,163	43,18
260,378	49,32
260,593	67,75
260,808	12,46
261,022	-69,46
261,237	57,51
261,452	4,27
261,667	127,14
261,882	65,71
262,096	77,99
262,311	86,19
262,526	16,55
262,741	20,65
262,955	-28,5
263,17	24,75
263,385	-18,26
263,6	-16,21
263,814	-20,31
264,029	-59,22
264,244	32,94
264,458	-12,12
264,673	47,27
264,888	61,61
265,102	43,18
265,317	24,75
265,532	53,42
265,746	20,65
265,961	-3,93
266,175	39,08
266,39	4,27
266,605	12,46
266,819	-28,5
267,034	12,46
267,248	-44,88
267,463	2,22
267,677	-42,84
267,892	-18,26
268,106	-36,69
268,321	43,18
268,535	98,47
268,75	47,27
268,964	-40,79
269,179	73,9
269,393	28,84
269,608	92,33
269,822	-110,42
270,036	-73,56
270,251	-42,84
270,465	-8,02
270,68	14,51
270,894	49,32
271,108	153,77
271,323	-26,45
271,537	-3,93
271,752	94,38
271,966	4,27
272,18	-53,08
272,394	6,31
272,609	102,57
272,823	24,75
273,037	16,55
273,252	4,27
273,466	37,03
273,68	24,75
273,894	12,46
274,109	53,42
274,323	69,8
274,537	37,03
274,751	-36,69
274,966	98,47
275,18	-100,18
275,394	-69,46
275,608	-69,46
275,822	47,27
276,036	-26,45
276,25	30,89
276,465	-110,42
276,679	55,47
276,893	-32,6
277,107	94,38
277,321	8,36
277,535	-3,93
277,749	65,71
277,963	37,03
278,177	-132,95
278,391	69,8
278,605	-53,08
278,819	37,03
279,033	4,27
279,247	61,61
279,461	34,99
279,675	20,65
279,889	28,84
280,103	61,61
280,317	104,62
280,531	-44,88
280,745	61,61
280,959	-55,12
281,173	41,13
281,387	53,42
281,601	69,8
281,815	86,19
282,029	-108,37
282,242	-12,12
282,456	-44,88
282,67	-10,07
282,884	-10,07
283,098	20,65
283,312	-5,97
283,525	37,03
283,739	18,6
283,953	0,17
284,167	86,19
284,381	22,7
284,594	-20,31
284,808	-20,31
285,022	30,89
285,235	-20,31
285,449	98,47
285,663	30,89
285,877	-36,69
286,09	-32,6
286,304	104,62
286,518	-59,22
286,731	-53,08
286,945	61,61
287,159	-1,88
287,372	55,47
287,586	-12,12
287,799	-36,69
288,013	-44,88
288,227	69,8
288,44	217,26
288,654	94,38
288,867	65,71
289,081	20,65
289,294	37,03
289,508	96,43
289,721	30,89
289,935	-36,69
290,148	12,46
290,362	37,03
290,575	104,62
290,789	-8,02
291,002	6,31
291,216	49,32
291,429	-34,64
291,643	12,46
291,856	32,94
292,069	53,42
292,283	39,08
292,496	59,56
292,71	82,09
292,923	-26,45
293,136	61,61
293,35	39,08
293,563	-38,74
293,776	61,61
293,99	69,8
294,203	82,09
294,416	-24,4
294,63	39,08
294,843	69,8
295,056	26,79
295,269	-16,21
295,483	-44,88
295,696	71,85
295,909	-32,6
296,122	24,75
296,335	43,18
296,549	32,94
296,762	-8,02
296,975	-28,5
297,188	28,84
297,401	-10,07
297,615	49,32
297,828	-28,5
298,041	102,57
298,254	-59,22
298,467	53,42
298,68	32,94
298,893	-73,56
299,106	-32,6
299,319	-1,88
299,532	41,13
299,745	16,55
299,958	-77,65
300,171	-48,98
300,384	-16,21
300,598	-85,84
300,81	137,38
301,023	-44,88
301,236	-26,45
301,449	8,36
301,662	-1,88
301,875	-53,08
302,088	-34,64
302,301	-10,07
302,514	-18,26
302,727	37,03
302,94	30,89
303,153	16,55
303,366	77,99
303,579	-18,26
303,791	41,13
304,004	-8,02
304,217	104,62
304,43	45,23
304,643	-36,69
304,855	-61,27
305,068	110,76
305,281	47,27
305,494	8,36
305,707	14,51
305,919	118,95
306,132	45,23
306,345	86,19
306,558	135,34
306,77	-36,69
306,983	-12,12
307,196	135,34
307,408	-22,36
307,621	37,03
307,834	-32,6
308,046	-10,07
308,259	-48,98
308,472	47,27
308,684	116,9
308,897	-8,02
309,109	-51,03
309,322	32,94
309,535	-18,26
309,747	118,95
309,96	37,03
310,172	106,67
310,385	88,23
310,597	-24,4
310,81	55,47
311,022	-10,07
311,235	-65,36
311,447	-65,36
311,66	86,19
311,872	71,85
312,085	57,51
312,297	-1,88
312,51	-48,98
312,722	67,75
312,934	86,19
313,147	0,17
313,359	8,36
313,572	-51,03
313,784	-26,45
313,996	4,27
314,209	102,57
314,421	14,51
314,633	-61,27
314,846	-8,02
315,058	45,23
315,27	12,46
315,483	18,6
315,695	-36,69
315,907	-61,27
316,119	47,27
316,332	39,08
316,544	114,86
316,756	77,99
316,968	10,41
317,181	-3,93
317,393	57,51
317,605	45,23
317,817	-44,88
318,029	131,24
318,241	98,47
318,454	100,52
318,666	149,67
318,878	47,27
319,09	53,42
319,302	94,38
319,514	39,08
319,726	41,13
319,938	180,39
320,15	45,23
320,362	57,51
320,574	-12,12
320,786	-59,22
320,999	12,46
321,211	12,46
321,423	37,03
321,635	-36,69
321,847	16,55
322,058	57,51
322,27	34,99
322,482	141,48
322,694	77,99
322,906	-12,12
323,118	94,38
323,33	24,75
323,542	110,76
323,754	28,84
323,966	-55,12
324,178	102,57
324,389	-18,26
324,601	-3,93
324,813	-20,31
325,025	41,13
325,237	-8,02
325,449	4,27
325,66	41,13
325,872	6,31
326,084	-10,07
326,296	32,94
326,507	45,23
326,719	61,61
326,931	8,36
327,143	96,43
327,354	98,47
327,566	94,38
327,778	49,32
327,989	14,51
328,201	73,9
328,413	55,47
328,624	114,86
328,836	37,03
329,048	4,27
329,259	37,03
329,471	20,65
329,682	-1,88
329,894	-28,5
330,106	32,94
330,317	59,56
330,529	71,85
330,74	32,94
330,952	-3,93
331,163	-10,07
331,375	45,23
331,586	12,46
331,798	49,32
332,009	-1,88
332,221	57,51
332,432	82,09
332,644	-12,12
332,855	-65,36
333,067	94,38
333,278	-18,26
333,489	45,23
333,701	-69,46
333,912	-12,12
334,124	-53,08
334,335	-61,27
334,546	-3,93
334,758	-61,27
334,969	188,58
335,18	37,03
335,392	-32,6
335,603	94,38
335,814	-10,07
336,025	-110,42
336,237	12,46
336,448	-73,56
336,659	39,08
336,87	104,62
337,082	63,66
337,293	43,18
337,504	-34,64
337,715	32,94
337,926	69,8
338,138	-3,93
338,349	41,13
338,56	77,99
338,771	-51,03
338,982	86,19
339,193	-61,27
339,404	80,04
339,616	-20,31
339,827	96,43
340,038	-3,93
340,249	28,84
340,46	-10,07
340,671	26,79
340,882	53,42
341,093	-1,88
341,304	4,27
341,515	-16,21
341,726	-44,88
341,937	-24,4
342,148	16,55
342,359	-44,88
342,57	-34,64
342,781	86,19
342,992	-34,64
343,203	-28,5
343,414	96,43
343,624	22,7
343,835	-12,12
344,046	77,99
344,257	45,23
344,468	-36,69
344,679	6,31
344,89	71,85
345,1	-48,98
345,311	-77,65
345,522	-22,36
345,733	-34,64
345,944	-18,26
346,154	-3,93
346,365	71,85
346,576	22,7
346,787	22,7
346,997	61,61
347,208	28,84
347,419	-48,98
347,629	63,66
347,84	137,38
348,051	-30,55
348,261	53,42
348,472	-24,4
348,683	-20,31
348,893	-51,03
349,104	10,41
349,315	-48,98
349,525	28,84
349,736	-18,26
349,946	16,55
350,157	45,23
350,368	94,38
350,578	-24,4
350,789	20,65
350,999	53,42
351,21	26,79
351,42	-40,79
351,631	-51,03
351,841	-20,31
352,052	26,79
352,262	32,94
352,472	-102,23
352,683	4,27
352,893	-3,93
353,104	22,7
353,314	34,99
353,525	372,9
353,735	30,89
353,945	12,46
354,156	-30,55
354,366	-28,5
354,576	102,57
354,787	-3,93
354,997	-3,93
355,207	-94,04
355,418	22,7
355,628	14,51
355,838	-3,93
356,048	-12,12
356,259	69,8
356,469	53,42
356,679	37,03
356,889	20,65
357,1	-44,88
357,31	-12,12
357,52	94,38
357,73	-46,93
357,94	32,94
358,15	4,27
358,361	55,47
358,571	-77,65
358,781	26,79
358,991	-53,08
359,201	-14,17
359,411	-51,03
359,621	-18,26
359,831	94,38
360,041	14,51
360,251	-1,88
360,461	80,04
360,672	86,19
360,882	-24,4
361,092	4,27
361,302	37,03
361,512	65,71
361,721	-69,46
361,931	106,67
362,141	-28,5
362,351	55,47
362,561	92,33
362,771	28,84
362,981	69,8
363,191	-36,69
363,401	28,84
363,611	-59,22
363,821	-44,88
364,03	37,03
364,24	18,6
364,45	26,79
364,66	258,21
364,87	41,13
365,08	65,71
365,289	20,65
365,499	-69,46
365,709	51,37
365,919	63,66
366,128	0,17
366,338	71,85
366,548	-57,17
366,758	-1,88
366,967	-12,12
367,177	57,51
367,387	16,55
367,596	-3,93
367,806	24,75
368,016	69,8
368,225	8,36
368,435	98,47
368,644	45,23
368,854	-26,45
369,064	-20,31
369,273	12,46
369,483	24,75
369,692	41,13
369,902	-20,31
370,111	82,09
370,321	-16,21
370,53	-10,07
370,74	30,89
370,949	49,32
371,159	20,65
371,368	34,99
371,578	110,76
371,787	10,41
371,997	-53,08
372,206	22,7
372,416	77,99
372,625	-12,12
372,834	30,89
373,044	-10,07
373,253	82,09
373,462	-12,12
373,672	28,84
373,881	4,27
374,09	63,66
374,3	-57,17
374,509	18,6
374,718	61,61
374,928	69,8
375,137	73,9
375,346	22,7
375,555	77,99
375,765	-3,93
375,974	30,89
376,183	20,65
376,392	-1,88
376,601	53,42
376,811	61,61
377,02	114,86
377,229	53,42
377,438	65,71
377,647	37,03
377,856	-22,36
378,065	-1,88
378,275	-5,97
378,484	61,61
378,693	28,84
378,902	14,51
379,111	6,31
379,32	-55,12
379,529	-32,6
379,738	-71,51
379,947	-3,93
380,156	-26,45
380,365	4,27
380,574	137,38
380,783	-8,02
380,992	82,09
381,201	49,32
381,41	-61,27
381,619	45,23
381,828	63,66
382,037	118,95
382,245	184,49
382,454	135,34
382,663	34,99
382,872	61,61
383,081	49,32
383,29	80,04
383,499	39,08
383,707	71,85
383,916	94,38
384,125	110,76
384,334	20,65
384,542	127,14
384,751	53,42
384,96	12,46
385,169	20,65
385,377	98,47
385,586	-44,88
385,795	86,19
386,004	94,38
386,212	37,03
386,421	108,71
386,63	413,86
386,838	839,84
387,047	1347,73
387,255	1988,75
387,464	2789,5
387,673	3805,3
387,881	5017,69
388,09	6013,01
388,298	6770,76
388,507	8372,27
388,715	10108,94
388,924	11401,21
389,133	10586,12
389,341	10393,61
389,55	9097,25
389,758	6963,26
389,967	4479,08
390,175	2898,05
390,383	2338,95
390,592	1876,11
390,8	1187,99
391,009	745,63
391,217	444,58
391,426	317,61
391,634	69,8
391,842	129,19
392,051	82,09
392,259	123,05
392,467	12,46
392,676	4,27
392,884	20,65
393,092	-3,93
393,301	61,61
393,509	-18,26
393,717	63,66
393,925	14,51
394,134	37,03
394,342	69,8
394,55	61,61
394,758	102,57
394,967	-3,93
395,175	39,08
395,383	28,84
395,591	102,57
395,799	88,23
396,007	100,52
396,216	295,08
396,424	184,49
396,632	217,26
396,84	184,49
397,048	131,24
397,256	186,54
397,464	77,99
397,672	92,33
397,88	14,51
398,088	47,27
398,296	49,32
398,504	24,75
398,712	-8,02
398,92	63,66
399,128	-8,02
399,336	43,18
399,544	-3,93
399,752	-12,12
399,96	43,18
400,168	16,55
400,376	28,84
400,584	161,96
400,792	37,03
401	26,79
401,207	88,23
401,415	155,82
401,623	188,58
401,831	172,2
402,039	262,31
402,247	385,19
402,454	377
402,662	479,4
402,87	424,1
403,078	465,06
403,285	528,55
403,493	278,69
403,701	250,02
403,909	86,19
404,116	151,72
404,324	98,47
404,532	-12,12
404,739	-12,12
404,947	121
405,155	80,04
405,362	94,38
405,57	47,27
405,778	28,84
405,985	94,38
406,193	-36,69
406,4	6,31
406,608	61,61
406,816	24,75
407,023	20,65
407,231	-12,12
407,438	-26,45
407,646	92,33
407,853	-44,88
408,061	45,23
408,268	34,99
408,476	-38,74
408,683	77,99
408,89	112,81
409,098	118,95
409,305	86,19
409,513	53,42
409,72	47,27
409,927	4,27
410,135	57,51
410,342	53,42
410,55	137,38
410,757	55,47
410,964	-51,03
411,172	41,13
411,379	49,32
411,586	75,95
411,793	69,8
412,001	22,7
412,208	22,7
412,415	86,19
412,622	176,3
412,83	102,57
413,037	88,23
413,244	-24,4
413,451	102,57
413,658	112,81
413,866	45,23
414,073	53,42
414,28	164,01
414,487	-12,12
414,694	16,55
414,901	43,18
415,108	16,55
415,315	86,19
415,522	77,99
415,73	51,37
415,937	-12,12
416,144	-20,31
416,351	14,51
416,558	20,65
416,765	-28,5
416,972	-30,55
417,179	-1,88
417,386	63,66
417,593	12,46
417,8	6,31
418,006	69,8
418,213	-1,88
418,42	61,61
418,627	37,03
418,834	24,75
419,041	47,27
419,248	28,84
419,455	110,76
419,661	71,85
419,868	-40,79
420,075	-20,31
420,282	-51,03
420,489	30,89
420,696	-59,22
420,902	100,52
421,109	4,27
421,316	-26,45
421,523	75,95
421,729	-18,26
421,936	53,42
422,143	131,24
422,349	61,61
422,556	-85,84
422,763	12,46
422,969	-26,45
423,176	-61,27
423,383	12,46
423,589	295,08
423,796	10,41
424,002	-53,08
424,209	20,65
424,416	102,57
424,622	-61,27
424,829	-16,21
425,035	-57,17
425,242	47,27
425,448	-48,98
425,655	26,79
425,861	43,18
426,068	12,46
426,274	104,62
426,481	14,51
426,687	61,61
426,894	-12,12
427,1	39,08
427,306	22,7
427,513	43,18
427,719	4,27
427,926	10,41
428,132	22,7
428,338	28,84
428,545	69,8
428,751	51,37
428,957	-3,93
429,163	10,41
429,37	86,19
429,576	22,7
429,782	159,91
429,989	-28,5
430,195	30,89
430,401	51,37
430,607	6,31
430,813	-61,27
431,02	86,19
431,226	69,8
431,432	22,7
431,638	45,23
431,844	-102,23
432,05	-18,26
432,257	-18,26
432,463	4,27
432,669	24,75
432,875	-18,26
433,081	-53,08
433,287	-3,93
433,493	-57,17
433,699	28,84
433,905	0,17
434,111	-73,56
434,317	55,47
434,523	168,1
434,729	4,27
434,935	37,03
435,141	112,81
435,347	-3,93
435,553	24,75
435,759	-51,03
435,965	-34,64
436,171	39,08
436,377	84,14
436,582	94,38
436,788	6,31
436,994	41,13
437,2	-44,88
437,406	77,99
437,612	110,76
437,818	121
438,023	8,36
438,229	176,3
438,435	53,42
438,641	135,34
438,846	184,49
439,052	141,48
439,258	172,2
439,464	69,8
439,669	170,15
439,875	143,53
440,081	69,8
440,286	-57,17
440,492	61,61
440,698	8,36
440,903	-51,03
441,109	149,67
441,314	-40,79
441,52	-12,12
441,726	102,57
441,931	-26,45
442,137	20,65
442,342	73,9
442,548	61,61
442,753	110,76
442,959	-53,08
443,164	45,23
443,37	49,32
443,575	6,31
443,781	112,81
443,986	127,14
444,192	71,85
444,397	32,94
444,602	-26,45
444,808	92,33
445,013	45,23
445,219	213,16
445,424	479,4
445,629	635,04
445,835	1077,4
446,04	1259,67
446,245	1589,39
446,451	1765,52
446,656	2332,81
446,861	2674,82
447,066	3207,29
447,272	3461,24
447,477	3418,23
447,682	3133,56
447,887	2666,63
448,093	2220,17
448,298	1628,31
448,503	1034,39
448,708	745,63
448,913	532,64
449,118	409,76
449,324	194,73
449,529	77,99
449,734	32,94
449,939	-8,02
450,144	69,8
450,349	129,19
450,554	-28,5
450,759	61,61
450,964	55,47
451,169	137,38
451,374	10,41
451,579	28,84
451,784	39,08
451,989	-38,74
452,194	49,32
452,399	63,66
452,604	-1,88
452,809	-22,36
453,014	-1,88
453,219	30,89
453,424	47,27
453,629	-77,65
453,833	-42,84
454,038	22,7
454,243	-10,07
454,448	28,84
454,653	37,03
454,858	-20,31
455,062	-8,02
455,267	-85,84
455,472	88,23
455,677	-20,31
455,882	-22,36
456,086	110,76
456,291	30,89
456,496	-34,64
456,7	18,6
456,905	6,31
457,11	-1,88
457,314	6,31
457,519	-42,84
457,724	26,79
457,928	0,17
458,133	63,66
458,338	47,27
458,542	4,27
458,747	51,37
458,951	12,46
459,156	96,43
459,36	-53,08
459,565	118,95
459,769	-28,5
459,974	53,42
460,178	-132,95
460,383	8,36
460,587	-20,31
460,792	22,7
460,996	-28,5
461,201	90,28
461,405	4,27
461,61	49,32
461,814	6,31
462,018	-36,69
462,223	-12,12
462,427	12,46
462,631	77,99
462,836	84,14
463,04	77,99
463,244	131,24
463,449	4,27
463,653	170,15
463,857	37,03
464,062	73,9
464,266	28,84
464,47	45,23
464,674	12,46
464,878	55,47
465,083	-24,4
465,287	94,38
465,491	37,03
465,695	37,03
465,899	57,51
466,104	98,47
466,308	77,99
466,512	39,08
466,716	63,66
466,92	53,42
467,124	151,72
467,328	18,6
467,532	106,67
467,736	-46,93
467,94	28,84
468,144	102,57
468,348	30,89
468,552	157,86
468,756	-14,17
468,96	73,9
469,164	-8,02
469,368	14,51
469,572	127,14
469,776	204,97
469,98	223,4
470,184	239,78
470,388	327,85
470,591	438,44
470,795	534,69
470,999	528,55
471,203	888,99
471,407	833,69
471,611	929,95
471,814	741,54
472,018	596,13
472,222	649,38
472,426	536,74
472,63	393,38
472,833	250,02
473,037	223,4
473,241	102,57
473,444	139,43
473,648	438,44
473,852	-110,42
474,055	94,38
474,259	86,19
474,463	37,03
474,666	16,55
474,87	20,65
475,074	45,23
475,277	86,19
475,481	94,38
475,684	-77,65
475,888	-14,17
476,091	53,42
476,295	-12,12
476,498	20,65
476,702	20,65
476,905	151,72
477,109	80,04
477,312	37,03
477,516	-51,03
477,719	86,19
477,923	10,41
478,126	53,42
478,329	-8,02
478,533	-1,88
478,736	28,84
478,94	-20,31
479,143	45,23
479,346	37,03
479,55	86,19
479,753	4,27
479,956	26,79
480,159	-20,31
480,363	65,71
480,566	14,51
480,769	6,31
480,972	24,75
481,176	32,94
481,379	94,38
481,582	90,28
481,785	-81,75
481,988	28,84
482,192	37,03
482,395	26,79
482,598	-16,21
482,801	-16,21
483,004	82,09
483,207	-8,02
483,41	16,55
483,613	98,47
483,817	16,55
484,02	-44,88
484,223	-81,75
484,426	47,27
484,629	-44,88
484,832	80,04
485,035	30,89
485,238	37,03
485,441	-28,5
485,644	55,47
485,846	86,19
486,049	14,51
486,252	4,27
486,455	-1,88
486,658	43,18
486,861	137,38
487,064	32,94
487,267	-44,88
487,47	55,47
487,672	-34,64
487,875	-10,07
488,078	-12,12
488,281	6,31
488,484	71,85
488,686	-85,84
488,889	2,22
489,092	-36,69
489,295	8,36
489,497	155,82
489,7	-28,5
489,903	41,13
490,105	-10,07
490,308	61,61
490,511	243,88
490,713	381,09
490,916	372,9
491,118	643,23
491,321	780,45
491,524	915,61
491,726	1085,59
491,929	1163,42
492,131	1255,58
492,334	1441,94
492,536	1446,04
492,739	1460,37
492,941	1298,58
493,144	1073,31
493,346	850,08
493,549	602,27
493,751	432,29
493,954	301,22
494,156	172,2
494,359	213,16
494,561	57,51
494,763	86,19
494,966	61,61
495,168	135,34
495,37	-22,36
495,573	41,13
495,775	8,36
495,977	69,8
496,18	69,8
496,382	127,14
496,584	65,71
496,787	39,08
496,989	30,89
497,191	4,27
497,393	129,19
497,595	0,17
497,798	0,17
498	-3,93
498,202	16,55
498,404	45,23
498,606	63,66
498,808	127,14
499,011	118,95
499,213	161,96
499,415	96,43
499,617	231,59
499,819	454,82
500,021	868,51
500,223	1210,52
500,425	1822,86
500,627	2168,97
500,829	2965,63
501,031	3494,01
501,233	4008,05
501,435	4712,55
501,637	4986,97
501,839	5181,53
502,041	5058,65
502,243	4718,69
502,445	3856,5
502,647	3160,19
502,848	2568,32
503,05	1872,01
503,252	1431,7
503,454	938,14
503,656	692,38
503,858	389,28
504,059	368,81
504,261	391,33
504,463	372,9
504,665	229,54
504,867	307,37
505,068	286,89
505,27	260,26
505,472	311,46
505,673	204,97
505,875	155,82
506,077	90,28
506,278	94,38
506,48	98,47
506,682	69,8
506,883	-22,36
507,085	118,95
507,287	-28,5
507,488	14,51
507,69	69,8
507,891	-48,98
508,093	170,15
508,294	-77,65
508,496	30,89
508,697	-65,36
508,899	-28,5
509,1	4,27
509,302	37,03
509,503	61,61
509,705	118,95
509,906	53,42
510,108	-8,02
510,309	-20,31
510,51	-20,31
510,712	39,08
510,913	28,84
511,114	37,03
511,316	-12,12
511,517	98,47
511,718	39,08
511,92	86,19
512,121	4,27
512,322	92,33
512,524	80,04
512,725	-1,88
512,926	-14,17
513,127	-10,07
513,329	102,57
513,53	-53,08
513,731	104,62
513,932	-108,37
514,133	34,99
514,334	-42,84
514,536	37,03
514,737	63,66
514,938	8,36
515,139	28,84
515,34	-63,32
515,541	51,37
515,742	-16,21
515,943	88,23
516,144	82,09
516,345	53,42
516,546	20,65
516,747	71,85
516,948	-61,27
517,149	12,46
517,35	-3,93
517,551	4,27
517,752	-10,07
517,953	49,32
518,154	47,27
518,355	49,32
518,556	86,19
518,756	8,36
518,957	61,61
519,158	135,34
519,359	-28,5
519,56	90,28
519,761	32,94
519,961	22,7
520,162	149,67
520,363	-91,99
520,564	-57,17
520,764	110,76
520,965	-24,4
521,166	102,57
521,366	43,18
521,567	6,31
521,768	4,27
521,968	-3,93
522,169	14,51
522,37	-3,93
522,57	-1,88
522,771	14,51
522,972	-61,27
523,172	145,58
523,373	65,71
523,573	53,42
523,774	63,66
523,974	121
524,175	28,84
524,375	16,55
524,576	-40,79
524,776	98,47
524,977	51,37
525,177	86,19
525,378	-59,22
525,578	129,19
525,778	57,51
525,979	37,03
526,179	45,23
526,38	-61,27
526,58	-1,88
526,78	-1,88
526,981	123,05
527,181	53,42
527,381	-44,88
527,582	86,19
527,782	45,23
527,982	127,14
528,182	49,32
528,383	8,36
528,583	45,23
528,783	110,76
528,983	-10,07
529,183	4,27
529,384	53,42
529,584	145,58
529,784	96,43
529,984	63,66
530,184	-94,04
530,384	37,03
530,584	37,03
530,784	6,31
530,984	-28,5
531,185	37,03
531,385	80,04
531,585	55,47
531,785	-51,03
531,985	-98,13
532,185	34,99
532,385	-36,69
532,585	28,84
532,785	37,03
532,984	37,03
533,184	127,14
533,384	53,42
533,584	-79,7
533,784	65,71
533,984	39,08
534,184	-63,32
534,384	-18,26
534,583	90,28
534,783	28,84
534,983	30,89
535,183	-46,93
535,383	-26,45
535,582	45,23
535,782	22,7
535,982	65,71
536,182	-40,79
536,381	53,42
536,581	-20,31
536,781	-18,26
536,98	45,23
537,18	12,46
537,38	88,23
537,579	45,23
537,779	-75,6
537,979	55,47
538,178	-14,17
538,378	55,47
538,577	28,84
538,777	-10,07
538,976	-3,93
539,176	65,71
539,376	59,56
539,575	-44,88
539,774	10,41
539,974	20,65
540,173	30,89
540,373	-5,97
540,572	-53,08
540,772	24,75
540,971	32,94
541,171	102,57
541,37	51,37
541,569	65,71
541,769	32,94
541,968	-18,26
542,167	37,03
542,367	6,31
542,566	-20,31
542,765	-53,08
542,965	30,89
543,164	55,47
543,363	12,46
543,562	-104,28
543,761	20,65
543,961	86,19
544,16	-51,03
544,359	153,77
544,558	41,13
544,757	-34,64
544,957	28,84
545,156	71,85
545,355	-16,21
545,554	53,42
545,753	-79,7
545,952	20,65
546,151	-1,88
546,35	28,84
546,549	28,84
546,748	71,85
546,947	57,51
547,146	-81,75
547,345	39,08
547,544	0,17
547,743	41,13
547,942	14,51
548,141	-14,17
548,34	16,55
548,539	-20,31
548,738	-34,64
548,937	77,99
549,135	77,99
549,334	37,03
549,533	12,46
549,732	-83,8
549,931	55,47
550,13	34,99
550,328	-12,12
550,527	4,27
550,726	-38,74
550,925	-1,88
551,123	24,75
551,322	20,65
551,521	106,67
551,72	20,65
551,918	37,03
552,117	8,36
552,315	-1,88
552,514	12,46
552,713	96,43
552,911	-1,88
553,11	-100,18
553,309	45,23
553,507	14,51
553,706	55,47
553,904	37,03
554,103	-5,97
554,301	22,7
554,5	12,46
554,698	-32,6
554,897	4,27
555,095	-22,36
555,294	4,27
555,492	77,99
555,69	102,57
555,889	-36,69
556,087	102,57
556,286	88,23
556,484	8,36
556,682	55,47
556,881	32,94
557,079	6,31
557,277	16,55
557,476	41,13
557,674	61,61
557,872	118,95
558,07	-18,26
558,269	65,71
558,467	41,13
558,665	80,04
558,863	88,23
559,062	121
559,26	104,62
559,458	-32,6
559,656	121
559,854	-1,88
560,052	106,67
560,25	77,99
560,449	307,37
560,647	69,8
560,845	20,65
561,043	57,51
561,241	118,95
561,439	155,82
561,637	4,27
561,835	80,04
562,033	84,14
562,231	30,89
562,429	28,84
562,627	53,42
562,825	51,37
563,023	155,82
563,221	28,84
563,418	30,89
563,616	55,47
563,814	143,53
564,012	34,99
564,21	88,23
564,408	39,08
564,605	55,47
564,803	-42,84
565,001	252,07
565,199	-116,56
565,397	-24,4
565,594	14,51
565,792	143,53
565,99	4,27
566,188	118,95
566,385	55,47
566,583	18,6
566,781	47,27
566,978	53,42
567,176	92,33
567,373	55,47
567,571	69,8
567,769	114,86
567,966	12,46
568,164	159,91
568,361	-10,07
568,559	71,85
568,756	37,03
568,954	20,65
569,151	80,04
569,349	110,76
569,546	12,46
569,744	75,95
569,941	102,57
570,139	12,46
570,336	41,13
570,534	43,18
570,731	67,75
570,928	28,84
571,126	233,64
571,323	143,53
571,52	82,09
571,718	151,72
571,915	159,91
572,112	-18,26
572,31	4,27
572,507	39,08
572,704	28,84
572,901	43,18
573,099	57,51
573,296	155,82
573,493	18,6
573,69	20,65
573,887	90,28
574,085	176,3
574,282	98,47
574,479	86,19
574,676	118,95
574,873	114,86
575,07	28,84
575,267	69,8
575,464	28,84
575,661	147,62
575,858	57,51
576,055	45,23
576,252	118,95
576,449	30,89
576,646	90,28
576,843	20,65
577,04	129,19
577,237	61,61
577,434	217,26
577,631	12,46
577,828	90,28
578,025	65,71
578,222	94,38
578,419	123,05
578,615	57,51
578,812	39,08
579,009	28,84
579,206	37,03
579,403	45,23
579,599	147,62
579,796	30,89
579,993	225,45
580,19	106,67
580,386	98,47
580,583	118,95
580,78	71,85
580,976	110,76
581,173	106,67
581,37	28,84
581,566	55,47
581,763	90,28
581,96	43,18
582,156	45,23
582,353	151,72
582,549	225,45
582,746	147,62
582,942	94,38
583,139	217,26
583,335	174,25
583,532	133,29
583,728	127,14
583,925	153,77
584,121	139,43
584,318	313,51
584,514	217,26
584,711	299,17
584,907	200,87
585,103	233,64
585,3	413,86
585,496	546,98
585,693	1243,29
585,889	3760,24
586,085	8597,54
586,281	14610,38
586,478	21970,78
586,674	29984,48
586,87	38932,06
587,067	47594,96
587,263	52784,52
587,459	56198,48
587,655	59995,42
587,851	60667,15
588,048	59690,27
588,244	55868,76
588,44	52931,97
588,636	47252,95
588,832	39886,41
589,028	33658,54
589,224	27422,47
589,42	21428,07
589,617	15693,76
589,813	10366,99
590,009	6217,8
590,205	4012,14
590,401	2369,67
590,597	1493,14
590,793	1112,22
590,989	766,11
591,185	676
591,38	512,16
591,576	360,61
591,772	282,79
591,968	243,88
592,164	262,31
592,36	153,77
592,556	209,06
592,752	241,83
592,948	243,88
593,143	135,34
593,339	88,23
593,535	139,43
593,731	196,78
593,926	184,49
594,122	168,1
594,318	94,38
594,514	170,15
594,709	-3,93
594,905	49,32
595,101	28,84
595,296	86,19
595,492	143,53
595,688	102,57
595,883	143,53
596,079	77,99
596,275	127,14
596,47	129,19
596,666	129,19
596,861	43,18
597,057	-8,02
597,252	6,31
597,448	106,67
597,643	129,19
597,839	157,86
598,034	39,08
598,23	88,23
598,425	71,85
598,621	45,23
598,816	121
599,011	-53,08
599,207	-61,27
599,402	12,46
599,597	129,19
599,793	-3,93
599,988	61,61
600,183	12,46
600,379	55,47
600,574	77,99
600,769	82,09
600,965	96,43
601,16	94,38
601,355	4,27
601,55	69,8
601,745	80,04
601,941	118,95
602,136	86,19
602,331	131,24
602,526	80,04
602,721	61,61
602,916	-3,93
603,111	-12,12
603,307	28,84
603,502	129,19
603,697	-34,64
603,892	67,75
604,087	53,42
604,282	164,01
604,477	121
604,672	24,75
604,867	-26,45
605,062	20,65
605,257	53,42
605,452	227,5
605,646	47,27
605,841	-26,45
606,036	22,7
606,231	-3,93
606,426	114,86
606,621	30,89
606,816	43,18
607,01	90,28
607,205	49,32
607,4	16,55
607,595	69,8
607,79	34,99
607,984	37,03
608,179	57,51
608,374	80,04
608,569	86,19
608,763	-67,41
608,958	-16,21
609,153	73,9
609,347	77,99
609,542	82,09
609,736	118,95
609,931	77,99
610,126	94,38
610,32	37,03
610,515	-20,31
610,709	200,87
610,904	20,65
611,098	45,23
611,293	-12,12
611,487	-32,6
611,682	73,9
611,876	16,55
612,071	98,47
612,265	53,42
612,46	-3,93
612,654	94,38
612,848	86,19
613,043	61,61
613,237	45,23
613,432	12,46
613,626	49,32
613,82	53,42
614,014	55,47
614,209	63,66
614,403	30,89
614,597	-18,26
614,792	116,9
614,986	41,13
615,18	110,76
615,374	69,8
615,568	112,81
615,763	16,55
615,957	37,03
616,151	180,39
616,345	94,38
616,539	41,13
616,733	55,47
616,927	12,46
617,121	63,66
617,316	4,27
617,51	32,94
617,704	108,71
617,898	170,15
618,092	-69,46
618,286	22,7
618,48	4,27
618,674	147,62
618,868	106,67
619,061	4,27
619,255	118,95
619,449	57,51
619,643	-28,5
619,837	112,81
620,031	77,99
620,225	133,29
620,419	-24,4
620,612	102,57
620,806	102,57
621	51,37
621,194	96,43
621,388	77,99
621,581	86,19
621,775	28,84
621,969	67,75
622,162	-51,03
622,356	-94,04
622,55	39,08
622,743	71,85
622,937	-44,88
623,131	61,61
623,324	129,19
623,518	-44,88
623,712	28,84
623,905	4,27
624,099	39,08
624,292	26,79
624,486	2,22
624,679	-10,07
624,873	80,04
625,066	4,27
625,26	127,14
625,453	12,46
625,647	-32,6
625,84	55,47
626,034	86,19
626,227	20,65
626,42	129,19
626,614	94,38
626,807	133,29
627	-12,12
627,194	4,27
627,387	102,57
627,58	-40,79
627,774	-42,84
627,967	118,95
628,16	63,66
628,353	55,47
628,547	82,09
628,74	100,52
628,933	-34,64
629,126	104,62
629,319	45,23
629,513	16,55
629,706	30,89
629,899	10,41
630,092	-10,07
630,285	-69,46
630,478	-28,5
630,671	12,46
630,864	-8,02
631,057	4,27
631,25	20,65
631,443	47,27
631,636	49,32
631,829	98,47
632,022	147,62
632,215	-5,97
632,408	47,27
632,601	110,76
632,794	69,8
632,987	-3,93
633,18	-44,88
633,373	55,47
633,566	69,8
633,758	-18,26
633,951	26,79
634,144	37,03
634,337	12,46
634,53	61,61
634,722	168,1
634,915	16,55
635,108	37,03
635,301	86,19
635,493	86,19
635,686	184,49
635,879	-3,93
636,071	-94,04
636,264	176,3
636,457	127,14
636,649	20,65
636,842	32,94
637,034	145,58
637,227	45,23
637,42	106,67
637,612	8,36
637,805	-10,07
637,997	14,51
638,19	30,89
638,382	-53,08
638,575	45,23
638,767	-3,93
638,96	69,8
639,152	53,42
639,344	112,81
639,537	12,46
639,729	108,71
639,922	86,19
640,114	102,57
640,306	57,51
640,499	63,66
640,691	32,94
640,883	28,84
641,075	90,28
641,268	45,23
641,46	-36,69
641,652	55,47
641,844	69,8
642,037	86,19
642,229	-32,6
642,421	98,47
642,613	32,94
642,805	20,65
642,998	63,66
643,19	37,03
643,382	155,82
643,574	112,81
643,766	39,08
643,958	118,95
644,15	39,08
644,342	170,15
644,534	102,57
644,726	47,27
644,918	98,47
645,11	47,27
645,302	-28,5
645,494	94,38
645,686	37,03
645,878	-44,88
646,07	82,09
646,262	145,58
646,453	-24,4
646,645	0,17
646,837	61,61
647,029	24,75
647,221	39,08
647,413	90,28
647,604	-3,93
647,796	-36,69
647,988	26,79
648,18	-1,88
648,371	82,09
648,563	30,89
648,755	86,19
648,947	16,55
649,138	47,27
649,33	63,66
649,521	67,75
649,713	-10,07
649,905	100,52
650,096	-20,31
650,288	12,46
650,479	-20,31
650,671	69,8
650,863	20,65
651,054	39,08
651,246	24,75
651,437	2,22
651,629	118,95
651,82	69,8
652,011	80,04
652,203	63,66
652,394	8,36
652,586	16,55
652,777	34,99
652,968	37,03
653,16	8,36
653,351	47,27
653,542	110,76
653,734	-10,07
653,925	-59,22
654,116	110,76
654,308	63,66
654,499	45,23
654,69	28,84
654,881	20,65
655,073	4,27
655,264	18,6
655,455	53,42
655,646	61,61
655,837	118,95
656,028	28,84
656,219	4,27
656,411	108,71
656,602	55,47
656,793	22,7
656,984	63,66
657,175	-5,97
657,366	61,61
657,557	53,42
657,748	8,36
657,939	12,46
658,13	61,61
658,321	133,29
658,512	80,04
658,703	159,91
658,894	77,99
659,084	-32,6
659,275	-12,12
659,466	57,51
659,657	80,04
659,848	55,47
660,039	37,03
660,23	90,28
660,42	20,65
660,611	6,31
660,802	75,95
660,993	59,56
661,183	102,57
661,374	-40,79
661,565	184,49
661,755	34,99
661,946	-30,55
662,137	112,81
662,327	53,42
662,518	12,46
662,709	73,9
662,899	20,65
663,09	4,27
663,28	-3,93
663,471	37,03
663,662	161,96
663,852	73,9
664,043	55,47
664,233	143,53
664,424	47,27
664,614	63,66
664,804	153,77
664,995	164,01
665,185	77,99
665,376	6,31
665,566	86,19
665,756	129,19
665,947	106,67
666,137	315,56
666,328	1020,06
666,518	2183,31
666,708	3764,34
666,898	5634,13
667,089	7647,29
667,279	9322,52
667,469	10983,43
667,659	12152,82
667,85	12562,41
668,04	12470,25
668,23	11948,02
668,42	11448,32
668,61	10852,36
668,8	9981,97
668,991	8900,64
669,181	7684,15
669,371	6615,11
669,561	5716,05
669,751	4903,01
669,941	3967,09
670,131	3004,54
670,321	2193,55
670,511	1382,55
670,701	921,76
670,891	561,31
671,081	424,1
671,271	180,39
671,461	143,53
671,651	145,58
671,841	176,3
672,03	112,81
672,22	37,03
672,41	94,38
672,6	135,34
672,79	147,62
672,98	39,08
673,169	51,37
673,359	-3,93
673,549	116,9
673,739	26,79
673,928	69,8
674,118	121
674,308	-3,93
674,497	-3,93
674,687	-1,88
674,877	57,51
675,066	53,42
675,256	20,65
675,446	8,36
675,635	-36,69
675,825	6,31
676,014	22,7
676,204	77,99
676,393	28,84
676,583	106,67
676,772	77,99
676,962	-12,12
677,151	61,61
677,341	-5,97
677,53	0,17
677,72	37,03
677,909	112,81
678,099	-75,6
678,288	-1,88
678,477	63,66
678,667	80,04
678,856	45,23
679,045	57,51
679,235	94,38
679,424	-8,02
679,613	137,38
679,802	94,38
679,992	53,42
680,181	55,47
680,37	166,06
680,559	55,47
680,748	63,66
680,938	37,03
681,127	20,65
681,316	14,51
681,505	-18,26
681,694	41,13
681,883	90,28
682,072	32,94
682,261	45,23
682,45	-81,75
682,639	20,65
682,828	39,08
683,017	90,28
683,206	28,84
683,395	39,08
683,584	30,89
683,773	102,57
683,962	28,84
684,151	-28,5
684,34	104,62
684,529	-1,88
684,718	-51,03
684,907	69,8
685,095	14,51
685,284	116,9
685,473	16,55
685,662	-28,5
685,851	65,71
686,039	127,14
686,228	104,62
686,417	55,47
686,606	110,76
686,794	37,03
686,983	4,27
687,172	28,84
687,36	24,75
687,549	-69,46
687,738	8,36
687,926	112,81
688,115	20,65
688,303	-3,93
688,492	139,43
688,68	-77,65
688,869	-75,6
689,057	47,27
689,246	-57,17
689,434	45,23
689,623	-1,88
689,811	49,32
690	69,8
690,188	-28,5
690,377	-18,26
690,565	80,04
690,753	86,19
690,942	24,75
691,13	47,27
691,318	102,57
691,507	-42,84
691,695	-3,93
691,883	6,31
692,072	118,95
692,26	96,43
692,448	67,75
692,636	6,31
692,824	-89,94
693,013	45,23
693,201	102,57
693,389	-30,55
693,577	73,9
693,765	37,03
693,953	-14,17
694,141	39,08
694,329	16,55
694,518	112,81
694,706	47,27
694,894	73,9
695,082	55,47
695,27	53,42
695,458	192,68
695,646	57,51
695,834	63,66
696,022	45,23
696,209	98,47
696,397	71,85
696,585	69,8
696,773	28,84
696,961	75,95
697,149	-44,88
697,337	18,6
697,525	28,84
697,712	55,47
697,9	61,61
698,088	-1,88
698,276	106,67
698,463	71,85
698,651	96,43
698,839	-28,5
699,027	14,51
699,214	86,19
699,402	49,32
699,59	37,03
699,777	20,65
699,965	53,42
700,152	47,27
700,34	-44,88
700,528	59,56
700,715	14,51
700,903	28,84
701,09	127,14
701,278	84,14
701,465	24,75
701,653	47,27
701,84	67,75
702,028	65,71
702,215	-44,88
702,402	63,66
702,59	57,51
702,777	104,62
702,965	82,09
703,152	86,19
703,339	71,85
703,527	4,27
703,714	102,57
703,901	49,32
704,088	172,2
704,276	110,76
704,463	118,95
704,65	166,06
704,837	241,83
705,025	909,47
705,212	2764,93
705,399	6232,14
705,586	9230,37
705,773	13299,68
705,96	17020,84
706,147	20082,55
706,335	22257,5
706,522	23289,67
706,709	23050,06
706,896	22454,1
707,083	21534,56
707,27	19947,39
707,457	18040,73
707,644	16799,66
707,831	14569,42
708,018	12589,03
708,205	10876,93
708,392	9127,97
708,578	7966,77
708,765	6617,16
708,952	5421,14
709,139	4247,66
709,326	2912,38
709,513	2052,24
709,7	1364,12
709,886	954,52
710,073	657,57
710,26	458,92
710,447	280,74
710,633	217,26
710,82	219,3
711,007	170,15
711,193	192,68
711,38	135,34
711,567	164,01
711,753	32,94
711,94	63,66
712,127	90,28
712,313	118,95
712,5	118,95
712,686	121
712,873	6,31
713,059	34,99
713,246	63,66
713,432	69,8
713,619	28,84
713,805	20,65
713,992	57,51
714,178	12,46
714,365	77,99
714,551	202,92
714,737	22,7
714,924	-12,12
715,11	118,95
715,297	-8,02
715,483	34,99
715,669	37,03
715,855	-44,88
716,042	63,66
716,228	14,51
716,414	137,38
716,6	47,27
716,787	22,7
716,973	-20,31
717,159	77,99
717,345	4,27
717,531	37,03
717,718	34,99
717,904	112,81
718,09	-12,12
718,276	-3,93
718,462	20,65
718,648	37,03
718,834	8,36
719,02	110,76
719,206	30,89
719,392	-40,79
719,578	102,57
719,764	-28,5
719,95	-20,31
720,136	135,34
720,322	80,04
720,508	34,99
720,694	69,8
720,879	28,84
721,065	77,99
721,251	26,79
721,437	-12,12
721,623	100,52
721,809	53,42
721,994	-46,93
722,18	-40,79
722,366	92,33
722,552	41,13
722,737	61,61
722,923	114,86
723,109	47,27
723,294	82,09
723,48	110,76
723,666	77,99
723,851	39,08
724,037	57,51
724,222	141,48
724,408	51,37
724,593	61,61
724,779	47,27
724,965	37,03
725,15	47,27
725,336	18,6
725,521	77,99
725,706	4,27
725,892	18,6
726,077	71,85
726,263	45,23
726,448	172,2
726,634	90,28
726,819	258,21
727,004	620,71
727,19	893,09
727,375	1394,84
727,56	1605,78
727,745	1915,02
727,931	2234,5
728,116	2222,22
728,301	2318,47
728,486	2261,13
728,672	2060,43
728,857	2060,43
729,042	1847,44
729,227	1712,27
729,412	1487
729,597	1181,85
729,783	1052,83
729,968	948,38
730,153	790,69
730,338	626,85
730,523	528,55
730,708	456,87
730,893	333,99
731,078	274,6
731,263	227,5
731,448	82,09
731,633	129,19
731,818	12,46
732,003	-1,88
732,187	28,84
732,372	47,27
732,557	106,67
732,742	28,84
732,927	0,17
733,112	69,8
733,297	30,89
733,481	73,9
733,666	41,13
733,851	57,51
734,036	10,41
734,22	39,08
734,405	161,96
734,59	-46,93
734,774	63,66
734,959	-61,27
735,144	20,65
735,328	-18,26
735,513	71,85
735,698	-18,26
735,882	61,61
736,067	129,19
736,251	28,84
736,436	-44,88
736,62	-10,07
736,805	-40,79
736,989	28,84
737,174	-55,12
737,358	-83,8
737,543	92,33
737,727	22,7
737,911	129,19
738,096	-1,88
738,28	90,28
738,465	-3,93
738,649	88,23
738,833	-3,93
739,018	39,08
739,202	-40,79
739,386	-36,69
739,57	-3,93
739,755	28,84
739,939	32,94
740,123	-85,84
740,307	-53,08
740,491	24,75
740,676	-28,5
740,86	26,79
741,044	28,84
741,228	6,31
741,412	-3,93
741,596	-51,03
741,78	-20,31
741,964	53,42
742,148	47,27
742,332	4,27
742,516	-77,65
742,7	69,8
742,884	-20,31
743,068	-20,31
743,252	8,36
743,436	14,51
743,62	-20,31
743,804	69,8
743,988	151,72
744,172	-24,4
744,356	47,27
744,539	-3,93
744,723	0,17
744,907	-55,12
745,091	-10,07
745,275	20,65
745,458	22,7
745,642	4,27
745,826	28,84
746,009	63,66
746,193	47,27
746,377	55,47
746,56	69,8
746,744	69,8
746,928	-40,79
747,111	10,41
747,295	-32,6
747,478	-18,26
747,662	-20,31
747,846	104,62
748,029	20,65
748,213	-14,17
748,396	41,13
748,58	4,27
748,763	24,75
748,946	0,17
749,13	-28,5
749,313	-28,5
749,497	121
749,68	12,46
749,863	49,32
750,047	-8,02
750,23	24,75
750,413	59,56
750,597	30,89
750,78	6,31
750,963	47,27
751,146	39,08
751,33	69,8
751,513	-8,02
751,696	-20,31
751,879	10,41
752,062	-75,6
752,246	53,42
752,429	63,66
752,612	30,89
752,795	22,7
752,978	20,65
753,161	-130,9
753,344	-42,84
753,527	63,66
753,71	28,84
753,893	55,47
754,076	12,46
754,259	57,51
754,442	-24,4
754,625	-48,98
754,808	121
754,991	102,57
755,174	-53,08
755,357	-12,12
755,539	-20,31
755,722	22,7
755,905	69,8
756,088	12,46
756,271	4,27
756,453	32,94
756,636	16,55
756,819	108,71
757,002	-28,5
757,184	43,18
757,367	45,23
757,55	57,51
757,732	77,99
757,915	-34,64
758,098	55,47
758,28	82,09
758,463	28,84
758,645	12,46
758,828	51,37
759,011	61,61
759,193	114,86
759,376	86,19
759,558	-3,93
759,741	-36,69
759,923	-75,6
760,105	-59,22
760,288	49,32
760,47	-89,94
760,653	-28,5
760,835	8,36
761,017	-75,6
761,2	49,32
761,382	28,84
761,564	61,61
761,747	88,23
761,929	-20,31
762,111	-1,88
762,294	63,66
762,476	149,67
762,658	22,7
762,84	69,8
763,022	49,32
763,205	37,03
763,387	75,95
763,569	53,42
763,751	-89,94
763,933	20,65
764,115	86,19
764,297	28,84
764,479	51,37
764,661	-18,26
764,843	145,58
765,025	28,84
765,207	65,71
765,389	4,27
765,571	-42,84
765,753	59,56
765,935	-36,69
766,117	-42,84
766,299	102,57
766,481	106,67
766,663	-61,27
766,845	-67,41
767,026	12,46
767,208	45,23
767,39	12,46
767,572	12,46
767,753	123,05
767,935	61,61
768,117	59,56
768,299	96,43
768,48	63,66
768,662	39,08
768,844	-28,5
769,025	94,38
769,207	86,19
769,389	-59,22
769,57	71,85
769,752	24,75
769,933	-8,02
770,115	65,71
770,296	28,84
770,478	145,58
770,659	-151,38
770,841	260,26
771,022	-8,02
771,204	0,17
771,385	8,36
771,567	102,57
771,748	94,38
771,929	-28,5
772,111	30,89
772,292	92,33
772,473	73,9
772,655	90,28
772,836	-24,4
773,017	49,32
773,199	20,65
773,38	61,61
773,561	82,09
773,742	-42,84
773,923	-34,64
774,105	110,76
774,286	145,58
774,467	-8,02
774,648	-42,84
774,829	-10,07
775,01	-61,27
775,191	-106,32
775,372	4,27
775,553	30,89
775,734	-61,27
775,915	-77,65
776,096	20,65
776,277	53,42
776,458	-100,18
776,639	67,75
776,82	151,72
777,001	20,65
777,182	22,7
777,363	63,66
777,544	8,36
777,725	116,9
777,906	-3,93
778,086	-12,12
778,267	161,96
778,448	82,09
778,629	28,84
778,809	65,71
778,99	53,42
779,171	-28,5
779,352	77,99
779,532	41,13
779,713	24,75
779,894	-100,18
780,074	12,46
780,255	41,13
780,435	30,89
780,616	104,62
780,797	135,34
780,977	-98,13
781,158	-48,98
781,338	-10,07
781,519	6,31
781,699	77,99
781,88	30,89
782,06	61,61
782,241	-135
782,421	-69,46
782,601	32,94
782,782	118,95
782,962	63,66
783,142	12,46
783,323	43,18
783,503	10,41
783,683	45,23
783,864	49,32
784,044	110,76
784,224	98,47
784,404	-18,26
784,585	63,66
784,765	-24,4
784,945	166,06
785,125	-42,84
785,305	102,57
785,485	178,34
785,666	32,94
785,846	-3,93
786,026	-8,02
786,206	2,22
786,386	0,17
786,566	96,43
786,746	-3,93
786,926	57,51
787,106	-8,02
787,286	-12,12
787,466	45,23
787,646	73,9
787,826	65,71
788,006	94,38
788,185	86,19
788,365	-53,08
788,545	55,47
788,725	12,46
788,905	49,32
789,085	16,55
789,264	41,13
789,444	92,33
789,624	65,71
789,804	10,41
789,983	41,13
790,163	-12,12
790,343	14,51
790,522	41,13
790,702	80,04
790,882	71,85
791,061	145,58
791,241	8,36
791,42	-10,07
791,6	153,77
791,78	-26,45
791,959	-3,93
792,139	-48,98
792,318	30,89
792,498	20,65
792,677	98,47
792,856	-12,12
793,036	-69,46
793,215	-30,55
793,395	61,61
793,574	30,89
793,753	-20,31
793,933	90,28
794,112	6,31
794,291	6,31
794,471	41,13
794,65	12,46
794,829	-48,98
795,008	45,23
795,188	71,85
795,367	73,9
795,546	80,04
795,725	18,6
795,904	45,23
796,084	34,99
796,263	45,23
796,442	135,34
796,621	39,08
796,8	123,05
796,979	20,65
797,158	28,84
797,337	-65,36
797,516	114,86
797,695	61,61
797,874	55,47
798,053	129,19
798,232	45,23
798,411	-44,88
798,59	-75,6
798,769	-20,31
798,947	-20,31
799,126	47,27
799,305	39,08
799,484	-28,5
799,663	16,55
799,842	-65,36
800,02	-10,07
800,199	14,51
800,378	77,99
800,557	12,46
800,735	8,36
800,914	-14,17
801,093	47,27
801,271	8,36
801,45	45,23
801,628	20,65
801,807	-28,5
801,986	-38,74
802,164	-1,88
802,343	-44,88
802,521	-79,7
802,7	63,66
802,878	118,95
803,057	20,65
803,235	6,31
803,414	118,95
803,592	61,61
803,771	-53,08
803,949	53,42
804,127	-1,88
804,306	104,62
804,484	-28,5
804,662	-3,93
804,841	-122,71
805,019	-36,69
805,197	53,42
805,375	53,42
805,554	30,89
805,732	6,31
805,91	-14,17
806,088	12,46
806,266	8,36
806,445	-8,02
806,623	-8,02
806,801	16,55
806,979	49,32
807,157	47,27
807,335	-38,74
807,513	20,65
807,691	-18,26
807,869	-79,7
808,047	-34,64
808,225	-118,61
808,403	102,57
808,581	-3,93
808,759	112,81
808,937	37,03
809,115	96,43
809,293	153,77
809,471	6,31
809,649	112,81
809,826	108,71
810,004	102,57
810,182	-94,04
810,36	-28,5
810,538	14,51
810,715	39,08
810,893	-3,93
811,071	-24,4
811,248	82,09
811,426	28,84
811,604	73,9
811,781	18,6
811,959	102,57
812,137	-71,51
812,314	37,03
812,492	39,08
812,669	-12,12
812,847	12,46
813,024	18,6
813,202	28,84
813,379	-44,88
813,557	77,99
813,734	82,09
813,912	77,99
814,089	-42,84
814,267	86,19
814,444	-34,64
814,621	6,31
814,799	16,55
814,976	61,61
815,153	-5,97
815,331	-24,4
815,508	55,47
815,685	96,43
815,862	10,41
816,04	-57,17
816,217	-1,88
816,394	24,75
816,571	37,03
816,748	123,05
816,926	121
817,103	317,61
817,28	-34,64
817,457	88,23
817,634	82,09
817,811	110,76
817,988	26,79
818,165	80,04
818,342	86,19
818,519	106,67
818,696	-34,64
818,873	-135
819,05	61,61
819,227	2,22
819,404	86,19
819,581	53,42
819,758	61,61
819,934	-38,74
820,111	6,31
820,288	32,94
820,465	96,43
820,642	98,47
820,818	127,14
820,995	6,31
821,172	96,43
821,349	161,96
821,525	37,03
821,702	94,38
821,879	-10,07
822,055	24,75
822,232	4,27
822,409	24,75
822,585	151,72
822,762	143,53
822,938	147,62
823,115	2,22
823,291	12,46
823,468	75,95
823,644	-59,22
823,821	-20,31
823,997	-83,8
824,174	39,08
824,35	12,46
824,527	20,65
824,703	55,47
824,879	-12,12
825,056	-26,45
825,232	143,53
825,408	82,09
825,585	22,7
825,761	-26,45
825,937	-12,12
826,113	37,03
826,29	106,67
826,466	-8,02
826,642	440,48
826,818	12,46
826,994	45,23
827,17	-20,31
827,347	-44,88
827,523	-1,88
827,699	90,28
827,875	43,18
828,051	-3,93
828,227	55,47
828,403	127,14
828,579	104,62
828,755	41,13
828,931	-12,12
829,107	18,6
829,283	127,14
829,459	-18,26
829,635	4,27
829,811	90,28
829,986	4,27
830,162	-28,5
830,338	65,71
830,514	-85,84
830,69	28,84
830,865	-32,6
831,041	20,65
831,217	-120,66
831,393	-3,93
831,568	-3,93
831,744	110,76
831,92	0,17
832,095	6,31
832,271	4,27
832,447	-3,93
832,622	94,38
832,798	12,46
832,973	-30,55
833,149	39,08
833,325	12,46
833,5	43,18
833,676	26,79
833,851	86,19
834,027	-3,93
834,202	47,27
834,377	77,99
834,553	65,71
834,728	102,57
834,904	80,04
835,079	-3,93
835,254	-57,17
835,43	8,36
835,605	4,27
835,78	-32,6
835,955	57,51
836,131	24,75
836,306	-98,13
836,481	-12,12
836,656	-51,03
836,832	86,19
837,007	6,31
837,182	-18,26
837,357	-30,55
837,532	39,08
837,707	-34,64
837,882	32,94
838,057	176,3
838,232	73,9
838,407	37,03
838,582	-85,84
838,757	53,42
838,932	147,62
839,107	65,71
839,282	-44,88
839,457	-77,65
839,632	45,23
839,807	20,65
839,982	-36,69
840,157	10,41
840,332	-12,12
840,506	20,65
840,681	12,46
840,856	20,65
841,031	-12,12
841,205	-36,69
841,38	57,51
841,555	69,8
841,73	-8,02
841,904	-34,64
842,079	12,46
842,254	47,27
842,428	-16,21
842,603	-1,88
842,777	-61,27
842,952	41,13
843,126	-36,69
843,301	49,32
843,476	-12,12
843,65	32,94
843,825	153,77
843,999	102,57
844,173	-12,12
844,348	53,42
844,522	61,61
844,697	20,65
844,871	63,66
845,045	77,99
845,22	51,37
845,394	75,95
845,568	-34,64
845,743	77,99
845,917	-77,65
846,091	-3,93
846,265	-24,4
846,44	30,89
846,614	71,85
846,788	4,27
846,962	-12,12
847,136	22,7
847,31	43,18
847,485	57,51
847,659	-40,79
847,833	84,14
848,007	45,23
848,181	26,79
848,355	18,6
848,529	106,67
848,703	6,31
848,877	-77,65
849,051	-53,08
849,225	28,84
849,399	18,6
849,573	0,17
849,746	-65,36
849,92	-8,02
850,094	47,27
850,268	88,23
850,442	94,38
850,616	-36,69
850,789	61,61
850,963	-61,27
851,137	-67,41
851,311	94,38
851,484	45,23
851,658	45,23
851,832	-61,27
852,005	-18,26
852,179	8,36
852,352	-10,07
852,526	6,31
852,7	2,22
852,873	12,46
853,047	16,55
853,22	-8,02
853,394	37,03
853,567	-10,07
853,741	-36,69
853,914	6,31
854,088	16,55
854,261	-30,55
854,434	-18,26
854,608	4,27
854,781	-1,88
854,955	37,03
855,128	61,61
855,301	43,18
855,475	43,18
855,648	57,51
855,821	-1,88
855,994	53,42
856,168	108,71
856,341	159,91
856,514	-106,32
856,687	8,36
856,86	110,76
857,033	24,75
857,207	-8,02
857,38	4,27
857,553	112,81
857,726	77,99
857,899	121
858,072	-77,65
858,245	12,46
858,418	0,17
858,591	14,51
858,764	-10,07
858,937	63,66
859,11	32,94
859,283	14,51
859,455	-1,88
859,628	41,13
859,801	53,42
859,974	145,58
860,147	-69,46
860,32	63,66
860,492	53,42
860,665	-67,41
860,838	45,23
861,011	41,13
861,183	47,27
861,356	82,09
861,529	12,46
861,701	-16,21
861,874	37,03
862,047	118,95
862,219	24,75
862,392	63,66
862,564	20,65
862,737	24,75
862,909	53,42
863,082	-3,93
863,254	73,9
863,427	45,23
863,599	131,24
863,772	-18,26
863,944	4,27
864,117	20,65
864,289	49,32
864,461	-112,47
864,634	39,08
864,806	-63,32
864,978	143,53
865,151	-3,93
865,323	116,9
865,495	57,51
865,667	-18,26
865,84	143,53
866,012	-8,02
866,184	96,43
866,356	-36,69
866,528	28,84
866,7	12,46
866,873	63,66
867,045	-34,64
867,217	45,23
867,389	4,27
867,561	-53,08
867,733	-16,21
867,905	-73,56
868,077	6,31
868,249	6,31
868,421	53,42
868,593	-28,5
868,765	112,81
868,936	-85,84
869,108	0,17
869,28	2,22
869,452	-61,27
869,624	-118,61
869,796	100,52
869,968	26,79
870,139	143,53
870,311	24,75
870,483	65,71
870,654	-18,26
870,826	-3,93
870,998	16,55
871,17	-46,93
871,341	-20,31
871,513	37,03
871,684	-34,64
871,856	18,6
872,028	57,51
872,199	-42,84
872,371	-98,13
872,542	-3,93
872,714	14,51
872,885	110,76
873,057	-48,98
873,228	57,51
873,4	34,99
873,571	153,77
873,742	26,79
873,914	-28,5
874,085	-20,31
874,256	-12,12
874,428	28,84
874,599	-10,07
874,77	135,34
874,942	-42,84
875,113	45,23
875,284	2,22
875,455	-28,5
875,626	112,81
875,798	4,27
875,969	-1,88
876,14	63,66
876,311	63,66
876,482	143,53
876,653	45,23
876,824	47,27
876,995	77,99
877,166	16,55
877,337	39,08
877,508	6,31
877,679	53,42
877,85	-28,5
878,021	-16,21
878,192	45,23
878,363	24,75
878,534	-20,31
878,705	14,51
878,876	-51,03
879,047	112,81
879,217	-81,75
879,388	-67,41
879,559	73,9
879,73	69,8
879,9	-85,84
880,071	86,19
880,242	-36,69
880,413	86,19
880,583	71,85
880,754	82,09
880,924	-28,5
881,095	-94,04
881,266	-85,84
881,436	0,17
881,607	73,9
881,777	-3,93
881,948	-18,26
882,118	16,55
882,289	12,46
882,459	-1,88
882,63	90,28
882,8	22,7
882,971	94,38
883,141	84,14
883,311	75,95
883,482	57,51
883,652	-100,18
883,822	-40,79
883,993	-44,88
884,163	37,03
884,333	69,8
884,504	22,7
884,674	61,61
884,844	-12,12
885,014	-89,94
885,184	-24,4
885,355	-51,03
885,525	-77,65
885,695	131,24
885,865	86,19
886,035	24,75
886,205	-61,27
886,375	92,33
886,545	12,46
886,715	-71,51
886,885	88,23
887,055	22,7
887,225	-46,93
887,395	32,94
887,565	155,82
887,735	63,66
887,905	28,84
888,075	-32,6
888,244	98,47
888,414	82,09
888,584	20,65
888,754	-26,45
888,924	39,08
889,093	209,06
889,263	24,75
889,433	53,42
889,603	77,99
889,772	37,03
889,942	172,2
890,111	71,85
890,281	20,65
890,451	-53,08
890,62	-10,07
890,79	71,85
890,959	-22,36
891,129	22,7
891,298	77,99
891,468	-3,93
891,637	-12,12
891,807	73,9
891,976	73,9
892,146	-85,84
892,315	51,37
892,485	61,61
892,654	-26,45
892,823	20,65
892,993	-22,36
893,162	37,03
893,331	82,09
893,501	102,57
893,67	45,23
893,839	-28,5
894,008	-10,07
894,177	39,08
894,347	-1,88
894,516	98,47
894,685	6,31
894,854	-48,98
895,023	82,09
895,192	4,27
