Data from he_USB4F104161__24__11-53-37-764.txt Node

Date: Tue Apr 14 11:53:37 EDT 2026
User: LaboPhy
Spectrometer: USB4F10416
Trigger mode: 4
Integration Time (sec): 1,000000E-1
Scans to average: 1
Electric dark correction enabled: true
Nonlinearity correction enabled: false
Boxcar width: 0
XAxis mode: Wavelengths
Number of Pixels in Spectrum: 3648
>>>>>Begin Spectral Data<<<<<
177,847	-207,53
178,066	-207,53
178,284	-207,53
178,502	-213,67
178,72	-156,33
178,939	27,99
179,157	7,51
179,375	-37,55
179,593	54,61
179,812	71
180,03	34,13
180,248	11,61
180,466	-39,59
180,685	-8,87
180,903	-94,89
181,121	-12,97
181,339	-12,97
181,557	-117,42
181,775	-66,22
181,994	-47,79
182,212	-74,41
182,43	7,51
182,648	1,37
182,866	23,89
183,084	38,23
183,302	-66,22
183,52	-33,45
183,739	36,18
183,957	89,43
184,175	-31,4
184,393	44,37
184,611	36,18
184,829	-8,87
185,047	19,8
185,265	50,52
185,483	1,37
185,701	34,13
185,919	-6,83
186,137	-33,45
186,355	-17,07
186,573	17,75
186,791	44,37
187,009	134,48
187,227	-0,68
187,445	-107,18
187,663	7,51
187,881	-12,97
188,098	19,8
188,316	64,85
188,534	107,86
188,752	23,89
188,97	-0,68
189,188	25,94
189,406	7,51
189,624	107,86
189,841	25,94
190,059	-33,45
190,277	-35,5
190,495	3,41
190,713	-45,74
190,931	91,48
191,148	19,8
191,366	-29,35
191,584	81,24
191,802	-31,4
192,019	116,05
192,237	15,7
192,455	19,8
192,673	50,52
192,89	-41,64
193,108	50,52
193,326	3,41
193,543	-6,83
193,761	7,51
193,979	-27,31
194,196	-35,5
194,414	-8,87
194,632	50,52
194,849	-115,37
195,067	-144,04
195,285	-10,92
195,502	-41,64
195,72	27,99
195,937	-37,55
196,155	56,66
196,373	-33,45
196,59	-64,17
196,808	48,47
197,025	48,47
197,243	204,11
197,46	34,13
197,678	66,9
197,895	48,47
198,113	42,32
198,33	-72,36
198,548	23,89
198,765	-35,5
198,983	77,14
199,2	-37,55
199,418	56,66
199,635	-17,07
199,853	-74,41
200,07	-8,87
200,288	23,89
200,505	-17,07
200,722	23,89
200,94	15,7
201,157	-33,45
201,375	44,37
201,592	-31,4
201,809	73,04
202,027	64,85
202,244	40,28
202,461	-29,35
202,679	36,18
202,896	56,66
203,113	48,47
203,331	-53,93
203,548	-12,97
203,765	-41,64
203,982	50,52
204,2	-12,97
204,417	-60,07
204,634	97,62
204,851	48,47
205,069	27,99
205,286	-72,36
205,503	27,99
205,72	-29,35
205,937	23,89
206,155	-33,45
206,372	107,86
206,589	-49,83
206,806	3,41
207,023	-2,73
207,24	23,89
207,458	-33,45
207,675	3,41
207,892	-66,22
208,109	-27,31
208,326	-72,36
208,543	-21,16
208,76	-25,26
208,977	15,7
209,194	40,28
209,411	-88,75
209,628	36,18
209,845	-23,21
210,062	-6,83
210,279	-15,02
210,496	7,51
210,713	3,41
210,93	-66,22
211,147	17,75
211,364	-58,03
211,581	-109,23
211,798	21,85
212,015	-49,83
212,232	-4,78
212,449	3,41
212,666	66,9
212,883	-21,16
213,1	-33,45
213,317	-8,87
213,533	-39,59
213,75	19,8
213,967	-17,07
214,184	-4,78
214,401	17,75
214,618	-41,64
214,835	-78,51
215,051	-15,02
215,268	17,75
215,485	34,13
215,702	-33,45
215,919	-41,64
216,135	130,39
216,352	36,18
216,569	23,89
216,786	99,67
217,002	-39,59
217,219	66,9
217,436	50,52
217,652	-0,68
217,869	23,89
218,086	114
218,302	23,89
218,519	42,32
218,736	-80,55
218,952	-23,21
219,169	9,56
219,386	50,52
219,602	79,19
219,819	-49,83
220,036	17,75
220,252	3,41
220,469	-84,65
220,685	-17,07
220,902	-8,87
221,118	-25,26
221,335	-53,93
221,552	-15,02
221,768	48,47
221,985	7,51
222,201	-12,97
222,418	50,52
222,634	15,7
222,851	7,51
223,067	-33,45
223,284	-21,16
223,5	75,09
223,716	7,51
223,933	-37,55
224,149	-21,16
224,366	19,8
224,582	7,51
224,799	-47,79
225,015	40,28
225,231	-49,83
225,448	32,08
225,664	-27,31
225,88	-58,03
226,097	44,37
226,313	-121,51
226,529	23,89
226,746	17,75
226,962	17,75
227,178	-33,45
227,395	-80,55
227,611	75,09
227,827	-0,68
228,044	103,76
228,26	85,33
228,476	-49,83
228,692	107,86
228,909	40,28
229,125	77,14
229,341	-37,55
229,557	-47,79
229,773	-39,59
229,99	73,04
230,206	-72,36
230,422	-21,16
230,638	-82,6
230,854	-33,45
231,07	-131,75
231,286	1,37
231,503	-37,55
231,719	-66,22
231,935	7,51
232,151	-21,16
232,367	23,89
232,583	27,99
232,799	40,28
233,015	15,7
233,231	-117,42
233,447	-96,94
233,663	-74,41
233,879	-41,64
234,095	-98,99
234,311	50,52
234,527	25,94
234,743	-8,87
234,959	32,08
235,175	42,32
235,391	-74,41
235,607	-33,45
235,823	23,89
236,039	-4,78
236,255	15,7
236,471	17,75
236,687	-29,35
236,903	-6,83
237,118	23,89
237,334	-15,02
237,55	-25,26
237,766	-72,36
237,982	17,75
238,198	7,51
238,413	32,08
238,629	93,52
238,845	-21,16
239,061	-8,87
239,277	-55,98
239,492	1,37
239,708	-33,45
239,924	-41,64
240,14	-58,03
240,355	50,52
240,571	7,51
240,787	15,7
241,003	99,67
241,218	15,7
241,434	3,41
241,65	56,66
241,865	-78,51
242,081	99,67
242,297	-78,51
242,512	-0,68
242,728	-19,11
242,944	-17,07
243,159	-12,97
243,375	-107,18
243,59	-0,68
243,806	5,46
244,022	40,28
244,237	-35,5
244,453	15,7
244,668	-51,88
244,884	171,35
245,099	-107,18
245,315	93,52
245,53	50,52
245,746	71
245,961	56,66
246,177	-82,6
246,392	89,43
246,608	40,28
246,823	-23,21
247,039	-17,07
247,254	-58,03
247,47	68,95
247,685	58,71
247,9	-25,26
248,116	7,51
248,331	-8,87
248,547	81,24
248,762	-86,7
248,977	56,66
249,193	34,13
249,408	85,33
249,623	-23,21
249,839	32,08
250,054	-86,7
250,269	-64,17
250,485	23,89
250,7	-17,07
250,915	15,7
251,13	36,18
251,346	91,48
251,561	-29,35
251,776	27,99
251,991	-64,17
252,207	130,39
252,422	-0,68
252,637	-101,03
252,852	-88,75
253,067	44,37
253,283	-49,83
253,498	-15,02
253,713	-4,78
253,928	-41,64
254,143	60,76
254,358	-33,45
254,573	-72,36
254,788	-12,97
255,004	-15,02
255,219	-76,46
255,434	-58,03
255,649	-74,41
255,864	7,51
256,079	-23,21
256,294	32,08
256,509	-55,98
256,724	-64,17
256,939	-113,32
257,154	11,61
257,369	-58,03
257,584	81,24
257,799	-0,68
258,014	-60,07
258,229	95,57
258,444	-21,16
258,659	66,9
258,874	5,46
259,089	58,71
259,304	13,65
259,518	-90,79
259,733	-17,07
259,948	1,37
260,163	62,8
260,378	-0,68
260,593	17,75
260,808	81,24
261,022	-162,47
261,237	11,61
261,452	-41,64
261,667	-25,26
261,882	19,8
262,096	48,47
262,311	148,82
262,526	15,7
262,741	15,7
262,955	3,41
263,17	105,81
263,385	23,89
263,6	11,61
263,814	-80,55
264,029	30,04
264,244	17,75
264,458	-39,59
264,673	79,19
264,888	-4,78
265,102	-6,83
265,317	-70,31
265,532	-25,26
265,746	1,37
265,961	62,8
266,175	32,08
266,39	7,51
266,605	-12,97
266,819	-55,98
267,034	42,32
267,248	-88,75
267,463	32,08
267,677	13,65
267,892	3,41
268,106	-123,56
268,321	-41,64
268,535	-33,45
268,75	40,28
268,964	-49,83
269,179	50,52
269,393	-6,83
269,608	40,28
269,822	-41,64
270,036	-60,07
270,251	-17,07
270,465	-103,08
270,68	64,85
270,894	3,41
271,108	134,48
271,323	17,75
271,537	-62,12
271,752	56,66
271,966	-31,4
272,18	-74,41
272,394	-17,07
272,609	-19,11
272,823	15,7
273,037	-0,68
273,252	-12,97
273,466	-53,93
273,68	64,85
273,894	52,56
274,109	-10,92
274,323	5,46
274,537	-17,07
274,751	-82,6
274,966	-17,07
275,18	-58,03
275,394	-41,64
275,608	-96,94
275,822	-152,23
276,036	-31,4
276,25	81,24
276,465	9,56
276,679	15,7
276,893	-6,83
277,107	75,09
277,321	-45,74
277,535	89,43
277,749	60,76
277,963	-25,26
278,177	-82,6
278,391	34,13
278,605	-58,03
278,819	38,23
279,033	-94,89
279,247	-45,74
279,461	30,04
279,675	-47,79
279,889	-58,03
280,103	44,37
280,317	52,56
280,531	-129,7
280,745	-62,12
280,959	-72,36
281,173	-10,92
281,387	56,66
281,601	-0,68
281,815	48,47
282,029	-49,83
282,242	15,7
282,456	19,8
282,67	23,89
282,884	-74,41
283,098	19,8
283,312	21,85
283,525	71
283,739	48,47
283,953	36,18
284,167	1,37
284,381	30,04
284,594	-12,97
284,808	-66,22
285,022	-10,92
285,235	-49,83
285,449	-74,41
285,663	68,95
285,877	-12,97
286,09	-78,51
286,304	83,28
286,518	-47,79
286,731	-111,27
286,945	40,28
287,159	-51,88
287,372	-55,98
287,586	32,08
287,799	58,71
288,013	-17,07
288,227	-41,64
288,44	257,36
288,654	56,66
288,867	-6,83
289,081	-2,73
289,294	50,52
289,508	109,91
289,721	-0,68
289,935	-25,26
290,148	13,65
290,362	40,28
290,575	111,96
290,789	-62,12
291,002	-8,87
291,216	7,51
291,429	-51,88
291,643	7,51
291,856	-37,55
292,069	-27,31
292,283	-113,32
292,496	-8,87
292,71	75,09
292,923	-37,55
293,136	-49,83
293,35	-35,5
293,563	-113,32
293,776	-41,64
293,99	56,66
294,203	-72,36
294,416	-31,4
294,63	-23,21
294,843	75,09
295,056	-27,31
295,269	3,41
295,483	-82,6
295,696	3,41
295,909	21,85
296,122	36,18
296,335	7,51
296,549	25,94
296,762	9,56
296,975	27,99
297,188	9,56
297,401	25,94
297,615	42,32
297,828	52,56
298,041	130,39
298,254	-121,51
298,467	-49,83
298,68	-17,07
298,893	-45,74
299,106	-49,83
299,319	32,08
299,532	23,89
299,745	-70,31
299,958	-107,18
300,171	-39,59
300,384	-6,83
300,598	-66,22
300,81	54,61
301,023	-105,13
301,236	-0,68
301,449	1,37
301,662	-31,4
301,875	30,04
302,088	34,13
302,301	-15,02
302,514	-25,26
302,727	27,99
302,94	-6,83
303,153	11,61
303,366	-33,45
303,579	-66,22
303,791	34,13
304,004	-37,55
304,217	52,56
304,43	-8,87
304,643	75,09
304,855	-55,98
305,068	56,66
305,281	9,56
305,494	34,13
305,707	1,37
305,919	62,8
306,132	-12,97
306,345	-33,45
306,558	34,13
306,77	-80,55
306,983	19,8
307,196	7,51
307,408	7,51
307,621	-66,22
307,834	5,46
308,046	-80,55
308,259	-66,22
308,472	42,32
308,684	1,37
308,897	-19,11
309,109	-82,6
309,322	-58,03
309,535	7,51
309,747	58,71
309,96	-4,78
310,172	163,15
310,385	34,13
310,597	-64,17
310,81	15,7
311,022	-41,64
311,235	-113,32
311,447	15,7
311,66	-86,7
311,872	105,81
312,085	-29,35
312,297	-8,87
312,51	-58,03
312,722	-66,22
312,934	27,99
313,147	-88,75
313,359	-72,36
313,572	-47,79
313,784	-55,98
313,996	-27,31
314,209	1,37
314,421	-29,35
314,633	-33,45
314,846	-27,31
315,058	-4,78
315,27	-39,59
315,483	-113,32
315,695	-21,16
315,907	-86,7
316,119	-49,83
316,332	-0,68
316,544	126,29
316,756	-12,97
316,968	36,18
317,181	-23,21
317,393	-17,07
317,605	1,37
317,817	-21,16
318,029	93,52
318,241	48,47
318,454	73,04
318,666	66,9
318,878	17,75
319,09	56,66
319,302	52,56
319,514	58,71
319,726	58,71
319,938	71
320,15	93,52
320,362	32,08
320,574	-74,41
320,786	-80,55
320,999	-33,45
321,211	126,29
321,423	-39,59
321,635	-39,59
321,847	56,66
322,058	-64,17
322,27	25,94
322,482	48,47
322,694	25,94
322,906	11,61
323,118	107,86
323,33	23,89
323,542	-74,41
323,754	15,7
323,966	-72,36
324,178	114
324,389	42,32
324,601	23,89
324,813	-0,68
325,025	48,47
325,237	42,32
325,449	-8,87
325,66	-49,83
325,872	42,32
326,084	-45,74
326,296	-41,64
326,507	7,51
326,719	1,37
326,931	-98,99
327,143	85,33
327,354	68,95
327,566	15,7
327,778	21,85
327,989	89,43
328,201	9,56
328,413	85,33
328,624	81,24
328,836	-53,93
329,048	-107,18
329,259	-27,31
329,471	36,18
329,682	32,08
329,894	-62,12
330,106	-205,48
330,317	15,7
330,529	-41,64
330,74	-21,16
330,952	9,56
331,163	68,95
331,375	-68,27
331,586	7,51
331,798	-39,59
332,009	42,32
332,221	-90,79
332,432	-29,35
332,644	7,51
332,855	-23,21
333,067	15,7
333,278	23,89
333,489	32,08
333,701	-66,22
333,912	-23,21
334,124	36,18
334,335	9,56
334,546	-72,36
334,758	-60,07
334,969	163,15
335,18	64,85
335,392	-8,87
335,603	-41,64
335,814	-29,35
336,025	-17,07
336,237	34,13
336,448	-107,18
336,659	15,7
336,87	79,19
337,082	89,43
337,293	-37,55
337,504	-72,36
337,715	7,51
337,926	-15,02
338,138	-12,97
338,349	44,37
338,56	23,89
338,771	-62,12
338,982	62,8
339,193	-58,03
339,404	83,28
339,616	73,04
339,827	9,56
340,038	-107,18
340,249	56,66
340,46	15,7
340,671	19,8
340,882	89,43
341,093	-25,26
341,304	-41,64
341,515	11,61
341,726	-21,16
341,937	1,37
342,148	-96,94
342,359	-90,79
342,57	-47,79
342,781	105,81
342,992	-6,83
343,203	-43,69
343,414	99,67
343,624	-0,68
343,835	-39,59
344,046	34,13
344,257	-49,83
344,468	-49,83
344,679	3,41
344,89	-96,94
345,1	-105,13
345,311	7,51
345,522	-39,59
345,733	34,13
345,944	-25,26
346,154	-17,07
346,365	42,32
346,576	-131,75
346,787	-27,31
346,997	27,99
347,208	44,37
347,419	-25,26
347,629	64,85
347,84	136,53
348,051	-113,32
348,261	50,52
348,472	-72,36
348,683	44,37
348,893	-66,22
349,104	-82,6
349,315	-66,22
349,525	15,7
349,736	64,85
349,946	-41,64
350,157	44,37
350,368	60,76
350,578	-103,08
350,789	44,37
350,999	124,24
351,21	11,61
351,42	-90,79
351,631	-55,98
351,841	-68,27
352,052	-51,88
352,262	-6,83
352,472	-92,84
352,683	58,71
352,893	-8,87
353,104	-45,74
353,314	85,33
353,525	318,8
353,735	-0,68
353,945	-0,68
354,156	-12,97
354,366	99,67
354,576	136,53
354,787	25,94
354,997	-49,83
355,207	-8,87
355,418	-41,64
355,628	-74,41
355,838	17,75
356,048	-0,68
356,259	52,56
356,469	-33,45
356,679	83,28
356,889	11,61
357,1	-37,55
357,31	-64,17
357,52	-23,21
357,73	-98,99
357,94	-41,64
358,15	-58,03
358,361	48,47
358,571	-90,79
358,781	19,8
358,991	-33,45
359,201	-25,26
359,411	-55,98
359,621	-0,68
359,831	56,66
360,041	-60,07
360,251	40,28
360,461	23,89
360,672	13,65
360,882	60,76
361,092	23,89
361,302	-41,64
361,512	11,61
361,721	-43,69
361,931	56,66
362,141	-15,02
362,351	11,61
362,561	25,94
362,771	60,76
362,981	56,66
363,191	-49,83
363,401	60,76
363,611	1,37
363,821	-45,74
364,03	11,61
364,24	64,85
364,45	15,7
364,66	310,61
364,87	-39,59
365,08	27,99
365,289	32,08
365,499	-4,78
365,709	-8,87
365,919	-17,07
366,128	-25,26
366,338	56,66
366,548	-39,59
366,758	-23,21
366,967	-25,26
367,177	42,32
367,387	73,04
367,596	-86,7
367,806	15,7
368,016	-8,87
368,225	-66,22
368,435	83,28
368,644	-19,11
368,854	-6,83
369,064	-17,07
369,273	58,71
369,483	-49,83
369,692	7,51
369,902	-8,87
370,111	25,94
370,321	-39,59
370,53	-47,79
370,74	-21,16
370,949	-31,4
371,159	85,33
371,368	17,75
371,578	3,41
371,787	13,65
371,997	-45,74
372,206	32,08
372,416	-33,45
372,625	36,18
372,834	-8,87
373,044	-82,6
373,253	-25,26
373,462	134,48
373,672	-39,59
373,881	-29,35
374,09	-107,18
374,3	13,65
374,509	-37,55
374,718	-33,45
374,928	105,81
375,137	-41,64
375,346	7,51
375,555	124,24
375,765	-37,55
375,974	3,41
376,183	-25,26
376,392	-90,79
376,601	27,99
376,811	58,71
377,02	7,51
377,229	7,51
377,438	15,7
377,647	-4,78
377,856	-29,35
378,065	-23,21
378,275	-41,64
378,484	-17,07
378,693	-17,07
378,902	-33,45
379,111	95,57
379,32	-27,31
379,529	-49,83
379,738	-0,68
379,947	-8,87
380,156	17,75
380,365	15,7
380,574	89,43
380,783	-17,07
380,992	-17,07
381,201	25,94
381,41	15,7
381,619	34,13
381,828	9,56
382,037	89,43
382,245	91,48
382,454	97,62
382,663	50,52
382,872	21,85
383,081	-2,73
383,29	97,62
383,499	-15,02
383,707	114
383,916	60,76
384,125	23,89
384,334	154,96
384,542	148,82
384,751	-31,4
384,96	-0,68
385,169	-8,87
385,377	42,32
385,586	7,51
385,795	-23,21
386,004	122,2
386,212	-35,5
386,421	48,47
386,63	343,38
386,838	826,7
387,047	1238,34
387,255	2039,09
387,464	2694,44
387,673	3745,05
387,881	4869,39
388,09	5778,69
388,298	6530,29
388,507	8162,52
388,715	9952,45
388,924	11168,94
389,133	10429,62
389,341	10312,89
389,55	8742,1
389,758	6774
389,967	4459,79
390,175	2870,57
390,383	2268,47
390,592	1606,97
390,8	1029,45
391,009	761,16
391,217	509,26
391,426	277,84
391,634	97,62
391,842	17,75
392,051	-17,07
392,259	91,48
392,467	101,72
392,676	1,37
392,884	-33,45
393,092	-37,55
393,301	23,89
393,509	58,71
393,717	23,89
393,925	32,08
394,134	-23,21
394,342	40,28
394,55	73,04
394,758	50,52
394,967	66,9
395,175	-58,03
395,383	68,95
395,591	89,43
395,799	118,1
396,007	89,43
396,216	222,55
396,424	140,63
396,632	214,35
396,84	142,68
397,048	130,39
397,256	134,48
397,464	97,62
397,672	163,15
397,88	34,13
398,088	-33,45
398,296	9,56
398,504	-15,02
398,712	-90,79
398,92	60,76
399,128	42,32
399,336	21,85
399,544	97,62
399,752	-74,41
399,96	97,62
400,168	-21,16
400,376	-8,87
400,584	23,89
400,792	34,13
401	-31,4
401,207	17,75
401,415	189,78
401,623	118,1
401,831	214,35
402,039	271,7
402,247	259,41
402,454	396,62
402,662	359,76
402,87	466,25
403,078	445,77
403,285	386,38
403,493	245,07
403,701	222,55
403,909	120,15
404,116	140,63
404,324	109,91
404,532	-4,78
404,739	-39,59
404,947	9,56
405,155	-49,83
405,362	48,47
405,57	27,99
405,778	-64,17
405,985	64,85
406,193	-4,78
406,4	7,51
406,608	81,24
406,816	21,85
407,023	97,62
407,231	-60,07
407,438	7,51
407,646	114
407,853	7,51
408,061	25,94
408,268	-49,83
408,476	11,61
408,683	38,23
408,89	95,57
409,098	15,7
409,305	-29,35
409,513	32,08
409,72	-33,45
409,927	-55,98
410,135	50,52
410,342	-103,08
410,55	116,05
410,757	-0,68
410,964	-37,55
411,172	40,28
411,379	36,18
411,586	64,85
411,793	-62,12
412,001	15,7
412,208	38,23
412,415	60,76
412,622	97,62
412,83	64,85
413,037	62,8
413,244	-47,79
413,451	91,48
413,658	-37,55
413,866	97,62
414,073	-8,87
414,28	64,85
414,487	32,08
414,694	19,8
414,901	36,18
415,108	7,51
415,315	3,41
415,522	-33,45
415,73	-8,87
415,937	-94,89
416,144	-98,99
416,351	58,71
416,558	-74,41
416,765	-31,4
416,972	-8,87
417,179	48,47
417,386	73,04
417,593	-33,45
417,8	3,41
418,006	15,7
418,213	27,99
418,42	114
418,627	42,32
418,834	7,51
419,041	-62,12
419,248	-51,88
419,455	-58,03
419,661	17,75
419,868	-19,11
420,075	-23,21
420,282	-78,51
420,489	-29,35
420,696	40,28
420,902	3,41
421,109	40,28
421,316	25,94
421,523	73,04
421,729	48,47
421,936	11,61
422,143	21,85
422,349	-17,07
422,556	19,8
422,763	23,89
422,969	85,33
423,176	-72,36
423,383	3,41
423,589	353,62
423,796	99,67
424,002	-21,16
424,209	-27,31
424,416	19,8
424,622	-82,6
424,829	-74,41
425,035	-64,17
425,242	66,9
425,448	-60,07
425,655	3,41
425,861	3,41
426,068	7,51
426,274	71
426,481	32,08
426,687	3,41
426,894	23,89
427,1	-25,26
427,306	-37,55
427,513	-53,93
427,719	-37,55
427,926	73,04
428,132	52,56
428,338	-53,93
428,545	-17,07
428,751	-80,55
428,957	40,28
429,163	9,56
429,37	-0,68
429,576	-4,78
429,782	34,13
429,989	-72,36
430,195	-4,78
430,401	5,46
430,607	15,7
430,813	-47,79
431,02	75,09
431,226	64,85
431,432	-29,35
431,638	23,89
431,844	-17,07
432,05	56,66
432,257	23,89
432,463	-15,02
432,669	56,66
432,875	-101,03
433,081	-66,22
433,287	42,32
433,493	15,7
433,699	9,56
433,905	34,13
434,111	-82,6
434,317	-86,7
434,523	66,9
434,729	58,71
434,935	-31,4
435,141	66,9
435,347	-17,07
435,553	17,75
435,759	-39,59
435,965	19,8
436,171	-66,22
436,377	136,53
436,582	89,43
436,788	-53,93
436,994	89,43
437,2	15,7
437,406	-0,68
437,612	132,44
437,818	17,75
438,023	-29,35
438,229	214,35
438,435	60,76
438,641	105,81
438,846	27,99
439,052	159,06
439,258	81,24
439,464	40,28
439,669	111,96
439,875	204,11
440,081	75,09
440,286	9,56
440,492	-8,87
440,698	15,7
440,903	-31,4
441,109	163,15
441,314	-55,98
441,52	-39,59
441,726	-8,87
441,931	19,8
442,137	64,85
442,342	-0,68
442,548	64,85
442,753	64,85
442,959	-76,46
443,164	-31,4
443,37	58,71
443,575	-37,55
443,781	44,37
443,986	95,57
444,192	-74,41
444,397	-39,59
444,602	-25,26
444,808	107,86
445,013	116,05
445,219	130,39
445,424	460,11
445,629	621,9
445,835	1006,92
446,04	1365,31
446,245	1490,24
446,451	1957,18
446,656	2180,4
446,861	2630,96
447,066	3054,89
447,272	3386,66
447,477	3497,25
447,682	3040,55
447,887	2743,6
448,093	2272,56
448,298	1666,36
448,503	1015,11
448,708	773,45
448,913	433,49
449,118	290,13
449,324	208,21
449,529	163,15
449,734	36,18
449,939	25,94
450,144	77,14
450,349	21,85
450,554	-21,16
450,759	23,89
450,964	27,99
451,169	7,51
451,374	-49,83
451,579	-17,07
451,784	17,75
451,989	-70,31
452,194	34,13
452,399	7,51
452,604	27,99
452,809	-4,78
453,014	-64,17
453,219	23,89
453,424	-4,78
453,629	-64,17
453,833	-117,42
454,038	54,61
454,243	-66,22
454,448	48,47
454,653	109,91
454,858	-82,6
455,062	3,41
455,267	-45,74
455,472	142,68
455,677	7,51
455,882	27,99
456,086	136,53
456,291	-55,98
456,496	-82,6
456,7	-29,35
456,905	25,94
457,11	34,13
457,314	-21,16
457,519	-49,83
457,724	-17,07
457,928	40,28
458,133	-72,36
458,338	50,52
458,542	-23,21
458,747	-6,83
458,951	-8,87
459,156	85,33
459,36	-31,4
459,565	97,62
459,769	-90,79
459,974	32,08
460,178	-66,22
460,383	-133,8
460,587	-41,64
460,792	114
460,996	23,89
461,201	25,94
461,405	-17,07
461,61	-29,35
461,814	58,71
462,018	-90,79
462,223	-0,68
462,427	68,95
462,631	11,61
462,836	-25,26
463,04	-15,02
463,244	52,56
463,449	9,56
463,653	66,9
463,857	27,99
464,062	91,48
464,266	-70,31
464,47	32,08
464,674	36,18
464,878	109,91
465,083	40,28
465,287	-17,07
465,491	27,99
465,695	27,99
465,899	-8,87
466,104	32,08
466,308	-19,11
466,512	116,05
466,716	19,8
466,92	114
467,124	99,67
467,328	-25,26
467,532	42,32
467,736	-0,68
467,94	25,94
468,144	19,8
468,348	3,41
468,552	124,24
468,756	-31,4
468,96	83,28
469,164	-45,74
469,368	-8,87
469,572	15,7
469,776	154,96
469,98	138,58
470,184	245,07
470,388	400,72
470,591	437,58
470,795	722,25
470,999	595,28
471,203	654,67
471,407	779,59
471,611	795,98
471,814	752,97
472,018	613,71
472,222	564,56
472,426	572,75
472,63	353,62
472,833	245,07
473,037	105,81
473,241	93,52
473,444	99,67
473,648	425,29
473,852	11,61
474,055	-21,16
474,259	7,51
474,463	34,13
474,666	27,99
474,87	-33,45
475,074	25,94
475,277	7,51
475,481	75,09
475,684	38,23
475,888	-0,68
476,091	3,41
476,295	-25,26
476,498	-115,37
476,702	73,04
476,905	64,85
477,109	138,58
477,312	34,13
477,516	-90,79
477,719	17,75
477,923	-25,26
478,126	-49,83
478,329	-68,27
478,533	-17,07
478,736	25,94
478,94	-39,59
479,143	-0,68
479,346	-25,26
479,55	-74,41
479,753	-39,59
479,956	-33,45
480,159	-49,83
480,363	85,33
480,566	15,7
480,769	-107,18
480,972	-66,22
481,176	-29,35
481,379	-31,4
481,582	42,32
481,785	-113,32
481,988	-8,87
482,192	1,37
482,395	17,75
482,598	-78,51
482,801	83,28
483,004	15,7
483,207	-37,55
483,41	-41,64
483,613	-25,26
483,817	32,08
484,02	-70,31
484,223	-55,98
484,426	-41,64
484,629	-4,78
484,832	111,96
485,035	34,13
485,238	1,37
485,441	5,46
485,644	73,04
485,846	42,32
486,049	-107,18
486,252	-45,74
486,455	-23,21
486,658	-55,98
486,861	101,72
487,064	73,04
487,267	1,37
487,47	64,85
487,672	17,75
487,875	42,32
488,078	17,75
488,281	114
488,484	-41,64
488,686	-82,6
488,889	40,28
489,092	-41,64
489,295	34,13
489,497	75,09
489,7	-8,87
489,903	-4,78
490,105	-8,87
490,308	73,04
490,511	148,82
490,713	310,61
490,916	458,06
491,118	531,79
491,321	720,2
491,524	896,33
491,726	984,39
491,929	1088,84
492,131	1295,68
492,334	1441,09
492,536	1432,9
492,739	1393,98
492,941	1318,21
493,144	1049,93
493,346	855,37
493,549	632,14
493,751	513,36
493,954	251,22
494,156	220,5
494,359	79,19
494,561	-51,88
494,763	32,08
494,966	146,77
495,168	42,32
495,37	-94,89
495,573	-8,87
495,775	-4,78
495,977	-0,68
496,18	-15,02
496,382	105,81
496,584	32,08
496,787	68,95
496,989	1,37
497,191	-31,4
497,393	32,08
497,595	-23,21
497,798	23,89
498	23,89
498,202	56,66
498,404	-33,45
498,606	5,46
498,808	40,28
499,011	9,56
499,213	42,32
499,415	7,51
499,617	202,07
499,819	556,36
500,021	761,16
500,223	1156,42
500,425	1568,06
500,627	2061,62
500,829	2837,8
501,031	3433,76
501,233	3912,99
501,435	4521,23
501,637	5029,13
501,839	5029,13
502,041	4865,29
502,243	4478,23
502,445	3988,76
502,647	3317,03
502,848	2352,43
503,05	1881,4
503,252	1338,69
503,454	982,34
503,656	595,28
503,858	384,34
504,059	298,32
504,261	294,22
504,463	425,29
504,665	197,97
504,867	206,16
505,068	240,98
505,27	269,65
505,472	320,85
505,673	130,39
505,875	40,28
506,077	52,56
506,278	3,41
506,48	58,71
506,682	105,81
506,883	-12,97
507,085	27,99
507,287	-12,97
507,488	66,9
507,69	48,47
507,891	9,56
508,093	130,39
508,294	-58,03
508,496	-41,64
508,697	-8,87
508,899	-17,07
509,1	83,28
509,302	-33,45
509,503	1,37
509,705	-33,45
509,906	-88,75
510,108	66,9
510,309	-0,68
510,51	23,89
510,712	-15,02
510,913	-8,87
511,114	-4,78
511,316	-113,32
511,517	-31,4
511,718	-19,11
511,92	-8,87
512,121	7,51
512,322	64,85
512,524	21,85
512,725	-35,5
512,926	93,52
513,127	-53,93
513,329	52,56
513,53	27,99
513,731	97,62
513,932	-8,87
514,133	-6,83
514,334	7,51
514,536	132,44
514,737	-2,73
514,938	75,09
515,139	15,7
515,34	-107,18
515,541	30,04
515,742	-23,21
515,943	38,23
516,144	-33,45
516,345	3,41
516,546	-8,87
516,747	64,85
516,948	-58,03
517,149	48,47
517,35	-10,92
517,551	-21,16
517,752	73,04
517,953	-6,83
518,154	-31,4
518,355	42,32
518,556	-17,07
518,756	-19,11
518,957	-17,07
519,158	87,38
519,359	-58,03
519,56	-0,68
519,761	-8,87
519,961	109,91
520,162	105,81
520,363	-25,26
520,564	-80,55
520,764	83,28
520,965	-31,4
521,166	56,66
521,366	-43,69
521,567	83,28
521,768	19,8
521,968	-0,68
522,169	-0,68
522,37	-90,79
522,57	9,56
522,771	13,65
522,972	-74,41
523,172	109,91
523,373	42,32
523,573	1,37
523,774	1,37
523,974	107,86
524,175	44,37
524,375	3,41
524,576	38,23
524,776	-58,03
524,977	-39,59
525,177	77,14
525,378	-41,64
525,578	48,47
525,778	-37,55
525,979	73,04
526,179	56,66
526,38	-82,6
526,58	-55,98
526,78	27,99
526,981	66,9
527,181	9,56
527,381	42,32
527,582	68,95
527,782	64,85
527,982	23,89
528,182	-25,26
528,383	5,46
528,583	9,56
528,783	32,08
528,983	40,28
529,183	-72,36
529,384	44,37
529,584	204,11
529,784	191,83
529,984	3,41
530,184	50,52
530,384	-17,07
530,584	-43,69
530,784	40,28
530,984	-37,55
531,185	23,89
531,385	68,95
531,585	116,05
531,785	-58,03
531,985	-55,98
532,185	5,46
532,385	-8,87
532,585	-15,02
532,785	9,56
532,984	-8,87
533,184	68,95
533,384	-111,27
533,584	-107,18
533,784	34,13
533,984	89,43
534,184	-131,75
534,384	-41,64
534,583	32,08
534,783	19,8
534,983	81,24
535,183	-84,65
535,383	-92,84
535,582	68,95
535,782	-10,92
535,982	23,89
536,182	7,51
536,381	50,52
536,581	-37,55
536,781	58,71
536,98	-21,16
537,18	-27,31
537,38	64,85
537,579	-58,03
537,779	-74,41
537,979	-8,87
538,178	23,89
538,378	89,43
538,577	-25,26
538,777	-78,51
538,976	-25,26
539,176	21,85
539,376	91,48
539,575	-15,02
539,774	-8,87
539,974	11,61
540,173	36,18
540,373	-10,92
540,572	15,7
540,772	-66,22
540,971	-53,93
541,171	-53,93
541,37	73,04
541,569	-33,45
541,769	25,94
541,968	-17,07
542,167	-90,79
542,367	1,37
542,566	-60,07
542,765	23,89
542,965	-0,68
543,164	1,37
543,363	-12,97
543,562	-41,64
543,761	40,28
543,961	34,13
544,16	-37,55
544,359	5,46
544,558	64,85
544,757	5,46
544,957	48,47
545,156	64,85
545,355	32,08
545,554	-0,68
545,753	-12,97
545,952	50,52
546,151	15,7
546,35	13,65
546,549	32,08
546,748	-8,87
546,947	15,7
547,146	-33,45
547,345	44,37
547,544	-82,6
547,743	-66,22
547,942	46,42
548,141	40,28
548,34	3,41
548,539	-6,83
548,738	-82,6
548,937	81,24
549,135	21,85
549,334	7,51
549,533	-4,78
549,732	15,7
549,931	48,47
550,13	-41,64
550,328	-41,64
550,527	-21,16
550,726	9,56
550,925	36,18
551,123	52,56
551,322	3,41
551,521	60,76
551,72	40,28
551,918	21,85
552,117	19,8
552,315	-0,68
552,514	-25,26
552,713	-0,68
552,911	9,56
553,11	-58,03
553,309	9,56
553,507	-6,83
553,706	-66,22
553,904	-45,74
554,103	19,8
554,301	15,7
554,5	23,89
554,698	-43,69
554,897	9,56
555,095	-0,68
555,294	-70,31
555,492	15,7
555,69	40,28
555,889	-33,45
556,087	56,66
556,286	58,71
556,484	89,43
556,682	114
556,881	30,04
557,079	-33,45
557,277	71
557,476	52,56
557,674	75,09
557,872	64,85
558,07	25,94
558,269	-86,7
558,467	54,61
558,665	-82,6
558,863	-27,31
559,062	42,32
559,26	15,7
559,458	-29,35
559,656	36,18
559,854	81,24
560,052	109,91
560,25	73,04
560,449	140,63
560,647	15,7
560,845	-66,22
561,043	42,32
561,241	114
561,439	187,73
561,637	7,51
561,835	118,1
562,033	150,87
562,231	-12,97
562,429	15,7
562,627	-96,94
562,825	-25,26
563,023	13,65
563,221	5,46
563,418	25,94
563,616	15,7
563,814	128,34
564,012	-47,79
564,21	-19,11
564,408	91,48
564,605	32,08
564,803	-39,59
565,001	247,12
565,199	-21,16
565,397	56,66
565,594	114
565,792	107,86
565,99	81,24
566,188	77,14
566,385	7,51
566,583	19,8
566,781	30,04
566,978	75,09
567,176	154,96
567,373	97,62
567,571	32,08
567,769	71
567,966	-39,59
568,164	5,46
568,361	50,52
568,559	50,52
568,756	32,08
568,954	75,09
569,151	58,71
569,349	101,72
569,546	42,32
569,744	64,85
569,941	50,52
570,139	40,28
570,336	-15,02
570,534	89,43
570,731	7,51
570,928	73,04
571,126	148,82
571,323	97,62
571,52	32,08
571,718	81,24
571,915	134,48
572,112	-21,16
572,31	25,94
572,507	126,29
572,704	40,28
572,901	54,61
573,099	1,37
573,296	122,2
573,493	85,33
573,69	3,41
573,887	62,8
574,085	114
574,282	68,95
574,479	23,89
574,676	130,39
574,873	36,18
575,07	48,47
575,267	-49,83
575,464	58,71
575,661	83,28
575,858	62,8
576,055	48,47
576,252	52,56
576,449	105,81
576,646	58,71
576,843	25,94
577,04	118,1
577,237	73,04
577,434	134,48
577,631	-4,78
577,828	64,85
578,025	-31,4
578,222	73,04
578,419	81,24
578,615	44,37
578,812	107,86
579,009	56,66
579,206	-25,26
579,403	85,33
579,599	132,44
579,796	44,37
579,993	179,54
580,19	7,51
580,386	116,05
580,583	120,15
580,78	-8,87
580,976	122,2
581,173	-12,97
581,37	122,2
581,566	56,66
581,763	-12,97
581,96	32,08
582,156	159,06
582,353	165,2
582,549	240,98
582,746	50,52
582,942	40,28
583,139	56,66
583,335	146,77
583,532	114
583,728	126,29
583,925	173,39
584,121	142,68
584,318	257,36
584,514	269,65
584,711	195,92
584,907	236,88
585,103	232,79
585,3	312,66
585,496	496,97
585,693	1123,65
585,889	3677,47
586,085	8254,68
586,281	14212,22
586,478	21466,13
586,674	28806,05
586,87	37997,33
587,067	46305,94
587,263	51391,05
587,459	55269,9
587,655	59148,75
587,851	59328,97
588,048	58061,28
588,244	55314,95
588,44	52222,52
588,636	45841,05
588,832	39623,42
589,028	32490,34
589,224	26999,74
589,42	20810,78
589,617	15109,23
589,813	9936,06
590,009	6077,69
590,205	3894,55
590,401	2237,75
590,597	1418,56
590,793	1086,79
590,989	720,2
591,185	693,58
591,38	408,91
591,576	286,03
591,772	343,38
591,968	236,88
592,164	320,85
592,36	187,73
592,556	140,63
592,752	288,08
592,948	136,53
593,143	95,57
593,339	136,53
593,535	48,47
593,731	122,2
593,926	134,48
594,122	109,91
594,318	75,09
594,514	140,63
594,709	42,32
594,905	126,29
595,101	130,39
595,296	50,52
595,492	187,73
595,688	56,66
595,883	159,06
596,079	105,81
596,275	40,28
596,47	15,7
596,666	42,32
596,861	9,56
597,057	34,13
597,252	-33,45
597,448	25,94
597,643	77,14
597,839	165,2
598,034	-55,98
598,23	66,9
598,425	81,24
598,621	81,24
598,816	179,54
599,011	30,04
599,207	-4,78
599,402	23,89
599,597	81,24
599,793	73,04
599,988	9,56
600,183	99,67
600,379	19,8
600,574	3,41
600,769	17,75
600,965	32,08
601,16	-62,12
601,355	-49,83
601,55	42,32
601,745	42,32
601,941	58,71
602,136	27,99
602,331	130,39
602,526	9,56
602,721	101,72
602,916	-8,87
603,111	17,75
603,307	23,89
603,502	11,61
603,697	-21,16
603,892	15,7
604,087	7,51
604,282	77,14
604,477	68,95
604,672	-17,07
604,867	5,46
605,062	46,42
605,257	116,05
605,452	114
605,646	128,34
605,841	19,8
606,036	-43,69
606,231	-76,46
606,426	-15,02
606,621	1,37
606,816	-53,93
607,01	167,25
607,205	15,7
607,4	64,85
607,595	48,47
607,79	32,08
607,984	68,95
608,179	-15,02
608,374	36,18
608,569	-0,68
608,763	-21,16
608,958	21,85
609,153	109,91
609,347	15,7
609,542	107,86
609,736	3,41
609,931	46,42
610,126	9,56
610,32	1,37
610,515	56,66
610,709	163,15
610,904	-8,87
611,098	64,85
611,293	-47,79
611,487	-27,31
611,682	-49,83
611,876	-12,97
612,071	23,89
612,265	32,08
612,46	34,13
612,654	99,67
612,848	1,37
613,043	-58,03
613,237	56,66
613,432	-88,75
613,626	9,56
613,82	-55,98
614,014	23,89
614,209	83,28
614,403	17,75
614,597	64,85
614,792	71
614,986	-10,92
615,18	167,25
615,374	140,63
615,568	83,28
615,763	40,28
615,957	17,75
616,151	105,81
616,345	85,33
616,539	-0,68
616,733	-0,68
616,927	89,43
617,121	40,28
617,316	89,43
617,51	27,99
617,704	75,09
617,898	46,42
618,092	-0,68
618,286	-51,88
618,48	-0,68
618,674	87,38
618,868	27,99
619,061	17,75
619,255	81,24
619,449	7,51
619,643	27,99
619,837	89,43
620,031	-12,97
620,225	111,96
620,419	-29,35
620,612	122,2
620,806	48,47
621	9,56
621,194	-15,02
621,388	17,75
621,581	21,85
621,775	32,08
621,969	15,7
622,162	32,08
622,356	34,13
622,55	15,7
622,743	56,66
622,937	-25,26
623,131	11,61
623,324	142,68
623,518	7,51
623,712	40,28
623,905	9,56
624,099	17,75
624,292	-0,68
624,486	-21,16
624,679	-6,83
624,873	-47,79
625,066	126,29
625,26	7,51
625,453	-66,22
625,647	-66,22
625,84	48,47
626,034	95,57
626,227	73,04
626,42	19,8
626,614	-25,26
626,807	77,14
627	-25,26
627,194	-29,35
627,387	64,85
627,58	-82,6
627,774	-17,07
627,967	81,24
628,16	44,37
628,353	64,85
628,547	68,95
628,74	114
628,933	-23,21
629,126	75,09
629,319	32,08
629,513	32,08
629,706	-12,97
629,899	114
630,092	19,8
630,285	5,46
630,478	15,7
630,671	-0,68
630,864	83,28
631,057	15,7
631,25	118,1
631,443	42,32
631,636	-0,68
631,829	97,62
632,022	17,75
632,215	32,08
632,408	-64,17
632,601	68,95
632,794	42,32
632,987	-17,07
633,18	-6,83
633,373	21,85
633,566	-23,21
633,758	-8,87
633,951	-4,78
634,144	15,7
634,337	58,71
634,53	34,13
634,722	109,91
634,915	-47,79
635,108	-23,21
635,301	-25,26
635,493	19,8
635,686	81,24
635,879	1,37
636,071	-98,99
636,264	-12,97
636,457	93,52
636,649	-31,4
636,842	34,13
637,034	93,52
637,227	64,85
637,42	-15,02
637,612	-39,59
637,805	-62,12
637,997	73,04
638,19	-0,68
638,382	1,37
638,575	-23,21
638,767	99,67
638,96	122,2
639,152	73,04
639,344	140,63
639,537	-37,55
639,729	36,18
639,922	-25,26
640,114	25,94
640,306	83,28
640,499	56,66
640,691	-53,93
640,883	-33,45
641,075	15,7
641,268	206,16
641,46	73,04
641,652	75,09
641,844	-45,74
642,037	-8,87
642,229	27,99
642,421	148,82
642,613	23,89
642,805	32,08
642,998	13,65
643,19	-6,83
643,382	114
643,574	40,28
643,766	-41,64
643,958	25,94
644,15	105,81
644,342	58,71
644,534	60,76
644,726	3,41
644,918	73,04
645,11	-62,12
645,302	-31,4
645,494	40,28
645,686	-4,78
645,878	-17,07
646,07	140,63
646,262	1,37
646,453	-92,84
646,645	-37,55
646,837	85,33
647,029	27,99
647,221	32,08
647,413	-17,07
647,604	56,66
647,796	77,14
647,988	32,08
648,18	38,23
648,371	25,94
648,563	40,28
648,755	60,76
648,947	-31,4
649,138	32,08
649,33	132,44
649,521	83,28
649,713	52,56
649,905	77,14
650,096	68,95
650,288	7,51
650,479	-17,07
650,671	-29,35
650,863	40,28
651,054	-6,83
651,246	32,08
651,437	-70,31
651,629	68,95
651,82	75,09
652,011	-4,78
652,203	17,75
652,394	23,89
652,586	44,37
652,777	-12,97
652,968	58,71
653,16	-15,02
653,351	40,28
653,542	91,48
653,734	42,32
653,925	-23,21
654,116	56,66
654,308	116,05
654,499	15,7
654,69	34,13
654,881	11,61
655,073	56,66
655,264	85,33
655,455	50,52
655,646	-0,68
655,837	154,96
656,028	-2,73
656,219	-47,79
656,411	-62,12
656,602	132,44
656,793	48,47
656,984	23,89
657,175	46,42
657,366	32,08
657,557	71
657,748	-17,07
657,939	-33,45
658,13	40,28
658,321	56,66
658,512	32,08
658,703	77,14
658,894	73,04
659,084	56,66
659,275	5,46
659,466	-8,87
659,657	157,01
659,848	17,75
660,039	91,48
660,23	-47,79
660,42	-12,97
660,611	17,75
660,802	-8,87
660,993	27,99
661,183	1,37
661,374	7,51
661,565	122,2
661,755	64,85
661,946	13,65
662,137	-31,4
662,327	-37,55
662,518	75,09
662,709	3,41
662,899	-25,26
663,09	52,56
663,28	89,43
663,471	73,04
663,662	154,96
663,852	11,61
664,043	-37,55
664,233	52,56
664,424	91,48
664,614	25,94
664,804	54,61
664,995	138,58
665,185	111,96
665,376	-43,69
665,566	165,2
665,756	-60,07
665,947	36,18
666,137	150,87
666,328	927,05
666,518	2155,83
666,708	3560,73
666,898	5498,11
667,089	7576,8
667,279	9157,83
667,469	10714,29
667,659	11639,97
667,85	12147,87
668,04	12246,17
668,23	11721,89
668,42	11394,22
668,61	10421,43
668,8	9696,45
668,991	8522,96
669,181	7544,03
669,371	6411,51
669,561	5489,92
669,751	4803,85
669,941	3931,42
670,131	3056,93
670,321	2149,68
670,511	1443,14
670,701	908,62
670,891	630,09
671,081	410,96
671,271	208,21
671,461	159,06
671,651	175,44
671,841	73,04
672,03	181,59
672,22	50,52
672,41	32,08
672,6	91,48
672,79	46,42
672,98	42,32
673,169	32,08
673,359	23,89
673,549	52,56
673,739	25,94
673,928	-8,87
674,118	1,37
674,308	27,99
674,497	58,71
674,687	-49,83
674,877	13,65
675,066	-27,31
675,256	-39,59
675,446	30,04
675,635	-35,5
675,825	-47,79
676,014	7,51
676,204	-6,83
676,393	3,41
676,583	101,72
676,772	-41,64
676,962	15,7
677,151	122,2
677,341	15,7
677,53	-55,98
677,72	56,66
677,909	34,13
678,099	-4,78
678,288	-23,21
678,477	-41,64
678,667	-41,64
678,856	40,28
679,045	50,52
679,235	-17,07
679,424	64,85
679,613	154,96
679,802	50,52
679,992	-8,87
680,181	-45,74
680,37	46,42
680,559	32,08
680,748	56,66
680,938	7,51
681,127	56,66
681,316	-23,21
681,505	50,52
681,694	17,75
681,883	27,99
682,072	23,89
682,261	66,9
682,45	-90,79
682,639	-49,83
682,828	46,42
683,017	122,2
683,206	30,04
683,395	25,94
683,584	52,56
683,773	13,65
683,962	-37,55
684,151	-49,83
684,34	95,57
684,529	9,56
684,718	-25,26
684,907	9,56
685,095	46,42
685,284	140,63
685,473	173,39
685,662	-41,64
685,851	189,78
686,039	-0,68
686,228	27,99
686,417	-25,26
686,606	23,89
686,794	38,23
686,983	-82,6
687,172	-23,21
687,36	-10,92
687,549	25,94
687,738	-96,94
687,926	11,61
688,115	-8,87
688,303	17,75
688,492	58,71
688,68	-23,21
688,869	-45,74
689,057	-8,87
689,246	-29,35
689,434	-8,87
689,623	-41,64
689,811	23,89
690	-10,92
690,188	-37,55
690,377	-33,45
690,565	52,56
690,753	66,9
690,942	-0,68
691,13	97,62
691,318	64,85
691,507	23,89
691,695	66,9
691,883	3,41
692,072	17,75
692,26	91,48
692,448	66,9
692,636	-25,26
692,824	-49,83
693,013	105,81
693,201	3,41
693,389	-86,7
693,577	7,51
693,765	81,24
693,953	-49,83
694,141	-25,26
694,329	-62,12
694,518	97,62
694,706	101,72
694,894	52,56
695,082	32,08
695,27	38,23
695,458	97,62
695,646	-0,68
695,834	132,44
696,022	3,41
696,209	36,18
696,397	56,66
696,585	40,28
696,773	73,04
696,961	27,99
697,149	-8,87
697,337	27,99
697,525	91,48
697,712	50,52
697,9	66,9
698,088	34,13
698,276	5,46
698,463	11,61
698,651	109,91
698,839	40,28
699,027	75,09
699,214	97,62
699,402	56,66
699,59	-4,78
699,777	25,94
699,965	-0,68
700,152	-15,02
700,34	60,76
700,528	-39,59
700,715	21,85
700,903	-8,87
701,09	109,91
701,278	-15,02
701,465	-2,73
701,653	-33,45
701,84	40,28
702,028	91,48
702,215	58,71
702,402	13,65
702,59	148,82
702,777	107,86
702,965	56,66
703,152	105,81
703,339	77,14
703,527	81,24
703,714	107,86
703,901	32,08
704,088	138,58
704,276	97,62
704,463	212,31
704,65	109,91
704,837	179,54
705,025	879,94
705,212	2788,65
705,399	6016,25
705,586	9075,91
705,773	12852,37
705,96	16483,42
706,147	19440,68
706,335	21404,69
706,522	22973,43
706,709	22473,73
706,896	22211,59
707,083	20569,12
707,27	19610,67
707,457	17433,68
707,644	16389,21
707,831	14060,67
708,018	12453,02
708,205	10681,52
708,392	9112,78
708,578	7593,19
708,765	6429,94
708,952	5102,86
709,139	4203,8
709,326	2862,38
709,513	1973,56
709,7	1385,79
709,886	869,7
710,073	585,04
710,26	544,08
710,447	292,18
710,633	269,65
710,82	101,72
711,007	222,55
711,193	142,68
711,38	130,39
711,567	30,04
711,753	-0,68
711,94	97,62
712,127	93,52
712,313	66,9
712,5	34,13
712,686	15,7
712,873	-35,5
713,059	-15,02
713,246	64,85
713,432	105,81
713,619	11,61
713,805	75,09
713,992	89,43
714,178	-15,02
714,365	-0,68
714,551	138,58
714,737	7,51
714,924	9,56
715,11	73,04
715,297	-58,03
715,483	-21,16
715,669	-33,45
715,855	44,37
716,042	48,47
716,228	-58,03
716,414	107,86
716,6	91,48
716,787	40,28
716,973	15,7
717,159	-60,07
717,345	64,85
717,531	7,51
717,718	-6,83
717,904	23,89
718,09	40,28
718,276	48,47
718,462	32,08
718,648	85,33
718,834	-17,07
719,02	83,28
719,206	32,08
719,392	-78,51
719,578	52,56
719,764	-90,79
719,95	25,94
720,136	187,73
720,322	48,47
720,508	40,28
720,694	17,75
720,879	-37,55
721,065	109,91
721,251	9,56
721,437	15,7
721,623	66,9
721,809	64,85
721,994	23,89
722,18	-17,07
722,366	58,71
722,552	7,51
722,737	42,32
722,923	68,95
723,109	23,89
723,294	-53,93
723,48	19,8
723,666	34,13
723,851	48,47
724,037	48,47
724,222	114
724,408	71
724,593	48,47
724,779	-12,97
724,965	-86,7
725,15	-49,83
725,336	105,81
725,521	99,67
725,706	-55,98
725,892	-74,41
726,077	-25,26
726,263	-15,02
726,448	60,76
726,634	138,58
726,819	269,65
727,004	556,36
727,19	804,17
727,375	1281,35
727,56	1541,44
727,745	1858,87
727,931	2039,09
728,116	2223,41
728,301	2344,24
728,486	2096,44
728,672	1936,7
728,857	1973,56
729,042	1748,28
729,227	1641,79
729,412	1457,47
729,597	1191,24
729,783	1074,5
729,968	851,27
730,153	748,87
730,338	611,66
730,523	597,32
730,708	468,3
730,893	367,95
731,078	269,65
731,263	171,35
731,448	56,66
731,633	11,61
731,818	-96,94
732,003	13,65
732,187	-8,87
732,372	-88,75
732,557	56,66
732,742	-49,83
732,927	-29,35
733,112	116,05
733,297	48,47
733,481	60,76
733,666	58,71
733,851	-31,4
734,036	9,56
734,22	-70,31
734,405	146,77
734,59	-0,68
734,774	-4,78
734,959	-60,07
735,144	109,91
735,328	23,89
735,513	-19,11
735,698	-58,03
735,882	89,43
736,067	77,14
736,251	132,44
736,436	-4,78
736,62	17,75
736,805	-33,45
736,989	126,29
737,174	-98,99
737,358	-55,98
737,543	32,08
737,727	27,99
737,911	13,65
738,096	23,89
738,28	73,04
738,465	-76,46
738,649	-17,07
738,833	48,47
739,018	-4,78
739,202	-49,83
739,386	-80,55
739,57	44,37
739,755	9,56
739,939	44,37
740,123	-33,45
740,307	3,41
740,491	38,23
740,676	-94,89
740,86	7,51
741,044	9,56
741,228	-0,68
741,412	-90,79
741,596	-49,83
741,78	-70,31
741,964	15,7
742,148	-45,74
742,332	-49,83
742,516	-47,79
742,7	56,66
742,884	-17,07
743,068	-115,37
743,252	-53,93
743,436	-66,22
743,62	-98,99
743,804	77,14
743,988	140,63
744,172	-29,35
744,356	-25,26
744,539	-33,45
744,723	-60,07
744,907	-103,08
745,091	-6,83
745,275	-33,45
745,458	-0,68
745,642	-90,79
745,826	99,67
746,009	122,2
746,193	58,71
746,377	138,58
746,56	-41,64
746,744	85,33
746,928	-2,73
747,111	23,89
747,295	32,08
747,478	-86,7
747,662	-19,11
747,846	23,89
748,029	34,13
748,213	60,76
748,396	25,94
748,58	-35,5
748,763	-0,68
748,946	-29,35
749,13	17,75
749,313	-90,79
749,497	64,85
749,68	23,89
749,863	-31,4
750,047	-90,79
750,23	9,56
750,413	-58,03
750,597	17,75
750,78	-45,74
750,963	-10,92
751,146	-12,97
751,33	56,66
751,513	17,75
751,696	-25,26
751,879	-49,83
752,062	-15,02
752,246	7,51
752,429	19,8
752,612	-45,74
752,795	-25,26
752,978	-33,45
753,161	-41,64
753,344	-66,22
753,527	25,94
753,71	-31,4
753,893	7,51
754,076	-10,92
754,259	36,18
754,442	-27,31
754,625	-74,41
754,808	42,32
754,991	-2,73
755,174	-66,22
755,357	-15,02
755,539	-39,59
755,722	105,81
755,905	-86,7
756,088	15,7
756,271	-25,26
756,453	-2,73
756,636	-58,03
756,819	42,32
757,002	-80,55
757,184	32,08
757,367	68,95
757,55	56,66
757,732	83,28
757,915	-72,36
758,098	-8,87
758,28	-15,02
758,463	56,66
758,645	-17,07
758,828	23,89
759,011	34,13
759,193	-10,92
759,376	81,24
759,558	-131,75
759,741	-12,97
759,923	-39,59
760,105	42,32
760,288	-17,07
760,47	-76,46
760,653	-72,36
760,835	-58,03
761,017	-49,83
761,2	-39,59
761,382	64,85
761,564	-55,98
761,747	97,62
761,929	-0,68
762,111	15,7
762,294	-15,02
762,476	114
762,658	15,7
762,84	15,7
763,022	-41,64
763,205	-0,68
763,387	97,62
763,569	73,04
763,751	-96,94
763,933	-47,79
764,115	-105,13
764,297	27,99
764,479	73,04
764,661	1,37
764,843	81,24
765,025	-15,02
765,207	120,15
765,389	-17,07
765,571	-115,37
765,753	32,08
765,935	3,41
766,117	-47,79
766,299	109,91
766,481	124,24
766,663	-49,83
766,845	-53,93
767,026	-33,45
767,208	-23,21
767,39	-31,4
767,572	-45,74
767,753	122,2
767,935	-0,68
768,117	48,47
768,299	36,18
768,48	-49,83
768,662	17,75
768,844	-115,37
769,025	46,42
769,207	-29,35
769,389	-45,74
769,57	-15,02
769,752	60,76
769,933	-49,83
770,115	9,56
770,296	64,85
770,478	21,85
770,659	-17,07
770,841	204,11
771,022	15,7
771,204	40,28
771,385	-78,51
771,567	66,9
771,748	68,95
771,929	-21,16
772,111	-37,55
772,292	68,95
772,473	56,66
772,655	64,85
772,836	85,33
773,017	114
773,199	42,32
773,38	-17,07
773,561	13,65
773,742	-72,36
773,923	-33,45
774,105	97,62
774,286	89,43
774,467	-60,07
774,648	50,52
774,829	-8,87
775,01	-55,98
775,191	-47,79
775,372	-17,07
775,553	-25,26
775,734	-51,88
775,915	-70,31
776,096	-47,79
776,277	-17,07
776,458	-84,65
776,639	-82,6
776,82	64,85
777,001	-23,21
777,182	27,99
777,363	64,85
777,544	-37,55
777,725	116,05
777,906	-25,26
778,086	40,28
778,267	19,8
778,448	-31,4
778,629	-25,26
778,809	50,52
778,99	1,37
779,171	-4,78
779,352	-15,02
779,532	-88,75
779,713	-68,27
779,894	-25,26
780,074	122,2
780,255	-8,87
780,435	34,13
780,616	105,81
780,797	109,91
780,977	-25,26
781,158	-90,79
781,338	-6,83
781,519	-53,93
781,699	105,81
781,88	-78,51
782,06	73,04
782,241	-78,51
782,421	-47,79
782,601	83,28
782,782	83,28
782,962	64,85
783,142	-41,64
783,323	-8,87
783,503	34,13
783,683	23,89
783,864	42,32
784,044	19,8
784,224	40,28
784,404	25,94
784,585	81,24
784,765	-21,16
784,945	81,24
785,125	-19,11
785,305	-8,87
785,485	132,44
785,666	83,28
785,846	19,8
786,026	-23,21
786,206	-117,42
786,386	-33,45
786,566	-10,92
786,746	64,85
786,926	87,38
787,106	-41,64
787,286	-37,55
787,466	15,7
787,646	-29,35
787,826	-41,64
788,006	48,47
788,185	-17,07
788,365	-58,03
788,545	23,89
788,725	56,66
788,905	23,89
789,085	48,47
789,264	42,32
789,444	42,32
789,624	66,9
789,804	36,18
789,983	17,75
790,163	1,37
790,343	56,66
790,522	68,95
790,702	-23,21
790,882	-105,13
791,061	93,52
791,241	-58,03
791,42	-41,64
791,6	103,76
791,78	56,66
791,959	-72,36
792,139	17,75
792,318	-15,02
792,498	91,48
792,677	23,89
792,856	-49,83
793,036	-27,31
793,215	-25,26
793,395	42,32
793,574	-29,35
793,753	-0,68
793,933	124,24
794,112	-37,55
794,291	-0,68
794,471	58,71
794,65	30,04
794,829	23,89
795,008	40,28
795,188	32,08
795,367	-25,26
795,546	-55,98
795,725	23,89
795,904	-29,35
796,084	56,66
796,263	42,32
796,442	48,47
796,621	7,51
796,8	23,89
796,979	60,76
797,158	-31,4
797,337	-6,83
797,516	-0,68
797,695	34,13
797,874	91,48
798,053	52,56
798,232	50,52
798,411	15,7
798,59	-58,03
798,769	15,7
798,947	-107,18
799,126	15,7
799,305	3,41
799,484	15,7
799,663	-17,07
799,842	-33,45
800,02	32,08
800,199	-0,68
800,378	-25,26
800,557	-39,59
800,735	-47,79
800,914	-58,03
801,093	23,89
801,271	15,7
801,45	1,37
801,628	56,66
801,807	-58,03
801,986	1,37
802,164	-25,26
802,343	-98,99
802,521	-33,45
802,7	1,37
802,878	75,09
803,057	-0,68
803,235	-74,41
803,414	-12,97
803,592	-0,68
803,771	-39,59
803,949	-41,64
804,127	15,7
804,306	-0,68
804,484	42,32
804,662	-25,26
804,841	-58,03
805,019	-23,21
805,197	23,89
805,375	23,89
805,554	-17,07
805,732	27,99
805,91	-45,74
806,088	-64,17
806,266	-55,98
806,445	-103,08
806,623	48,47
806,801	64,85
806,979	54,61
807,157	40,28
807,335	-139,94
807,513	7,51
807,691	48,47
807,869	-37,55
808,047	1,37
808,225	-49,83
808,403	38,23
808,581	-4,78
808,759	175,44
808,937	-84,65
809,115	25,94
809,293	-4,78
809,471	32,08
809,649	-0,68
809,826	60,76
810,004	58,71
810,182	-94,89
810,36	-15,02
810,538	73,04
810,715	42,32
810,893	-74,41
811,071	-98,99
811,248	-21,16
811,426	52,56
811,604	97,62
811,781	60,76
811,959	-0,68
812,137	-8,87
812,314	15,7
812,492	-35,5
812,669	-12,97
812,847	-74,41
813,024	-72,36
813,202	17,75
813,379	-51,88
813,557	56,66
813,734	62,8
813,912	89,43
814,089	7,51
814,267	17,75
814,444	-6,83
814,621	34,13
814,799	-72,36
814,976	89,43
815,153	42,32
815,331	-17,07
815,508	-2,73
815,685	-47,79
815,862	56,66
816,04	-33,45
816,217	-39,59
816,394	40,28
816,571	-41,64
816,748	130,39
816,926	154,96
817,103	277,84
817,28	56,66
817,457	-33,45
817,634	118,1
817,811	-127,66
817,988	-41,64
818,165	-0,68
818,342	58,71
818,519	3,41
818,696	-66,22
818,873	-4,78
819,05	114
819,227	58,71
819,404	-41,64
819,581	-19,11
819,758	-70,31
819,934	77,14
820,111	-25,26
820,288	9,56
820,465	25,94
820,642	7,51
820,818	-17,07
820,995	-29,35
821,172	15,7
821,349	105,81
821,525	-49,83
821,702	46,42
821,879	-35,5
822,055	-6,83
822,232	15,7
822,409	-6,83
822,585	42,32
822,762	89,43
822,938	81,24
823,115	93,52
823,291	-72,36
823,468	148,82
823,644	-0,68
823,821	66,9
823,997	-105,13
824,174	-29,35
824,35	-41,64
824,527	15,7
824,703	7,51
824,879	-31,4
825,056	-45,74
825,232	56,66
825,408	-12,97
825,585	48,47
825,761	-6,83
825,937	-31,4
826,113	60,76
826,29	17,75
826,466	-86,7
826,642	339,28
826,818	-8,87
826,994	-78,51
827,17	-98,99
827,347	-148,14
827,523	-58,03
827,699	44,37
827,875	-33,45
828,051	9,56
828,227	-41,64
828,403	42,32
828,579	36,18
828,755	75,09
828,931	-80,55
829,107	40,28
829,283	128,34
829,459	-55,98
829,635	42,32
829,811	40,28
829,986	23,89
830,162	-33,45
830,338	-12,97
830,514	-62,12
830,69	7,51
830,865	48,47
831,041	32,08
831,217	7,51
831,393	-25,26
831,568	44,37
831,744	17,75
831,92	15,7
832,095	25,94
832,271	-47,79
832,447	9,56
832,622	-2,73
832,798	-8,87
832,973	48,47
833,149	66,9
833,325	-0,68
833,5	99,67
833,676	23,89
833,851	66,9
834,027	7,51
834,202	-62,12
834,377	83,28
834,553	32,08
834,728	60,76
834,904	-0,68
835,079	-45,74
835,254	34,13
835,43	1,37
835,605	-55,98
835,78	-90,79
835,955	19,8
836,131	36,18
836,306	-74,41
836,481	-25,26
836,656	-0,68
836,832	23,89
837,007	-62,12
837,182	9,56
837,357	34,13
837,532	-17,07
837,707	-41,64
837,882	15,7
838,057	56,66
838,232	75,09
838,407	-12,97
838,582	-86,7
838,757	-45,74
838,932	83,28
839,107	-29,35
839,282	-70,31
839,457	58,71
839,632	-15,02
839,807	44,37
839,982	-15,02
840,157	-66,22
840,332	19,8
840,506	-33,45
840,681	-74,41
840,856	73,04
841,031	-41,64
841,205	-8,87
841,38	-8,87
841,555	15,7
841,73	-21,16
841,904	-43,69
842,079	44,37
842,254	-45,74
842,428	-8,87
842,603	-33,45
842,777	-90,79
842,952	-47,79
843,126	-64,17
843,301	50,52
843,476	-45,74
843,65	-53,93
843,825	3,41
843,999	23,89
844,173	-60,07
844,348	7,51
844,522	-15,02
844,697	-17,07
844,871	9,56
845,045	11,61
845,22	40,28
845,394	17,75
845,568	-62,12
845,743	42,32
845,917	-0,68
846,091	48,47
846,265	3,41
846,44	34,13
846,614	91,48
846,788	1,37
846,962	44,37
847,136	23,89
847,31	13,65
847,485	138,58
847,659	-80,55
847,833	89,43
848,007	52,56
848,181	-12,97
848,355	-49,83
848,529	23,89
848,703	15,7
848,877	-23,21
849,051	42,32
849,225	-31,4
849,399	-8,87
849,573	-41,64
849,746	-45,74
849,92	-74,41
850,094	-8,87
850,268	-25,26
850,442	19,8
850,616	-86,7
850,789	34,13
850,963	-8,87
851,137	-76,46
851,311	75,09
851,484	122,2
851,658	7,51
851,832	-148,14
852,005	-17,07
852,179	-53,93
852,352	-76,46
852,526	-58,03
852,7	32,08
852,873	19,8
853,047	48,47
853,22	23,89
853,394	-4,78
853,567	17,75
853,741	-49,83
853,914	-41,64
854,088	134,48
854,261	-12,97
854,434	-123,56
854,608	-17,07
854,781	-8,87
854,955	-6,83
855,128	66,9
855,301	-45,74
855,475	66,9
855,648	-29,35
855,821	-0,68
855,994	27,99
856,168	7,51
856,341	-0,68
856,514	-90,79
856,687	-49,83
856,86	48,47
857,033	93,52
857,207	-0,68
857,38	-90,79
857,553	97,62
857,726	-6,83
857,899	64,85
858,072	1,37
858,245	32,08
858,418	3,41
858,591	-47,79
858,764	13,65
858,937	50,52
859,11	-8,87
859,283	46,42
859,455	-49,83
859,628	-6,83
859,801	1,37
859,974	91,48
860,147	-103,08
860,32	73,04
860,492	-49,83
860,665	-17,07
860,838	48,47
861,011	-72,36
861,183	36,18
861,356	114
861,529	36,18
861,701	-58,03
861,874	15,7
862,047	66,9
862,219	-12,97
862,392	17,75
862,564	-39,59
862,737	-62,12
862,909	64,85
863,082	-80,55
863,254	40,28
863,427	93,52
863,599	73,04
863,772	-66,22
863,944	7,51
864,117	-8,87
864,289	68,95
864,461	-39,59
864,634	-0,68
864,806	-68,27
864,978	36,18
865,151	-45,74
865,323	73,04
865,495	64,85
865,667	-51,88
865,84	103,76
866,012	17,75
866,184	40,28
866,356	-90,79
866,528	-35,5
866,7	-39,59
866,873	-60,07
867,045	-6,83
867,217	-135,85
867,389	32,08
867,561	-15,02
867,733	17,75
867,905	-33,45
868,077	-33,45
868,249	40,28
868,421	-31,4
868,593	-82,6
868,765	87,38
868,936	-86,7
869,108	64,85
869,28	66,9
869,452	-31,4
869,624	-62,12
869,796	-0,68
869,968	15,7
870,139	48,47
870,311	-23,21
870,483	58,71
870,654	9,56
870,826	7,51
870,998	-6,83
871,17	-0,68
871,341	-15,02
871,513	60,76
871,684	-111,27
871,856	40,28
872,028	-25,26
872,199	-55,98
872,371	-23,21
872,542	9,56
872,714	81,24
872,885	122,2
873,057	-15,02
873,228	36,18
873,4	77,14
873,571	21,85
873,742	-4,78
873,914	40,28
874,085	-41,64
874,256	-49,83
874,428	-74,41
874,599	-80,55
874,77	60,76
874,942	-23,21
875,113	-43,69
875,284	-82,6
875,455	-49,83
875,626	15,7
875,798	-58,03
875,969	-0,68
876,14	-23,21
876,311	-6,83
876,482	56,66
876,653	-41,64
876,824	44,37
876,995	62,8
877,166	7,51
877,337	-12,97
877,508	-23,21
877,679	-10,92
877,85	-41,64
878,021	-4,78
878,192	81,24
878,363	-25,26
878,534	-96,94
878,705	-105,13
878,876	-21,16
879,047	105,81
879,217	-62,12
879,388	-23,21
879,559	56,66
879,73	21,85
879,9	-49,83
880,071	13,65
880,242	52,56
880,413	15,7
880,583	-8,87
880,754	85,33
880,924	60,76
881,095	-129,7
881,266	-8,87
881,436	-0,68
881,607	48,47
881,777	58,71
881,948	-49,83
882,118	44,37
882,289	-37,55
882,459	-58,03
882,63	64,85
882,8	7,51
882,971	60,76
883,141	42,32
883,311	93,52
883,482	130,39
883,652	-17,07
883,822	-55,98
883,993	-98,99
884,163	32,08
884,333	11,61
884,504	15,7
884,674	66,9
884,844	-45,74
885,014	-47,79
885,184	-94,89
885,355	-98,99
885,525	-8,87
885,695	-25,26
885,865	81,24
886,035	38,23
886,205	9,56
886,375	81,24
886,545	-23,21
886,715	-25,26
886,885	-0,68
887,055	-88,75
887,225	23,89
887,395	-41,64
887,565	34,13
887,735	36,18
887,905	-31,4
888,075	-31,4
888,244	52,56
888,414	54,61
888,584	56,66
888,754	48,47
888,924	-37,55
889,093	191,83
889,263	-23,21
889,433	-33,45
889,603	56,66
889,772	-25,26
889,942	23,89
890,111	7,51
890,281	40,28
890,451	-53,93
890,62	64,85
890,79	64,85
890,959	23,89
891,129	-10,92
891,298	21,85
891,468	15,7
891,637	7,51
891,807	-70,31
891,976	19,8
892,146	-101,03
892,315	17,75
892,485	171,35
892,654	-72,36
892,823	-4,78
892,993	15,7
893,162	40,28
893,331	40,28
893,501	48,47
893,67	73,04
893,839	-58,03
894,008	3,41
894,177	11,61
894,347	-23,21
894,516	44,37
894,685	48,47
894,854	27,99
895,023	32,08
895,192	-17,07
