Data from he_USB4F104161__22__11-53-37-544.txt Node

Date: Tue Apr 14 11:53:37 EDT 2026
User: LaboPhy
Spectrometer: USB4F10416
Trigger mode: 4
Integration Time (sec): 1,000000E-1
Scans to average: 1
Electric dark correction enabled: true
Nonlinearity correction enabled: false
Boxcar width: 0
XAxis mode: Wavelengths
Number of Pixels in Spectrum: 3648
>>>>>Begin Spectral Data<<<<<
177,847	-228,01
178,066	-228,01
178,284	-228,01
178,502	-193,19
178,72	-144,04
178,939	58,71
179,157	32,08
179,375	19,8
179,593	77,14
179,812	19,8
180,03	9,56
180,248	-19,11
180,466	11,61
180,685	-41,64
180,903	-55,98
181,121	-105,13
181,339	-6,83
181,557	13,65
181,775	25,94
181,994	-55,98
182,212	-12,97
182,43	-21,16
182,648	25,94
182,866	66,9
183,084	91,48
183,302	-90,79
183,52	-94,89
183,739	50,52
183,957	83,28
184,175	-19,11
184,393	36,18
184,611	91,48
184,829	25,94
185,047	19,8
185,265	13,65
185,483	-29,35
185,701	36,18
185,919	40,28
186,137	25,94
186,355	-45,74
186,573	1,37
186,791	140,63
187,009	60,76
187,227	27,99
187,445	-27,31
187,663	-23,21
187,881	34,13
188,098	52,56
188,316	50,52
188,534	58,71
188,752	40,28
188,97	-6,83
189,188	1,37
189,406	85,33
189,624	48,47
189,841	54,61
190,059	-109,22
190,277	-47,79
190,495	9,56
190,713	103,76
190,931	148,82
191,148	27,99
191,366	9,56
191,584	-39,59
191,802	79,19
192,019	83,28
192,237	52,56
192,455	1,37
192,673	75,09
192,89	-35,5
193,108	-45,74
193,326	-53,93
193,543	48,47
193,761	-12,97
193,979	60,76
194,196	-29,35
194,414	13,65
194,632	66,9
194,849	-31,4
195,067	-64,17
195,285	25,94
195,502	-137,9
195,72	17,75
195,937	5,46
196,155	128,34
196,373	25,94
196,59	-23,21
196,808	-10,92
197,025	-0,68
197,243	218,45
197,46	13,65
197,678	62,8
197,895	44,37
198,113	-39,59
198,33	-90,79
198,548	13,65
198,765	34,13
198,983	71
199,2	7,51
199,418	58,71
199,635	-31,4
199,853	60,76
200,07	1,37
200,288	58,71
200,505	-23,21
200,722	23,89
200,94	9,56
201,157	30,04
201,375	114
201,592	-64,17
201,809	60,76
202,027	144,72
202,244	60,76
202,461	5,46
202,679	52,56
202,896	-72,36
203,113	-64,17
203,331	25,94
203,548	-15,02
203,765	42,32
203,982	30,04
204,2	3,41
204,417	-51,88
204,634	169,3
204,851	34,13
205,069	34,13
205,286	36,18
205,503	101,72
205,72	42,32
205,937	5,46
206,155	13,65
206,372	157,01
206,589	-47,79
206,806	36,18
207,023	9,56
207,24	-10,92
207,458	-78,51
207,675	-6,83
207,892	-6,83
208,109	1,37
208,326	11,61
208,543	11,61
208,76	-58,03
208,977	85,33
209,194	9,56
209,411	-15,02
209,628	-2,73
209,845	19,8
210,062	17,75
210,279	-55,98
210,496	-2,73
210,713	-35,5
210,93	5,46
211,147	124,24
211,364	9,56
211,581	-70,31
211,798	91,48
212,015	-70,31
212,232	9,56
212,449	-4,78
212,666	-31,4
212,883	-10,92
213,1	-39,59
213,317	-68,27
213,533	19,8
213,75	9,56
213,967	21,85
214,184	-76,46
214,401	3,41
214,618	-15,02
214,835	-55,98
215,051	32,08
215,268	85,33
215,485	-21,16
215,702	19,8
215,919	-78,51
216,135	111,96
216,352	-4,78
216,569	89,43
216,786	48,47
217,002	-70,31
217,219	66,9
217,436	17,75
217,652	-31,4
217,869	48,47
218,086	75,09
218,302	46,42
218,519	118,1
218,736	-39,59
218,952	46,42
219,169	97,62
219,386	42,32
219,602	7,51
219,819	-15,02
220,036	-21,16
220,252	134,48
220,469	36,18
220,685	44,37
220,902	34,13
221,118	68,95
221,335	-64,17
221,552	38,23
221,768	38,23
221,985	-49,83
222,201	-45,74
222,418	68,95
222,634	-12,97
222,851	-19,11
223,067	21,85
223,284	-12,97
223,5	-21,16
223,716	11,61
223,933	60,76
224,149	-10,92
224,366	-78,51
224,582	-68,27
224,799	17,75
225,015	-80,55
225,231	-12,97
225,448	36,18
225,664	25,94
225,88	-92,84
226,097	95,57
226,313	-12,97
226,529	1,37
226,746	-10,92
226,962	-23,21
227,178	-8,87
227,395	-41,64
227,611	-76,46
227,827	-6,83
228,044	54,61
228,26	101,72
228,476	-47,79
228,692	95,57
228,909	34,13
229,125	-47,79
229,341	-6,83
229,557	9,56
229,773	-41,64
229,99	54,61
230,206	-41,64
230,422	-29,35
230,638	-2,73
230,854	15,7
231,07	-170,66
231,286	142,68
231,503	75,09
231,719	-55,98
231,935	-19,11
232,151	-25,26
232,367	150,87
232,583	27,99
232,799	9,56
233,015	75,09
233,231	17,75
233,447	25,94
233,663	-33,45
233,879	-47,79
234,095	-80,55
234,311	3,41
234,527	1,37
234,743	-35,5
234,959	42,32
235,175	25,94
235,391	-47,79
235,607	44,37
235,823	1,37
236,039	-117,42
236,255	-43,69
236,471	-43,69
236,687	-66,22
236,903	58,71
237,118	1,37
237,334	-15,02
237,55	32,08
237,766	-80,55
237,982	75,09
238,198	50,52
238,413	-66,22
238,629	101,72
238,845	-39,59
239,061	-43,69
239,277	-47,79
239,492	-49,83
239,708	9,56
239,924	-23,21
240,14	-53,93
240,355	161,11
240,571	-4,78
240,787	21,85
241,003	60,76
241,218	25,94
241,434	-25,26
241,65	34,13
241,865	-27,31
242,081	109,91
242,297	-47,79
242,512	9,56
242,728	3,41
242,944	27,99
243,159	36,18
243,375	9,56
243,59	-6,83
243,806	-10,92
244,022	34,13
244,237	-17,07
244,453	118,1
244,668	-6,83
244,884	99,67
245,099	-156,33
245,315	95,57
245,53	60,76
245,746	54,61
245,961	25,94
246,177	77,14
246,392	181,59
246,608	5,46
246,823	-31,4
247,039	17,75
247,254	1,37
247,47	107,86
247,685	-25,26
247,9	19,8
248,116	-31,4
248,331	-2,73
248,547	13,65
248,762	-96,94
248,977	79,19
249,193	25,94
249,408	109,91
249,623	42,32
249,839	-23,21
250,054	-146,09
250,269	-15,02
250,485	54,61
250,7	1,37
250,915	-29,35
251,13	-39,59
251,346	27,99
251,561	52,56
251,776	91,48
251,991	-39,59
252,207	99,67
252,422	1,37
252,637	-21,16
252,852	-31,4
253,067	93,52
253,283	46,42
253,498	66,9
253,713	-35,5
253,928	-19,11
254,143	-35,5
254,358	58,71
254,573	-88,75
254,788	-15,02
255,004	60,76
255,219	-19,11
255,434	-4,78
255,649	-19,11
255,864	46,42
256,079	-47,79
256,294	-10,92
256,509	-12,97
256,724	19,8
256,939	-60,07
257,154	-6,83
257,369	13,65
257,584	111,96
257,799	-55,98
258,014	-10,92
258,229	34,13
258,444	27,99
258,659	-53,93
258,874	111,96
259,089	-31,4
259,304	9,56
259,518	-15,02
259,733	60,76
259,948	34,13
260,163	64,85
260,378	152,91
260,593	-15,02
260,808	124,24
261,022	-80,55
261,237	42,32
261,452	-33,45
261,667	25,94
261,882	-17,07
262,096	52,56
262,311	71
262,526	-23,21
262,741	-29,35
262,955	-47,79
263,17	77,14
263,385	36,18
263,6	-39,59
263,814	-119,46
264,029	-60,07
264,244	-10,92
264,458	27,99
264,673	46,42
264,888	25,94
265,102	9,56
265,317	9,56
265,532	-4,78
265,746	50,52
265,961	83,28
266,175	64,85
266,39	21,85
266,605	-33,45
266,819	109,91
267,034	42,32
267,248	-23,21
267,463	34,13
267,677	-4,78
267,892	44,37
268,106	-88,75
268,321	58,71
268,535	48,47
268,75	136,53
268,964	1,37
269,179	58,71
269,393	36,18
269,608	36,18
269,822	-31,4
270,036	-96,94
270,251	-47,79
270,465	66,9
270,68	-10,92
270,894	13,65
271,108	111,96
271,323	50,52
271,537	-29,35
271,752	118,1
271,966	77,14
272,18	-76,46
272,394	-43,69
272,609	-15,02
272,823	-21,16
273,037	5,46
273,252	-2,73
273,466	25,94
273,68	124,24
273,894	21,85
274,109	-6,83
274,323	5,46
274,537	97,62
274,751	-43,69
274,966	58,71
275,18	-27,31
275,394	25,94
275,608	-35,5
275,822	-121,51
276,036	1,37
276,25	9,56
276,465	17,75
276,679	-12,97
276,893	-55,98
277,107	50,52
277,321	-70,31
277,535	34,13
277,749	91,48
277,963	-29,35
278,177	-133,8
278,391	97,62
278,605	-37,55
278,819	21,85
279,033	-62,12
279,247	1,37
279,461	27,99
279,675	-45,74
279,889	68,95
280,103	25,94
280,317	66,9
280,531	-94,89
280,745	25,94
280,959	-66,22
281,173	34,13
281,387	95,57
281,601	99,67
281,815	109,91
282,029	-72,36
282,242	-12,97
282,456	-55,98
282,67	99,67
282,884	-31,4
283,098	3,41
283,312	-94,89
283,525	27,99
283,739	-84,65
283,953	-6,83
284,167	38,23
284,381	-55,98
284,594	21,85
284,808	-76,46
285,022	1,37
285,235	-23,21
285,449	42,32
285,663	19,8
285,877	-47,79
286,09	-2,73
286,304	-4,78
286,518	-10,92
286,731	-17,07
286,945	-4,78
287,159	-103,08
287,372	25,94
287,586	71
287,799	-88,75
288,013	-62,12
288,227	1,37
288,44	208,21
288,654	68,95
288,867	-76,46
289,081	34,13
289,294	9,56
289,508	56,66
289,721	-62,12
289,935	-23,21
290,148	36,18
290,362	50,52
290,575	58,71
290,789	-86,7
291,002	-55,98
291,216	-29,35
291,429	-31,4
291,643	32,08
291,856	-4,78
292,069	-55,98
292,283	-6,83
292,496	23,89
292,71	-37,55
292,923	-10,92
293,136	-47,79
293,35	21,85
293,563	13,65
293,776	3,41
293,99	11,61
294,203	17,75
294,416	-64,17
294,63	25,94
294,843	3,41
295,056	50,52
295,269	-15,02
295,483	-60,07
295,696	-15,02
295,909	32,08
296,122	13,65
296,335	5,46
296,549	1,37
296,762	-6,83
296,975	42,32
297,188	17,75
297,401	71
297,615	42,32
297,828	-62,12
298,041	109,91
298,254	-127,66
298,467	-6,83
298,68	-53,93
298,893	1,37
299,106	-27,31
299,319	83,28
299,532	124,24
299,745	-21,16
299,958	-6,83
300,171	-27,31
300,384	-39,59
300,598	-111,27
300,81	13,65
301,023	-80,55
301,236	-51,88
301,449	11,61
301,662	-76,46
301,875	-4,78
302,088	60,76
302,301	13,65
302,514	-4,78
302,727	1,37
302,94	-29,35
303,153	-0,68
303,366	34,13
303,579	-70,31
303,791	66,9
304,004	-88,75
304,217	50,52
304,43	19,8
304,643	27,99
304,855	-35,5
305,068	9,56
305,281	44,37
305,494	-43,69
305,707	-84,65
305,919	66,9
306,132	3,41
306,345	1,37
306,558	1,37
306,77	-92,84
306,983	42,32
307,196	42,32
307,408	32,08
307,621	3,41
307,834	13,65
308,046	-15,02
308,259	-111,27
308,472	1,37
308,684	44,37
308,897	-12,97
309,109	-21,16
309,322	-68,27
309,535	-10,92
309,747	148,82
309,96	66,9
310,172	79,19
310,385	66,9
310,597	-76,46
310,81	17,75
311,022	-4,78
311,235	-37,55
311,447	-23,21
311,66	-47,79
311,872	75,09
312,085	-10,92
312,297	-29,35
312,51	-96,94
312,722	-82,6
312,934	9,56
313,147	5,46
313,359	91,48
313,572	-64,17
313,784	-6,83
313,996	-10,92
314,209	85,33
314,421	25,94
314,633	-92,84
314,846	-49,83
315,058	46,42
315,27	-43,69
315,483	9,56
315,695	23,89
315,907	-2,73
316,119	-43,69
316,332	-19,11
316,544	93,52
316,756	83,28
316,968	93,52
317,181	-33,45
317,393	99,67
317,605	-105,13
317,817	21,85
318,029	109,91
318,241	89,43
318,454	157,01
318,666	91,48
318,878	-15,02
319,09	38,23
319,302	140,63
319,514	85,33
319,726	85,33
319,938	62,8
320,15	118,1
320,362	25,94
320,574	-6,83
320,786	-37,55
320,999	-6,83
321,211	87,38
321,423	-4,78
321,635	-76,46
321,847	19,8
322,058	-29,35
322,27	87,38
322,482	56,66
322,694	99,67
322,906	-33,45
323,118	9,56
323,33	107,86
323,542	79,19
323,754	-41,64
323,966	-133,8
324,178	-19,11
324,389	-15,02
324,601	17,75
324,813	62,8
325,025	13,65
325,237	34,13
325,449	48,47
325,66	25,94
325,872	-37,55
326,084	-39,59
326,296	-35,5
326,507	-66,22
326,719	-4,78
326,931	-80,55
327,143	-12,97
327,354	157,01
327,566	17,75
327,778	19,8
327,989	30,04
328,201	-41,64
328,413	34,13
328,624	-4,78
328,836	-43,69
329,048	-121,51
329,259	-47,79
329,471	56,66
329,682	-45,74
329,894	-29,35
330,106	-62,12
330,317	-66,22
330,529	11,61
330,74	-45,74
330,952	7,51
331,163	-23,21
331,375	50,52
331,586	-37,55
331,798	-111,27
332,009	-31,4
332,221	109,91
332,432	91,48
332,644	-6,83
332,855	-39,59
333,067	17,75
333,278	-33,45
333,489	66,9
333,701	-133,8
333,912	-17,07
334,124	38,23
334,335	-64,17
334,546	1,37
334,758	-23,21
334,969	214,35
335,18	1,37
335,392	-39,59
335,603	77,14
335,814	1,37
336,025	-15,02
336,237	-58,03
336,448	-94,89
336,659	30,04
336,87	83,28
337,082	197,97
337,293	-51,88
337,504	85,33
337,715	5,46
337,926	42,32
338,138	-2,73
338,349	50,52
338,56	42,32
338,771	-6,83
338,982	-37,55
339,193	-29,35
339,404	11,61
339,616	9,56
339,827	-4,78
340,038	-47,79
340,249	36,18
340,46	-31,4
340,671	25,94
340,882	124,24
341,093	-47,79
341,304	-35,5
341,515	3,41
341,726	19,8
341,937	-25,26
342,148	-27,31
342,359	-29,35
342,57	66,9
342,781	-10,92
342,992	1,37
343,203	-64,17
343,414	19,8
343,624	-53,93
343,835	-43,69
344,046	-27,31
344,257	-29,35
344,468	42,32
344,679	-2,73
344,89	19,8
345,1	-29,35
345,311	-35,5
345,522	-19,11
345,733	-6,83
345,944	34,13
346,154	-6,83
346,365	85,33
346,576	9,56
346,787	-55,98
346,997	60,76
347,208	66,9
347,419	-88,75
347,629	68,95
347,84	17,75
348,051	-109,22
348,261	-15,02
348,472	-94,89
348,683	27,99
348,893	-29,35
349,104	56,66
349,315	7,51
349,525	-6,83
349,736	27,99
349,946	-60,07
350,157	52,56
350,368	50,52
350,578	9,56
350,789	34,13
350,999	-86,7
351,21	-8,87
351,42	-12,97
351,631	-37,55
351,841	-88,75
352,052	-29,35
352,262	58,71
352,472	-45,74
352,683	9,56
352,893	46,42
353,104	38,23
353,314	17,75
353,525	476,49
353,735	42,32
353,945	-39,59
354,156	-64,17
354,366	126,29
354,576	181,59
354,787	3,41
354,997	5,46
355,207	-88,75
355,418	-43,69
355,628	-80,55
355,838	-4,78
356,048	-31,4
356,259	79,19
356,469	83,28
356,679	-4,78
356,889	56,66
357,1	-70,31
357,31	-29,35
357,52	25,94
357,73	-72,36
357,94	-39,59
358,15	-47,79
358,361	25,94
358,571	3,41
358,781	42,32
358,991	-72,36
359,201	-2,73
359,411	-55,98
359,621	-37,55
359,831	36,18
360,041	77,14
360,251	-35,5
360,461	83,28
360,672	-29,35
360,882	-41,64
361,092	17,75
361,302	-4,78
361,512	44,37
361,721	-23,21
361,931	124,24
362,141	19,8
362,351	-31,4
362,561	99,67
362,771	-8,87
362,981	46,42
363,191	-121,51
363,401	-19,11
363,611	1,37
363,821	-96,94
364,03	-96,94
364,24	50,52
364,45	5,46
364,66	290,13
364,87	-23,21
365,08	77,14
365,289	-37,55
365,499	-6,83
365,709	157,01
365,919	-6,83
366,128	9,56
366,338	73,04
366,548	15,7
366,758	-64,17
366,967	19,8
367,177	-33,45
367,387	75,09
367,596	19,8
367,806	-60,07
368,016	27,99
368,225	-45,74
368,435	77,14
368,644	5,46
368,854	23,89
369,064	25,94
369,273	71
369,483	-23,21
369,692	3,41
369,902	-64,17
370,111	21,85
370,321	36,18
370,53	-80,55
370,74	-55,98
370,949	21,85
371,159	-19,11
371,368	34,13
371,578	34,13
371,787	-8,87
371,997	17,75
372,206	87,38
372,416	111,96
372,625	17,75
372,834	34,13
373,044	25,94
373,253	52,56
373,462	83,28
373,672	17,75
373,881	-6,83
374,09	83,28
374,3	-12,97
374,509	-15,02
374,718	5,46
374,928	58,71
375,137	66,9
375,346	-39,59
375,555	159,06
375,765	-39,59
375,974	42,32
376,183	58,71
376,392	-62,12
376,601	60,76
376,811	52,56
377,02	116,05
377,229	38,23
377,438	52,56
377,647	-19,11
377,856	-88,75
378,065	-37,55
378,275	-55,98
378,484	-47,79
378,693	-8,87
378,902	21,85
379,111	46,42
379,32	-60,07
379,529	-31,4
379,738	-6,83
379,947	-53,93
380,156	42,32
380,365	-41,64
380,574	99,67
380,783	42,32
380,992	38,23
381,201	42,32
381,41	25,94
381,619	116,05
381,828	-29,35
382,037	-29,35
382,245	183,63
382,454	185,68
382,663	87,38
382,872	42,32
383,081	-19,11
383,29	128,34
383,499	-43,69
383,707	83,28
383,916	173,39
384,125	95,57
384,334	-6,83
384,542	132,44
384,751	38,23
384,96	17,75
385,169	-10,92
385,377	-29,35
385,586	44,37
385,795	120,15
386,004	107,86
386,212	34,13
386,421	79,19
386,63	329,04
386,838	785,74
387,047	1148,23
387,255	2008,37
387,464	2630,96
387,673	3681,57
387,881	4752,65
388,09	5907,71
388,298	6540,53
388,507	8176,86
388,715	9860,29
388,924	10929,33
389,133	10243,26
389,341	10101,95
389,55	8692,94
389,758	6448,37
389,967	4457,75
390,175	2815,27
390,383	2329,91
390,592	1695,04
390,8	1090,88
391,009	730,44
391,217	484,69
391,426	308,56
391,634	107,86
391,842	146,77
392,051	73,04
392,259	148,82
392,467	79,19
392,676	-12,97
392,884	-70,31
393,092	85,33
393,301	66,9
393,509	-29,35
393,717	109,91
393,925	-64,17
394,134	-2,73
394,342	89,43
394,55	68,95
394,758	58,71
394,967	27,99
395,175	5,46
395,383	73,04
395,591	44,37
395,799	165,2
396,007	87,38
396,216	269,65
396,424	195,92
396,632	212,31
396,84	124,24
397,048	189,78
397,256	204,11
397,464	85,33
397,672	34,13
397,88	62,8
398,088	85,33
398,296	-27,31
398,504	-15,02
398,712	77,14
398,92	107,86
399,128	-51,88
399,336	19,8
399,544	27,99
399,752	-51,88
399,96	3,41
400,168	-39,59
400,376	-49,83
400,584	-2,73
400,792	42,32
401	-10,92
401,207	19,8
401,415	99,67
401,623	142,68
401,831	222,55
402,039	243,03
402,247	281,94
402,454	494,93
402,662	306,51
402,87	396,62
403,078	472,4
403,285	468,3
403,493	251,22
403,701	173,39
403,909	165,2
404,116	159,06
404,324	46,42
404,532	77,14
404,739	-0,68
404,947	1,37
405,155	36,18
405,362	27,99
405,57	-15,02
405,778	9,56
405,985	46,42
406,193	17,75
406,4	-49,83
406,608	9,56
406,816	11,61
407,023	75,09
407,231	-23,21
407,438	3,41
407,646	-4,78
407,853	32,08
408,061	-15,02
408,268	99,67
408,476	3,41
408,683	87,38
408,89	36,18
409,098	34,13
409,305	3,41
409,513	3,41
409,72	-29,35
409,927	71
410,135	91,48
410,342	-70,31
410,55	97,62
410,757	25,94
410,964	-68,27
411,172	52,56
411,379	83,28
411,586	71
411,793	-0,68
412,001	-19,11
412,208	126,29
412,415	140,63
412,622	116,05
412,83	-29,35
413,037	34,13
413,244	-37,55
413,451	25,94
413,658	132,44
413,866	30,04
414,073	50,52
414,28	99,67
414,487	-10,92
414,694	50,52
414,901	34,13
415,108	54,61
415,315	-15,02
415,522	21,85
415,73	87,38
415,937	-43,69
416,144	-37,55
416,351	-27,31
416,558	-33,45
416,765	-21,16
416,972	27,99
417,179	1,37
417,386	44,37
417,593	44,37
417,8	-2,73
418,006	71
418,213	17,75
418,42	46,42
418,627	107,86
418,834	9,56
419,041	-43,69
419,248	-6,83
419,455	1,37
419,661	40,28
419,868	-23,21
420,075	42,32
420,282	-68,27
420,489	-31,4
420,696	19,8
420,902	42,32
421,109	75,09
421,316	3,41
421,523	75,09
421,729	83,28
421,936	-6,83
422,143	66,9
422,349	-2,73
422,556	11,61
422,763	42,32
422,969	-51,88
423,176	-125,61
423,383	124,24
423,589	240,98
423,796	-29,35
424,002	3,41
424,209	-15,02
424,416	99,67
424,622	-113,32
424,829	13,65
425,035	36,18
425,242	19,8
425,448	5,46
425,655	79,19
425,861	-2,73
426,068	11,61
426,274	60,76
426,481	-72,36
426,687	44,37
426,894	7,51
427,1	-27,31
427,306	-70,31
427,513	36,18
427,719	-15,02
427,926	-6,83
428,132	50,52
428,338	-51,88
428,545	27,99
428,751	-37,55
428,957	23,89
429,163	-12,97
429,37	34,13
429,576	38,23
429,782	40,28
429,989	-6,83
430,195	60,76
430,401	11,61
430,607	-29,35
430,813	-23,21
431,02	25,94
431,226	124,24
431,432	-6,83
431,638	9,56
431,844	-53,93
432,05	-76,46
432,257	1,37
432,463	19,8
432,669	75,09
432,875	-12,97
433,081	-162,47
433,287	5,46
433,493	-55,98
433,699	79,19
433,905	13,65
434,111	-45,74
434,317	-17,07
434,523	52,56
434,729	32,08
434,935	-47,79
435,141	99,67
435,347	-10,92
435,553	-23,21
435,759	-60,07
435,965	-23,21
436,171	-6,83
436,377	95,57
436,582	19,8
436,788	-23,21
436,994	120,15
437,2	46,42
437,406	-29,35
437,612	85,33
437,818	75,09
438,023	5,46
438,229	185,68
438,435	150,87
438,641	116,05
438,846	58,71
439,052	150,87
439,258	177,49
439,464	99,67
439,669	87,38
439,875	226,64
440,081	34,13
440,286	-0,68
440,492	1,37
440,698	11,61
440,903	-0,68
441,109	34,13
441,314	-125,61
441,52	-12,97
441,726	75,09
441,931	25,94
442,137	50,52
442,342	-2,73
442,548	50,52
442,753	66,9
442,959	-70,31
443,164	9,56
443,37	-4,78
443,575	-12,97
443,781	9,56
443,986	87,38
444,192	-33,45
444,397	25,94
444,602	-39,59
444,808	46,42
445,013	46,42
445,219	200,02
445,424	484,69
445,629	673,1
445,835	1033,54
446,04	1201,48
446,245	1576,25
446,451	1813,82
446,656	2131,25
446,861	2532,65
447,066	3077,41
447,272	3390,75
447,477	3400,99
447,682	3163,43
447,887	2444,59
448,093	2106,68
448,298	1756,47
448,503	1017,16
448,708	681,29
448,913	443,73
449,118	359,76
449,324	218,45
449,529	222,55
449,734	62,8
449,939	-43,69
450,144	101,72
450,349	66,9
450,554	-70,31
450,759	68,95
450,964	-12,97
451,169	19,8
451,374	-21,16
451,579	5,46
451,784	52,56
451,989	-23,21
452,194	19,8
452,399	44,37
452,604	-55,98
452,809	-31,4
453,014	5,46
453,219	54,61
453,424	109,91
453,629	-55,98
453,833	-53,93
454,038	11,61
454,243	21,85
454,448	42,32
454,653	-6,83
454,858	50,52
455,062	-45,74
455,267	-51,88
455,472	122,2
455,677	-39,59
455,882	-10,92
456,086	68,95
456,291	19,8
456,496	-4,78
456,7	44,37
456,905	9,56
457,11	68,95
457,314	-64,17
457,519	-15,02
457,724	-29,35
457,928	-41,64
458,133	-39,59
458,338	-19,11
458,542	17,75
458,747	-31,4
458,951	38,23
459,156	36,18
459,36	-39,59
459,565	54,61
459,769	19,8
459,974	75,09
460,178	52,56
460,383	-35,5
460,587	73,04
460,792	15,7
460,996	-15,02
461,201	-37,55
461,405	-78,51
461,61	17,75
461,814	-2,73
462,018	-23,21
462,223	-2,73
462,427	11,61
462,631	-23,21
462,836	-6,83
463,04	-47,79
463,244	48,47
463,449	-64,17
463,653	148,82
463,857	-47,79
464,062	38,23
464,266	1,37
464,47	-6,83
464,674	-23,21
464,878	50,52
465,083	83,28
465,287	105,81
465,491	-10,92
465,695	23,89
465,899	25,94
466,104	-15,02
466,308	1,37
466,512	36,18
466,716	-4,78
466,92	50,52
467,124	66,9
467,328	50,52
467,532	34,13
467,736	-15,02
467,94	-12,97
468,144	-15,02
468,348	13,65
468,552	132,44
468,756	66,9
468,96	25,94
469,164	-101,03
469,368	99,67
469,572	77,14
469,776	249,17
469,98	230,74
470,184	298,32
470,388	410,96
470,591	492,88
470,795	607,56
470,999	724,3
471,203	746,83
471,407	791,88
471,611	765,26
471,814	714,06
472,018	615,76
472,222	681,29
472,426	466,25
472,63	326,99
472,833	230,74
473,037	216,4
473,241	75,09
473,444	144,72
473,648	544,08
473,852	-15,02
474,055	11,61
474,259	17,75
474,463	56,66
474,666	-12,97
474,87	-4,78
475,074	-4,78
475,277	3,41
475,481	17,75
475,684	-64,17
475,888	3,41
476,091	-45,74
476,295	-39,59
476,498	-60,07
476,702	25,94
476,905	58,71
477,109	50,52
477,312	-23,21
477,516	-129,7
477,719	15,7
477,923	-37,55
478,126	19,8
478,329	-15,02
478,533	-15,02
478,736	107,86
478,94	60,76
479,143	-35,5
479,346	25,94
479,55	60,76
479,753	-88,75
479,956	-43,69
480,159	-70,31
480,363	77,14
480,566	34,13
480,769	-39,59
480,972	66,9
481,176	52,56
481,379	62,8
481,582	19,8
481,785	-29,35
481,988	32,08
482,192	107,86
482,395	-47,79
482,598	-113,32
482,801	11,61
483,004	95,57
483,207	-2,73
483,41	97,62
483,613	27,99
483,817	58,71
484,02	9,56
484,223	-31,4
484,426	-0,68
484,629	-29,35
484,832	111,96
485,035	-21,16
485,238	66,9
485,441	15,7
485,644	48,47
485,846	27,99
486,049	34,13
486,252	-2,73
486,455	-76,46
486,658	-31,4
486,861	140,63
487,064	42,32
487,267	21,85
487,47	58,71
487,672	-0,68
487,875	36,18
488,078	46,42
488,281	122,2
488,484	1,37
488,686	-23,21
488,889	21,85
489,092	-15,02
489,295	-43,69
489,497	83,28
489,7	-25,26
489,903	27,99
490,105	-84,65
490,308	109,91
490,511	255,31
490,713	249,17
490,916	406,86
491,118	525,65
491,321	677,19
491,524	886,09
491,726	1002,82
491,929	1185,09
492,131	1393,98
492,334	1414,46
492,536	1492,29
492,739	1291,59
492,941	1269,06
493,144	1082,69
493,346	896,33
493,549	578,89
493,751	423,25
493,954	355,66
494,156	218,45
494,359	152,91
494,561	44,37
494,763	38,23
494,966	64,85
495,168	60,76
495,37	-31,4
495,573	-6,83
495,775	66,9
495,977	1,37
496,18	66,9
496,382	77,14
496,584	1,37
496,787	52,56
496,989	-0,68
497,191	13,65
497,393	79,19
497,595	1,37
497,798	-31,4
498	-27,31
498,202	91,48
498,404	-29,35
498,606	9,56
498,808	42,32
499,011	60,76
499,213	-15,02
499,415	25,94
499,617	288,08
499,819	441,68
500,021	894,28
500,223	1262,91
500,425	1625,4
500,627	2237,75
500,829	2858,28
501,031	3366,18
501,233	3728,67
501,435	4533,52
501,637	4850,96
501,839	4769,04
502,041	4758,8
502,243	4424,98
502,445	3855,64
502,647	3249,44
502,848	2417,97
503,05	1877,3
503,252	1381,7
503,454	910,66
503,656	675,15
503,858	423,25
504,059	234,83
504,261	347,47
504,463	281,94
504,665	269,65
504,867	206,16
505,068	292,18
505,27	189,78
505,472	273,75
505,673	218,45
505,875	87,38
506,077	148,82
506,278	173,39
506,48	44,37
506,682	66,9
506,883	-21,16
507,085	34,13
507,287	-23,21
507,488	52,56
507,69	30,04
507,891	-55,98
508,093	146,77
508,294	-15,02
508,496	-80,55
508,697	-64,17
508,899	9,56
509,1	54,61
509,302	75,09
509,503	1,37
509,705	-6,83
509,906	71
510,108	-27,31
510,309	58,71
510,51	44,37
510,712	-62,12
510,913	-55,98
511,114	17,75
511,316	-133,8
511,517	25,94
511,718	17,75
511,92	79,19
512,121	-29,35
512,322	-23,21
512,524	54,61
512,725	9,56
512,926	62,8
513,127	21,85
513,329	19,8
513,53	-25,26
513,731	-15,02
513,932	-23,21
514,133	9,56
514,334	-6,83
514,536	68,95
514,737	118,1
514,938	27,99
515,139	79,19
515,34	-78,51
515,541	87,38
515,742	-64,17
515,943	21,85
516,144	17,75
516,345	9,56
516,546	38,23
516,747	66,9
516,948	-21,16
517,149	-103,08
517,35	-37,55
517,551	11,61
517,752	-31,4
517,953	91,48
518,154	66,9
518,355	30,04
518,556	-43,69
518,756	42,32
518,957	-19,11
519,158	85,33
519,359	44,37
519,56	50,52
519,761	17,75
519,961	79,19
520,162	144,72
520,363	-31,4
520,564	42,32
520,764	77,14
520,965	17,75
521,166	66,9
521,366	-31,4
521,567	-21,16
521,768	44,37
521,968	27,99
522,169	58,71
522,37	-12,97
522,57	-8,87
522,771	17,75
522,972	-49,83
523,172	222,55
523,373	-2,73
523,573	-6,83
523,774	-62,12
523,974	126,29
524,175	19,8
524,375	3,41
524,576	34,13
524,776	30,04
524,977	1,37
525,177	79,19
525,378	-55,98
525,578	128,34
525,778	25,94
525,979	25,94
526,179	11,61
526,38	-47,79
526,58	-64,17
526,78	1,37
526,981	58,71
527,181	38,23
527,381	-47,79
527,582	30,04
527,782	40,28
527,982	-31,4
528,182	30,04
528,383	36,18
528,583	9,56
528,783	-10,92
528,983	25,94
529,183	21,85
529,384	36,18
529,584	130,39
529,784	132,44
529,984	44,37
530,184	-60,07
530,384	-6,83
530,584	-64,17
530,784	38,23
530,984	11,61
531,185	71
531,385	44,37
531,585	40,28
531,785	-10,92
531,985	-2,73
532,185	-0,68
532,385	-23,21
532,585	15,7
532,785	-15,02
532,984	50,52
533,184	73,04
533,384	75,09
533,584	-86,7
533,784	118,1
533,984	5,46
534,184	-55,98
534,384	-43,69
534,583	40,28
534,783	-51,88
534,983	15,7
535,183	-76,46
535,383	-84,65
535,582	48,47
535,782	-10,92
535,982	142,68
536,182	-31,4
536,381	-35,5
536,581	-39,59
536,781	58,71
536,98	56,66
537,18	-2,73
537,38	62,8
537,579	21,85
537,779	-2,73
537,979	77,14
538,178	27,99
538,378	9,56
538,577	17,75
538,777	54,61
538,976	-45,74
539,176	-10,92
539,376	30,04
539,575	5,46
539,774	19,8
539,974	-23,21
540,173	9,56
540,373	66,9
540,572	-29,35
540,772	62,8
540,971	-15,02
541,171	30,04
541,37	-6,83
541,569	23,89
541,769	-21,16
541,968	-2,73
542,167	60,76
542,367	77,14
542,566	-23,21
542,765	-60,07
542,965	-12,97
543,164	5,46
543,363	-27,31
543,562	-6,83
543,761	56,66
543,961	101,72
544,16	-144,04
544,359	138,58
544,558	54,61
544,757	25,94
544,957	34,13
545,156	36,18
545,355	-58,03
545,554	-60,07
545,753	-49,83
545,952	19,8
546,151	50,52
546,35	25,94
546,549	62,8
546,748	91,48
546,947	-23,21
547,146	-39,59
547,345	44,37
547,544	-35,5
547,743	-49,83
547,942	64,85
548,141	17,75
548,34	-27,31
548,539	-45,74
548,738	-62,12
548,937	9,56
549,135	40,28
549,334	-76,46
549,533	42,32
549,732	27,99
549,931	68,95
550,13	-21,16
550,328	50,52
550,527	-12,97
550,726	11,61
550,925	-33,45
551,123	9,56
551,322	-45,74
551,521	1,37
551,72	-23,21
551,918	52,56
552,117	116,05
552,315	-4,78
552,514	5,46
552,713	17,75
552,911	-51,88
553,11	-96,94
553,309	7,51
553,507	-31,4
553,706	-47,79
553,904	11,61
554,103	36,18
554,301	66,9
554,5	-15,02
554,698	9,56
554,897	34,13
555,095	25,94
555,294	-80,55
555,492	17,75
555,69	68,95
555,889	-80,55
556,087	66,9
556,286	107,86
556,484	25,94
556,682	-0,68
556,881	-23,21
557,079	11,61
557,277	62,8
557,476	25,94
557,674	30,04
557,872	77,14
558,07	5,46
558,269	-29,35
558,467	34,13
558,665	116,05
558,863	1,37
559,062	126,29
559,26	101,72
559,458	-47,79
559,656	107,86
559,854	30,04
560,052	21,85
560,25	-37,55
560,449	283,99
560,647	34,13
560,845	-12,97
561,043	52,56
561,241	95,57
561,439	124,24
561,637	17,75
561,835	107,86
562,033	77,14
562,231	-15,02
562,429	-6,83
562,627	85,33
562,825	-21,16
563,023	95,57
563,221	21,85
563,418	99,67
563,616	85,33
563,814	109,91
564,012	46,42
564,21	40,28
564,408	30,04
564,605	-4,78
564,803	-37,55
565,001	357,71
565,199	-154,28
565,397	3,41
565,594	177,49
565,792	58,71
565,99	42,32
566,188	19,8
566,385	73,04
566,583	19,8
566,781	91,48
566,978	71
567,176	118,1
567,373	140,63
567,571	91,48
567,769	46,42
567,966	-62,12
568,164	75,09
568,361	-78,51
568,559	73,04
568,756	-39,59
568,954	68,95
569,151	83,28
569,349	97,62
569,546	-2,73
569,744	103,76
569,941	71
570,139	75,09
570,336	-4,78
570,534	116,05
570,731	-12,97
570,928	30,04
571,126	136,53
571,323	71
571,52	124,24
571,718	134,48
571,915	83,28
572,112	19,8
572,31	85,33
572,507	75,09
572,704	130,39
572,901	93,52
573,099	93,52
573,296	111,96
573,493	50,52
573,69	34,13
573,887	60,76
574,085	91,48
574,282	83,28
574,479	107,86
574,676	101,72
574,873	50,52
575,07	101,72
575,267	-23,21
575,464	79,19
575,661	140,63
575,858	11,61
576,055	46,42
576,252	99,67
576,449	38,23
576,646	83,28
576,843	54,61
577,04	107,86
577,237	167,25
577,434	83,28
577,631	-12,97
577,828	132,44
578,025	11,61
578,222	60,76
578,419	19,8
578,615	11,61
578,812	19,8
579,009	60,76
579,206	97,62
579,403	13,65
579,599	181,59
579,796	36,18
579,993	130,39
580,19	103,76
580,386	25,94
580,583	136,53
580,78	87,38
580,976	95,57
581,173	52,56
581,37	109,91
581,566	118,1
581,763	91,48
581,96	77,14
582,156	116,05
582,353	183,63
582,549	189,78
582,746	169,3
582,942	109,91
583,139	132,44
583,335	132,44
583,532	230,74
583,728	150,87
583,925	142,68
584,121	132,44
584,318	210,26
584,514	271,7
584,711	238,93
584,907	253,27
585,103	243,03
585,3	324,94
585,496	466,25
585,693	1064,26
585,889	3697,95
586,085	8195,29
586,281	14128,25
586,478	21566,48
586,674	28769,18
586,87	37477,15
587,067	45752,99
587,263	51487,3
587,459	54917,65
587,655	58190,3
587,851	58829,27
588,048	58100,19
588,244	54546,96
588,44	51386,95
588,636	45279,91
588,832	38810,37
589,028	32230,25
589,224	26039,24
589,42	20687,9
589,617	15240,3
589,813	9905,34
590,009	5944,57
590,205	3826,97
590,401	2393,39
590,597	1551,68
590,793	1025,35
590,989	755,02
591,185	544,08
591,38	505,17
591,576	365,9
591,772	257,36
591,968	290,13
592,164	298,32
592,36	173,39
592,556	114
592,752	263,51
592,948	173,39
593,143	99,67
593,339	75,09
593,535	124,24
593,731	116,05
593,926	173,39
594,122	99,67
594,318	120,15
594,514	197,97
594,709	34,13
594,905	-4,78
595,101	77,14
595,296	62,8
595,492	140,63
595,688	36,18
595,883	159,06
596,079	132,44
596,275	52,56
596,47	99,67
596,666	50,52
596,861	107,86
597,057	87,38
597,252	-19,11
597,448	83,28
597,643	120,15
597,839	116,05
598,034	9,56
598,23	30,04
598,425	136,53
598,621	77,14
598,816	68,95
599,011	83,28
599,207	-15,02
599,402	54,61
599,597	126,29
599,793	75,09
599,988	-8,87
600,183	21,85
600,379	167,25
600,574	85,33
600,769	50,52
600,965	93,52
601,16	103,76
601,355	27,99
601,55	136,53
601,745	34,13
601,941	77,14
602,136	103,76
602,331	111,96
602,526	99,67
602,721	15,7
602,916	30,04
603,111	71
603,307	58,71
603,502	9,56
603,697	25,94
603,892	21,85
604,087	21,85
604,282	134,48
604,477	111,96
604,672	66,9
604,867	1,37
605,062	34,13
605,257	75,09
605,452	85,33
605,646	107,86
605,841	13,65
606,036	58,71
606,231	-37,55
606,426	9,56
606,621	-33,45
606,816	36,18
607,01	132,44
607,205	5,46
607,4	9,56
607,595	101,72
607,79	116,05
607,984	148,82
608,179	17,75
608,374	34,13
608,569	5,46
608,763	-45,74
608,958	-23,21
609,153	54,61
609,347	103,76
609,542	44,37
609,736	99,67
609,931	42,32
610,126	25,94
610,32	44,37
610,515	1,37
610,709	212,31
610,904	5,46
611,098	9,56
611,293	-4,78
611,487	142,68
611,682	1,37
611,876	-47,79
612,071	5,46
612,265	50,52
612,46	52,56
612,654	46,42
612,848	13,65
613,043	13,65
613,237	54,61
613,432	-76,46
613,626	-8,87
613,82	103,76
614,014	101,72
614,209	83,28
614,403	-10,92
614,597	-23,21
614,792	75,09
614,986	-12,97
615,18	9,56
615,374	42,32
615,568	42,32
615,763	-6,83
615,957	34,13
616,151	52,56
616,345	38,23
616,539	-12,97
616,733	-19,11
616,927	52,56
617,121	-6,83
617,316	130,39
617,51	-12,97
617,704	21,85
617,898	148,82
618,092	3,41
618,286	-12,97
618,48	25,94
618,674	40,28
618,868	75,09
619,061	-47,79
619,255	159,06
619,449	19,8
619,643	-35,5
619,837	181,59
620,031	-6,83
620,225	103,76
620,419	19,8
620,612	83,28
620,806	191,83
621	66,9
621,194	9,56
621,388	9,56
621,581	11,61
621,775	11,61
621,969	46,42
622,162	83,28
622,356	36,18
622,55	95,57
622,743	9,56
622,937	1,37
623,131	1,37
623,324	116,05
623,518	-25,26
623,712	58,71
623,905	50,52
624,099	58,71
624,292	25,94
624,486	36,18
624,679	9,56
624,873	5,46
625,066	56,66
625,26	44,37
625,453	44,37
625,647	79,19
625,84	73,04
626,034	25,94
626,227	71
626,42	83,28
626,614	-35,5
626,807	99,67
627	-39,59
627,194	27,99
627,387	68,95
627,58	-29,35
627,774	3,41
627,967	71
628,16	25,94
628,353	-0,68
628,547	30,04
628,74	77,14
628,933	17,75
629,126	52,56
629,319	66,9
629,513	-6,83
629,706	-31,4
629,899	81,24
630,092	-2,73
630,285	-58,03
630,478	-55,98
630,671	-35,5
630,864	107,86
631,057	11,61
631,25	103,76
631,443	25,94
631,636	-15,02
631,829	103,76
632,022	105,81
632,215	66,9
632,408	73,04
632,601	79,19
632,794	1,37
632,987	25,94
633,18	-6,83
633,373	13,65
633,566	-6,83
633,758	-23,21
633,951	27,99
634,144	77,14
634,337	52,56
634,53	23,89
634,722	163,15
634,915	17,75
635,108	1,37
635,301	93,52
635,493	126,29
635,686	75,09
635,879	34,13
636,071	-51,88
636,264	118,1
636,457	71
636,649	-4,78
636,842	-15,02
637,034	71
637,227	148,82
637,42	-2,73
637,612	-10,92
637,805	-45,74
637,997	75,09
638,19	-19,11
638,382	-39,59
638,575	-23,21
638,767	-0,68
638,96	52,56
639,152	60,76
639,344	210,26
639,537	-23,21
639,729	25,94
639,922	52,56
640,114	-55,98
640,306	111,96
640,499	116,05
640,691	23,89
640,883	1,37
641,075	73,04
641,268	107,86
641,46	27,99
641,652	19,8
641,844	11,61
642,037	21,85
642,229	89,43
642,421	60,76
642,613	-0,68
642,805	-47,79
642,998	34,13
643,19	42,32
643,382	66,9
643,574	93,52
643,766	54,61
643,958	-12,97
644,15	85,33
644,342	91,48
644,534	85,33
644,726	-29,35
644,918	42,32
645,11	-68,27
645,302	5,46
645,494	-17,07
645,686	-23,21
645,878	-23,21
646,07	118,1
646,262	3,41
646,453	-31,4
646,645	36,18
646,837	66,9
647,029	42,32
647,221	-4,78
647,413	44,37
647,604	-35,5
647,796	11,61
647,988	62,8
648,18	38,23
648,371	46,42
648,563	11,61
648,755	95,57
648,947	-23,21
649,138	9,56
649,33	140,63
649,521	128,34
649,713	19,8
649,905	30,04
650,096	52,56
650,288	-15,02
650,479	-60,07
650,671	62,8
650,863	-10,92
651,054	-15,02
651,246	75,09
651,437	40,28
651,629	54,61
651,82	60,76
652,011	60,76
652,203	154,96
652,394	40,28
652,586	25,94
652,777	3,41
652,968	19,8
653,16	1,37
653,351	40,28
653,542	75,09
653,734	46,42
653,925	-2,73
654,116	93,52
654,308	62,8
654,499	34,13
654,69	83,28
654,881	-4,78
655,073	58,71
655,264	83,28
655,455	52,56
655,646	-72,36
655,837	126,29
656,028	-23,21
656,219	34,13
656,411	-2,73
656,602	5,46
656,793	34,13
656,984	32,08
657,175	44,37
657,366	-29,35
657,557	9,56
657,748	60,76
657,939	13,65
658,13	99,67
658,321	-39,59
658,512	44,37
658,703	148,82
658,894	64,85
659,084	40,28
659,275	25,94
659,466	95,57
659,657	58,71
659,848	91,48
660,039	107,86
660,23	17,75
660,42	-35,5
660,611	60,76
660,802	-31,4
660,993	25,94
661,183	30,04
661,374	3,41
661,565	126,29
661,755	13,65
661,946	111,96
662,137	-29,35
662,327	71
662,518	34,13
662,709	-6,83
662,899	50,52
663,09	91,48
663,28	42,32
663,471	-31,4
663,662	95,57
663,852	95,57
664,043	9,56
664,233	-2,73
664,424	17,75
664,614	50,52
664,804	-45,74
664,995	140,63
665,185	118,1
665,376	-29,35
665,566	189,78
665,756	34,13
665,947	124,24
666,137	183,63
666,328	945,48
666,518	2180,4
666,708	3695,9
666,898	5260,55
667,089	7466,21
667,279	9131,21
667,469	10491,06
667,659	11580,58
667,85	11945,12
668,04	12078,24
668,23	11586,72
668,42	11031,73
668,61	10460,34
668,8	9503,94
668,991	8533,2
669,181	7566,56
669,371	6229,24
669,561	5555,46
669,751	4803,85
669,941	3679,52
670,131	2929,96
670,321	1961,27
670,511	1414,46
670,701	994,63
670,891	656,72
671,081	406,86
671,271	339,28
671,461	173,39
671,651	197,97
671,841	157,01
672,03	144,72
672,22	75,09
672,41	107,86
672,6	134,48
672,79	128,34
672,98	87,38
673,169	25,94
673,359	58,71
673,549	19,8
673,739	5,46
673,928	34,13
674,118	93,52
674,308	5,46
674,497	17,75
674,687	-2,73
674,877	32,08
675,066	-23,21
675,256	46,42
675,446	-6,83
675,635	-15,02
675,825	50,52
676,014	30,04
676,204	62,8
676,393	42,32
676,583	58,71
676,772	25,94
676,962	-39,59
677,151	1,37
677,341	54,61
677,53	17,75
677,72	19,8
677,909	68,95
678,099	50,52
678,288	25,94
678,477	64,85
678,667	-2,73
678,856	134,48
679,045	60,76
679,235	13,65
679,424	21,85
679,613	21,85
679,802	34,13
679,992	-31,4
680,181	83,28
680,37	50,52
680,559	13,65
680,748	132,44
680,938	9,56
681,127	42,32
681,316	85,33
681,505	13,65
681,694	-10,92
681,883	-0,68
682,072	42,32
682,261	38,23
682,45	-12,97
682,639	-113,32
682,828	56,66
683,017	150,87
683,206	50,52
683,395	-12,97
683,584	79,19
683,773	68,95
683,962	9,56
684,151	-2,73
684,34	79,19
684,529	38,23
684,718	17,75
684,907	-12,97
685,095	99,67
685,284	157,01
685,473	19,8
685,662	11,61
685,851	109,91
686,039	52,56
686,228	75,09
686,417	-27,31
686,606	109,91
686,794	75,09
686,983	-47,79
687,172	-31,4
687,36	-4,78
687,549	-29,35
687,738	-21,16
687,926	-12,97
688,115	25,94
688,303	11,61
688,492	99,67
688,68	-29,35
688,869	-84,65
689,057	-21,16
689,246	19,8
689,434	62,8
689,623	17,75
689,811	-12,97
690	11,61
690,188	54,61
690,377	-6,83
690,565	23,89
690,753	107,86
690,942	42,32
691,13	136,53
691,318	-70,31
691,507	13,65
691,695	27,99
691,883	-19,11
692,072	36,18
692,26	38,23
692,448	87,38
692,636	75,09
692,824	58,71
693,013	13,65
693,201	58,71
693,389	-4,78
693,577	42,32
693,765	75,09
693,953	17,75
694,141	-6,83
694,329	52,56
694,518	-0,68
694,706	66,9
694,894	79,19
695,082	-55,98
695,27	54,61
695,458	36,18
695,646	83,28
695,834	93,52
696,022	34,13
696,209	93,52
696,397	34,13
696,585	21,85
696,773	50,52
696,961	79,19
697,149	-72,36
697,337	142,68
697,525	91,48
697,712	-4,78
697,9	34,13
698,088	109,91
698,276	1,37
698,463	34,13
698,651	62,8
698,839	-6,83
699,027	75,09
699,214	99,67
699,402	3,41
699,59	-4,78
699,777	25,94
699,965	114
700,152	11,61
700,34	11,61
700,528	11,61
700,715	9,56
700,903	40,28
701,09	136,53
701,278	21,85
701,465	-12,97
701,653	27,99
701,84	9,56
702,028	157,01
702,215	52,56
702,402	83,28
702,59	148,82
702,777	83,28
702,965	99,67
703,152	50,52
703,339	116,05
703,527	27,99
703,714	103,76
703,901	99,67
704,088	60,76
704,276	107,86
704,463	99,67
704,65	62,8
704,837	267,6
705,025	955,72
705,212	2762,03
705,399	5829,88
705,586	8979,66
705,773	12999,82
705,96	16514,14
706,147	19598,38
706,335	21212,18
706,522	22313,98
706,709	22008,84
706,896	22270,98
707,083	20548,64
707,27	19561,51
707,457	17646,66
707,644	16090,21
707,831	14015,62
708,018	12070,05
708,205	10652,85
708,392	8869,07
708,578	7615,71
708,765	6372,6
708,952	5250,31
709,139	4056,34
709,326	2843,95
709,513	1885,5
709,7	1332,54
709,886	838,98
710,073	628,04
710,26	503,12
710,447	271,7
710,633	232,79
710,82	212,31
711,007	236,88
711,193	148,82
711,38	128,34
711,567	101,72
711,753	85,33
711,94	50,52
712,127	71
712,313	116,05
712,5	101,72
712,686	3,41
712,873	30,04
713,059	-10,92
713,246	144,72
713,432	25,94
713,619	17,75
713,805	91,48
713,992	27,99
714,178	27,99
714,365	68,95
714,551	136,53
714,737	9,56
714,924	-72,36
715,11	83,28
715,297	95,57
715,483	50,52
715,669	-39,59
715,855	-39,59
716,042	128,34
716,228	-27,31
716,414	30,04
716,6	95,57
716,787	-12,97
716,973	-23,21
717,159	58,71
717,345	19,8
717,531	-0,68
717,718	75,09
717,904	-0,68
718,09	-21,16
718,276	-8,87
718,462	17,75
718,648	83,28
718,834	-29,35
719,02	99,67
719,206	140,63
719,392	-23,21
719,578	66,9
719,764	-35,5
719,95	11,61
720,136	177,49
720,322	44,37
720,508	9,56
720,694	3,41
720,879	3,41
721,065	134,48
721,251	-23,21
721,437	-76,46
721,623	19,8
721,809	21,85
721,994	-12,97
722,18	-29,35
722,366	46,42
722,552	25,94
722,737	30,04
722,923	68,95
723,109	44,37
723,294	3,41
723,48	89,43
723,666	62,8
723,851	62,8
724,037	111,96
724,222	91,48
724,408	93,52
724,593	54,61
724,779	-12,97
724,965	-21,16
725,15	7,51
725,336	46,42
725,521	58,71
725,706	15,7
725,892	66,9
726,077	-15,02
726,263	42,32
726,448	163,15
726,634	126,29
726,819	206,16
727,004	566,6
727,19	830,79
727,375	1189,19
727,56	1609,02
727,745	1779
727,931	2215,22
728,116	2182,45
728,301	2176,31
728,486	2239,8
728,672	2004,28
728,857	1895,74
729,042	1674,56
729,227	1748,28
729,412	1383,74
729,597	1248,58
729,783	970,05
729,968	888,14
730,153	755,02
730,338	591,18
730,523	666,96
730,708	376,14
730,893	300,37
731,078	312,66
731,263	224,59
731,448	73,04
731,633	58,71
731,818	-19,11
732,003	48,47
732,187	60,76
732,372	-2,73
732,557	124,24
732,742	-39,59
732,927	-23,21
733,112	93,52
733,297	-8,87
733,481	25,94
733,666	116,05
733,851	-33,45
734,036	-78,51
734,22	50,52
734,405	89,43
734,59	-39,59
734,774	54,61
734,959	-4,78
735,144	91,48
735,328	25,94
735,513	1,37
735,698	-12,97
735,882	109,91
736,067	44,37
736,251	85,33
736,436	-47,79
736,62	27,99
736,805	-88,75
736,989	107,86
737,174	44,37
737,358	-109,22
737,543	101,72
737,727	64,85
737,911	50,52
738,096	-31,4
738,28	52,56
738,465	-23,21
738,649	50,52
738,833	3,41
739,018	21,85
739,202	17,75
739,386	-23,21
739,57	-47,79
739,755	-39,59
739,939	27,99
740,123	36,18
740,307	9,56
740,491	-2,73
740,676	-29,35
740,86	-27,31
741,044	5,46
741,228	60,76
741,412	-47,79
741,596	-15,02
741,78	-62,12
741,964	-6,83
742,148	-88,75
742,332	68,95
742,516	-49,83
742,7	7,51
742,884	56,66
743,068	-39,59
743,252	62,8
743,436	27,99
743,62	-66,22
743,804	58,71
743,988	75,09
744,172	25,94
744,356	46,42
744,539	-47,79
744,723	-31,4
744,907	1,37
745,091	60,76
745,275	97,62
745,458	5,46
745,642	36,18
745,826	-21,16
746,009	44,37
746,193	23,89
746,377	75,09
746,56	44,37
746,744	56,66
746,928	-101,03
747,111	32,08
747,295	-35,5
747,478	-6,83
747,662	-31,4
747,846	-43,69
748,029	1,37
748,213	-8,87
748,396	-51,88
748,58	3,41
748,763	-31,4
748,946	-109,22
749,13	-4,78
749,313	-80,55
749,497	116,05
749,68	36,18
749,863	34,13
750,047	-80,55
750,23	19,8
750,413	79,19
750,597	-12,97
750,78	-55,98
750,963	105,81
751,146	25,94
751,33	-35,5
751,513	17,75
751,696	-47,79
751,879	-12,97
752,062	-60,07
752,246	9,56
752,429	62,8
752,612	11,61
752,795	-0,68
752,978	-53,93
753,161	-39,59
753,344	-47,79
753,527	101,72
753,71	-82,6
753,893	13,65
754,076	1,37
754,259	-15,02
754,442	-96,94
754,625	-109,22
754,808	91,48
754,991	-39,59
755,174	-39,59
755,357	-6,83
755,539	-25,26
755,722	42,32
755,905	34,13
756,088	-55,98
756,271	-15,02
756,453	-4,78
756,636	-15,02
756,819	52,56
757,002	3,41
757,184	66,9
757,367	27,99
757,55	-23,21
757,732	99,67
757,915	-15,02
758,098	9,56
758,28	34,13
758,463	-31,4
758,645	25,94
758,828	83,28
759,011	42,32
759,193	17,75
759,376	50,52
759,558	-60,07
759,741	-37,55
759,923	-88,75
760,105	30,04
760,288	-39,59
760,47	-47,79
760,653	-72,36
760,835	64,85
761,017	-23,21
761,2	17,75
761,382	5,46
761,564	-49,83
761,747	132,44
761,929	-27,31
762,111	-15,02
762,294	68,95
762,476	140,63
762,658	68,95
762,84	66,9
763,022	-12,97
763,205	50,52
763,387	71
763,569	77,14
763,751	-160,42
763,933	-29,35
764,115	-15,02
764,297	-29,35
764,479	36,18
764,661	-47,79
764,843	95,57
765,025	-21,16
765,207	-4,78
765,389	-72,36
765,571	-47,79
765,753	60,76
765,935	-12,97
766,117	1,37
766,299	83,28
766,481	87,38
766,663	19,8
766,845	-72,36
767,026	-23,21
767,208	85,33
767,39	-15,02
767,572	9,56
767,753	-27,31
767,935	48,47
768,117	-31,4
768,299	124,24
768,48	25,94
768,662	3,41
768,844	-43,69
769,025	114
769,207	17,75
769,389	-12,97
769,57	19,8
769,752	11,61
769,933	-6,83
770,115	42,32
770,296	-15,02
770,478	42,32
770,659	-109,22
770,841	175,44
771,022	-17,07
771,204	34,13
771,385	87,38
771,567	66,9
771,748	132,44
771,929	-43,69
772,111	32,08
772,292	-15,02
772,473	83,28
772,655	-2,73
772,836	34,13
773,017	165,2
773,199	54,61
773,38	19,8
773,561	-31,4
773,742	7,51
773,923	1,37
774,105	101,72
774,286	136,53
774,467	-29,35
774,648	-105,13
774,829	38,23
775,01	-29,35
775,191	-39,59
775,372	-12,97
775,553	-70,31
775,734	-4,78
775,915	17,75
776,096	46,42
776,277	116,05
776,458	-72,36
776,639	66,9
776,82	71
777,001	-10,92
777,182	-101,03
777,363	-47,79
777,544	11,61
777,725	136,53
777,906	5,46
778,086	1,37
778,267	136,53
778,448	64,85
778,629	75,09
778,809	83,28
778,99	-23,21
779,171	54,61
779,352	-6,83
779,532	36,18
779,713	38,23
779,894	-76,46
780,074	83,28
780,255	11,61
780,435	64,85
780,616	68,95
780,797	42,32
780,977	-0,68
781,158	34,13
781,338	9,56
781,519	-76,46
781,699	148,82
781,88	11,61
782,06	25,94
782,241	-29,35
782,421	5,46
782,601	62,8
782,782	101,72
782,962	-2,73
783,142	-23,21
783,323	-49,83
783,503	58,71
783,683	75,09
783,864	165,2
784,044	-2,73
784,224	85,33
784,404	50,52
784,585	19,8
784,765	21,85
784,945	62,8
785,125	-35,5
785,305	58,71
785,485	124,24
785,666	116,05
785,846	-41,64
786,026	-39,59
786,206	-2,73
786,386	1,37
786,566	-39,59
786,746	1,37
786,926	68,95
787,106	-21,16
787,286	1,37
787,466	-2,73
787,646	34,13
787,826	58,71
788,006	124,24
788,185	-66,22
788,365	-12,97
788,545	75,09
788,725	-15,02
788,905	-33,45
789,085	34,13
789,264	1,37
789,444	-6,83
789,624	27,99
789,804	-6,83
789,983	1,37
790,163	-31,4
790,343	-10,92
790,522	-4,78
790,702	9,56
790,882	-47,79
791,061	140,63
791,241	9,56
791,42	7,51
791,6	116,05
791,78	9,56
791,959	-49,83
792,139	-51,88
792,318	25,94
792,498	46,42
792,677	79,19
792,856	-4,78
793,036	19,8
793,215	-51,88
793,395	116,05
793,574	1,37
793,753	11,61
793,933	118,1
794,112	30,04
794,291	27,99
794,471	83,28
794,65	17,75
794,829	19,8
795,008	36,18
795,188	-39,59
795,367	120,15
795,546	32,08
795,725	66,9
795,904	-15,02
796,084	36,18
796,263	9,56
796,442	91,48
796,621	-6,83
796,8	91,48
796,979	77,14
797,158	-21,16
797,337	-31,4
797,516	52,56
797,695	134,48
797,874	50,52
798,053	83,28
798,232	21,85
798,411	-12,97
798,59	-53,93
798,769	38,23
798,947	60,76
799,126	-23,21
799,305	52,56
799,484	-2,73
799,663	-39,59
799,842	-29,35
800,02	118,1
800,199	-113,32
800,378	83,28
800,557	-60,07
800,735	-70,31
800,914	-21,16
801,093	32,08
801,271	-80,55
801,45	62,8
801,628	25,94
801,807	-64,17
801,986	30,04
802,164	5,46
802,343	-8,87
802,521	-84,65
802,7	3,41
802,878	50,52
803,057	44,37
803,235	-51,88
803,414	30,04
803,592	15,7
803,771	-8,87
803,949	93,52
804,127	-43,69
804,306	62,8
804,484	-55,98
804,662	27,99
804,841	-129,7
805,019	-35,5
805,197	-31,4
805,375	58,71
805,554	52,56
805,732	17,75
805,91	-6,83
806,088	32,08
806,266	-55,98
806,445	7,51
806,623	-39,59
806,801	-0,68
806,979	42,32
807,157	109,91
807,335	-12,97
807,513	19,8
807,691	75,09
807,869	-55,98
808,047	-58,03
808,225	-29,35
808,403	17,75
808,581	-70,31
808,759	93,52
808,937	-19,11
809,115	75,09
809,293	-31,4
809,471	-29,35
809,649	-37,55
809,826	93,52
810,004	13,65
810,182	-12,97
810,36	-86,7
810,538	-2,73
810,715	75,09
810,893	-15,02
811,071	-43,69
811,248	52,56
811,426	-10,92
811,604	111,96
811,781	36,18
811,959	36,18
812,137	66,9
812,314	3,41
812,492	1,37
812,669	159,06
812,847	-105,13
813,024	-35,5
813,202	50,52
813,379	-39,59
813,557	46,42
813,734	19,8
813,912	17,75
814,089	5,46
814,267	81,24
814,444	75,09
814,621	13,65
814,799	-62,12
814,976	95,57
815,153	142,68
815,331	-15,02
815,508	-55,98
815,685	-64,17
815,862	-6,83
816,04	1,37
816,217	25,94
816,394	-39,59
816,571	134,48
816,748	83,28
816,926	58,71
817,103	216,4
817,28	21,85
817,457	56,66
817,634	99,67
817,811	-33,45
817,988	42,32
818,165	21,85
818,342	95,57
818,519	21,85
818,696	-94,89
818,873	-80,55
819,05	17,75
819,227	-19,11
819,404	36,18
819,581	-47,79
819,758	30,04
819,934	-64,17
820,111	-35,5
820,288	-6,83
820,465	32,08
820,642	-31,4
820,818	66,9
820,995	5,46
821,172	19,8
821,349	-23,21
821,525	60,76
821,702	48,47
821,879	-88,75
822,055	50,52
822,232	-29,35
822,409	1,37
822,585	34,13
822,762	-15,02
822,938	52,56
823,115	9,56
823,291	-47,79
823,468	68,95
823,644	36,18
823,821	62,8
823,997	5,46
824,174	3,41
824,35	-4,78
824,527	44,37
824,703	103,76
824,879	-15,02
825,056	-21,16
825,232	91,48
825,408	11,61
825,585	-12,97
825,761	-113,32
825,937	21,85
826,113	27,99
826,29	77,14
826,466	-82,6
826,642	296,27
826,818	1,37
826,994	34,13
827,17	-6,83
827,347	38,23
827,523	-113,32
827,699	93,52
827,875	75,09
828,051	60,76
828,227	3,41
828,403	66,9
828,579	66,9
828,755	95,57
828,931	-92,84
829,107	3,41
829,283	132,44
829,459	-119,46
829,635	-17,07
829,811	91,48
829,986	71
830,162	-31,4
830,338	50,52
830,514	-23,21
830,69	52,56
830,865	-53,93
831,041	62,8
831,217	-55,98
831,393	-8,87
831,568	-68,27
831,744	-15,02
831,92	60,76
832,095	-86,7
832,271	-35,5
832,447	-39,59
832,622	75,09
832,798	85,33
832,973	19,8
833,149	25,94
833,325	17,75
833,5	-6,83
833,676	95,57
833,851	9,56
834,027	-39,59
834,202	-31,4
834,377	52,56
834,553	-12,97
834,728	87,38
834,904	9,56
835,079	-4,78
835,254	-45,74
835,43	17,75
835,605	75,09
835,78	-66,22
835,955	58,71
836,131	3,41
836,306	-45,74
836,481	-80,55
836,656	40,28
836,832	109,91
837,007	-23,21
837,182	-27,31
837,357	36,18
837,532	9,56
837,707	-12,97
837,882	62,8
838,057	42,32
838,232	99,67
838,407	36,18
838,582	19,8
838,757	13,65
838,932	-45,74
839,107	-43,69
839,282	-31,4
839,457	52,56
839,632	116,05
839,807	91,48
839,982	-15,02
840,157	-6,83
840,332	87,38
840,506	-23,21
840,681	-53,93
840,856	34,13
841,031	-31,4
841,205	-88,75
841,38	-47,79
841,555	77,14
841,73	62,8
841,904	-21,16
842,079	36,18
842,254	25,94
842,428	11,61
842,603	-111,27
842,777	-12,97
842,952	58,71
843,126	17,75
843,301	5,46
843,476	-78,51
843,65	1,37
843,825	42,32
843,999	75,09
844,173	42,32
844,348	-6,83
844,522	25,94
844,697	-39,59
844,871	-101,03
845,045	17,75
845,22	77,14
845,394	77,14
845,568	-23,21
845,743	87,38
845,917	1,37
846,091	1,37
846,265	32,08
846,44	58,71
846,614	-6,83
846,788	9,56
846,962	60,76
847,136	52,56
847,31	-23,21
847,485	159,06
847,659	-39,59
847,833	50,52
848,007	1,37
848,181	-55,98
848,355	1,37
848,529	150,87
848,703	54,61
848,877	-176,81
849,051	62,8
849,225	50,52
849,399	52,56
849,573	-131,75
849,746	-43,69
849,92	46,42
850,094	42,32
850,268	-19,11
850,442	64,85
850,616	-49,83
850,789	66,9
850,963	-72,36
851,137	-35,5
851,311	75,09
851,484	50,52
851,658	42,32
851,832	-51,88
852,005	-23,21
852,179	-8,87
852,352	-15,02
852,526	-15,02
852,7	34,13
852,873	25,94
853,047	-86,7
853,22	3,41
853,394	25,94
853,567	60,76
853,741	-111,27
853,914	-29,35
854,088	-31,4
854,261	-4,78
854,434	-96,94
854,608	-74,41
854,781	-86,7
854,955	40,28
855,128	25,94
855,301	17,75
855,475	48,47
855,648	-15,02
855,821	17,75
855,994	77,14
856,168	60,76
856,341	34,13
856,514	-41,64
856,687	1,37
856,86	36,18
857,033	27,99
857,207	32,08
857,38	-31,4
857,553	99,67
857,726	36,18
857,899	50,52
858,072	25,94
858,245	-23,21
858,418	21,85
858,591	-39,59
858,764	38,23
858,937	109,91
859,11	30,04
859,283	-31,4
859,455	38,23
859,628	1,37
859,801	95,57
859,974	150,87
860,147	-45,74
860,32	38,23
860,492	-27,31
860,665	-29,35
860,838	42,32
861,011	36,18
861,183	17,75
861,356	34,13
861,529	157,01
861,701	50,52
861,874	-51,88
862,047	91,48
862,219	-31,4
862,392	58,71
862,564	-80,55
862,737	30,04
862,909	103,76
863,082	-80,55
863,254	-31,4
863,427	68,95
863,599	1,37
863,772	-21,16
863,944	17,75
864,117	5,46
864,289	44,37
864,461	-96,94
864,634	46,42
864,806	-19,11
864,978	21,85
865,151	50,52
865,323	91,48
865,495	79,19
865,667	-19,11
865,84	93,52
866,012	17,75
866,184	54,61
866,356	-119,46
866,528	71
866,7	-47,79
866,873	-64,17
867,045	-66,22
867,217	-90,79
867,389	15,7
867,561	-23,21
867,733	83,28
867,905	-47,79
868,077	54,61
868,249	25,94
868,421	-35,5
868,593	21,85
868,765	44,37
868,936	-45,74
869,108	36,18
869,28	142,68
869,452	15,7
869,624	-8,87
869,796	27,99
869,968	75,09
870,139	77,14
870,311	-37,55
870,483	60,76
870,654	-47,79
870,826	9,56
870,998	-2,73
871,17	75,09
871,341	-53,93
871,513	34,13
871,684	-78,51
871,856	32,08
872,028	9,56
872,199	-2,73
872,371	-80,55
872,542	-12,97
872,714	-21,16
872,885	179,54
873,057	-33,45
873,228	116,05
873,4	27,99
873,571	173,39
873,742	-88,75
873,914	60,76
874,085	30,04
874,256	79,19
874,428	-64,17
874,599	-43,69
874,77	111,96
874,942	-62,12
875,113	68,95
875,284	9,56
875,455	-94,89
875,626	-19,11
875,798	-39,59
875,969	-47,79
876,14	-19,11
876,311	25,94
876,482	50,52
876,653	68,95
876,824	50,52
876,995	-103,08
877,166	60,76
877,337	-25,26
877,508	9,56
877,679	-21,16
877,85	-78,51
878,021	9,56
878,192	25,94
878,363	-27,31
878,534	-27,31
878,705	-76,46
878,876	9,56
879,047	44,37
879,217	-98,99
879,388	19,8
879,559	-6,83
879,73	-10,92
879,9	-51,88
880,071	-29,35
880,242	64,85
880,413	93,52
880,583	-19,11
880,754	66,9
880,924	-51,88
881,095	13,65
881,266	9,56
881,436	-6,83
881,607	79,19
881,777	-17,07
881,948	1,37
882,118	-47,79
882,289	-94,89
882,459	58,71
882,63	83,28
882,8	-45,74
882,971	11,61
883,141	3,41
883,311	11,61
883,482	116,05
883,652	-31,4
883,822	44,37
883,993	-80,55
884,163	50,52
884,333	97,62
884,504	148,82
884,674	83,28
884,844	54,61
885,014	-41,64
885,184	42,32
885,355	-6,83
885,525	42,32
885,695	34,13
885,865	83,28
886,035	52,56
886,205	-6,83
886,375	9,56
886,545	-41,64
886,715	-88,75
886,885	-37,55
887,055	-43,69
887,225	-12,97
887,395	83,28
887,565	85,33
887,735	21,85
887,905	50,52
888,075	-109,22
888,244	30,04
888,414	36,18
888,584	75,09
888,754	19,8
888,924	107,86
889,093	200,02
889,263	83,28
889,433	62,8
889,603	44,37
889,772	25,94
889,942	-8,87
890,111	42,32
890,281	17,75
890,451	-55,98
890,62	11,61
890,79	50,52
890,959	83,28
891,129	13,65
891,298	-4,78
891,468	-6,83
891,637	25,94
891,807	-51,88
891,976	118,1
892,146	-47,79
892,315	77,14
892,485	75,09
892,654	-64,17
892,823	5,46
892,993	-62,12
893,162	15,7
893,331	50,52
893,501	17,75
893,67	77,14
893,839	-21,16
894,008	3,41
894,177	30,04
894,347	9,56
894,516	109,91
894,685	-23,21
894,854	-72,36
895,023	46,42
895,192	64,85
