Data from he_USB4F104161__33__11-53-38-589.txt Node

Date: Tue Apr 14 11:53:38 EDT 2026
User: LaboPhy
Spectrometer: USB4F10416
Trigger mode: 4
Integration Time (sec): 1,000000E-1
Scans to average: 1
Electric dark correction enabled: true
Nonlinearity correction enabled: false
Boxcar width: 0
XAxis mode: Wavelengths
Number of Pixels in Spectrum: 3648
>>>>>Begin Spectral Data<<<<<
177,847	-151,72
178,066	-151,72
178,284	-151,72
178,502	-178,34
178,72	-202,92
178,939	-65,71
179,157	51,03
179,375	-6,31
179,593	53,08
179,812	28,5
180,03	28,5
180,248	-30,89
180,466	20,31
180,685	-6,31
180,903	-67,75
181,121	-22,7
181,339	18,26
181,557	-2,22
181,775	-10,41
181,994	-20,65
182,212	-39,08
182,43	22,36
182,648	-6,31
182,866	34,64
183,084	24,4
183,302	-30,89
183,52	-8,36
183,739	-47,27
183,957	42,84
184,175	-112,81
184,393	26,45
184,611	67,41
184,829	10,07
185,047	42,84
185,265	26,45
185,483	-69,8
185,701	34,64
185,919	26,45
186,137	14,17
186,355	36,69
186,573	51,03
186,791	77,65
187,009	10,07
187,227	-55,47
187,445	10,07
187,663	-14,51
187,881	-14,51
188,098	42,84
188,316	44,88
188,534	34,64
188,752	59,22
188,97	-14,51
189,188	-6,31
189,406	18,26
189,624	-0,17
189,841	-57,51
190,059	-80,04
190,277	-69,8
190,495	34,64
190,713	69,46
190,931	71,51
191,148	3,93
191,366	-14,51
191,584	-47,27
191,802	28,5
192,019	51,03
192,237	53,08
192,455	10,07
192,673	12,12
192,89	1,88
193,108	-41,13
193,326	-26,79
193,543	67,41
193,761	-37,03
193,979	14,17
194,196	-39,08
194,414	40,79
194,632	18,26
194,849	-10,41
195,067	-0,17
195,285	-47,27
195,502	-77,99
195,72	1,88
195,937	-104,62
196,155	-39,08
196,373	-30,89
196,59	-49,32
196,808	16,21
197,025	128,85
197,243	77,65
197,46	59,22
197,678	75,6
197,895	141,14
198,113	22,36
198,33	-65,71
198,548	63,32
198,765	1,88
198,983	71,51
199,2	-51,37
199,418	28,5
199,635	-63,66
199,853	-30,89
200,07	73,56
200,288	18,26
200,505	-2,22
200,722	124,76
200,94	30,55
201,157	75,6
201,375	141,14
201,592	1,88
201,809	12,12
202,027	36,69
202,244	34,64
202,461	-84,14
202,679	51,03
202,896	-8,36
203,113	-2,22
203,331	-59,56
203,548	-18,6
203,765	26,45
203,982	71,51
204,2	-55,47
204,417	10,07
204,634	100,18
204,851	91,99
205,069	55,12
205,286	28,5
205,503	-6,31
205,72	34,64
205,937	85,84
206,155	100,18
206,372	91,99
206,589	-26,79
206,806	5,97
207,023	30,55
207,24	-14,51
207,458	-67,75
207,675	-39,08
207,892	5,97
208,109	-71,85
208,326	-69,8
208,543	-22,7
208,76	-51,37
208,977	71,51
209,194	14,17
209,411	-16,55
209,628	-34,99
209,845	67,41
210,062	-47,27
210,279	-57,51
210,496	-8,36
210,713	1,88
210,93	-53,42
211,147	94,04
211,364	-30,89
211,581	18,26
211,798	104,28
212,015	-129,19
212,232	-32,94
212,449	3,93
212,666	-22,7
212,883	-18,6
213,1	59,22
213,317	-67,75
213,533	5,97
213,75	-49,32
213,967	59,22
214,184	-59,56
214,401	40,79
214,618	-67,75
214,835	-20,65
215,051	26,45
215,268	38,74
215,485	20,31
215,702	-47,27
215,919	-6,31
216,135	120,66
216,352	-39,08
216,569	1,88
216,786	61,27
217,002	26,45
217,219	69,46
217,436	-14,51
217,652	-10,41
217,869	34,64
218,086	91,99
218,302	-34,99
218,519	69,46
218,736	-88,23
218,952	-127,14
219,169	61,27
219,386	5,97
219,602	79,7
219,819	-55,47
220,036	-37,03
220,252	26,45
220,469	16,21
220,685	10,07
220,902	44,88
221,118	-12,46
221,335	-63,66
221,552	-22,7
221,768	75,6
221,985	-4,27
222,201	3,93
222,418	26,45
222,634	-43,18
222,851	42,84
223,067	-37,03
223,284	-121
223,5	38,74
223,716	-32,94
223,933	-28,84
224,149	-18,6
224,366	16,21
224,582	1,88
224,799	-18,6
225,015	-69,8
225,231	12,12
225,448	-63,66
225,664	-6,31
225,88	-69,8
226,097	55,12
226,313	-26,79
226,529	42,84
226,746	59,22
226,962	-118,95
227,178	-71,85
227,395	-39,08
227,611	-6,31
227,827	-55,47
228,044	94,04
228,26	94,04
228,476	18,26
228,692	159,57
228,909	-20,65
229,125	59,22
229,341	-37,03
229,557	-34,99
229,773	-28,84
229,99	87,89
230,206	-26,79
230,422	67,41
230,638	-108,71
230,854	-2,22
231,07	-61,61
231,286	114,52
231,503	-12,46
231,719	-12,46
231,935	-28,84
232,151	-28,84
232,367	51,03
232,583	18,26
232,799	1,88
233,015	30,55
233,231	-47,27
233,447	8,02
233,663	-104,62
233,879	-71,85
234,095	-61,61
234,311	46,93
234,527	-28,84
234,743	1,88
234,959	10,07
235,175	-77,99
235,391	-94,38
235,607	-12,46
235,823	42,84
236,039	-67,75
236,255	75,6
236,471	-30,89
236,687	10,07
236,903	-88,23
237,118	-2,22
237,334	-12,46
237,55	-53,42
237,766	-59,56
237,982	-28,84
238,198	-51,37
238,413	-4,27
238,629	51,03
238,845	-32,94
239,061	-55,47
239,277	-28,84
239,492	-45,23
239,708	-55,47
239,924	5,97
240,14	-22,7
240,355	116,56
240,571	-14,51
240,787	22,36
241,003	100,18
241,218	5,97
241,434	26,45
241,65	-14,51
241,865	-127,14
242,081	77,65
242,297	-86,19
242,512	-61,61
242,728	67,41
242,944	63,32
243,159	26,45
243,375	-47,27
243,59	-47,27
243,806	-22,7
244,022	28,5
244,237	-55,47
244,453	34,64
244,668	42,84
244,884	159,57
245,099	-6,31
245,315	110,42
245,53	59,22
245,746	102,23
245,961	-39,08
246,177	-6,31
246,392	108,37
246,608	126,8
246,823	-20,65
247,039	-55,47
247,254	-2,22
247,47	22,36
247,685	-2,22
247,9	-55,47
248,116	-34,99
248,331	10,07
248,547	38,74
248,762	-92,33
248,977	8,02
249,193	53,08
249,408	18,26
249,623	48,98
249,839	-47,27
250,054	-57,51
250,269	-57,51
250,485	28,5
250,7	53,08
250,915	12,12
251,13	-24,75
251,346	10,07
251,561	91,99
251,776	28,5
251,991	-123,05
252,207	112,47
252,422	14,17
252,637	-51,37
252,852	-39,08
253,067	-26,79
253,283	40,79
253,498	100,18
253,713	-22,7
253,928	-10,41
254,143	10,07
254,358	26,45
254,573	1,88
254,788	-22,7
255,004	-0,17
255,219	-96,43
255,434	-18,6
255,649	-37,03
255,864	63,32
256,079	-71,85
256,294	-6,31
256,509	-39,08
256,724	5,97
256,939	-43,18
257,154	-39,08
257,369	87,89
257,584	22,36
257,799	-47,27
258,014	-45,23
258,229	71,51
258,444	-2,22
258,659	-26,79
258,874	55,12
259,089	46,93
259,304	-10,41
259,518	-61,61
259,733	24,4
259,948	-104,62
260,163	53,08
260,378	12,12
260,593	22,36
260,808	51,03
261,022	-200,87
261,237	-2,22
261,452	16,21
261,667	-63,66
261,882	51,03
262,096	34,64
262,311	55,12
262,526	-24,75
262,741	-71,85
262,955	-10,41
263,17	36,69
263,385	-22,7
263,6	-32,94
263,814	-96,43
264,029	48,98
264,244	44,88
264,458	42,84
264,673	10,07
264,888	12,12
265,102	-22,7
265,317	40,79
265,532	67,41
265,746	18,26
265,961	69,46
266,175	34,64
266,39	108,37
266,605	-47,27
266,819	51,03
267,034	30,55
267,248	-75,95
267,463	-63,66
267,677	-55,47
267,892	34,64
268,106	-30,89
268,321	-14,51
268,535	10,07
268,75	71,51
268,964	-22,7
269,179	-4,27
269,393	1,88
269,608	-22,7
269,822	-84,14
270,036	-63,66
270,251	-82,09
270,465	-10,41
270,68	22,36
270,894	-102,57
271,108	210,77
271,323	102,23
271,537	-37,03
271,752	55,12
271,966	-55,47
272,18	-80,04
272,394	-20,65
272,609	-12,46
272,823	59,22
273,037	-39,08
273,252	-63,66
273,466	-10,41
273,68	34,64
273,894	-30,89
274,109	-28,84
274,323	-14,51
274,537	12,12
274,751	-28,84
274,966	46,93
275,18	-75,95
275,394	-77,99
275,608	-129,19
275,822	-30,89
276,036	-12,46
276,25	104,28
276,465	-12,46
276,679	61,27
276,893	-133,29
277,107	10,07
277,321	-10,41
277,535	67,41
277,749	57,17
277,963	1,88
278,177	-69,8
278,391	22,36
278,605	-75,95
278,819	34,64
279,033	-63,66
279,247	1,88
279,461	-39,08
279,675	1,88
279,889	42,84
280,103	-10,41
280,317	57,17
280,531	-63,66
280,745	34,64
280,959	-63,66
281,173	36,69
281,387	61,27
281,601	65,36
281,815	108,37
282,029	-12,46
282,242	36,69
282,456	83,8
282,67	28,5
282,884	-12,46
283,098	22,36
283,312	42,84
283,525	34,64
283,739	3,93
283,953	1,88
284,167	53,08
284,381	-22,7
284,594	-55,47
284,808	44,88
285,022	-39,08
285,235	5,97
285,449	-55,47
285,663	26,45
285,877	-61,61
286,09	-4,27
286,304	38,74
286,518	-45,23
286,731	-63,66
286,945	42,84
287,159	-47,27
287,372	-16,55
287,586	-4,27
287,799	75,6
288,013	-65,71
288,227	-88,23
288,44	243,54
288,654	-20,65
288,867	67,41
289,081	-77,99
289,294	44,88
289,508	3,93
289,721	1,88
289,935	-34,99
290,148	28,5
290,362	-8,36
290,575	100,18
290,789	-6,31
291,002	-2,22
291,216	110,42
291,429	-16,55
291,643	59,22
291,856	-63,66
292,069	51,03
292,283	-112,81
292,496	-53,42
292,71	-59,56
292,923	-14,51
293,136	3,93
293,35	61,27
293,563	18,26
293,776	42,84
293,99	-6,31
294,203	12,12
294,416	-57,51
294,63	-20,65
294,843	-73,9
295,056	59,22
295,269	-34,99
295,483	-127,14
295,696	51,03
295,909	-8,36
296,122	51,03
296,335	-41,13
296,549	94,04
296,762	59,22
296,975	1,88
297,188	-6,31
297,401	-41,13
297,615	-59,56
297,828	-47,27
298,041	94,04
298,254	-106,67
298,467	59,22
298,68	-4,27
298,893	57,17
299,106	1,88
299,319	-12,46
299,532	3,93
299,745	-28,84
299,958	-80,04
300,171	-71,85
300,384	53,08
300,598	-96,43
300,81	51,03
301,023	28,5
301,236	-47,27
301,449	30,55
301,662	-45,23
301,875	-45,23
302,088	36,69
302,301	-22,7
302,514	-39,08
302,727	34,64
302,94	-67,75
303,153	-61,61
303,366	-0,17
303,579	-30,89
303,791	36,69
304,004	-77,99
304,217	91,99
304,43	10,07
304,643	-12,46
304,855	-39,08
305,068	110,42
305,281	-22,7
305,494	3,93
305,707	20,31
305,919	102,23
306,132	10,07
306,345	-43,18
306,558	100,18
306,77	-55,47
306,983	-47,27
307,196	42,84
307,408	10,07
307,621	-12,46
307,834	-90,28
308,046	-14,51
308,259	-39,08
308,472	-6,31
308,684	100,18
308,897	-127,14
309,109	-75,95
309,322	-80,04
309,535	14,17
309,747	145,24
309,96	-6,31
310,172	83,8
310,385	5,97
310,597	-69,8
310,81	-8,36
311,022	-26,79
311,235	-84,14
311,447	-59,56
311,66	3,93
311,872	16,21
312,085	-14,51
312,297	-75,95
312,51	-121
312,722	-67,75
312,934	12,12
313,147	-96,43
313,359	-26,79
313,572	-45,23
313,784	34,64
313,996	53,08
314,209	-6,31
314,421	-51,37
314,633	-55,47
314,846	-43,18
315,058	5,97
315,27	-22,7
315,483	-41,13
315,695	-30,89
315,907	-57,51
316,119	10,07
316,332	-69,8
316,544	63,32
316,756	-24,75
316,968	42,84
317,181	-39,08
317,393	-37,03
317,605	91,99
317,817	89,94
318,029	61,27
318,241	-32,94
318,454	116,56
318,666	96,08
318,878	-39,08
319,09	59,22
319,302	94,04
319,514	53,08
319,726	44,88
319,938	75,6
320,15	18,26
320,362	-45,23
320,574	-77,99
320,786	-18,6
320,999	-102,57
321,211	61,27
321,423	67,41
321,635	12,12
321,847	12,12
322,058	-37,03
322,27	-47,27
322,482	42,84
322,694	28,5
322,906	-104,62
323,118	69,46
323,33	75,6
323,542	-10,41
323,754	-18,6
323,966	-59,56
324,178	59,22
324,389	-22,7
324,601	42,84
324,813	1,88
325,025	28,5
325,237	-75,95
325,449	59,22
325,66	1,88
325,872	5,97
326,084	1,88
326,296	3,93
326,507	1,88
326,719	16,21
326,931	-53,42
327,143	65,36
327,354	100,18
327,566	20,31
327,778	-14,51
327,989	75,6
328,201	-61,61
328,413	40,79
328,624	1,88
328,836	12,12
329,048	-137,38
329,259	36,69
329,471	10,07
329,682	-80,04
329,894	-20,65
330,106	-80,04
330,317	-22,7
330,529	36,69
330,74	42,84
330,952	75,6
331,163	-80,04
331,375	1,88
331,586	28,5
331,798	-67,75
332,009	-10,41
332,221	5,97
332,432	59,22
332,644	-55,47
332,855	-39,08
333,067	-26,79
333,278	-6,31
333,489	-16,55
333,701	-14,51
333,912	-86,19
334,124	18,26
334,335	-147,62
334,546	-14,51
334,758	10,07
334,969	141,14
335,18	77,65
335,392	-4,27
335,603	36,69
335,814	22,36
336,025	-94,38
336,237	-80,04
336,448	-30,89
336,659	-12,46
336,87	81,75
337,082	155,47
337,293	-96,43
337,504	-43,18
337,715	51,03
337,926	77,65
338,138	-10,41
338,349	-6,31
338,56	-4,27
338,771	-20,65
338,982	-14,51
339,193	-30,89
339,404	61,27
339,616	-34,99
339,827	55,12
340,038	-88,23
340,249	-2,22
340,46	-28,84
340,671	79,7
340,882	91,99
341,093	-6,31
341,304	5,97
341,515	-88,23
341,726	42,84
341,937	-18,6
342,148	53,08
342,359	-114,86
342,57	-26,79
342,781	94,04
342,992	-43,18
343,203	-30,89
343,414	28,5
343,624	-18,6
343,835	-71,85
344,046	1,88
344,257	-6,31
344,468	-4,27
344,679	-71,85
344,89	-77,99
345,1	10,07
345,311	-80,04
345,522	-61,61
345,733	-51,37
345,944	-22,7
346,154	16,21
346,365	51,03
346,576	-26,79
346,787	28,5
346,997	55,12
347,208	18,26
347,419	-98,47
347,629	30,55
347,84	67,41
348,051	34,64
348,261	12,12
348,472	-75,95
348,683	-26,79
348,893	-94,38
349,104	-71,85
349,315	-102,57
349,525	-2,22
349,736	42,84
349,946	-47,27
350,157	53,08
350,368	10,07
350,578	-59,56
350,789	22,36
350,999	3,93
351,21	61,27
351,42	-129,19
351,631	-22,7
351,841	-96,43
352,052	-22,7
352,262	67,41
352,472	-129,19
352,683	26,45
352,893	1,88
353,104	-75,95
353,314	83,8
353,525	333,65
353,735	1,88
353,945	57,17
354,156	-121
354,366	22,36
354,576	34,64
354,787	1,88
354,997	-30,89
355,207	-61,61
355,418	10,07
355,628	-67,75
355,838	-26,79
356,048	-53,42
356,259	61,27
356,469	-4,27
356,679	26,45
356,889	48,98
357,1	-47,27
357,31	-80,04
357,52	-28,84
357,73	-47,27
357,94	10,07
358,15	-12,46
358,361	-4,27
358,571	5,97
358,781	36,69
358,991	-94,38
359,201	-14,51
359,411	-6,31
359,621	-53,42
359,831	10,07
360,041	16,21
360,251	-6,31
360,461	83,8
360,672	14,17
360,882	-20,65
361,092	-6,31
361,302	8,02
361,512	51,03
361,721	3,93
361,931	-47,27
362,141	42,84
362,351	20,31
362,561	61,27
362,771	-4,27
362,981	36,69
363,191	-92,33
363,401	10,07
363,611	22,36
363,821	-71,85
364,03	26,45
364,24	-12,46
364,45	44,88
364,66	255,83
364,87	-67,75
365,08	59,22
365,289	-20,65
365,499	-43,18
365,709	67,41
365,919	8,02
366,128	-39,08
366,338	-6,31
366,548	-51,37
366,758	-94,38
366,967	-28,84
367,177	32,6
367,387	-14,51
367,596	18,26
367,806	-30,89
368,016	34,64
368,225	14,17
368,435	106,32
368,644	83,8
368,854	-37,03
369,064	-71,85
369,273	44,88
369,483	-53,42
369,692	14,17
369,902	5,97
370,111	44,88
370,321	-30,89
370,53	-71,85
370,74	-69,8
370,949	-37,03
371,159	44,88
371,368	42,84
371,578	26,45
371,787	57,17
371,997	-22,7
372,206	-55,47
372,416	-45,23
372,625	14,17
372,834	59,22
373,044	-53,42
373,253	38,74
373,462	96,08
373,672	-20,65
373,881	-6,31
374,09	14,17
374,3	46,93
374,509	-20,65
374,718	-63,66
374,928	63,32
375,137	-14,51
375,346	-51,37
375,555	132,95
375,765	-86,19
375,974	-12,46
376,183	77,65
376,392	-12,46
376,601	-20,65
376,811	51,03
377,02	79,7
377,229	112,47
377,438	42,84
377,647	18,26
377,856	-88,23
378,065	-4,27
378,275	-55,47
378,484	51,03
378,693	20,31
378,902	20,31
379,111	51,03
379,32	-37,03
379,529	-39,08
379,738	40,79
379,947	-12,46
380,156	-75,95
380,365	34,64
380,574	75,6
380,783	-43,18
380,992	34,64
381,201	18,26
381,41	-18,6
381,619	20,31
381,828	59,22
382,037	12,12
382,245	122,71
382,454	102,23
382,663	30,55
382,872	10,07
383,081	14,17
383,29	159,57
383,499	-6,31
383,707	132,95
383,916	108,37
384,125	91,99
384,334	12,12
384,542	96,08
384,751	75,6
384,96	36,69
385,169	26,45
385,377	-6,31
385,586	20,31
385,795	83,8
386,004	12,12
386,212	26,45
386,421	46,93
386,63	304,98
386,838	655,18
387,047	1191,75
387,255	1869,62
387,464	2780,97
387,673	3634,97
387,881	5027,59
388,09	5705,47
388,298	6596,34
388,507	8351,45
388,715	10018,49
388,924	11095,72
389,133	10569,4
389,341	10364,6
389,55	9035,47
389,758	6751,98
389,967	4531,98
390,175	2846,51
390,383	2219,83
390,592	1650,49
390,8	1017,67
391,009	698,19
391,217	481,1
391,426	319,31
391,634	83,8
391,842	55,12
392,051	100,18
392,259	75,6
392,467	-28,84
392,676	-12,46
392,884	26,45
393,092	-67,75
393,301	-26,79
393,509	51,03
393,717	67,41
393,925	26,45
394,134	34,64
394,342	71,51
394,55	61,27
394,758	69,46
394,967	18,26
395,175	-30,89
395,383	132,95
395,591	110,42
395,799	120,66
396,007	38,74
396,216	249,68
396,424	194,39
396,632	198,48
396,84	112,47
397,048	167,76
397,256	198,48
397,464	100,18
397,672	91,99
397,88	30,55
398,088	-63,66
398,296	-4,27
398,504	-37,03
398,712	-37,03
398,92	18,26
399,128	44,88
399,336	51,03
399,544	3,93
399,752	12,12
399,96	28,5
400,168	34,64
400,376	34,64
400,584	96,08
400,792	-14,51
401	77,65
401,207	137,04
401,415	173,91
401,623	141,14
401,831	225,11
402,039	362,32
402,247	276,31
402,454	366,42
402,662	460,62
402,87	415,57
403,078	528,21
403,285	356,18
403,493	243,54
403,701	175,95
403,909	135
404,116	173,91
404,324	5,97
404,532	59,22
404,739	-26,79
404,947	51,03
405,155	59,22
405,362	16,21
405,57	22,36
405,778	34,64
405,985	137,04
406,193	-28,84
406,4	-45,23
406,608	75,6
406,816	-39,08
407,023	38,74
407,231	-18,6
407,438	79,7
407,646	1,88
407,853	-30,89
408,061	-57,51
408,268	-14,51
408,476	-51,37
408,683	51,03
408,89	38,74
409,098	75,6
409,305	46,93
409,513	-2,22
409,72	-20,65
409,927	-4,27
410,135	46,93
410,342	-92,33
410,55	94,04
410,757	46,93
410,964	-28,84
411,172	36,69
411,379	83,8
411,586	42,84
411,793	46,93
412,001	26,45
412,208	14,17
412,415	135
412,622	91,99
412,83	87,89
413,037	26,45
413,244	-22,7
413,451	75,6
413,658	30,55
413,866	124,76
414,073	5,97
414,28	118,61
414,487	-71,85
414,694	38,74
414,901	79,7
415,108	-6,31
415,315	1,88
415,522	34,64
415,73	38,74
415,937	-63,66
416,144	-100,52
416,351	-55,47
416,558	46,93
416,765	-67,75
416,972	-18,6
417,179	-61,61
417,386	132,95
417,593	-30,89
417,8	-65,71
418,006	18,26
418,213	-39,08
418,42	-41,13
418,627	67,41
418,834	-14,51
419,041	-45,23
419,248	-26,79
419,455	8,02
419,661	36,69
419,868	26,45
420,075	10,07
420,282	-26,79
420,489	3,93
420,696	-47,27
420,902	8,02
421,109	51,03
421,316	-30,89
421,523	-6,31
421,729	42,84
421,936	-47,27
422,143	85,84
422,349	-10,41
422,556	-45,23
422,763	-14,51
422,969	-6,31
423,176	-63,66
423,383	51,03
423,589	259,92
423,796	36,69
424,002	28,5
424,209	3,93
424,416	124,76
424,622	-88,23
424,829	-45,23
425,035	-131,24
425,242	18,26
425,448	32,6
425,655	18,26
425,861	-37,03
426,068	-6,31
426,274	87,89
426,481	3,93
426,687	83,8
426,894	-12,46
427,1	40,79
427,306	-39,08
427,513	22,36
427,719	26,45
427,926	12,12
428,132	-47,27
428,338	-77,99
428,545	1,88
428,751	-37,03
428,957	42,84
429,163	-65,71
429,37	40,79
429,576	-2,22
429,782	61,27
429,989	-28,84
430,195	42,84
430,401	42,84
430,607	34,64
430,813	-22,7
431,02	157,52
431,226	71,51
431,432	12,12
431,638	22,36
431,844	-22,7
432,05	-71,85
432,257	-106,67
432,463	26,45
432,669	-55,47
432,875	20,31
433,081	-14,51
433,287	-69,8
433,493	-129,19
433,699	-0,17
433,905	-88,23
434,111	-100,52
434,317	10,07
434,523	79,7
434,729	-71,85
434,935	-59,56
435,141	65,36
435,347	-20,65
435,553	48,98
435,759	-26,79
435,965	-51,37
436,171	67,41
436,377	83,8
436,582	135
436,788	-112,81
436,994	51,03
437,2	-26,79
437,406	30,55
437,612	1,88
437,818	67,41
438,023	-6,31
438,229	165,71
438,435	151,38
438,641	67,41
438,846	118,61
439,052	132,95
439,258	173,91
439,464	18,26
439,669	102,23
439,875	135
440,081	75,6
440,286	8,02
440,492	38,74
440,698	-16,55
440,903	20,31
441,109	79,7
441,314	-14,51
441,52	-20,65
441,726	-6,31
441,931	8,02
442,137	61,27
442,342	-4,27
442,548	12,12
442,753	137,04
442,959	-94,38
443,164	8,02
443,37	61,27
443,575	-59,56
443,781	-121
443,986	102,23
444,192	26,45
444,397	69,46
444,602	-86,19
444,808	38,74
445,013	18,26
445,219	208,72
445,424	444,24
445,629	630,6
445,835	1042,25
446,04	1288
446,245	1681,21
446,451	1863,48
446,656	2064,18
446,861	2692,91
447,066	3108,65
447,272	3424,03
447,477	3409,7
447,682	3114,79
447,887	2625,33
448,093	2254,64
448,298	1673,02
448,503	1034,05
448,708	837,45
448,913	341,84
449,118	313,17
449,324	214,87
449,529	214,87
449,734	46,93
449,939	-30,89
450,144	149,33
450,349	77,65
450,554	-69,8
450,759	59,22
450,964	14,17
451,169	-61,61
451,374	98,13
451,579	-6,31
451,784	28,5
451,989	-30,89
452,194	-106,67
452,399	59,22
452,604	18,26
452,809	-34,99
453,014	-80,04
453,219	14,17
453,424	100,18
453,629	-30,89
453,833	-84,14
454,038	30,55
454,243	-65,71
454,448	1,88
454,653	36,69
454,858	-16,55
455,062	-121
455,267	-30,89
455,472	114,52
455,677	-77,99
455,882	-61,61
456,086	18,26
456,291	-47,27
456,496	-104,62
456,7	18,26
456,905	-71,85
457,11	10,07
457,314	-77,99
457,519	-26,79
457,724	36,69
457,928	73,56
458,133	-63,66
458,338	-10,41
458,542	30,55
458,747	-22,7
458,951	18,26
459,156	71,51
459,36	-63,66
459,565	124,76
459,769	-12,46
459,974	75,6
460,178	-12,46
460,383	-80,04
460,587	10,07
460,792	36,69
460,996	59,22
461,201	3,93
461,405	-71,85
461,61	-69,8
461,814	22,36
462,018	-118,95
462,223	-10,41
462,427	-28,84
462,631	22,36
462,836	51,03
463,04	59,22
463,244	141,14
463,449	20,31
463,653	122,71
463,857	87,89
464,062	67,41
464,266	-16,55
464,47	34,64
464,674	-10,41
464,878	59,22
465,083	20,31
465,287	48,98
465,491	-39,08
465,695	69,46
465,899	34,64
466,104	-14,51
466,308	61,27
466,512	-10,41
466,716	18,26
466,92	77,65
467,124	14,17
467,328	10,07
467,532	59,22
467,736	-14,51
467,94	75,6
468,144	-86,19
468,348	-14,51
468,552	112,47
468,756	26,45
468,96	18,26
469,164	-26,79
469,368	10,07
469,572	67,41
469,776	157,52
469,98	200,53
470,184	288,59
470,388	407,38
470,591	479,05
470,795	526,16
470,999	673,61
471,203	739,15
471,407	763,72
471,611	829,26
471,814	773,96
472,018	587,6
472,222	599,88
472,426	524,11
472,63	354,13
472,833	272,21
473,037	268,11
473,241	-14,51
473,444	159,57
473,648	444,24
473,852	42,84
474,055	-14,51
474,259	34,64
474,463	26,45
474,666	51,03
474,87	-14,51
475,074	44,88
475,277	44,88
475,481	38,74
475,684	-20,65
475,888	-30,89
476,091	10,07
476,295	10,07
476,498	-43,18
476,702	-47,27
476,905	120,66
477,109	67,41
477,312	26,45
477,516	-61,61
477,719	-4,27
477,923	-47,27
478,126	51,03
478,329	75,6
478,533	48,98
478,736	79,7
478,94	59,22
479,143	-47,27
479,346	18,26
479,55	22,36
479,753	30,55
479,956	-92,33
480,159	-125,1
480,363	108,37
480,566	-28,84
480,769	-39,08
480,972	-34,99
481,176	-28,84
481,379	46,93
481,582	12,12
481,785	-22,7
481,988	-20,65
482,192	67,41
482,395	-65,71
482,598	51,03
482,801	-20,65
483,004	104,28
483,207	-104,62
483,41	-4,27
483,613	53,08
483,817	42,84
484,02	-10,41
484,223	-10,41
484,426	10,07
484,629	-69,8
484,832	135
485,035	-30,89
485,238	51,03
485,441	61,27
485,644	34,64
485,846	5,97
486,049	-26,79
486,252	-6,31
486,455	-32,94
486,658	-30,89
486,861	46,93
487,064	59,22
487,267	-63,66
487,47	77,65
487,672	12,12
487,875	-0,17
488,078	1,88
488,281	94,04
488,484	59,22
488,686	-43,18
488,889	-14,51
489,092	-24,75
489,295	85,84
489,497	77,65
489,7	-28,84
489,903	38,74
490,105	-88,23
490,308	20,31
490,511	239,44
490,713	255,83
490,916	370,51
491,118	599,88
491,321	733
491,524	880,46
491,726	937,8
491,929	1148,74
492,131	1337,15
492,334	1457,98
492,536	1476,41
492,739	1394,5
492,941	1259,33
493,144	1087,3
493,346	841,54
493,549	608,08
493,751	419,66
493,954	288,59
494,156	151,38
494,359	126,8
494,561	-39,08
494,763	69,46
494,966	-12,46
495,168	48,98
495,37	-67,75
495,573	1,88
495,775	73,56
495,977	79,7
496,18	-10,41
496,382	18,26
496,584	-45,23
496,787	75,6
496,989	-92,33
497,191	-39,08
497,393	102,23
497,595	-6,31
497,798	-32,94
498	-37,03
498,202	-53,42
498,404	14,17
498,606	-2,22
498,808	87,89
499,011	22,36
499,213	71,51
499,415	59,22
499,617	202,58
499,819	413,52
500,021	880,46
500,223	1199,94
500,425	1775,42
500,627	2201,4
500,829	2873,13
501,031	3436,32
501,233	3903,26
501,435	4417,3
501,637	5060,36
501,839	5113,61
502,041	4798,22
502,243	4589,33
502,445	3757,85
502,647	3268,39
502,848	2459,44
503,05	1838,91
503,252	1439,55
503,454	927,56
503,656	577,36
503,858	403,28
504,059	323,41
504,261	210,77
504,463	427,85
504,665	225,11
504,867	247,63
505,068	292,69
505,27	356,18
505,472	304,98
505,673	241,49
505,875	108,37
506,077	81,75
506,278	87,89
506,48	87,89
506,682	-6,31
506,883	26,45
507,085	-41,13
507,287	-28,84
507,488	75,6
507,69	71,51
507,891	-43,18
508,093	61,27
508,294	20,31
508,496	-67,75
508,697	-121
508,899	-39,08
509,1	-14,51
509,302	18,26
509,503	-61,61
509,705	36,69
509,906	-14,51
510,108	-80,04
510,309	20,31
510,51	1,88
510,712	28,5
510,913	-47,27
511,114	-18,6
511,316	-67,75
511,517	51,03
511,718	-108,71
511,92	-30,89
512,121	10,07
512,322	14,17
512,524	89,94
512,725	28,5
512,926	53,08
513,127	-32,94
513,329	85,84
513,53	-34,99
513,731	34,64
513,932	67,41
514,133	-63,66
514,334	-34,99
514,536	63,32
514,737	128,85
514,938	26,45
515,139	22,36
515,34	-88,23
515,541	14,17
515,742	-71,85
515,943	26,45
516,144	18,26
516,345	46,93
516,546	-37,03
516,747	51,03
516,948	24,4
517,149	-55,47
517,35	22,36
517,551	-6,31
517,752	-55,47
517,953	-20,65
518,154	-63,66
518,355	87,89
518,556	34,64
518,756	-12,46
518,957	1,88
519,158	73,56
519,359	46,93
519,56	-39,08
519,761	28,5
519,961	22,36
520,162	182,1
520,363	-39,08
520,564	-6,31
520,764	180,05
520,965	-88,23
521,166	61,27
521,366	-32,94
521,567	40,79
521,768	83,8
521,968	14,17
522,169	-39,08
522,37	1,88
522,57	8,02
522,771	5,97
522,972	-151,72
523,172	67,41
523,373	-47,27
523,573	-63,66
523,774	-47,27
523,974	100,18
524,175	44,88
524,375	-4,27
524,576	-6,31
524,776	12,12
524,977	-8,36
525,177	67,41
525,378	42,84
525,578	77,65
525,778	104,28
525,979	-26,79
526,179	-28,84
526,38	-30,89
526,58	36,69
526,78	-80,04
526,981	85,84
527,181	51,03
527,381	-63,66
527,582	32,6
527,782	42,84
527,982	42,84
528,182	-43,18
528,383	-14,51
528,583	12,12
528,783	61,27
528,983	44,88
529,183	-55,47
529,384	-2,22
529,584	63,32
529,784	77,65
529,984	79,7
530,184	-51,37
530,384	-4,27
530,584	-28,84
530,784	26,45
530,984	3,93
531,185	42,84
531,385	22,36
531,585	34,64
531,785	1,88
531,985	30,55
532,185	-4,27
532,385	1,88
532,585	-28,84
532,785	51,03
532,984	-22,7
533,184	-37,03
533,384	-22,7
533,584	-151,72
533,784	51,03
533,984	53,08
534,184	-10,41
534,384	-53,42
534,583	-28,84
534,783	-2,22
534,983	51,03
535,183	59,22
535,383	-6,31
535,582	-16,55
535,782	-45,23
535,982	89,94
536,182	-65,71
536,381	26,45
536,581	-63,66
536,781	26,45
536,98	-4,27
537,18	36,69
537,38	38,74
537,579	-77,99
537,779	-4,27
537,979	-16,55
538,178	-39,08
538,378	104,28
538,577	-37,03
538,777	-108,71
538,976	3,93
539,176	3,93
539,376	10,07
539,575	18,26
539,774	-39,08
539,974	-12,46
540,173	46,93
540,373	22,36
540,572	-77,99
540,772	-22,7
540,971	-59,56
541,171	100,18
541,37	5,97
541,569	-69,8
541,769	-43,18
541,968	30,55
542,167	-4,27
542,367	20,31
542,566	-88,23
542,765	-55,47
542,965	-77,99
543,164	-45,23
543,363	-6,31
543,562	-10,41
543,761	-37,03
543,961	22,36
544,16	-104,62
544,359	165,71
544,558	114,52
544,757	-63,66
544,957	-4,27
545,156	91,99
545,355	-6,31
545,554	42,84
545,753	-118,95
545,952	-14,51
546,151	18,26
546,35	34,64
546,549	28,5
546,748	42,84
546,947	26,45
547,146	-4,27
547,345	42,84
547,544	-71,85
547,743	-4,27
547,942	40,79
548,141	14,17
548,34	83,8
548,539	-12,46
548,738	-88,23
548,937	63,32
549,135	18,26
549,334	-20,65
549,533	77,65
549,732	77,65
549,931	-67,75
550,13	1,88
550,328	-12,46
550,527	-49,32
550,726	-10,41
550,925	-45,23
551,123	1,88
551,322	3,93
551,521	71,51
551,72	-22,7
551,918	42,84
552,117	42,84
552,315	30,55
552,514	-6,31
552,713	-6,31
552,911	26,45
553,11	-14,51
553,309	26,45
553,507	-100,52
553,706	-39,08
553,904	51,03
554,103	18,26
554,301	-2,22
554,5	34,64
554,698	-37,03
554,897	34,64
555,095	34,64
555,294	-125,1
555,492	36,69
555,69	63,32
555,889	-45,23
556,087	96,08
556,286	55,12
556,484	100,18
556,682	-22,7
556,881	87,89
557,079	1,88
557,277	143,19
557,476	10,07
557,674	120,66
557,872	69,46
558,07	-57,51
558,269	12,12
558,467	42,84
558,665	38,74
558,863	18,26
559,062	16,21
559,26	69,46
559,458	-77,99
559,656	77,65
559,854	18,26
560,052	8,02
560,25	22,36
560,449	427,85
560,647	104,28
560,845	10,07
561,043	51,03
561,241	112,47
561,439	104,28
561,637	-30,89
561,835	42,84
562,033	63,32
562,231	26,45
562,429	12,12
562,627	61,27
562,825	-67,75
563,023	63,32
563,221	-30,89
563,418	85,84
563,616	53,08
563,814	145,24
564,012	5,97
564,21	57,17
564,408	59,22
564,605	71,51
564,803	53,08
565,001	272,21
565,199	-8,36
565,397	-14,51
565,594	51,03
565,792	51,03
565,99	67,41
566,188	100,18
566,385	75,6
566,583	14,17
566,781	69,46
566,978	108,37
567,176	94,04
567,373	71,51
567,571	83,8
567,769	3,93
567,966	28,5
568,164	30,55
568,361	1,88
568,559	75,6
568,756	67,41
568,954	71,51
569,151	44,88
569,349	110,42
569,546	79,7
569,744	132,95
569,941	96,08
570,139	124,76
570,336	46,93
570,534	30,55
570,731	-0,17
570,928	-55,47
571,126	182,1
571,323	112,47
571,52	36,69
571,718	28,5
571,915	51,03
572,112	-45,23
572,31	-10,41
572,507	63,32
572,704	-12,46
572,901	26,45
573,099	67,41
573,296	59,22
573,493	-6,31
573,69	-22,7
573,887	36,69
574,085	141,14
574,282	22,36
574,479	98,13
574,676	65,36
574,873	96,08
575,07	34,64
575,267	-14,51
575,464	38,74
575,661	71,51
575,858	-10,41
576,055	42,84
576,252	94,04
576,449	83,8
576,646	85,84
576,843	-24,75
577,04	141,14
577,237	130,9
577,434	42,84
577,631	69,46
577,828	190,29
578,025	10,07
578,222	91,99
578,419	83,8
578,615	22,36
578,812	122,71
579,009	20,31
579,206	94,04
579,403	145,24
579,599	188,24
579,796	-2,22
579,993	132,95
580,19	175,95
580,386	169,81
580,583	102,23
580,78	-22,7
580,976	75,6
581,173	3,93
581,37	55,12
581,566	100,18
581,763	87,89
581,96	94,04
582,156	116,56
582,353	71,51
582,549	182,1
582,746	184,15
582,942	44,88
583,139	126,8
583,335	124,76
583,532	171,86
583,728	69,46
583,925	184,15
584,121	175,95
584,318	175,95
584,514	155,47
584,711	218,96
584,907	255,83
585,103	333,65
585,3	345,94
585,496	489,29
585,693	1077,06
585,889	3714,84
586,085	8328,92
586,281	14218,88
586,478	21757,45
586,674	29197,72
586,87	38257,93
587,067	46544,02
587,263	52231,22
587,459	55467,01
587,655	59251,66
587,851	60152,77
588,048	58866,64
588,244	55440,39
588,44	52321,33
588,636	46171,28
588,832	39695,61
589,028	33445,21
589,224	26930,62
589,42	21403,15
589,617	15390,31
589,813	10159,8
590,009	6074,1
590,205	3882,78
590,401	2459,44
590,597	1468,22
590,793	1019,72
590,989	782,15
591,185	716,62
591,38	544,59
591,576	413,52
591,772	255,83
591,968	268,11
592,164	245,59
592,36	227,15
592,556	94,04
592,752	255,83
592,948	73,56
593,143	112,47
593,339	96,08
593,535	149,33
593,731	190,29
593,926	132,95
594,122	124,76
594,318	75,6
594,514	196,43
594,709	-30,89
594,905	36,69
595,101	26,45
595,296	53,08
595,492	149,33
595,688	14,17
595,883	151,38
596,079	106,32
596,275	30,55
596,47	91,99
596,666	44,88
596,861	44,88
597,057	79,7
597,252	-53,42
597,448	-51,37
597,643	157,52
597,839	132,95
598,034	44,88
598,23	-4,27
598,425	3,93
598,621	46,93
598,816	124,76
599,011	18,26
599,207	59,22
599,402	42,84
599,597	132,95
599,793	91,99
599,988	10,07
600,183	14,17
600,379	61,27
600,574	34,64
600,769	120,66
600,965	112,47
601,16	-28,84
601,355	-59,56
601,55	137,04
601,745	67,41
601,941	178
602,136	94,04
602,331	-6,31
602,526	83,8
602,721	157,52
602,916	34,64
603,111	14,17
603,307	-10,41
603,502	34,64
603,697	-59,56
603,892	8,02
604,087	12,12
604,282	212,82
604,477	91,99
604,672	85,84
604,867	34,64
605,062	-12,46
605,257	42,84
605,452	173,91
605,646	128,85
605,841	8,02
606,036	22,36
606,231	-6,31
606,426	22,36
606,621	-34,99
606,816	-0,17
607,01	94,04
607,205	83,8
607,4	-28,84
607,595	75,6
607,79	26,45
607,984	94,04
608,179	3,93
608,374	59,22
608,569	1,88
608,763	-14,51
608,958	-20,65
609,153	69,46
609,347	83,8
609,542	22,36
609,736	44,88
609,931	36,69
610,126	67,41
610,32	18,26
610,515	14,17
610,709	274,26
610,904	34,64
611,098	-102,57
611,293	-49,32
611,487	51,03
611,682	14,17
611,876	-37,03
612,071	77,65
612,265	10,07
612,46	-34,99
612,654	67,41
612,848	-14,51
613,043	46,93
613,237	18,26
613,432	59,22
613,626	-22,7
613,82	34,64
614,014	83,8
614,209	85,84
614,403	-59,56
614,597	-18,6
614,792	51,03
614,986	59,22
615,18	55,12
615,374	36,69
615,568	-88,23
615,763	18,26
615,957	44,88
616,151	116,56
616,345	34,64
616,539	20,31
616,733	34,64
616,927	59,22
617,121	61,27
617,316	67,41
617,51	55,12
617,704	3,93
617,898	132,95
618,092	10,07
618,286	69,46
618,48	-39,08
618,674	79,7
618,868	77,65
619,061	-43,18
619,255	69,46
619,449	-34,99
619,643	-71,85
619,837	128,85
620,031	71,51
620,225	98,13
620,419	-2,22
620,612	42,84
620,806	104,28
621	89,94
621,194	40,79
621,388	-2,22
621,581	-14,51
621,775	91,99
621,969	53,08
622,162	8,02
622,356	71,51
622,55	44,88
622,743	22,36
622,937	-22,7
623,131	42,84
623,324	75,6
623,518	20,31
623,712	-12,46
623,905	48,98
624,099	-10,41
624,292	34,64
624,486	63,32
624,679	20,31
624,873	-14,51
625,066	104,28
625,26	-2,22
625,453	-39,08
625,647	18,26
625,84	18,26
626,034	63,32
626,227	26,45
626,42	91,99
626,614	1,88
626,807	87,89
627	12,12
627,194	30,55
627,387	-6,31
627,58	-114,86
627,774	22,36
627,967	112,47
628,16	126,8
628,353	28,5
628,547	128,85
628,74	102,23
628,933	-84,14
629,126	-55,47
629,319	-14,51
629,513	42,84
629,706	44,88
629,899	-12,46
630,092	44,88
630,285	-30,89
630,478	26,45
630,671	83,8
630,864	75,6
631,057	-26,79
631,25	46,93
631,443	75,6
631,636	42,84
631,829	120,66
632,022	91,99
632,215	-12,46
632,408	36,69
632,601	118,61
632,794	1,88
632,987	40,79
633,18	42,84
633,373	-37,03
633,566	-24,75
633,758	-14,51
633,951	44,88
634,144	98,13
634,337	-26,79
634,53	85,84
634,722	116,56
634,915	38,74
635,108	-96,43
635,301	-14,51
635,493	26,45
635,686	116,56
635,879	14,17
636,071	-96,43
636,264	141,14
636,457	51,03
636,649	-18,6
636,842	20,31
637,034	149,33
637,227	26,45
637,42	-80,04
637,612	3,93
637,805	10,07
637,997	100,18
638,19	18,26
638,382	-14,51
638,575	-67,75
638,767	40,79
638,96	42,84
639,152	71,51
639,344	214,87
639,537	-22,7
639,729	5,97
639,922	-24,75
640,114	-6,31
640,306	73,56
640,499	59,22
640,691	81,75
640,883	-47,27
641,075	38,74
641,268	110,42
641,46	102,23
641,652	-12,46
641,844	71,51
642,037	-34,99
642,229	24,4
642,421	96,08
642,613	22,36
642,805	-67,75
642,998	-18,6
643,19	-12,46
643,382	153,43
643,574	102,23
643,766	83,8
643,958	18,26
644,15	75,6
644,342	104,28
644,534	96,08
644,726	-28,84
644,918	110,42
645,11	-49,32
645,302	3,93
645,494	30,55
645,686	44,88
645,878	-51,37
646,07	96,08
646,262	18,26
646,453	75,6
646,645	18,26
646,837	65,36
647,029	24,4
647,221	34,64
647,413	-4,27
647,604	44,88
647,796	34,64
647,988	128,85
648,18	28,5
648,371	44,88
648,563	10,07
648,755	-37,03
648,947	-63,66
649,138	-82,09
649,33	34,64
649,521	59,22
649,713	28,5
649,905	69,46
650,096	69,46
650,288	-30,89
650,479	-20,65
650,671	1,88
650,863	14,17
651,054	-30,89
651,246	3,93
651,437	-37,03
651,629	26,45
651,82	36,69
652,011	-22,7
652,203	46,93
652,394	44,88
652,586	-34,99
652,777	-28,84
652,968	42,84
653,16	-94,38
653,351	51,03
653,542	202,58
653,734	5,97
653,925	-30,89
654,116	79,7
654,308	83,8
654,499	3,93
654,69	-30,89
654,881	26,45
655,073	36,69
655,264	32,6
655,455	5,97
655,646	63,32
655,837	132,95
656,028	42,84
656,219	3,93
656,411	38,74
656,602	-26,79
656,793	40,79
656,984	55,12
657,175	42,84
657,366	42,84
657,557	75,6
657,748	-22,7
657,939	-18,6
658,13	-6,31
658,321	-30,89
658,512	26,45
658,703	61,27
658,894	75,6
659,084	63,32
659,275	22,36
659,466	12,12
659,657	94,04
659,848	94,04
660,039	124,76
660,23	44,88
660,42	-2,22
660,611	-6,31
660,802	44,88
660,993	46,93
661,183	32,6
661,374	28,5
661,565	83,8
661,755	100,18
661,946	83,8
662,137	24,4
662,327	-75,95
662,518	42,84
662,709	96,08
662,899	-80,04
663,09	44,88
663,28	44,88
663,471	18,26
663,662	114,52
663,852	108,37
664,043	-34,99
664,233	1,88
664,424	81,75
664,614	22,36
664,804	73,56
664,995	94,04
665,185	165,71
665,376	-30,89
665,566	184,15
665,756	16,21
665,947	157,52
666,137	218,96
666,328	976,71
666,518	2066,23
666,708	3774,24
666,898	5330,69
667,089	7497,44
667,279	9328,33
667,469	10806,96
667,659	11767,46
667,85	12304,03
668,04	12299,93
668,23	11679,4
668,42	11298,47
668,61	10544,82
668,8	9817,79
668,991	8756,94
669,181	7513,83
669,371	6612,72
669,561	5801,72
669,751	4914,95
669,941	3991,32
670,131	2828,07
670,321	2121,52
670,511	1484,61
670,701	968,52
670,891	681,8
671,081	380,75
671,271	218,96
671,461	157,52
671,651	118,61
671,841	116,56
672,03	87,89
672,22	59,22
672,41	67,41
672,6	79,7
672,79	12,12
672,98	28,5
673,169	20,31
673,359	59,22
673,549	3,93
673,739	-10,41
673,928	38,74
674,118	18,26
674,308	26,45
674,497	67,41
674,687	-71,85
674,877	28,5
675,066	-12,46
675,256	-51,37
675,446	20,31
675,635	-22,7
675,825	-45,23
676,014	24,4
676,204	-20,65
676,393	-39,08
676,583	61,27
676,772	55,12
676,962	-0,17
677,151	18,26
677,341	22,36
677,53	153,43
677,72	14,17
677,909	59,22
678,099	1,88
678,288	-30,89
678,477	61,27
678,667	-18,6
678,856	44,88
679,045	71,51
679,235	1,88
679,424	124,76
679,613	141,14
679,802	77,65
679,992	32,6
680,181	20,31
680,37	59,22
680,559	118,61
680,748	63,32
680,938	14,17
681,127	10,07
681,316	100,18
681,505	83,8
681,694	-75,95
681,883	14,17
682,072	14,17
682,261	10,07
682,45	-59,56
682,639	-61,61
682,828	14,17
683,017	67,41
683,206	22,36
683,395	-75,95
683,584	63,32
683,773	20,31
683,962	8,02
684,151	-45,23
684,34	12,12
684,529	16,21
684,718	42,84
684,907	38,74
685,095	42,84
685,284	85,84
685,473	26,45
685,662	-30,89
685,851	57,17
686,039	128,85
686,228	91,99
686,417	30,55
686,606	120,66
686,794	67,41
686,983	-26,79
687,172	-90,28
687,36	-53,42
687,549	-22,7
687,738	34,64
687,926	-84,14
688,115	67,41
688,303	-2,22
688,492	67,41
688,68	-69,8
688,869	-84,14
689,057	-10,41
689,246	18,26
689,434	16,21
689,623	-4,27
689,811	57,17
690	-104,62
690,188	34,64
690,377	-26,79
690,565	44,88
690,753	71,51
690,942	1,88
691,13	48,98
691,318	26,45
691,507	-77,99
691,695	-6,31
691,883	48,98
692,072	-14,51
692,26	91,99
692,448	85,84
692,636	-14,51
692,824	-55,47
693,013	61,27
693,201	59,22
693,389	-47,27
693,577	67,41
693,765	79,7
693,953	-14,51
694,141	-18,6
694,329	-12,46
694,518	-80,04
694,706	18,26
694,894	36,69
695,082	-80,04
695,27	51,03
695,458	85,84
695,646	51,03
695,834	112,47
696,022	18,26
696,209	26,45
696,397	-20,65
696,585	-14,51
696,773	3,93
696,961	10,07
697,149	-57,51
697,337	3,93
697,525	91,99
697,712	-6,31
697,9	67,41
698,088	34,64
698,276	22,36
698,463	-4,27
698,651	44,88
698,839	38,74
699,027	67,41
699,214	94,04
699,402	30,55
699,59	1,88
699,777	10,07
699,965	1,88
700,152	-4,27
700,34	18,26
700,528	-37,03
700,715	26,45
700,903	-4,27
701,09	28,5
701,278	38,74
701,465	85,84
701,653	57,17
701,84	1,88
702,028	83,8
702,215	26,45
702,402	1,88
702,59	18,26
702,777	96,08
702,965	159,57
703,152	75,6
703,339	55,12
703,527	46,93
703,714	145,24
703,901	118,61
704,088	83,8
704,276	75,6
704,463	198,48
704,65	124,76
704,837	257,87
705,025	886,6
705,212	2713,39
705,399	5887,74
705,586	9250,5
705,773	13094,54
705,96	16789,08
706,147	19736,1
706,335	21892,62
706,522	22795,77
706,709	22803,96
706,896	21956,1
707,083	20788,76
707,27	19850,79
707,457	18155,07
707,644	16598,62
707,831	14341,75
708,018	12549,78
708,205	10669,75
708,392	9062,09
708,578	7882,46
708,765	6340,34
708,952	5304,07
709,139	4134,68
709,326	2971,43
709,513	1994,55
709,7	1257,28
709,886	890,7
710,073	675,66
710,26	470,86
710,447	356,18
710,633	210,77
710,82	104,28
711,007	188,24
711,193	110,42
711,38	116,56
711,567	55,12
711,753	51,03
711,94	118,61
712,127	67,41
712,313	141,14
712,5	-30,89
712,686	100,18
712,873	-30,89
713,059	28,5
713,246	75,6
713,432	51,03
713,619	-20,65
713,805	69,46
713,992	159,57
714,178	12,12
714,365	22,36
714,551	120,66
714,737	10,07
714,924	-22,7
715,11	51,03
715,297	-24,75
715,483	8,02
715,669	1,88
715,855	5,97
716,042	38,74
716,228	3,93
716,414	100,18
716,6	34,64
716,787	-6,31
716,973	-2,22
717,159	34,64
717,345	42,84
717,531	-34,99
717,718	48,98
717,904	85,84
718,09	-18,6
718,276	18,26
718,462	1,88
718,648	46,93
718,834	-61,61
719,02	20,31
719,206	55,12
719,392	-47,27
719,578	38,74
719,764	-14,51
719,95	-53,42
720,136	149,33
720,322	51,03
720,508	28,5
720,694	10,07
720,879	-61,61
721,065	34,64
721,251	57,17
721,437	10,07
721,623	28,5
721,809	51,03
721,994	34,64
722,18	-30,89
722,366	-26,79
722,552	-47,27
722,737	-94,38
722,923	59,22
723,109	38,74
723,294	67,41
723,48	-41,13
723,666	59,22
723,851	75,6
724,037	91,99
724,222	85,84
724,408	61,27
724,593	38,74
724,779	36,69
724,965	-22,7
725,15	44,88
725,336	36,69
725,521	124,76
725,706	61,27
725,892	-14,51
726,077	28,5
726,263	-61,61
726,448	132,95
726,634	51,03
726,819	247,63
727,004	544,59
727,19	759,63
727,375	1271,62
727,56	1576,77
727,745	1773,37
727,931	2283,31
728,116	2232,12
728,301	2240,31
728,486	2090,81
728,672	1986,36
728,857	2066,23
729,042	1648,44
729,227	1484,61
729,412	1414,98
729,597	1216,32
729,783	1025,86
729,968	921,42
730,153	722,76
730,338	669,52
730,523	530,25
730,708	452,43
730,893	255,83
731,078	280,4
731,263	157,52
731,448	108,37
731,633	65,36
731,818	44,88
732,003	18,26
732,187	-39,08
732,372	5,97
732,557	83,8
732,742	-96,43
732,927	-53,42
733,112	10,07
733,297	67,41
733,481	75,6
733,666	42,84
733,851	-14,51
734,036	-80,04
734,22	18,26
734,405	159,57
734,59	-28,84
734,774	-10,41
734,959	-51,37
735,144	69,46
735,328	30,55
735,513	-39,08
735,698	10,07
735,882	36,69
736,067	46,93
736,251	67,41
736,436	28,5
736,62	14,17
736,805	-47,27
736,989	36,69
737,174	-39,08
737,358	-57,51
737,543	73,56
737,727	46,93
737,911	61,27
738,096	-22,7
738,28	3,93
738,465	12,12
738,649	26,45
738,833	141,14
739,018	-10,41
739,202	-34,99
739,386	-26,79
739,57	-16,55
739,755	34,64
739,939	126,8
740,123	-116,9
740,307	67,41
740,491	36,69
740,676	-39,08
740,86	24,4
741,044	-14,51
741,228	-2,22
741,412	-30,89
741,596	-30,89
741,78	-6,31
741,964	-55,47
742,148	-61,61
742,332	26,45
742,516	38,74
742,7	38,74
742,884	28,5
743,068	-20,65
743,252	-8,36
743,436	-49,32
743,62	-28,84
743,804	91,99
743,988	100,18
744,172	-39,08
744,356	30,55
744,539	59,22
744,723	-47,27
744,907	30,55
745,091	12,12
745,275	-0,17
745,458	61,27
745,642	-10,41
745,826	-77,99
746,009	91,99
746,193	-14,51
746,377	71,51
746,56	14,17
746,744	112,47
746,928	12,12
747,111	53,08
747,295	-39,08
747,478	-4,27
747,662	20,31
747,846	151,38
748,029	124,76
748,213	-28,84
748,396	44,88
748,58	42,84
748,763	20,31
748,946	-77,99
749,13	26,45
749,313	-69,8
749,497	85,84
749,68	10,07
749,863	71,51
750,047	-86,19
750,23	-43,18
750,413	-8,36
750,597	18,26
750,78	-61,61
750,963	20,31
751,146	-14,51
751,33	-8,36
751,513	-14,51
751,696	-4,27
751,879	44,88
752,062	-18,6
752,246	-14,51
752,429	108,37
752,612	-18,6
752,795	-14,51
752,978	-6,31
753,161	-53,42
753,344	-39,08
753,527	-16,55
753,71	26,45
753,893	18,26
754,076	-59,56
754,259	108,37
754,442	-43,18
754,625	-14,51
754,808	65,36
754,991	-20,65
755,174	-20,65
755,357	24,4
755,539	-77,99
755,722	34,64
755,905	55,12
756,088	18,26
756,271	-12,46
756,453	67,41
756,636	-37,03
756,819	59,22
757,002	-30,89
757,184	20,31
757,367	18,26
757,55	40,79
757,732	46,93
757,915	-6,31
758,098	-28,84
758,28	28,5
758,463	-4,27
758,645	20,31
758,828	-20,65
759,011	-22,7
759,193	1,88
759,376	28,5
759,558	-100,52
759,741	-39,08
759,923	-30,89
760,105	32,6
760,288	3,93
760,47	-14,51
760,653	-14,51
760,835	-104,62
761,017	-39,08
761,2	-65,71
761,382	130,9
761,564	26,45
761,747	20,31
761,929	-22,7
762,111	38,74
762,294	42,84
762,476	91,99
762,658	-22,7
762,84	51,03
763,022	18,26
763,205	34,64
763,387	67,41
763,569	10,07
763,751	-133,29
763,933	-77,99
764,115	-20,65
764,297	-18,6
764,479	34,64
764,661	-30,89
764,843	59,22
765,025	16,21
765,207	42,84
765,389	-98,47
765,571	-69,8
765,753	71,51
765,935	-22,7
766,117	42,84
766,299	141,14
766,481	83,8
766,663	-59,56
766,845	-32,94
767,026	-4,27
767,208	20,31
767,39	-75,95
767,572	-80,04
767,753	18,26
767,935	-53,42
768,117	-30,89
768,299	114,52
768,48	-18,6
768,662	34,64
768,844	-24,75
769,025	69,46
769,207	-14,51
769,389	51,03
769,57	-0,17
769,752	-18,6
769,933	-55,47
770,115	59,22
770,296	-18,6
770,478	63,32
770,659	-0,17
770,841	161,62
771,022	91,99
771,204	-18,6
771,385	-28,84
771,567	-10,41
771,748	83,8
771,929	-16,55
772,111	77,65
772,292	55,12
772,473	-28,84
772,655	28,5
772,836	-24,75
773,017	153,43
773,199	73,56
773,38	-6,31
773,561	44,88
773,742	85,84
773,923	18,26
774,105	59,22
774,286	1,88
774,467	-12,46
774,648	8,02
774,829	42,84
775,01	-30,89
775,191	-30,89
775,372	1,88
775,553	22,36
775,734	-6,31
775,915	10,07
776,096	-6,31
776,277	-4,27
776,458	-55,47
776,639	-16,55
776,82	128,85
777,001	22,36
777,182	22,36
777,363	67,41
777,544	1,88
777,725	130,9
777,906	-22,7
778,086	-30,89
778,267	26,45
778,448	24,4
778,629	-41,13
778,809	89,94
778,99	-63,66
779,171	-37,03
779,352	-14,51
779,532	-75,95
779,713	-75,95
779,894	-14,51
780,074	202,58
780,255	-12,46
780,435	83,8
780,616	57,17
780,797	102,23
780,977	-2,22
781,158	-49,32
781,338	-20,65
781,519	-30,89
781,699	190,29
781,88	12,12
782,06	42,84
782,241	-88,23
782,421	-63,66
782,601	67,41
782,782	59,22
782,962	44,88
783,142	-77,99
783,323	-55,47
783,503	46,93
783,683	51,03
783,864	36,69
784,044	67,41
784,224	32,6
784,404	59,22
784,585	-47,27
784,765	-45,23
784,945	42,84
785,125	-28,84
785,305	-20,65
785,485	141,14
785,666	8,02
785,846	34,64
786,026	1,88
786,206	-92,33
786,386	-61,61
786,566	59,22
786,746	-47,27
786,926	63,32
787,106	-0,17
787,286	-45,23
787,466	48,98
787,646	112,47
787,826	26,45
788,006	42,84
788,185	10,07
788,365	-55,47
788,545	79,7
788,725	-57,51
788,905	14,17
789,085	42,84
789,264	-45,23
789,444	-10,41
789,624	63,32
789,804	28,5
789,983	-2,22
790,163	1,88
790,343	53,08
790,522	59,22
790,702	59,22
790,882	-0,17
791,061	96,08
791,241	-2,22
791,42	-63,66
791,6	141,14
791,78	53,08
791,959	28,5
792,139	-43,18
792,318	-26,79
792,498	83,8
792,677	10,07
792,856	18,26
793,036	-22,7
793,215	5,97
793,395	55,12
793,574	14,17
793,753	-55,47
793,933	20,31
794,112	40,79
794,291	-8,36
794,471	67,41
794,65	28,5
794,829	-41,13
795,008	-34,99
795,188	12,12
795,367	51,03
795,546	-18,6
795,725	18,26
795,904	22,36
796,084	51,03
796,263	83,8
796,442	132,95
796,621	79,7
796,8	67,41
796,979	77,65
797,158	22,36
797,337	-12,46
797,516	8,02
797,695	100,18
797,874	77,65
798,053	26,45
798,232	5,97
798,411	-65,71
798,59	-104,62
798,769	-69,8
798,947	14,17
799,126	-28,84
799,305	61,27
799,484	1,88
799,663	1,88
799,842	46,93
800,02	75,6
800,199	-100,52
800,378	130,9
800,557	-10,41
800,735	3,93
800,914	-67,75
801,093	34,64
801,271	-18,6
801,45	34,64
801,628	-20,65
801,807	-14,51
801,986	67,41
802,164	-8,36
802,343	-53,42
802,521	-51,37
802,7	44,88
802,878	14,17
803,057	-12,46
803,235	34,64
803,414	-22,7
803,592	71,51
803,771	104,28
803,949	116,56
804,127	5,97
804,306	-24,75
804,484	10,07
804,662	14,17
804,841	-63,66
805,019	1,88
805,197	32,6
805,375	18,26
805,554	69,46
805,732	-47,27
805,91	59,22
806,088	18,26
806,266	-30,89
806,445	26,45
806,623	10,07
806,801	-6,31
806,979	51,03
807,157	-4,27
807,335	-14,51
807,513	48,98
807,691	12,12
807,869	-6,31
808,047	-34,99
808,225	-63,66
808,403	34,64
808,581	-18,6
808,759	116,56
808,937	59,22
809,115	28,5
809,293	51,03
809,471	-14,51
809,649	102,23
809,826	-28,84
810,004	55,12
810,182	-10,41
810,36	-63,66
810,538	22,36
810,715	51,03
810,893	-4,27
811,071	-16,55
811,248	32,6
811,426	-0,17
811,604	24,4
811,781	53,08
811,959	-14,51
812,137	36,69
812,314	-82,09
812,492	-53,42
812,669	61,27
812,847	-22,7
813,024	-6,31
813,202	96,08
813,379	-47,27
813,557	42,84
813,734	40,79
813,912	-39,08
814,089	34,64
814,267	1,88
814,444	59,22
814,621	42,84
814,799	-67,75
814,976	69,46
815,153	61,27
815,331	-39,08
815,508	-30,89
815,685	-102,57
815,862	22,36
816,04	-45,23
816,217	-22,7
816,394	-6,31
816,571	65,36
816,748	151,38
816,926	59,22
817,103	241,49
817,28	5,97
817,457	-4,27
817,634	149,33
817,811	-2,22
817,988	8,02
818,165	-61,61
818,342	18,26
818,519	61,27
818,696	-14,51
818,873	-67,75
819,05	100,18
819,227	59,22
819,404	42,84
819,581	-59,56
819,758	-71,85
819,934	-45,23
820,111	10,07
820,288	-86,19
820,465	96,08
820,642	-22,7
820,818	8,02
820,995	-26,79
821,172	51,03
821,349	-20,65
821,525	44,88
821,702	10,07
821,879	-20,65
822,055	38,74
822,232	10,07
822,409	-47,27
822,585	75,6
822,762	51,03
822,938	51,03
823,115	28,5
823,291	57,17
823,468	30,55
823,644	-6,31
823,821	61,27
823,997	-39,08
824,174	-100,52
824,35	-28,84
824,527	51,03
824,703	-6,31
824,879	-12,46
825,056	-43,18
825,232	55,12
825,408	-32,94
825,585	-47,27
825,761	1,88
825,937	-6,31
826,113	10,07
826,29	26,45
826,466	-12,46
826,642	280,4
826,818	16,21
826,994	-34,99
827,17	-28,84
827,347	3,93
827,523	-88,23
827,699	24,4
827,875	-2,22
828,051	44,88
828,227	18,26
828,403	34,64
828,579	28,5
828,755	124,76
828,931	-4,27
829,107	24,4
829,283	96,08
829,459	36,69
829,635	-14,51
829,811	67,41
829,986	42,84
830,162	1,88
830,338	-18,6
830,514	-47,27
830,69	-2,22
830,865	1,88
831,041	-22,7
831,217	-75,95
831,393	46,93
831,568	-6,31
831,744	67,41
831,92	-6,31
832,095	-12,46
832,271	-10,41
832,447	8,02
832,622	87,89
832,798	44,88
832,973	-34,99
833,149	59,22
833,325	-57,51
833,5	67,41
833,676	10,07
833,851	32,6
834,027	48,98
834,202	10,07
834,377	5,97
834,553	71,51
834,728	59,22
834,904	36,69
835,079	26,45
835,254	-43,18
835,43	75,6
835,605	51,03
835,78	55,12
835,955	-4,27
836,131	3,93
836,306	-94,38
836,481	-45,23
836,656	-6,31
836,832	73,56
837,007	-28,84
837,182	-30,89
837,357	-96,43
837,532	-20,65
837,707	-80,04
837,882	18,26
838,057	26,45
838,232	59,22
838,407	1,88
838,582	-102,57
838,757	10,07
838,932	46,93
839,107	-12,46
839,282	-135,34
839,457	-8,36
839,632	57,17
839,807	1,88
839,982	-14,51
840,157	-63,66
840,332	55,12
840,506	1,88
840,681	-30,89
840,856	18,26
841,031	-80,04
841,205	-57,51
841,38	-2,22
841,555	10,07
841,73	42,84
841,904	3,93
842,079	26,45
842,254	-22,7
842,428	-28,84
842,603	-55,47
842,777	-53,42
842,952	-51,37
843,126	-61,61
843,301	-39,08
843,476	-6,31
843,65	3,93
843,825	124,76
843,999	44,88
844,173	-43,18
844,348	1,88
844,522	34,64
844,697	34,64
844,871	24,4
845,045	75,6
845,22	1,88
845,394	132,95
845,568	-37,03
845,743	51,03
845,917	-20,65
846,091	46,93
846,265	-4,27
846,44	26,45
846,614	63,32
846,788	-71,85
846,962	83,8
847,136	42,84
847,31	-45,23
847,485	83,8
847,659	-59,56
847,833	42,84
848,007	24,4
848,181	59,22
848,355	-39,08
848,529	100,18
848,703	26,45
848,877	-67,75
849,051	26,45
849,225	75,6
849,399	-14,51
849,573	-26,79
849,746	65,36
849,92	10,07
850,094	51,03
850,268	-6,31
850,442	71,51
850,616	-77,99
850,789	51,03
850,963	-55,47
851,137	-41,13
851,311	48,98
851,484	122,71
851,658	-20,65
851,832	-47,27
852,005	18,26
852,179	30,55
852,352	22,36
852,526	1,88
852,7	1,88
852,873	-63,66
853,047	69,46
853,22	-4,27
853,394	67,41
853,567	79,7
853,741	-20,65
853,914	10,07
854,088	85,84
854,261	-4,27
854,434	-22,7
854,608	-88,23
854,781	-86,19
854,955	34,64
855,128	30,55
855,301	-28,84
855,475	30,55
855,648	14,17
855,821	61,27
855,994	38,74
856,168	18,26
856,341	75,6
856,514	-80,04
856,687	-108,71
856,86	71,51
857,033	20,31
857,207	18,26
857,38	-55,47
857,553	112,47
857,726	8,02
857,899	32,6
858,072	20,31
858,245	14,17
858,418	22,36
858,591	26,45
858,764	-30,89
858,937	18,26
859,11	51,03
859,283	91,99
859,455	22,36
859,628	-67,75
859,801	77,65
859,974	175,95
860,147	-20,65
860,32	40,79
860,492	10,07
860,665	-63,66
860,838	-2,22
861,011	-22,7
861,183	20,31
861,356	87,89
861,529	42,84
861,701	-14,51
861,874	20,31
862,047	124,76
862,219	42,84
862,392	34,64
862,564	-65,71
862,737	14,17
862,909	77,65
863,082	-0,17
863,254	12,12
863,427	-0,17
863,599	12,12
863,772	-4,27
863,944	20,31
864,117	83,8
864,289	48,98
864,461	34,64
864,634	69,46
864,806	-2,22
864,978	36,69
865,151	-39,08
865,323	110,42
865,495	94,04
865,667	28,5
865,84	77,65
866,012	42,84
866,184	79,7
866,356	-34,99
866,528	26,45
866,7	10,07
866,873	-100,52
867,045	-20,65
867,217	-137,38
867,389	36,69
867,561	42,84
867,733	10,07
867,905	-67,75
868,077	36,69
868,249	-47,27
868,421	-4,27
868,593	-37,03
868,765	85,84
868,936	-77,99
869,108	46,93
869,28	57,17
869,452	18,26
869,624	-96,43
869,796	71,51
869,968	-53,42
870,139	196,43
870,311	-75,95
870,483	85,84
870,654	-51,37
870,826	-43,18
870,998	-59,56
871,17	-10,41
871,341	-10,41
871,513	12,12
871,684	28,5
871,856	3,93
872,028	36,69
872,199	-92,33
872,371	-6,31
872,542	-2,22
872,714	53,08
872,885	108,37
873,057	-4,27
873,228	46,93
873,4	30,55
873,571	151,38
873,742	-30,89
873,914	87,89
874,085	42,84
874,256	-26,79
874,428	-137,38
874,599	30,55
874,77	-12,46
874,942	1,88
875,113	10,07
875,284	-71,85
875,455	-96,43
875,626	34,64
875,798	-55,47
875,969	-14,51
876,14	34,64
876,311	38,74
876,482	53,08
876,653	18,26
876,824	75,6
876,995	-2,22
877,166	28,5
877,337	46,93
877,508	-110,76
877,679	-47,27
877,85	-77,99
878,021	14,17
878,192	75,6
878,363	16,21
878,534	28,5
878,705	-59,56
878,876	-69,8
879,047	55,12
879,217	-88,23
879,388	59,22
879,559	-43,18
879,73	77,65
879,9	14,17
880,071	-28,84
880,242	10,07
880,413	-47,27
880,583	-6,31
880,754	83,8
880,924	-28,84
881,095	-45,23
881,266	-8,36
881,436	-69,8
881,607	61,27
881,777	18,26
881,948	-104,62
882,118	-73,9
882,289	-51,37
882,459	-2,22
882,63	34,64
882,8	91,99
882,971	-20,65
883,141	48,98
883,311	42,84
883,482	87,89
883,652	-32,94
883,822	-12,46
883,993	-30,89
884,163	53,08
884,333	-69,8
884,504	81,75
884,674	108,37
884,844	-4,27
885,014	-86,19
885,184	-28,84
885,355	-32,94
885,525	-14,51
885,695	-63,66
885,865	147,28
886,035	-6,31
886,205	10,07
886,375	42,84
886,545	8,02
886,715	-106,67
886,885	18,26
887,055	20,31
887,225	-41,13
887,395	-22,7
887,565	77,65
887,735	10,07
887,905	120,66
888,075	-10,41
888,244	10,07
888,414	-2,22
888,584	26,45
888,754	26,45
888,924	-6,31
889,093	165,71
889,263	-22,7
889,433	-55,47
889,603	-47,27
889,772	-2,22
889,942	3,93
890,111	3,93
890,281	18,26
890,451	-18,6
890,62	28,5
890,79	55,12
890,959	-22,7
891,129	28,5
891,298	-43,18
891,468	30,55
891,637	5,97
891,807	63,32
891,976	44,88
892,146	-43,18
892,315	36,69
892,485	104,28
892,654	-12,46
892,823	12,12
892,993	-94,38
893,162	44,88
893,331	10,07
893,501	34,64
893,67	-20,65
893,839	-30,89
894,008	-30,89
894,177	10,07
894,347	-30,89
894,516	63,32
894,685	53,08
894,854	-61,61
895,023	59,22
895,192	1,88
