Data from he_USB4F104161__26__11-53-37-951.txt Node

Date: Tue Apr 14 11:53:37 EDT 2026
User: LaboPhy
Spectrometer: USB4F10416
Trigger mode: 4
Integration Time (sec): 1,000000E-1
Scans to average: 1
Electric dark correction enabled: true
Nonlinearity correction enabled: false
Boxcar width: 0
XAxis mode: Wavelengths
Number of Pixels in Spectrum: 3648
>>>>>Begin Spectral Data<<<<<
177,847	-155,82
178,066	-155,82
178,284	-155,82
178,502	-192,68
178,72	-172,2
178,939	8,02
179,157	-20,65
179,375	-28,84
179,593	48,98
179,812	28,5
180,03	-8,36
180,248	-43,18
180,466	3,93
180,685	3,93
180,903	1,88
181,121	-90,28
181,339	96,08
181,557	-59,56
181,775	22,36
181,994	-28,84
182,212	-34,99
182,43	-65,71
182,648	-45,23
182,866	-28,84
183,084	104,28
183,302	28,5
183,52	53,08
183,739	5,97
183,957	112,47
184,175	3,93
184,393	3,93
184,611	65,36
184,829	-45,23
185,047	-10,41
185,265	87,89
185,483	-43,18
185,701	5,97
185,919	26,45
186,137	-10,41
186,355	73,56
186,573	-4,27
186,791	85,84
187,009	3,93
187,227	85,84
187,445	5,97
187,663	-32,94
187,881	-43,18
188,098	-59,56
188,316	28,5
188,534	94,04
188,752	10,07
188,97	-34,99
189,188	14,17
189,406	79,7
189,624	8,02
189,841	61,27
190,059	-53,42
190,277	65,36
190,495	3,93
190,713	106,32
190,931	120,66
191,148	77,65
191,366	28,5
191,584	44,88
191,802	44,88
192,019	110,42
192,237	73,56
192,455	10,07
192,673	61,27
192,89	-108,71
193,108	-20,65
193,326	-20,65
193,543	38,74
193,761	-26,79
193,979	-4,27
194,196	-16,55
194,414	81,75
194,632	69,46
194,849	-53,42
195,067	-24,75
195,285	8,02
195,502	-71,85
195,72	42,84
195,937	-26,79
196,155	-28,84
196,373	-10,41
196,59	-45,23
196,808	-63,66
197,025	94,04
197,243	241,49
197,46	57,17
197,678	61,27
197,895	-2,22
198,113	44,88
198,33	-51,37
198,548	18,26
198,765	8,02
198,983	16,21
199,2	28,5
199,418	51,03
199,635	-69,8
199,853	46,93
200,07	5,97
200,288	87,89
200,505	40,79
200,722	87,89
200,94	73,56
201,157	91,99
201,375	77,65
201,592	-10,41
201,809	87,89
202,027	28,5
202,244	61,27
202,461	-47,27
202,679	83,8
202,896	32,6
203,113	-45,23
203,331	22,36
203,548	46,93
203,765	-26,79
203,982	118,61
204,2	-6,31
204,417	-12,46
204,634	200,53
204,851	44,88
205,069	44,88
205,286	44,88
205,503	28,5
205,72	-10,41
205,937	61,27
206,155	-51,37
206,372	175,95
206,589	94,04
206,806	55,12
207,023	20,31
207,24	36,69
207,458	-26,79
207,675	16,21
207,892	53,08
208,109	-59,56
208,326	20,31
208,543	-6,31
208,76	-37,03
208,977	44,88
209,194	3,93
209,411	-61,61
209,628	20,31
209,845	20,31
210,062	-53,42
210,279	-10,41
210,496	-45,23
210,713	20,31
210,93	-57,51
211,147	114,52
211,364	-8,36
211,581	24,4
211,798	40,79
212,015	-37,03
212,232	-12,46
212,449	12,12
212,666	-10,41
212,883	-86,19
213,1	-37,03
213,317	-45,23
213,533	3,93
213,75	73,56
213,967	-10,41
214,184	-65,71
214,401	51,03
214,618	61,27
214,835	-16,55
215,051	104,28
215,268	48,98
215,485	77,65
215,702	-61,61
215,919	-20,65
216,135	161,62
216,352	53,08
216,569	3,93
216,786	85,84
217,002	10,07
217,219	71,51
217,436	-18,6
217,652	-49,32
217,869	53,08
218,086	120,66
218,302	-4,27
218,519	65,36
218,736	-57,51
218,952	-45,23
219,169	46,93
219,386	-4,27
219,602	24,4
219,819	3,93
220,036	-26,79
220,252	116,56
220,469	-71,85
220,685	53,08
220,902	3,93
221,118	-4,27
221,335	-28,84
221,552	5,97
221,768	55,12
221,985	-20,65
222,201	46,93
222,418	128,85
222,634	-12,46
222,851	-14,51
223,067	24,4
223,284	12,12
223,5	-12,46
223,716	-0,17
223,933	106,32
224,149	32,6
224,366	-34,99
224,582	-8,36
224,799	61,27
225,015	40,79
225,231	-51,37
225,448	-84,14
225,664	30,55
225,88	-28,84
226,097	-4,27
226,313	-18,6
226,529	-4,27
226,746	-0,17
226,962	20,31
227,178	16,21
227,395	-43,18
227,611	36,69
227,827	48,98
228,044	30,55
228,26	53,08
228,476	36,69
228,692	120,66
228,909	36,69
229,125	-8,36
229,341	-6,31
229,557	-28,84
229,773	-61,61
229,99	1,88
230,206	-32,94
230,422	-43,18
230,638	-45,23
230,854	-26,79
231,07	-20,65
231,286	57,17
231,503	61,27
231,719	-82,09
231,935	-2,22
232,151	3,93
232,367	175,95
232,583	20,31
232,799	48,98
233,015	91,99
233,231	30,55
233,447	-57,51
233,663	30,55
233,879	73,56
234,095	-28,84
234,311	22,36
234,527	20,31
234,743	48,98
234,959	96,08
235,175	14,17
235,391	42,84
235,607	-37,03
235,823	139,09
236,039	-75,95
236,255	-43,18
236,471	69,46
236,687	28,5
236,903	73,56
237,118	44,88
237,334	-12,46
237,55	112,47
237,766	-49,32
237,982	46,93
238,198	28,5
238,413	34,64
238,629	-28,84
238,845	5,97
239,061	44,88
239,277	8,02
239,492	5,97
239,708	-77,99
239,924	5,97
240,14	-20,65
240,355	155,47
240,571	16,21
240,787	3,93
241,003	98,13
241,218	28,5
241,434	20,31
241,65	30,55
241,865	-59,56
242,081	98,13
242,297	-53,42
242,512	77,65
242,728	14,17
242,944	-37,03
243,159	55,12
243,375	-61,61
243,59	32,6
243,806	-4,27
244,022	53,08
244,237	16,21
244,453	5,97
244,668	42,84
244,884	48,98
245,099	-16,55
245,315	77,65
245,53	71,51
245,746	73,56
245,961	38,74
246,177	-51,37
246,392	69,46
246,608	104,28
246,823	-84,14
247,039	-8,36
247,254	16,21
247,47	87,89
247,685	-49,32
247,9	-45,23
248,116	-4,27
248,331	-10,41
248,547	55,12
248,762	-10,41
248,977	-16,55
249,193	36,69
249,408	77,65
249,623	-84,14
249,839	-34,99
250,054	-28,84
250,269	53,08
250,485	24,4
250,7	44,88
250,915	3,93
251,13	100,18
251,346	-2,22
251,561	63,32
251,776	190,29
251,991	-26,79
252,207	151,38
252,422	67,41
252,637	14,17
252,852	-57,51
253,067	106,32
253,283	69,46
253,498	40,79
253,713	16,21
253,928	-61,61
254,143	-45,23
254,358	-12,46
254,573	-18,6
254,788	-18,6
255,004	-16,55
255,219	-8,36
255,434	-20,65
255,649	-37,03
255,864	79,7
256,079	32,6
256,294	28,5
256,509	-26,79
256,724	12,12
256,939	-16,55
257,154	-34,99
257,369	-28,84
257,584	104,28
257,799	12,12
258,014	10,07
258,229	63,32
258,444	-12,46
258,659	77,65
258,874	59,22
259,089	-20,65
259,304	38,74
259,518	-84,14
259,733	-6,31
259,948	-12,46
260,163	44,88
260,378	71,51
260,593	48,98
260,808	-28,84
261,022	-45,23
261,237	83,8
261,452	20,31
261,667	22,36
261,882	71,51
262,096	28,5
262,311	135
262,526	20,31
262,741	-12,46
262,955	-92,33
263,17	30,55
263,385	-75,95
263,6	-22,7
263,814	20,31
264,029	-22,7
264,244	44,88
264,458	-6,31
264,673	26,45
264,888	28,5
265,102	57,17
265,317	-0,17
265,532	8,02
265,746	61,27
265,961	48,98
266,175	18,26
266,39	12,12
266,605	-8,36
266,819	44,88
267,034	30,55
267,248	-61,61
267,463	22,36
267,677	36,69
267,892	12,12
268,106	-69,8
268,321	-30,89
268,535	104,28
268,75	51,03
268,964	-86,19
269,179	-0,17
269,393	38,74
269,608	22,36
269,822	-45,23
270,036	-75,95
270,251	3,93
270,465	-92,33
270,68	-8,36
270,894	79,7
271,108	128,85
271,323	12,12
271,537	8,02
271,752	-20,65
271,966	3,93
272,18	-51,37
272,394	-4,27
272,609	-22,7
272,823	-2,22
273,037	-24,75
273,252	-16,55
273,466	-24,75
273,68	26,45
273,894	12,12
274,109	-28,84
274,323	36,69
274,537	-0,17
274,751	-4,27
274,966	36,69
275,18	-135,34
275,394	-37,03
275,608	-45,23
275,822	-16,55
276,036	-102,57
276,25	48,98
276,465	14,17
276,679	12,12
276,893	-69,8
277,107	145,24
277,321	-12,46
277,535	12,12
277,749	67,41
277,963	44,88
278,177	-71,85
278,391	69,46
278,605	-28,84
278,819	32,6
279,033	-49,32
279,247	5,97
279,461	87,89
279,675	-51,37
279,889	46,93
280,103	30,55
280,317	12,12
280,531	-53,42
280,745	1,88
280,959	-84,14
281,173	-45,23
281,387	57,17
281,601	69,46
281,815	85,84
282,029	-49,32
282,242	20,31
282,456	-90,28
282,67	94,04
282,884	8,02
283,098	44,88
283,312	14,17
283,525	-20,65
283,739	94,04
283,953	-34,99
284,167	53,08
284,381	-53,42
284,594	-16,55
284,808	-24,75
285,022	-59,56
285,235	3,93
285,449	139,09
285,663	-12,46
285,877	20,31
286,09	-12,46
286,304	128,85
286,518	-51,37
286,731	-116,9
286,945	10,07
287,159	-69,8
287,372	48,98
287,586	24,4
287,799	12,12
288,013	-102,57
288,227	-2,22
288,44	261,97
288,654	85,84
288,867	46,93
289,081	-4,27
289,294	20,31
289,508	96,08
289,721	-8,36
289,935	26,45
290,148	110,42
290,362	79,7
290,575	94,04
290,789	-10,41
291,002	-53,42
291,216	81,75
291,429	-12,46
291,643	-92,33
291,856	-18,6
292,069	-28,84
292,283	-94,38
292,496	-37,03
292,71	22,36
292,923	-51,37
293,136	-57,51
293,35	-4,27
293,563	-10,41
293,776	28,5
293,99	14,17
294,203	53,08
294,416	3,93
294,63	24,4
294,843	28,5
295,056	73,56
295,269	36,69
295,483	-53,42
295,696	-24,75
295,909	-41,13
296,122	118,61
296,335	14,17
296,549	57,17
296,762	-61,61
296,975	-2,22
297,188	-43,18
297,401	-28,84
297,615	36,69
297,828	-10,41
298,041	67,41
298,254	-100,52
298,467	-12,46
298,68	28,5
298,893	20,31
299,106	-30,89
299,319	20,31
299,532	59,22
299,745	-45,23
299,958	-73,9
300,171	-47,27
300,384	14,17
300,598	-135,34
300,81	184,15
301,023	-24,75
301,236	-59,56
301,449	77,65
301,662	-61,61
301,875	5,97
302,088	53,08
302,301	14,17
302,514	-12,46
302,727	63,32
302,94	1,88
303,153	-18,6
303,366	22,36
303,579	36,69
303,791	-14,51
304,004	-12,46
304,217	38,74
304,43	-0,17
304,643	69,46
304,855	-98,47
305,068	71,51
305,281	36,69
305,494	63,32
305,707	81,75
305,919	128,85
306,132	-30,89
306,345	14,17
306,558	28,5
306,77	-67,75
306,983	-10,41
307,196	81,75
307,408	-0,17
307,621	8,02
307,834	3,93
308,046	-4,27
308,259	8,02
308,472	24,4
308,684	12,12
308,897	-57,51
309,109	-77,99
309,322	-75,95
309,535	16,21
309,747	81,75
309,96	-22,7
310,172	61,27
310,385	67,41
310,597	-16,55
310,81	-10,41
311,022	-2,22
311,235	-94,38
311,447	-10,41
311,66	-61,61
311,872	61,27
312,085	-69,8
312,297	-10,41
312,51	-86,19
312,722	8,02
312,934	-43,18
313,147	-28,84
313,359	16,21
313,572	-37,03
313,784	30,55
313,996	14,17
314,209	20,31
314,421	3,93
314,633	-67,75
314,846	-37,03
315,058	-0,17
315,27	-65,71
315,483	-61,61
315,695	98,13
315,907	-61,61
316,119	-4,27
316,332	-45,23
316,544	188,24
316,756	32,6
316,968	36,69
317,181	-24,75
317,393	61,27
317,605	48,98
317,817	118,61
318,029	81,75
318,241	77,65
318,454	85,84
318,666	65,36
318,878	20,31
319,09	40,79
319,302	130,9
319,514	130,9
319,726	44,88
319,938	77,65
320,15	87,89
320,362	48,98
320,574	-53,42
320,786	-69,8
320,999	-47,27
321,211	81,75
321,423	3,93
321,635	-28,84
321,847	16,21
322,058	-34,99
322,27	44,88
322,482	42,84
322,694	40,79
322,906	44,88
323,118	94,04
323,33	-2,22
323,542	3,93
323,754	-4,27
323,966	-94,38
324,178	77,65
324,389	36,69
324,601	12,12
324,813	-0,17
325,025	30,55
325,237	-67,75
325,449	81,75
325,66	-12,46
325,872	-118,95
326,084	14,17
326,296	87,89
326,507	28,5
326,719	20,31
326,931	-106,67
327,143	-18,6
327,354	143,19
327,566	30,55
327,778	102,23
327,989	114,52
328,201	20,31
328,413	38,74
328,624	51,03
328,836	12,12
329,048	-118,95
329,259	30,55
329,471	-94,38
329,682	51,03
329,894	-73,9
330,106	-8,36
330,317	-12,46
330,529	-32,94
330,74	-47,27
330,952	3,93
331,163	-69,8
331,375	28,5
331,586	3,93
331,798	-18,6
332,009	30,55
332,221	44,88
332,432	137,04
332,644	-10,41
332,855	-88,23
333,067	-4,27
333,278	-37,03
333,489	48,98
333,701	-77,99
333,912	-26,79
334,124	-53,42
334,335	-49,32
334,546	-12,46
334,758	12,12
334,969	102,23
335,18	44,88
335,392	-4,27
335,603	155,47
335,814	46,93
336,025	-8,36
336,237	8,02
336,448	-147,62
336,659	12,12
336,87	22,36
337,082	71,51
337,293	-75,95
337,504	34,64
337,715	-28,84
337,926	61,27
338,138	24,4
338,349	61,27
338,56	16,21
338,771	-84,14
338,982	24,4
339,193	-16,55
339,404	81,75
339,616	-53,42
339,827	30,55
340,038	-90,28
340,249	-6,31
340,46	87,89
340,671	3,93
340,882	87,89
341,093	-4,27
341,304	12,12
341,515	-53,42
341,726	-12,46
341,937	14,17
342,148	36,69
342,359	-61,61
342,57	-28,84
342,781	44,88
342,992	12,12
343,203	28,5
343,414	135
343,624	-86,19
343,835	57,17
344,046	-94,38
344,257	-6,31
344,468	-41,13
344,679	-0,17
344,89	-41,13
345,1	-90,28
345,311	-100,52
345,522	-65,71
345,733	-12,46
345,944	-37,03
346,154	63,32
346,365	32,6
346,576	-8,36
346,787	-24,75
346,997	-28,84
347,208	55,12
347,419	-84,14
347,629	102,23
347,84	171,86
348,051	-12,46
348,261	40,79
348,472	-84,14
348,683	-12,46
348,893	-75,95
349,104	28,5
349,315	-47,27
349,525	-61,61
349,736	44,88
349,946	-0,17
350,157	24,4
350,368	26,45
350,578	-18,6
350,789	40,79
350,999	77,65
351,21	5,97
351,42	-73,9
351,631	-45,23
351,841	14,17
352,052	65,36
352,262	32,6
352,472	-26,79
352,683	-67,75
352,893	73,56
353,104	5,97
353,314	161,62
353,525	366,42
353,735	69,46
353,945	-61,61
354,156	-34,99
354,366	-12,46
354,576	87,89
354,787	3,93
354,997	-53,42
355,207	-86,19
355,418	-100,52
355,628	-82,09
355,838	77,65
356,048	16,21
356,259	94,04
356,469	-65,71
356,679	53,08
356,889	118,61
357,1	-65,71
357,31	-86,19
357,52	30,55
357,73	-71,85
357,94	53,08
358,15	22,36
358,361	3,93
358,571	-32,94
358,781	53,08
358,991	-45,23
359,201	-8,36
359,411	-37,03
359,621	-49,32
359,831	114,52
360,041	12,12
360,251	36,69
360,461	28,5
360,672	-32,94
360,882	-61,61
361,092	12,12
361,302	34,64
361,512	12,12
361,721	-20,65
361,931	36,69
362,141	87,89
362,351	87,89
362,561	22,36
362,771	-69,8
362,981	-0,17
363,191	28,5
363,401	44,88
363,611	-12,46
363,821	-106,67
364,03	-116,9
364,24	61,27
364,45	71,51
364,66	266,07
364,87	-4,27
365,08	36,69
365,289	-67,75
365,499	-37,03
365,709	94,04
365,919	26,45
366,128	-18,6
366,338	48,98
366,548	-20,65
366,758	-49,32
366,967	12,12
367,177	48,98
367,387	28,5
367,596	53,08
367,806	28,5
368,016	16,21
368,225	-20,65
368,435	61,27
368,644	-20,65
368,854	-20,65
369,064	102,23
369,273	40,79
369,483	5,97
369,692	-24,75
369,902	-34,99
370,111	85,84
370,321	-34,99
370,53	-34,99
370,74	-65,71
370,949	48,98
371,159	85,84
371,368	55,12
371,578	67,41
371,787	44,88
371,997	40,79
372,206	114,52
372,416	44,88
372,625	8,02
372,834	40,79
373,044	3,93
373,253	-18,6
373,462	8,02
373,672	-43,18
373,881	8,02
374,09	-51,37
374,3	-6,31
374,509	-73,9
374,718	12,12
374,928	175,95
375,137	46,93
375,346	40,79
375,555	108,37
375,765	-24,75
375,974	3,93
376,183	20,31
376,392	-4,27
376,601	61,27
376,811	55,12
377,02	36,69
377,229	20,31
377,438	94,04
377,647	28,5
377,856	-49,32
378,065	-26,79
378,275	-28,84
378,484	-0,17
378,693	-20,65
378,902	-69,8
379,111	36,69
379,32	-12,46
379,529	-20,65
379,738	-0,17
379,947	-24,75
380,156	34,64
380,365	-16,55
380,574	89,94
380,783	-45,23
380,992	36,69
381,201	-16,55
381,41	-12,46
381,619	3,93
381,828	-24,75
382,037	120,66
382,245	192,34
382,454	120,66
382,663	65,36
382,872	48,98
383,081	57,17
383,29	44,88
383,499	83,8
383,707	120,66
383,916	61,27
384,125	128,85
384,334	22,36
384,542	118,61
384,751	71,51
384,96	87,89
385,169	-94,38
385,377	-37,03
385,586	61,27
385,795	36,69
386,004	145,24
386,212	-37,03
386,421	61,27
386,63	345,94
386,838	751,43
387,047	1183,56
387,255	2027,32
387,464	2909,99
387,673	3839,77
387,881	5109,51
388,09	5969,66
388,298	6889,2
388,507	8240,86
388,715	10108,6
388,924	11194,03
389,133	10895,02
389,341	10194,62
389,55	9199,3
389,758	6950,64
389,967	4491,02
390,175	2963,24
390,383	2357,04
390,592	1699,64
390,8	1083,2
391,009	753,48
391,217	440,14
391,426	249,68
391,634	169,81
391,842	63,32
392,051	8,02
392,259	77,65
392,467	-32,94
392,676	-18,6
392,884	-16,55
393,092	40,79
393,301	40,79
393,509	18,26
393,717	110,42
393,925	57,17
394,134	34,64
394,342	85,84
394,55	114,52
394,758	112,47
394,967	28,5
395,175	46,93
395,383	65,36
395,591	46,93
395,799	149,33
396,007	85,84
396,216	290,64
396,424	225,11
396,632	266,07
396,84	167,76
397,048	257,87
397,256	151,38
397,464	42,84
397,672	71,51
397,88	-18,6
398,088	36,69
398,296	12,12
398,504	-51,37
398,712	-55,47
398,92	85,84
399,128	12,12
399,336	71,51
399,544	61,27
399,752	24,4
399,96	65,36
400,168	12,12
400,376	-4,27
400,584	26,45
400,792	30,55
401	71,51
401,207	178
401,415	46,93
401,623	214,87
401,831	233,3
402,039	225,11
402,247	282,45
402,454	415,57
402,662	413,52
402,87	429,9
403,078	462,67
403,285	358,22
403,493	292,69
403,701	198,48
403,909	40,79
404,116	79,7
404,324	3,93
404,532	-26,79
404,739	-49,32
404,947	22,36
405,155	116,56
405,362	3,93
405,57	96,08
405,778	-18,6
405,985	110,42
406,193	-0,17
406,4	-100,52
406,608	57,17
406,816	-30,89
407,023	-4,27
407,231	-55,47
407,438	71,51
407,646	24,4
407,853	-65,71
408,061	24,4
408,268	53,08
408,476	24,4
408,683	-37,03
408,89	46,93
409,098	104,28
409,305	24,4
409,513	61,27
409,72	1,88
409,927	-0,17
410,135	8,02
410,342	12,12
410,55	169,81
410,757	3,93
410,964	-26,79
411,172	55,12
411,379	46,93
411,586	36,69
411,793	63,32
412,001	32,6
412,208	30,55
412,415	118,61
412,622	196,43
412,83	-4,27
413,037	63,32
413,244	-26,79
413,451	102,23
413,658	135
413,866	81,75
414,073	20,31
414,28	147,28
414,487	32,6
414,694	38,74
414,901	-32,94
415,108	-65,71
415,315	22,36
415,522	98,13
415,73	-18,6
415,937	-49,32
416,144	-51,37
416,351	-26,79
416,558	-57,51
416,765	12,12
416,972	20,31
417,179	12,12
417,386	46,93
417,593	-10,41
417,8	-0,17
418,006	81,75
418,213	55,12
418,42	-24,75
418,627	126,8
418,834	-26,79
419,041	-34,99
419,248	102,23
419,455	32,6
419,661	98,13
419,868	-10,41
420,075	51,03
420,282	-75,95
420,489	-37,03
420,696	22,36
420,902	-10,41
421,109	-4,27
421,316	-37,03
421,523	-10,41
421,729	139,09
421,936	3,93
422,143	135
422,349	1,88
422,556	-45,23
422,763	34,64
422,969	24,4
423,176	-24,75
423,383	12,12
423,589	200,53
423,796	-20,65
424,002	-53,42
424,209	69,46
424,416	14,17
424,622	-92,33
424,829	51,03
425,035	-80,04
425,242	36,69
425,448	-108,71
425,655	65,36
425,861	28,5
426,068	-26,79
426,274	102,23
426,481	20,31
426,687	87,89
426,894	-37,03
427,1	-32,94
427,306	-41,13
427,513	-49,32
427,719	-24,75
427,926	69,46
428,132	-53,42
428,338	-26,79
428,545	44,88
428,751	-53,42
428,957	69,46
429,163	77,65
429,37	65,36
429,576	53,08
429,782	34,64
429,989	-34,99
430,195	77,65
430,401	-49,32
430,607	-4,27
430,813	-45,23
431,02	-4,27
431,226	-12,46
431,432	-4,27
431,638	36,69
431,844	3,93
432,05	-24,75
432,257	-53,42
432,463	14,17
432,669	22,36
432,875	-30,89
433,081	-4,27
433,287	-8,36
433,493	-51,37
433,699	16,21
433,905	20,31
434,111	-10,41
434,317	-26,79
434,523	96,08
434,729	32,6
434,935	-75,95
435,141	141,14
435,347	79,7
435,553	-20,65
435,759	53,08
435,965	-37,03
436,171	77,65
436,377	44,88
436,582	102,23
436,788	-26,79
436,994	102,23
437,2	-71,85
437,406	3,93
437,612	104,28
437,818	124,76
438,023	-73,9
438,229	180,05
438,435	106,32
438,641	145,24
438,846	163,67
439,052	126,8
439,258	186,19
439,464	46,93
439,669	89,94
439,875	192,34
440,081	53,08
440,286	-59,56
440,492	44,88
440,698	34,64
440,903	20,31
441,109	159,57
441,314	-75,95
441,52	-55,47
441,726	28,5
441,931	75,6
442,137	87,89
442,342	-34,99
442,548	53,08
442,753	5,97
442,959	-4,27
443,164	20,31
443,37	40,79
443,575	-80,04
443,781	87,89
443,986	110,42
444,192	61,27
444,397	-20,65
444,602	-6,31
444,808	10,07
445,013	16,21
445,219	253,78
445,424	434
445,629	642,89
445,835	1052,49
446,04	1273,67
446,245	1623,87
446,451	1810,23
446,656	2326,32
446,861	2801,45
447,066	3227,43
447,272	3477,28
447,477	3391,27
447,682	3108,65
447,887	2584,37
448,093	2277,17
448,298	1619,77
448,503	1075,01
448,708	733
448,913	442,19
449,118	327,5
449,324	202,58
449,529	175,95
449,734	28,5
449,939	30,55
450,144	147,28
450,349	48,98
450,554	-86,19
450,759	104,28
450,964	55,12
451,169	69,46
451,374	-12,46
451,579	14,17
451,784	65,36
451,989	20,31
452,194	61,27
452,399	30,55
452,604	10,07
452,809	-4,27
453,014	57,17
453,219	3,93
453,424	3,93
453,629	-61,61
453,833	-45,23
454,038	-6,31
454,243	12,12
454,448	5,97
454,653	75,6
454,858	-4,27
455,062	-34,99
455,267	-4,27
455,472	163,67
455,677	-4,27
455,882	71,51
456,086	94,04
456,291	-12,46
456,496	-2,22
456,7	-24,75
456,905	48,98
457,11	-16,55
457,314	5,97
457,519	3,93
457,724	-69,8
457,928	24,4
458,133	-20,65
458,338	-59,56
458,542	-16,55
458,747	-2,22
458,951	20,31
459,156	20,31
459,36	-43,18
459,565	110,42
459,769	-10,41
459,974	-18,6
460,178	-28,84
460,383	-118,95
460,587	-100,52
460,792	8,02
460,996	-16,55
461,201	30,55
461,405	-67,75
461,61	-84,14
461,814	61,27
462,018	-16,55
462,223	-67,75
462,427	24,4
462,631	46,93
462,836	5,97
463,04	104,28
463,244	128,85
463,449	-28,84
463,653	53,08
463,857	94,04
464,062	14,17
464,266	44,88
464,47	-20,65
464,674	38,74
464,878	8,02
465,083	-10,41
465,287	135
465,491	-30,89
465,695	-16,55
465,899	10,07
466,104	63,32
466,308	-12,46
466,512	8,02
466,716	20,31
466,92	12,12
467,124	44,88
467,328	79,7
467,532	100,18
467,736	36,69
467,94	65,36
468,144	-45,23
468,348	87,89
468,552	100,18
468,756	26,45
468,96	-41,13
469,164	-69,8
469,368	85,84
469,572	55,12
469,776	229,2
469,98	221,01
470,184	323,41
470,388	429,9
470,591	520,01
470,795	575,31
470,999	644,94
471,203	753,48
471,407	866,12
471,611	737,1
471,814	692,04
472,018	536,4
472,222	675,66
472,426	538,45
472,63	325,46
472,833	292,69
473,037	171,86
473,241	77,65
473,444	139,09
473,648	530,25
473,852	1,88
474,055	-61,61
474,259	73,56
474,463	-32,94
474,666	85,84
474,87	-2,22
475,074	18,26
475,277	71,51
475,481	102,23
475,684	32,6
475,888	-59,56
476,091	28,5
476,295	-77,99
476,498	-26,79
476,702	24,4
476,905	110,42
477,109	151,38
477,312	61,27
477,516	-57,51
477,719	12,12
477,923	42,84
478,126	-26,79
478,329	-8,36
478,533	-6,31
478,736	120,66
478,94	-0,17
479,143	16,21
479,346	85,84
479,55	61,27
479,753	-18,6
479,956	12,12
480,159	-14,51
480,363	65,36
480,566	24,4
480,769	20,31
480,972	14,17
481,176	-45,23
481,379	151,38
481,582	102,23
481,785	-12,46
481,988	36,69
482,192	98,13
482,395	-61,61
482,598	3,93
482,801	20,31
483,004	51,03
483,207	-49,32
483,41	46,93
483,613	81,75
483,817	22,36
484,02	12,12
484,223	-18,6
484,426	16,21
484,629	-51,37
484,832	104,28
485,035	51,03
485,238	12,12
485,441	-39,08
485,644	53,08
485,846	79,7
486,049	-20,65
486,252	-49,32
486,455	36,69
486,658	61,27
486,861	63,32
487,064	-8,36
487,267	12,12
487,47	40,79
487,672	-20,65
487,875	65,36
488,078	12,12
488,281	79,7
488,484	12,12
488,686	22,36
488,889	-10,41
489,092	-77,99
489,295	-10,41
489,497	130,9
489,7	-8,36
489,903	53,08
490,105	-73,9
490,308	122,71
490,511	235,35
490,713	296,78
490,916	360,27
491,118	603,98
491,321	653,13
491,524	853,83
491,726	1103,68
491,929	1212,23
492,131	1382,21
492,334	1406,78
492,536	1412,93
492,739	1412,93
492,941	1339,2
493,144	1044,29
493,346	927,56
493,549	591,69
493,751	419,66
493,954	317,26
494,156	175,95
494,359	143,19
494,561	-2,22
494,763	63,32
494,966	81,75
495,168	53,08
495,37	-94,38
495,573	22,36
495,775	1,88
495,977	85,84
496,18	91,99
496,382	153,43
496,584	26,45
496,787	104,28
496,989	26,45
497,191	-59,56
497,393	96,08
497,595	55,12
497,798	-45,23
498	-4,27
498,202	-32,94
498,404	16,21
498,606	30,55
498,808	81,75
499,011	55,12
499,213	55,12
499,415	87,89
499,617	169,81
499,819	462,67
500,021	831,3
500,223	1161,03
500,425	1675,07
500,627	2240,31
500,829	2864,94
501,031	3473,18
501,233	3868,44
501,435	4556,56
501,637	5134,09
501,839	5240,58
502,041	4992,78
502,243	4552,46
502,445	4083,48
502,647	3391,27
502,848	2455,34
503,05	1775,42
503,252	1367,87
503,454	921,42
503,656	503,63
503,858	376,66
504,059	294,74
504,261	241,49
504,463	372,56
504,665	225,11
504,867	229,2
505,068	364,37
505,27	284,5
505,472	302,93
505,673	208,72
505,875	145,24
506,077	38,74
506,278	71,51
506,48	63,32
506,682	24,4
506,883	102,23
507,085	8,02
507,287	22,36
507,488	128,85
507,69	36,69
507,891	-12,46
508,093	126,8
508,294	-51,37
508,496	-49,32
508,697	-61,61
508,899	-18,6
509,1	24,4
509,302	3,93
509,503	42,84
509,705	-26,79
509,906	16,21
510,108	12,12
510,309	-4,27
510,51	10,07
510,712	26,45
510,913	-43,18
511,114	-45,23
511,316	-12,46
511,517	-22,7
511,718	12,12
511,92	-18,6
512,121	30,55
512,322	-18,6
512,524	73,56
512,725	69,46
512,926	-0,17
513,127	20,31
513,329	106,32
513,53	-98,47
513,731	55,12
513,932	36,69
514,133	-28,84
514,334	3,93
514,536	61,27
514,737	71,51
514,938	100,18
515,139	44,88
515,34	-118,95
515,541	69,46
515,742	-32,94
515,943	44,88
516,144	-51,37
516,345	77,65
516,546	28,5
516,747	48,98
516,948	12,12
517,149	-59,56
517,35	-75,95
517,551	-37,03
517,752	69,46
517,953	48,98
518,154	-12,46
518,355	63,32
518,556	46,93
518,756	-2,22
518,957	44,88
519,158	102,23
519,359	65,36
519,56	-37,03
519,761	79,7
519,961	20,31
520,162	98,13
520,363	-28,84
520,564	-0,17
520,764	151,38
520,965	20,31
521,166	73,56
521,366	3,93
521,567	38,74
521,768	-2,22
521,968	-28,84
522,169	22,36
522,37	-37,03
522,57	-43,18
522,771	-4,27
522,972	-94,38
523,172	175,95
523,373	94,04
523,573	-82,09
523,774	44,88
523,974	122,71
524,175	59,22
524,375	-45,23
524,576	-10,41
524,776	14,17
524,977	-59,56
525,177	145,24
525,378	-118,95
525,578	135
525,778	34,64
525,979	94,04
526,179	16,21
526,38	63,32
526,58	-37,03
526,78	-53,42
526,981	79,7
527,181	36,69
527,381	40,79
527,582	46,93
527,782	106,32
527,982	116,56
528,182	46,93
528,383	3,93
528,583	36,69
528,783	85,84
528,983	-28,84
529,183	16,21
529,384	38,74
529,584	204,63
529,784	196,43
529,984	42,84
530,184	-61,61
530,384	22,36
530,584	22,36
530,784	63,32
530,984	-2,22
531,185	59,22
531,385	110,42
531,585	38,74
531,785	79,7
531,985	8,02
532,185	28,5
532,385	12,12
532,585	44,88
532,785	-20,65
532,984	81,75
533,184	48,98
533,384	-37,03
533,584	-63,66
533,784	-16,55
533,984	73,56
534,184	-61,61
534,384	-28,84
534,583	44,88
534,783	-18,6
534,983	12,12
535,183	-69,8
535,383	-135,34
535,582	-10,41
535,782	-0,17
535,982	55,12
536,182	-24,75
536,381	16,21
536,581	-37,03
536,781	3,93
536,98	20,31
537,18	3,93
537,38	48,98
537,579	22,36
537,779	8,02
537,979	-26,79
538,178	-53,42
538,378	8,02
538,577	-69,8
538,777	-8,36
538,976	46,93
539,176	126,8
539,376	44,88
539,575	-26,79
539,774	28,5
539,974	-34,99
540,173	69,46
540,373	44,88
540,572	3,93
540,772	104,28
540,971	12,12
541,171	71,51
541,37	28,5
541,569	30,55
541,769	-20,65
541,968	-102,57
542,167	42,84
542,367	-26,79
542,566	-28,84
542,765	-53,42
542,965	61,27
543,164	30,55
543,363	8,02
543,562	-28,84
543,761	28,5
543,961	24,4
544,16	-67,75
544,359	112,47
544,558	81,75
544,757	8,02
544,957	53,08
545,156	85,84
545,355	-32,94
545,554	-61,61
545,753	-2,22
545,952	-18,6
546,151	79,7
546,35	73,56
546,549	-0,17
546,748	79,7
546,947	-86,19
547,146	-69,8
547,345	94,04
547,544	-80,04
547,743	3,93
547,942	87,89
548,141	3,93
548,34	36,69
548,539	-32,94
548,738	-100,52
548,937	124,76
549,135	32,6
549,334	-53,42
549,533	-16,55
549,732	44,88
549,931	-32,94
550,13	36,69
550,328	14,17
550,527	69,46
550,726	87,89
550,925	-61,61
551,123	30,55
551,322	18,26
551,521	53,08
551,72	69,46
551,918	22,36
552,117	-4,27
552,315	44,88
552,514	-8,36
552,713	20,31
552,911	53,08
553,11	-86,19
553,309	30,55
553,507	20,31
553,706	-28,84
553,904	57,17
554,103	98,13
554,301	69,46
554,5	-65,71
554,698	96,08
554,897	5,97
555,095	18,26
555,294	-133,29
555,492	-4,27
555,69	69,46
555,889	22,36
556,087	8,02
556,286	28,5
556,484	24,4
556,682	30,55
556,881	42,84
557,079	-28,84
557,277	53,08
557,476	5,97
557,674	118,61
557,872	63,32
558,07	-51,37
558,269	-37,03
558,467	22,36
558,665	67,41
558,863	12,12
559,062	87,89
559,26	28,5
559,458	-53,42
559,656	69,46
559,854	22,36
560,052	79,7
560,25	69,46
560,449	347,98
560,647	53,08
560,845	8,02
561,043	22,36
561,241	151,38
561,439	102,23
561,637	18,26
561,835	28,5
562,033	214,87
562,231	-18,6
562,429	75,6
562,627	-34,99
562,825	-59,56
563,023	24,4
563,221	28,5
563,418	38,74
563,616	36,69
563,814	194,39
564,012	-28,84
564,21	83,8
564,408	65,36
564,605	55,12
564,803	-20,65
565,001	290,64
565,199	36,69
565,397	-2,22
565,594	65,36
565,792	161,62
565,99	44,88
566,188	26,45
566,385	110,42
566,583	42,84
566,781	77,65
566,978	20,31
567,176	149,33
567,373	110,42
567,571	85,84
567,769	63,32
567,966	-12,46
568,164	81,75
568,361	94,04
568,559	-4,27
568,756	12,12
568,954	63,32
569,151	130,9
569,349	153,43
569,546	-18,6
569,744	71,51
569,941	98,13
570,139	91,99
570,336	69,46
570,534	114,52
570,731	-0,17
570,928	-43,18
571,126	167,76
571,323	118,61
571,52	96,08
571,718	53,08
571,915	137,04
572,112	12,12
572,31	75,6
572,507	120,66
572,704	77,65
572,901	28,5
573,099	24,4
573,296	147,28
573,493	-32,94
573,69	-2,22
573,887	46,93
574,085	155,47
574,282	38,74
574,479	87,89
574,676	94,04
574,873	53,08
575,07	53,08
575,267	22,36
575,464	28,5
575,661	159,57
575,858	102,23
576,055	44,88
576,252	53,08
576,449	69,46
576,646	89,94
576,843	63,32
577,04	102,23
577,237	110,42
577,434	55,12
577,631	77,65
577,828	106,32
578,025	36,69
578,222	122,71
578,419	3,93
578,615	-20,65
578,812	32,6
579,009	53,08
579,206	61,27
579,403	124,76
579,599	171,86
579,796	12,12
579,993	159,57
580,19	130,9
580,386	128,85
580,583	130,9
580,78	69,46
580,976	69,46
581,173	71,51
581,37	87,89
581,566	161,62
581,763	36,69
581,96	36,69
582,156	135
582,353	171,86
582,549	225,11
582,746	126,8
582,942	77,65
583,139	141,14
583,335	167,76
583,532	214,87
583,728	128,85
583,925	143,19
584,121	122,71
584,318	204,63
584,514	184,15
584,711	235,35
584,907	225,11
585,103	216,91
585,3	448,33
585,496	354,13
585,693	1113,92
585,889	3893,02
586,085	8447,7
586,281	14773,88
586,478	22132,23
586,674	29779,34
586,87	38790,41
587,067	47127,69
587,263	52888,62
587,459	56431,61
587,655	60177,34
587,851	60746,68
588,048	59409,35
588,244	56204,28
588,44	52972,59
588,636	47023,24
588,832	40070,39
589,028	33488,21
589,224	27170,23
589,42	21343,76
589,617	15367,79
589,813	10258,1
590,009	6311,67
590,205	4034,33
590,401	2350,9
590,597	1533,76
590,793	1150,79
590,989	907,08
591,185	626,51
591,38	474,96
591,576	352,08
591,772	309,07
591,968	249,68
592,164	259,92
592,36	255,83
592,556	171,86
592,752	268,11
592,948	106,32
593,143	100,18
593,339	118,61
593,535	94,04
593,731	61,27
593,926	112,47
594,122	46,93
594,318	94,04
594,514	212,82
594,709	36,69
594,905	126,8
595,101	48,98
595,296	110,42
595,492	128,85
595,688	178
595,883	175,95
596,079	118,61
596,275	12,12
596,47	44,88
596,666	65,36
596,861	53,08
597,057	94,04
597,252	-2,22
597,448	-8,36
597,643	98,13
597,839	124,76
598,034	91,99
598,23	20,31
598,425	120,66
598,621	81,75
598,816	124,76
599,011	65,36
599,207	-43,18
599,402	3,93
599,597	94,04
599,793	143,19
599,988	32,6
600,183	89,94
600,379	26,45
600,574	-8,36
600,769	147,28
600,965	-28,84
601,16	-6,31
601,355	-10,41
601,55	75,6
601,745	87,89
601,941	85,84
602,136	77,65
602,331	71,51
602,526	-10,41
602,721	44,88
602,916	100,18
603,111	61,27
603,307	69,46
603,502	16,21
603,697	-24,75
603,892	102,23
604,087	112,47
604,282	122,71
604,477	157,52
604,672	-37,03
604,867	71,51
605,062	30,55
605,257	22,36
605,452	132,95
605,646	38,74
605,841	81,75
606,036	28,5
606,231	-43,18
606,426	1,88
606,621	-20,65
606,816	3,93
607,01	210,77
607,205	-4,27
607,4	-2,22
607,595	81,75
607,79	53,08
607,984	65,36
608,179	24,4
608,374	24,4
608,569	53,08
608,763	-12,46
608,958	-49,32
609,153	55,12
609,347	89,94
609,542	102,23
609,736	79,7
609,931	73,56
610,126	-34,99
610,32	-4,27
610,515	-20,65
610,709	212,82
610,904	135
611,098	16,21
611,293	20,31
611,487	5,97
611,682	20,31
611,876	12,12
612,071	53,08
612,265	65,36
612,46	20,31
612,654	55,12
612,848	57,17
613,043	-41,13
613,237	61,27
613,432	10,07
613,626	3,93
613,82	28,5
614,014	42,84
614,209	194,39
614,403	-34,99
614,597	32,6
614,792	-4,27
614,986	61,27
615,18	77,65
615,374	61,27
615,568	98,13
615,763	102,23
615,957	48,98
616,151	91,99
616,345	53,08
616,539	-34,99
616,733	20,31
616,927	61,27
617,121	-65,71
617,316	61,27
617,51	114,52
617,704	46,93
617,898	122,71
618,092	-32,94
618,286	48,98
618,48	-37,03
618,674	128,85
618,868	87,89
619,061	-43,18
619,255	22,36
619,449	3,93
619,643	-45,23
619,837	196,43
620,031	69,46
620,225	153,43
620,419	12,12
620,612	69,46
620,806	12,12
621	104,28
621,194	10,07
621,388	10,07
621,581	44,88
621,775	102,23
621,969	85,84
622,162	46,93
622,356	85,84
622,55	130,9
622,743	22,36
622,937	-94,38
623,131	38,74
623,324	102,23
623,518	-4,27
623,712	-16,55
623,905	5,97
624,099	36,69
624,292	20,31
624,486	28,5
624,679	-12,46
624,873	73,56
625,066	63,32
625,26	36,69
625,453	-32,94
625,647	-34,99
625,84	71,51
626,034	110,42
626,227	61,27
626,42	61,27
626,614	48,98
626,807	85,84
627	-6,31
627,194	40,79
627,387	36,69
627,58	-32,94
627,774	-26,79
627,967	102,23
628,16	28,5
628,353	-28,84
628,547	44,88
628,74	89,94
628,933	-86,19
629,126	-4,27
629,319	30,55
629,513	38,74
629,706	120,66
629,899	77,65
630,092	-34,99
630,285	-94,38
630,478	-37,03
630,671	42,84
630,864	71,51
631,057	10,07
631,25	28,5
631,443	-8,36
631,636	108,37
631,829	112,47
632,022	116,56
632,215	42,84
632,408	12,12
632,601	104,28
632,794	-65,71
632,987	-12,46
633,18	57,17
633,373	8,02
633,566	-14,51
633,758	-2,22
633,951	-28,84
634,144	48,98
634,337	5,97
634,53	63,32
634,722	145,24
634,915	24,4
635,108	-37,03
635,301	81,75
635,493	94,04
635,686	135
635,879	28,5
636,071	-12,46
636,264	77,65
636,457	77,65
636,649	5,97
636,842	63,32
637,034	69,46
637,227	46,93
637,42	30,55
637,612	-37,03
637,805	-26,79
637,997	40,79
638,19	38,74
638,382	57,17
638,575	30,55
638,767	-0,17
638,96	85,84
639,152	73,56
639,344	112,47
639,537	-20,65
639,729	22,36
639,922	40,79
640,114	32,6
640,306	55,12
640,499	77,65
640,691	28,5
640,883	-26,79
641,075	40,79
641,268	69,46
641,46	46,93
641,652	32,6
641,844	-28,84
642,037	-28,84
642,229	26,45
642,421	94,04
642,613	24,4
642,805	89,94
642,998	20,31
643,19	42,84
643,382	159,57
643,574	16,21
643,766	87,89
643,958	118,61
644,15	16,21
644,342	151,38
644,534	30,55
644,726	3,93
644,918	94,04
645,11	12,12
645,302	-69,8
645,494	12,12
645,686	24,4
645,878	16,21
646,07	122,71
646,262	-69,8
646,453	-32,94
646,645	61,27
646,837	-57,51
647,029	69,46
647,221	-20,65
647,413	-12,46
647,604	-24,75
647,796	44,88
647,988	87,89
648,18	28,5
648,371	-12,46
648,563	77,65
648,755	-4,27
648,947	-28,84
649,138	28,5
649,33	48,98
649,521	96,08
649,713	-20,65
649,905	61,27
650,096	61,27
650,288	-16,55
650,479	-37,03
650,671	-8,36
650,863	85,84
651,054	-0,17
651,246	61,27
651,437	75,6
651,629	96,08
651,82	28,5
652,011	55,12
652,203	87,89
652,394	20,31
652,586	-20,65
652,777	46,93
652,968	24,4
653,16	12,12
653,351	65,36
653,542	171,86
653,734	53,08
653,925	-59,56
654,116	120,66
654,308	8,02
654,499	63,32
654,69	8,02
654,881	55,12
655,073	24,4
655,264	141,14
655,455	77,65
655,646	77,65
655,837	149,33
656,028	-14,51
656,219	-43,18
656,411	65,36
656,602	22,36
656,793	128,85
656,984	61,27
657,175	-28,84
657,366	44,88
657,557	63,32
657,748	28,5
657,939	94,04
658,13	-26,79
658,321	98,13
658,512	22,36
658,703	55,12
658,894	46,93
659,084	96,08
659,275	-20,65
659,466	98,13
659,657	81,75
659,848	28,5
660,039	63,32
660,23	-75,95
660,42	-2,22
660,611	42,84
660,802	77,65
660,993	12,12
661,183	71,51
661,374	63,32
661,565	77,65
661,755	24,4
661,946	28,5
662,137	14,17
662,327	-16,55
662,518	-18,6
662,709	-10,41
662,899	3,93
663,09	79,7
663,28	77,65
663,471	-61,61
663,662	208,72
663,852	98,13
664,043	30,55
664,233	-32,94
664,424	67,41
664,614	8,02
664,804	-4,27
664,995	112,47
665,185	151,38
665,376	24,4
665,566	175,95
665,756	102,23
665,947	30,55
666,137	235,35
666,328	1023,81
666,518	2234,16
666,708	3833,63
666,898	5635,84
667,089	7579,36
667,279	9359,05
667,469	11044,52
667,659	11783,84
667,85	12310,17
668,04	12486,29
668,23	12267,16
668,42	11599,52
668,61	10557,11
668,8	9887,42
668,991	8914,64
669,181	7753,44
669,371	6504,18
669,561	5674,75
669,751	4751,12
669,941	3862,3
670,131	2998,06
670,321	2113,33
670,511	1427,26
670,701	833,35
670,891	622,41
671,081	364,37
671,271	212,82
671,461	151,38
671,651	180,05
671,841	192,34
672,03	178
672,22	53,08
672,41	120,66
672,6	132,95
672,79	79,7
672,98	5,97
673,169	30,55
673,359	87,89
673,549	48,98
673,739	69,46
673,928	-10,41
674,118	98,13
674,308	46,93
674,497	110,42
674,687	3,93
674,877	3,93
675,066	3,93
675,256	-24,75
675,446	20,31
675,635	48,98
675,825	-32,94
676,014	-34,99
676,204	10,07
676,393	-18,6
676,583	75,6
676,772	34,64
676,962	-53,42
677,151	20,31
677,341	-34,99
677,53	102,23
677,72	22,36
677,909	71,51
678,099	55,12
678,288	5,97
678,477	-10,41
678,667	12,12
678,856	110,42
679,045	102,23
679,235	104,28
679,424	94,04
679,613	71,51
679,802	122,71
679,992	-2,22
680,181	30,55
680,37	16,21
680,559	110,42
680,748	22,36
680,938	116,56
681,127	-28,84
681,316	159,57
681,505	46,93
681,694	5,97
681,883	118,61
682,072	65,36
682,261	24,4
682,45	-77,99
682,639	-24,75
682,828	12,12
683,017	106,32
683,206	12,12
683,395	69,46
683,584	122,71
683,773	151,38
683,962	48,98
684,151	5,97
684,34	87,89
684,529	94,04
684,718	-4,27
684,907	83,8
685,095	46,93
685,284	147,28
685,473	30,55
685,662	-16,55
685,851	32,6
686,039	-4,27
686,228	46,93
686,417	-37,03
686,606	116,56
686,794	3,93
686,983	77,65
687,172	53,08
687,36	3,93
687,549	-53,42
687,738	-2,22
687,926	-20,65
688,115	44,88
688,303	-14,51
688,492	-10,41
688,68	-10,41
688,869	3,93
689,057	-10,41
689,246	-75,95
689,434	81,75
689,623	20,31
689,811	28,5
690	5,97
690,188	-12,46
690,377	69,46
690,565	53,08
690,753	87,89
690,942	-10,41
691,13	53,08
691,318	57,17
691,507	36,69
691,695	110,42
691,883	94,04
692,072	14,17
692,26	26,45
692,448	59,22
692,636	-2,22
692,824	-86,19
693,013	135
693,201	61,27
693,389	-102,57
693,577	-2,22
693,765	73,56
693,953	-65,71
694,141	-16,55
694,329	20,31
694,518	-16,55
694,706	53,08
694,894	44,88
695,082	36,69
695,27	28,5
695,458	44,88
695,646	89,94
695,834	32,6
696,022	-10,41
696,209	61,27
696,397	44,88
696,585	26,45
696,773	-18,6
696,961	-4,27
697,149	-12,46
697,337	24,4
697,525	20,31
697,712	12,12
697,9	32,6
698,088	57,17
698,276	87,89
698,463	-12,46
698,651	69,46
698,839	40,79
699,027	53,08
699,214	153,43
699,402	-2,22
699,59	-2,22
699,777	48,98
699,965	155,47
700,152	40,79
700,34	98,13
700,528	-24,75
700,715	18,26
700,903	102,23
701,09	16,21
701,278	51,03
701,465	46,93
701,653	-26,79
701,84	67,41
702,028	143,19
702,215	100,18
702,402	36,69
702,59	94,04
702,777	118,61
702,965	65,36
703,152	137,04
703,339	89,94
703,527	20,31
703,714	28,5
703,901	40,79
704,088	143,19
704,276	104,28
704,463	253,78
704,65	143,19
704,837	323,41
705,025	917,32
705,212	2907,94
705,399	6199,03
705,586	9430,73
705,773	13188,75
705,96	17157,71
706,147	19953,19
706,335	22173,19
706,522	23115,25
706,709	23021,05
706,896	22373,89
707,083	21110,29
707,27	20293,15
707,457	18253,37
707,644	16643,67
707,831	14595,7
708,018	13012,62
708,205	11022
708,392	9223,88
708,578	7931,61
708,765	6670,06
708,952	5273,35
709,139	4275,99
709,326	2895,66
709,513	1849,15
709,7	1353,54
709,886	941,89
710,073	585,55
710,26	503,63
710,447	282,45
710,633	241,49
710,82	233,3
711,007	104,28
711,193	69,46
711,38	110,42
711,567	44,88
711,753	108,37
711,94	87,89
712,127	128,85
712,313	69,46
712,5	-12,46
712,686	46,93
712,873	-53,42
713,059	14,17
713,246	128,85
713,432	53,08
713,619	-8,36
713,805	36,69
713,992	126,8
714,178	-0,17
714,365	5,97
714,551	126,8
714,737	36,69
714,924	-26,79
715,11	85,84
715,297	14,17
715,483	-10,41
715,669	61,27
715,855	-2,22
716,042	104,28
716,228	42,84
716,414	69,46
716,6	118,61
716,787	-28,84
716,973	3,93
717,159	-61,61
717,345	-28,84
717,531	-41,13
717,718	53,08
717,904	73,56
718,09	-73,9
718,276	104,28
718,462	-4,27
718,648	28,5
718,834	-59,56
719,02	44,88
719,206	77,65
719,392	5,97
719,578	-32,94
719,764	-39,08
719,95	-61,61
720,136	102,23
720,322	-34,99
720,508	-22,7
720,694	20,31
720,879	3,93
721,065	96,08
721,251	-4,27
721,437	-22,7
721,623	120,66
721,809	110,42
721,994	55,12
722,18	-45,23
722,366	-67,75
722,552	-67,75
722,737	-45,23
722,923	22,36
723,109	46,93
723,294	-8,36
723,48	69,46
723,666	63,32
723,851	10,07
724,037	69,46
724,222	53,08
724,408	65,36
724,593	77,65
724,779	-4,27
724,965	-92,33
725,15	69,46
725,336	87,89
725,521	-10,41
725,706	30,55
725,892	-16,55
726,077	5,97
726,263	77,65
726,448	145,24
726,634	44,88
726,819	311,12
727,004	618,32
727,19	857,93
727,375	1316,67
727,56	1611,58
727,745	1922,87
727,931	2199,35
728,116	2346,8
728,301	2326,32
728,486	2217,78
728,672	2039,61
728,857	2010,93
729,042	1750,84
729,227	1519,42
729,412	1292,1
729,597	1281,86
729,783	1052,49
729,968	786,25
730,153	859,98
730,338	644,94
730,523	571,21
730,708	274,26
730,893	429,9
731,078	300,88
731,263	186,19
731,448	122,71
731,633	167,76
731,818	-10,41
732,003	22,36
732,187	36,69
732,372	20,31
732,557	5,97
732,742	-53,42
732,927	-14,51
733,112	79,7
733,297	20,31
733,481	-20,65
733,666	28,5
733,851	-41,13
734,036	38,74
734,22	12,12
734,405	79,7
734,59	22,36
734,774	61,27
734,959	-37,03
735,144	102,23
735,328	61,27
735,513	-12,46
735,698	5,97
735,882	51,03
736,067	85,84
736,251	42,84
736,436	-86,19
736,62	-59,56
736,805	-12,46
736,989	110,42
737,174	-102,57
737,358	-114,86
737,543	48,98
737,727	63,32
737,911	149,33
738,096	14,17
738,28	46,93
738,465	36,69
738,649	34,64
738,833	30,55
739,018	-20,65
739,202	-108,71
739,386	-20,65
739,57	24,4
739,755	91,99
739,939	110,42
740,123	-16,55
740,307	46,93
740,491	-12,46
740,676	-49,32
740,86	-39,08
741,044	-37,03
741,228	12,12
741,412	-84,14
741,596	-82,09
741,78	-22,7
741,964	36,69
742,148	30,55
742,332	-49,32
742,516	-10,41
742,7	5,97
742,884	-45,23
743,068	44,88
743,252	53,08
743,436	38,74
743,62	-53,42
743,804	20,31
743,988	102,23
744,172	3,93
744,356	16,21
744,539	55,12
744,723	24,4
744,907	-16,55
745,091	-20,65
745,275	1,88
745,458	65,36
745,642	-22,7
745,826	65,36
746,009	102,23
746,193	-18,6
746,377	143,19
746,56	44,88
746,744	112,47
746,928	36,69
747,111	67,41
747,295	12,12
747,478	38,74
747,662	-26,79
747,846	71,51
748,029	38,74
748,213	-0,17
748,396	34,64
748,58	16,21
748,763	-41,13
748,946	-53,42
749,13	-43,18
749,313	-34,99
749,497	126,8
749,68	96,08
749,863	63,32
750,047	-10,41
750,23	-61,61
750,413	28,5
750,597	38,74
750,78	-55,47
750,963	69,46
751,146	57,17
751,33	-2,22
751,513	38,74
751,696	30,55
751,879	-20,65
752,062	-4,27
752,246	-28,84
752,429	81,75
752,612	122,71
752,795	-53,42
752,978	-86,19
753,161	-26,79
753,344	-24,75
753,527	5,97
753,71	-37,03
753,893	44,88
754,076	-77,99
754,259	61,27
754,442	-12,46
754,625	-53,42
754,808	98,13
754,991	-12,46
755,174	-75,95
755,357	-45,23
755,539	34,64
755,722	20,31
755,905	-49,32
756,088	53,08
756,271	-28,84
756,453	20,31
756,636	-2,22
756,819	-32,94
757,002	-12,46
757,184	48,98
757,367	12,12
757,55	36,69
757,732	36,69
757,915	3,93
758,098	-75,95
758,28	-43,18
758,463	12,12
758,645	-0,17
758,828	36,69
759,011	69,46
759,193	-34,99
759,376	61,27
759,558	-41,13
759,741	-8,36
759,923	-65,71
760,105	53,08
760,288	20,31
760,47	-45,23
760,653	3,93
760,835	-12,46
761,017	-45,23
761,2	-26,79
761,382	71,51
761,564	28,5
761,747	102,23
761,929	44,88
762,111	-59,56
762,294	108,37
762,476	171,86
762,658	24,4
762,84	55,12
763,022	44,88
763,205	36,69
763,387	122,71
763,569	69,46
763,751	-102,57
763,933	-41,13
764,115	-6,31
764,297	-61,61
764,479	71,51
764,661	8,02
764,843	110,42
765,025	-10,41
765,207	12,12
765,389	8,02
765,571	-10,41
765,753	65,36
765,935	-28,84
766,117	22,36
766,299	96,08
766,481	53,08
766,663	-12,46
766,845	-98,47
767,026	77,65
767,208	61,27
767,39	-30,89
767,572	-10,41
767,753	30,55
767,935	-4,27
768,117	-12,46
768,299	20,31
768,48	-34,99
768,662	94,04
768,844	28,5
769,025	163,67
769,207	-37,03
769,389	-28,84
769,57	67,41
769,752	63,32
769,933	-37,03
770,115	28,5
770,296	10,07
770,478	55,12
770,659	40,79
770,841	233,3
771,022	-43,18
771,204	63,32
771,385	28,5
771,567	77,65
771,748	46,93
771,929	104,28
772,111	32,6
772,292	-4,27
772,473	-28,84
772,655	12,12
772,836	-28,84
773,017	104,28
773,199	59,22
773,38	44,88
773,561	12,12
773,742	20,31
773,923	61,27
774,105	30,55
774,286	77,65
774,467	-43,18
774,648	-61,61
774,829	69,46
775,01	-61,61
775,191	-69,8
775,372	-10,41
775,553	-18,6
775,734	-37,03
775,915	-41,13
776,096	-39,08
776,277	36,69
776,458	-30,89
776,639	12,12
776,82	126,8
777,001	-86,19
777,182	-12,46
777,363	-4,27
777,544	22,36
777,725	137,04
777,906	-4,27
778,086	81,75
778,267	98,13
778,448	71,51
778,629	-0,17
778,809	85,84
778,99	-32,94
779,171	48,98
779,352	69,46
779,532	-2,22
779,713	-45,23
779,894	3,93
780,074	57,17
780,255	-8,36
780,435	94,04
780,616	96,08
780,797	61,27
780,977	-16,55
781,158	-32,94
781,338	46,93
781,519	-18,6
781,699	118,61
781,88	53,08
782,06	65,36
782,241	-57,51
782,421	-84,14
782,601	22,36
782,782	98,13
782,962	69,46
783,142	-90,28
783,323	-0,17
783,503	36,69
783,683	-4,27
783,864	14,17
784,044	36,69
784,224	44,88
784,404	28,5
784,585	63,32
784,765	61,27
784,945	155,47
785,125	-37,03
785,305	57,17
785,485	40,79
785,666	-4,27
785,846	112,47
786,026	16,21
786,206	-49,32
786,386	-24,75
786,566	67,41
786,746	-28,84
786,926	65,36
787,106	-18,6
787,286	-20,65
787,466	20,31
787,646	57,17
787,826	-2,22
788,006	63,32
788,185	79,7
788,365	-69,8
788,545	89,94
788,725	12,12
788,905	44,88
789,085	20,31
789,264	-45,23
789,444	87,89
789,624	3,93
789,804	-4,27
789,983	36,69
790,163	-37,03
790,343	10,07
790,522	98,13
790,702	22,36
790,882	12,12
791,061	112,47
791,241	-28,84
791,42	-18,6
791,6	135
791,78	96,08
791,959	20,31
792,139	-41,13
792,318	-0,17
792,498	51,03
792,677	81,75
792,856	-22,7
793,036	-10,41
793,215	-8,36
793,395	28,5
793,574	3,93
793,753	12,12
793,933	85,84
794,112	118,61
794,291	36,69
794,471	73,56
794,65	71,51
794,829	-12,46
795,008	36,69
795,188	48,98
795,367	118,61
795,546	32,6
795,725	-12,46
795,904	16,21
796,084	61,27
796,263	118,61
796,442	110,42
796,621	28,5
796,8	30,55
796,979	112,47
797,158	42,84
797,337	-51,37
797,516	36,69
797,695	196,43
797,874	63,32
798,053	63,32
798,232	-2,22
798,411	-12,46
798,59	-57,51
798,769	3,93
798,947	63,32
799,126	-16,55
799,305	67,41
799,484	12,12
799,663	30,55
799,842	36,69
800,02	28,5
800,199	32,6
800,378	-32,94
800,557	-39,08
800,735	-43,18
800,914	-18,6
801,093	-75,95
801,271	73,56
801,45	77,65
801,628	44,88
801,807	-69,8
801,986	65,36
802,164	28,5
802,343	14,17
802,521	-51,37
802,7	75,6
802,878	83,8
803,057	3,93
803,235	-16,55
803,414	38,74
803,592	8,02
803,771	32,6
803,949	87,89
804,127	16,21
804,306	135
804,484	3,93
804,662	61,27
804,841	-90,28
805,019	-32,94
805,197	-12,46
805,375	81,75
805,554	3,93
805,732	-43,18
805,91	59,22
806,088	-24,75
806,266	-77,99
806,445	-37,03
806,623	28,5
806,801	79,7
806,979	53,08
807,157	61,27
807,335	-37,03
807,513	94,04
807,691	79,7
807,869	-45,23
808,047	18,26
808,225	-10,41
808,403	5,97
808,581	-73,9
808,759	151,38
808,937	3,93
809,115	28,5
809,293	75,6
809,471	-10,41
809,649	51,03
809,826	40,79
810,004	-18,6
810,182	-45,23
810,36	28,5
810,538	85,84
810,715	55,12
810,893	-26,79
811,071	-53,42
811,248	44,88
811,426	-10,41
811,604	85,84
811,781	28,5
811,959	36,69
812,137	-37,03
812,314	-20,65
812,492	-32,94
812,669	-34,99
812,847	-108,71
813,024	-4,27
813,202	67,41
813,379	-16,55
813,557	63,32
813,734	104,28
813,912	28,5
814,089	-0,17
814,267	124,76
814,444	5,97
814,621	110,42
814,799	-4,27
814,976	20,31
815,153	14,17
815,331	-41,13
815,508	59,22
815,685	-14,51
815,862	77,65
816,04	10,07
816,217	-57,51
816,394	-47,27
816,571	61,27
816,748	124,76
816,926	102,23
817,103	243,54
817,28	61,27
817,457	75,6
817,634	132,95
817,811	-16,55
817,988	34,64
818,165	-49,32
818,342	20,31
818,519	69,46
818,696	-45,23
818,873	-69,8
819,05	57,17
819,227	55,12
819,404	34,64
819,581	3,93
819,758	24,4
819,934	-14,51
820,111	-10,41
820,288	-24,75
820,465	135
820,642	-22,7
820,818	61,27
820,995	-45,23
821,172	28,5
821,349	36,69
821,525	34,64
821,702	110,42
821,879	-61,61
822,055	-26,79
822,232	-20,65
822,409	30,55
822,585	28,5
822,762	87,89
822,938	85,84
823,115	44,88
823,291	18,26
823,468	24,4
823,644	-0,17
823,821	61,27
823,997	3,93
824,174	-43,18
824,35	-26,79
824,527	61,27
824,703	16,21
824,879	-20,65
825,056	38,74
825,232	112,47
825,408	3,93
825,585	20,31
825,761	-10,41
825,937	-4,27
826,113	28,5
826,29	96,08
826,466	-37,03
826,642	376,66
826,818	-8,36
826,994	-8,36
827,17	-86,19
827,347	20,31
827,523	-73,9
827,699	14,17
827,875	104,28
828,051	34,64
828,227	-28,84
828,403	55,12
828,579	20,31
828,755	51,03
828,931	30,55
829,107	14,17
829,283	94,04
829,459	3,93
829,635	-75,95
829,811	36,69
829,986	3,93
830,162	34,64
830,338	20,31
830,514	-67,75
830,69	5,97
830,865	-30,89
831,041	44,88
831,217	-24,75
831,393	-75,95
831,568	-26,79
831,744	89,94
831,92	16,21
832,095	-77,99
832,271	-12,46
832,447	28,5
832,622	69,46
832,798	-28,84
832,973	12,12
833,149	53,08
833,325	-12,46
833,5	28,5
833,676	-75,95
833,851	14,17
834,027	71,51
834,202	57,17
834,377	81,75
834,553	-20,65
834,728	102,23
834,904	61,27
835,079	-51,37
835,254	8,02
835,43	30,55
835,605	-0,17
835,78	-65,71
835,955	-53,42
836,131	-0,17
836,306	-67,75
836,481	-22,7
836,656	26,45
836,832	61,27
837,007	-8,36
837,182	3,93
837,357	-37,03
837,532	-43,18
837,707	-8,36
837,882	77,65
838,057	22,36
838,232	81,75
838,407	57,17
838,582	-20,65
838,757	-0,17
838,932	53,08
839,107	-59,56
839,282	-90,28
839,457	-80,04
839,632	34,64
839,807	-2,22
839,982	55,12
840,157	-12,46
840,332	28,5
840,506	12,12
840,681	14,17
840,856	-37,03
841,031	-12,46
841,205	-6,31
841,38	71,51
841,555	44,88
841,73	55,12
841,904	-80,04
842,079	-20,65
842,254	46,93
842,428	24,4
842,603	-86,19
842,777	-32,94
842,952	-61,61
843,126	-77,99
843,301	61,27
843,476	-110,76
843,65	63,32
843,825	24,4
843,999	53,08
844,173	-28,84
844,348	-59,56
844,522	75,6
844,697	-75,95
844,871	-4,27
845,045	55,12
845,22	77,65
845,394	98,13
845,568	-28,84
845,743	73,56
845,917	12,12
846,091	-77,99
846,265	-47,27
846,44	67,41
846,614	61,27
846,788	-18,6
846,962	61,27
847,136	48,98
847,31	-8,36
847,485	53,08
847,659	-67,75
847,833	46,93
848,007	44,88
848,181	-20,65
848,355	-28,84
848,529	16,21
848,703	34,64
848,877	-53,42
849,051	46,93
849,225	28,5
849,399	28,5
849,573	-49,32
849,746	-73,9
849,92	3,93
850,094	16,21
850,268	-14,51
850,442	20,31
850,616	20,31
850,789	-80,04
850,963	-59,56
851,137	-86,19
851,311	16,21
851,484	73,56
851,658	77,65
851,832	-12,46
852,005	-18,6
852,179	-45,23
852,352	-37,03
852,526	-20,65
852,7	12,12
852,873	-69,8
853,047	61,27
853,22	61,27
853,394	16,21
853,567	20,31
853,741	-12,46
853,914	-22,7
854,088	79,7
854,261	-37,03
854,434	14,17
854,608	-4,27
854,781	-32,94
854,955	89,94
855,128	40,79
855,301	-49,32
855,475	57,17
855,648	-10,41
855,821	-4,27
855,994	20,31
856,168	-28,84
856,341	36,69
856,514	-102,57
856,687	94,04
856,86	106,32
857,033	24,4
857,207	5,97
857,38	36,69
857,553	61,27
857,726	-4,27
857,899	53,08
858,072	-49,32
858,245	-37,03
858,418	67,41
858,591	-47,27
858,764	24,4
858,937	94,04
859,11	69,46
859,283	10,07
859,455	53,08
859,628	67,41
859,801	63,32
859,974	118,61
860,147	-45,23
860,32	-4,27
860,492	-10,41
860,665	-110,76
860,838	3,93
861,011	-69,8
861,183	16,21
861,356	94,04
861,529	71,51
861,701	22,36
861,874	-8,36
862,047	85,84
862,219	-37,03
862,392	-4,27
862,564	36,69
862,737	20,31
862,909	44,88
863,082	-28,84
863,254	79,7
863,427	73,56
863,599	53,08
863,772	10,07
863,944	46,93
864,117	-20,65
864,289	100,18
864,461	32,6
864,634	61,27
864,806	-34,99
864,978	81,75
865,151	-4,27
865,323	46,93
865,495	118,61
865,667	12,12
865,84	102,23
866,012	-34,99
866,184	30,55
866,356	-32,94
866,528	-28,84
866,7	-73,9
866,873	-47,27
867,045	44,88
867,217	-53,42
867,389	75,6
867,561	-32,94
867,733	3,93
867,905	38,74
868,077	-18,6
868,249	-0,17
868,421	-41,13
868,593	-20,65
868,765	85,84
868,936	-77,99
869,108	34,64
869,28	36,69
869,452	46,93
869,624	-61,61
869,796	-8,36
869,968	53,08
870,139	94,04
870,311	-65,71
870,483	36,69
870,654	-41,13
870,826	26,45
870,998	-0,17
871,17	-34,99
871,341	12,12
871,513	85,84
871,684	-10,41
871,856	102,23
872,028	61,27
872,199	-88,23
872,371	10,07
872,542	-47,27
872,714	-18,6
872,885	147,28
873,057	20,31
873,228	65,36
873,4	51,03
873,571	114,52
873,742	-10,41
873,914	110,42
874,085	30,55
874,256	48,98
874,428	-86,19
874,599	-41,13
874,77	53,08
874,942	-16,55
875,113	102,23
875,284	-37,03
875,455	5,97
875,626	38,74
875,798	-127,14
875,969	-114,86
876,14	20,31
876,311	8,02
876,482	143,19
876,653	159,57
876,824	94,04
876,995	53,08
877,166	167,76
877,337	16,21
877,508	-4,27
877,679	-43,18
877,85	-108,71
878,021	-51,37
878,192	20,31
878,363	-0,17
878,534	30,55
878,705	-14,51
878,876	-28,84
879,047	55,12
879,217	-2,22
879,388	77,65
879,559	3,93
879,73	104,28
879,9	1,88
880,071	-2,22
880,242	28,5
880,413	34,64
880,583	104,28
880,754	53,08
880,924	-20,65
881,095	-73,9
881,266	-20,65
881,436	3,93
881,607	118,61
881,777	-49,32
881,948	-51,37
882,118	-0,17
882,289	-59,56
882,459	16,21
882,63	20,31
882,8	3,93
882,971	16,21
883,141	12,12
883,311	44,88
883,482	151,38
883,652	-61,61
883,822	-26,79
883,993	53,08
884,163	-4,27
884,333	3,93
884,504	87,89
884,674	98,13
884,844	57,17
885,014	-49,32
885,184	-32,94
885,355	-63,66
885,525	-34,99
885,695	87,89
885,865	69,46
886,035	81,75
886,205	-77,99
886,375	126,8
886,545	5,97
886,715	-26,79
886,885	57,17
887,055	-12,46
887,225	12,12
887,395	3,93
887,565	155,47
887,735	42,84
887,905	-8,36
888,075	-69,8
888,244	40,79
888,414	-57,51
888,584	46,93
888,754	18,26
888,924	8,02
889,093	184,15
889,263	-37,03
889,433	-12,46
889,603	61,27
889,772	32,6
889,942	143,19
890,111	63,32
890,281	36,69
890,451	-0,17
890,62	1,88
890,79	20,31
890,959	20,31
891,129	-0,17
891,298	87,89
891,468	-32,94
891,637	-34,99
891,807	69,46
891,976	-8,36
892,146	-16,55
892,315	16,21
892,485	137,04
892,654	-86,19
892,823	-4,27
892,993	28,5
893,162	83,8
893,331	85,84
893,501	55,12
893,67	53,08
893,839	32,6
894,008	-37,03
894,177	28,5
894,347	18,26
894,516	96,08
894,685	-8,36
894,854	-4,27
895,023	38,74
895,192	-30,89
