Data from he_USB4F104161__19__11-53-37-280.txt Node

Date: Tue Apr 14 11:53:37 EDT 2026
User: LaboPhy
Spectrometer: USB4F10416
Trigger mode: 4
Integration Time (sec): 1,000000E-1
Scans to average: 1
Electric dark correction enabled: true
Nonlinearity correction enabled: false
Boxcar width: 0
XAxis mode: Wavelengths
Number of Pixels in Spectrum: 3648
>>>>>Begin Spectral Data<<<<<
177,847	-191,83
178,066	-191,83
178,284	-191,83
178,502	-181,59
178,72	-179,54
178,939	-27,99
179,157	62,12
179,375	-9,56
179,593	21,16
179,812	45,74
180,03	-50,52
180,248	-25,94
180,466	-15,7
180,685	-11,61
180,903	-19,8
181,121	-66,9
181,339	98,99
181,557	-1,37
181,775	-11,61
181,994	-42,32
182,212	25,26
182,43	-5,46
182,648	47,79
182,866	58,03
183,084	139,94
183,302	-7,51
183,52	41,64
183,739	53,93
183,957	12,97
184,175	-60,76
184,393	12,97
184,611	-15,7
184,829	17,07
185,047	70,31
185,265	35,5
185,483	-68,95
185,701	29,35
185,919	-1,37
186,137	0,68
186,355	15,02
186,573	-25,94
186,791	94,89
187,009	8,87
187,227	53,93
187,445	60,07
187,663	35,5
187,881	-40,28
188,098	29,35
188,316	-54,61
188,534	66,22
188,752	41,64
188,97	-27,99
189,188	-58,71
189,406	86,7
189,624	29,35
189,841	-52,56
190,059	-60,76
190,277	4,78
190,495	31,4
190,713	82,6
190,931	78,51
191,148	62,12
191,366	-93,52
191,584	-9,56
191,802	27,31
192,019	64,17
192,237	53,93
192,455	15,02
192,673	105,13
192,89	-27,99
193,108	37,55
193,326	-9,56
193,543	107,18
193,761	29,35
193,979	64,17
194,196	60,07
194,414	29,35
194,632	111,27
194,849	45,74
195,067	-64,85
195,285	8,87
195,502	-101,72
195,72	8,87
195,937	105,13
196,155	-11,61
196,373	21,16
196,59	-85,33
196,808	-60,76
197,025	78,51
197,243	283,3
197,46	86,7
197,678	58,03
197,895	80,55
198,113	55,98
198,33	-40,28
198,548	4,78
198,765	-81,24
198,983	144,04
199,2	-19,8
199,418	70,31
199,635	-44,37
199,853	23,21
200,07	-42,32
200,288	12,97
200,505	-1,37
200,722	123,56
200,94	64,17
201,157	15,02
201,375	139,94
201,592	25,26
201,809	37,55
202,027	144,04
202,244	15,02
202,461	-34,13
202,679	21,16
202,896	78,51
203,113	37,55
203,331	45,74
203,548	29,35
203,765	-3,41
203,982	80,55
204,2	-44,37
204,417	-19,8
204,634	207,53
204,851	66,22
205,069	96,94
205,286	19,11
205,503	-27,99
205,72	21,16
205,937	37,55
206,155	-83,28
206,372	160,42
206,589	-25,94
206,806	78,51
207,023	-1,37
207,24	29,35
207,458	-27,99
207,675	-50,52
207,892	17,07
208,109	-9,56
208,326	-19,8
208,543	45,74
208,76	-19,8
208,977	94,89
209,194	0,68
209,411	15,02
209,628	45,74
209,845	31,4
210,062	-9,56
210,279	-19,8
210,496	27,31
210,713	-11,61
210,93	-5,46
211,147	86,7
211,364	6,83
211,581	-50,52
211,798	160,42
212,015	-60,76
212,232	-52,56
212,449	-3,41
212,666	12,97
212,883	25,26
213,1	23,21
213,317	27,31
213,533	21,16
213,75	-44,37
213,967	72,36
214,184	-19,8
214,401	47,79
214,618	-42,32
214,835	25,26
215,051	53,93
215,268	41,64
215,485	-5,46
215,702	-19,8
215,919	-19,8
216,135	111,27
216,352	-60,76
216,569	-40,28
216,786	15,02
217,002	55,98
217,219	96,94
217,436	-3,41
217,652	29,35
217,869	82,6
218,086	127,66
218,302	70,31
218,519	92,84
218,736	-13,65
218,952	21,16
219,169	121,51
219,386	31,4
219,602	-36,18
219,819	29,35
220,036	-25,94
220,252	115,37
220,469	33,45
220,685	53,93
220,902	15,02
221,118	37,55
221,335	-52,56
221,552	-42,32
221,768	58,03
221,985	-44,37
222,201	80,55
222,418	70,31
222,634	2,73
222,851	4,78
223,067	90,79
223,284	-19,8
223,5	33,45
223,716	-73,04
223,933	15,02
224,149	-3,41
224,366	-27,99
224,582	-77,14
224,799	-32,08
225,015	-44,37
225,231	-13,65
225,448	-36,18
225,664	-13,65
225,88	-17,75
226,097	-19,8
226,313	-27,99
226,529	2,73
226,746	70,31
226,962	74,41
227,178	29,35
227,395	29,35
227,611	17,07
227,827	-48,47
228,044	4,78
228,26	78,51
228,476	107,18
228,692	185
228,909	4,78
229,125	-64,85
229,341	-3,41
229,557	-21,84
229,773	-36,18
229,99	119,46
230,206	-109,91
230,422	62,12
230,638	-54,61
230,854	31,4
231,07	-50,52
231,286	39,59
231,503	51,88
231,719	-103,76
231,935	35,5
232,151	6,83
232,367	119,46
232,583	78,51
232,799	23,21
233,015	86,7
233,231	39,59
233,447	-11,61
233,663	-52,56
233,879	90,79
234,095	-64,85
234,311	53,93
234,527	33,45
234,743	62,12
234,959	86,7
235,175	-50,52
235,391	-1,37
235,607	-21,84
235,823	-3,41
236,039	29,35
236,255	-66,9
236,471	45,74
236,687	41,64
236,903	27,31
237,118	127,66
237,334	0,68
237,55	88,75
237,766	-81,24
237,982	62,12
238,198	113,32
238,413	-36,18
238,629	146,09
238,845	8,87
239,061	37,55
239,277	-9,56
239,492	-42,32
239,708	72,36
239,924	-85,33
240,14	45,74
240,355	160,42
240,571	21,16
240,787	43,69
241,003	49,83
241,218	-15,7
241,434	-7,51
241,65	21,16
241,865	-17,75
242,081	94,89
242,297	-27,99
242,512	-15,7
242,728	86,7
242,944	17,07
243,159	41,64
243,375	-60,76
243,59	15,02
243,806	119,46
244,022	39,59
244,237	21,16
244,453	-44,37
244,668	37,55
244,884	172,71
245,099	8,87
245,315	25,26
245,53	78,51
245,746	113,32
245,961	53,93
246,177	-42,32
246,392	31,4
246,608	21,16
246,823	-32,08
247,039	-11,61
247,254	-68,95
247,47	45,74
247,685	-7,51
247,9	-38,23
248,116	39,59
248,331	-27,99
248,547	141,99
248,762	25,26
248,977	72,36
249,193	76,46
249,408	2,73
249,623	-19,8
249,839	-77,14
250,054	-19,8
250,269	17,07
250,485	47,79
250,7	37,55
250,915	45,74
251,13	27,31
251,346	58,03
251,561	-9,56
251,776	94,89
251,991	-85,33
252,207	111,27
252,422	58,03
252,637	47,79
252,852	-13,65
253,067	-1,37
253,283	72,36
253,498	6,83
253,713	-60,76
253,928	-64,85
254,143	-34,13
254,358	70,31
254,573	-21,84
254,788	-60,76
255,004	49,83
255,219	-60,76
255,434	-68,95
255,649	-85,33
255,864	92,84
256,079	-27,99
256,294	-105,81
256,509	15,02
256,724	-17,75
256,939	-77,14
257,154	78,51
257,369	78,51
257,584	43,69
257,799	-30,04
258,014	-23,89
258,229	58,03
258,444	-15,7
258,659	8,87
258,874	-9,56
259,089	86,7
259,304	-32,08
259,518	-42,32
259,733	78,51
259,948	39,59
260,163	62,12
260,378	55,98
260,593	4,78
260,808	98,99
261,022	-99,67
261,237	78,51
261,452	6,83
261,667	6,83
261,882	15,02
262,096	49,83
262,311	15,02
262,526	-50,52
262,741	-73,04
262,955	-48,47
263,17	-1,37
263,385	45,74
263,6	-32,08
263,814	-23,89
264,029	53,93
264,244	90,79
264,458	-15,7
264,673	12,97
264,888	-11,61
265,102	-3,41
265,317	-36,18
265,532	-7,51
265,746	21,16
265,961	76,46
266,175	103,08
266,39	-15,7
266,605	-38,23
266,819	31,4
267,034	-36,18
267,248	-56,66
267,463	-27,99
267,677	-36,18
267,892	55,98
268,106	-157,01
268,321	23,21
268,535	45,74
268,75	127,66
268,964	-17,75
269,179	17,07
269,393	74,41
269,608	41,64
269,822	-64,85
270,036	-46,42
270,251	-23,89
270,465	27,31
270,68	-48,47
270,894	45,74
271,108	88,75
271,323	-3,41
271,537	53,93
271,752	70,31
271,966	8,87
272,18	-101,72
272,394	-56,66
272,609	-7,51
272,823	70,31
273,037	21,16
273,252	29,35
273,466	43,69
273,68	72,36
273,894	15,02
274,109	-11,61
274,323	80,55
274,537	-1,37
274,751	-3,41
274,966	64,17
275,18	0,68
275,394	-50,52
275,608	-91,48
275,822	-27,99
276,036	45,74
276,25	47,79
276,465	-73,04
276,679	29,35
276,893	-52,56
277,107	119,46
277,321	45,74
277,535	78,51
277,749	96,94
277,963	-68,95
278,177	-11,61
278,391	4,78
278,605	-56,66
278,819	10,92
279,033	-56,66
279,247	-3,41
279,461	90,79
279,675	-58,71
279,889	21,16
280,103	41,64
280,317	60,07
280,531	-5,46
280,745	-23,89
280,959	-5,46
281,173	39,59
281,387	70,31
281,601	6,83
281,815	105,13
282,029	-60,76
282,242	21,16
282,456	-7,51
282,67	37,55
282,884	2,73
283,098	12,97
283,312	-21,84
283,525	74,41
283,739	25,26
283,953	64,17
284,167	-1,37
284,381	29,35
284,594	60,07
284,808	-23,89
285,022	-27,99
285,235	-11,61
285,449	-48,47
285,663	70,31
285,877	-17,75
286,09	-5,46
286,304	103,08
286,518	17,07
286,731	-54,61
286,945	94,89
287,159	53,93
287,372	47,79
287,586	-44,37
287,799	4,78
288,013	-42,32
288,227	-7,51
288,44	293,54
288,654	66,22
288,867	47,79
289,081	12,97
289,294	29,35
289,508	74,41
289,721	29,35
289,935	4,78
290,148	72,36
290,362	107,18
290,575	-19,8
290,789	-118,1
291,002	-17,75
291,216	74,41
291,429	21,16
291,643	47,79
291,856	-60,76
292,069	25,26
292,283	-64,85
292,496	55,98
292,71	45,74
292,923	29,35
293,136	78,51
293,35	-25,94
293,563	41,64
293,776	15,02
293,99	64,17
294,203	64,17
294,416	70,31
294,63	21,16
294,843	-77,14
295,056	86,7
295,269	21,16
295,483	-54,61
295,696	60,07
295,909	-19,8
296,122	47,79
296,335	53,93
296,549	4,78
296,762	4,78
296,975	25,26
297,188	62,12
297,401	-9,56
297,615	45,74
297,828	25,26
298,041	162,47
298,254	-77,14
298,467	45,74
298,68	12,97
298,893	12,97
299,106	-19,8
299,319	29,35
299,532	33,45
299,745	-3,41
299,958	-161,11
300,171	-17,75
300,384	37,55
300,598	-50,52
300,81	80,55
301,023	-77,14
301,236	-93,52
301,449	-1,37
301,662	29,35
301,875	-9,56
302,088	66,22
302,301	88,75
302,514	-48,47
302,727	-17,75
302,94	-79,19
303,153	-48,47
303,366	17,07
303,579	-9,56
303,791	23,21
304,004	-36,18
304,217	78,51
304,43	12,97
304,643	31,4
304,855	-109,91
305,068	70,31
305,281	62,12
305,494	15,02
305,707	-9,56
305,919	141,99
306,132	74,41
306,345	19,11
306,558	119,46
306,77	-52,56
306,983	37,55
307,196	92,84
307,408	4,78
307,621	-30,04
307,834	45,74
308,046	-40,28
308,259	-11,61
308,472	49,83
308,684	119,46
308,897	-50,52
309,109	41,64
309,322	-1,37
309,535	21,16
309,747	86,7
309,96	62,12
310,172	111,27
310,385	62,12
310,597	-105,81
310,81	47,79
311,022	-25,94
311,235	-116,05
311,447	37,55
311,66	4,78
311,872	-3,41
312,085	6,83
312,297	23,21
312,51	-58,71
312,722	-40,28
312,934	70,31
313,147	-60,76
313,359	8,87
313,572	-7,51
313,784	-81,24
313,996	23,21
314,209	111,27
314,421	-34,13
314,633	-66,9
314,846	19,11
315,058	-9,56
315,27	47,79
315,483	-68,95
315,695	-36,18
315,907	-11,61
316,119	4,78
316,332	-25,94
316,544	45,74
316,756	23,21
316,968	21,16
317,181	6,83
317,393	94,89
317,605	80,55
317,817	111,27
318,029	90,79
318,241	29,35
318,454	123,56
318,666	113,32
318,878	39,59
319,09	-3,41
319,302	162,47
319,514	78,51
319,726	27,31
319,938	111,27
320,15	78,51
320,362	39,59
320,574	12,97
320,786	-60,76
320,999	-81,24
321,211	55,98
321,423	25,26
321,635	2,73
321,847	31,4
322,058	-1,37
322,27	17,07
322,482	39,59
322,694	90,79
322,906	-11,61
323,118	-11,61
323,33	62,12
323,542	58,03
323,754	0,68
323,966	-44,37
324,178	72,36
324,389	27,31
324,601	88,75
324,813	55,98
325,025	-11,61
325,237	0,68
325,449	64,17
325,66	8,87
325,872	-1,37
326,084	12,97
326,296	-38,23
326,507	47,79
326,719	4,78
326,931	-48,47
327,143	86,7
327,354	82,6
327,566	4,78
327,778	35,5
327,989	6,83
328,201	98,99
328,413	66,22
328,624	53,93
328,836	31,4
329,048	12,97
329,259	29,35
329,471	47,79
329,682	-1,37
329,894	-25,94
330,106	-19,8
330,317	41,64
330,529	58,03
330,74	0,68
330,952	17,07
331,163	-15,7
331,375	43,69
331,586	15,02
331,798	-68,95
332,009	-36,18
332,221	107,18
332,432	105,13
332,644	-23,89
332,855	-73,04
333,067	-75,09
333,278	119,46
333,489	49,83
333,701	-85,33
333,912	-17,75
334,124	-25,94
334,335	-19,8
334,546	-1,37
334,758	-27,99
334,969	203,43
335,18	-15,7
335,392	66,22
335,603	94,89
335,814	12,97
336,025	-75,09
336,237	-44,37
336,448	-66,9
336,659	-1,37
336,87	-17,75
337,082	72,36
337,293	-27,99
337,504	17,07
337,715	15,02
337,926	51,88
338,138	-25,94
338,349	47,79
338,56	62,12
338,771	4,78
338,982	12,97
339,193	15,02
339,404	60,07
339,616	-1,37
339,827	39,59
340,038	-60,76
340,249	33,45
340,46	31,4
340,671	66,22
340,882	127,66
341,093	78,51
341,304	12,97
341,515	-5,46
341,726	-64,85
341,937	-36,18
342,148	21,16
342,359	-95,57
342,57	-38,23
342,781	33,45
342,992	-3,41
343,203	39,59
343,414	74,41
343,624	-1,37
343,835	-19,8
344,046	-48,47
344,257	47,79
344,468	-56,66
344,679	-27,99
344,89	12,97
345,1	-5,46
345,311	-27,99
345,522	23,21
345,733	-25,94
345,944	-11,61
346,154	82,6
346,365	119,46
346,576	-60,76
346,787	-64,85
346,997	21,16
347,208	-9,56
347,419	-15,7
347,629	-15,7
347,84	135,85
348,051	-3,41
348,261	-19,8
348,472	-91,48
348,683	17,07
348,893	-50,52
349,104	-58,71
349,315	47,79
349,525	12,97
349,736	62,12
349,946	-44,37
350,157	144,04
350,368	29,35
350,578	45,74
350,789	-1,37
350,999	-19,8
351,21	12,97
351,42	-52,56
351,631	-19,8
351,841	-66,9
352,052	31,4
352,262	0,68
352,472	39,59
352,683	12,97
352,893	88,75
353,104	-52,56
353,314	39,59
353,525	369,32
353,735	4,78
353,945	6,83
354,156	-99,67
354,366	88,75
354,576	105,13
354,787	39,59
354,997	39,59
355,207	-3,41
355,418	-11,61
355,628	-50,52
355,838	4,78
356,048	45,74
356,259	53,93
356,469	21,16
356,679	12,97
356,889	72,36
357,1	-5,46
357,31	47,79
357,52	12,97
357,73	23,21
357,94	33,45
358,15	8,87
358,361	39,59
358,571	-19,8
358,781	17,07
358,991	-56,66
359,201	-21,84
359,411	-21,84
359,621	-56,66
359,831	12,97
360,041	-7,51
360,251	45,74
360,461	45,74
360,672	-36,18
360,882	-23,89
361,092	17,07
361,302	80,55
361,512	146,09
361,721	29,35
361,931	70,31
362,141	35,5
362,351	82,6
362,561	6,83
362,771	12,97
362,981	72,36
363,191	-44,37
363,401	64,17
363,611	29,35
363,821	-56,66
364,03	-83,28
364,24	15,02
364,45	78,51
364,66	230,06
364,87	-42,32
365,08	41,64
365,289	4,78
365,499	-19,8
365,709	68,27
365,919	-52,56
366,128	-7,51
366,338	137,9
366,548	-42,32
366,758	-13,65
366,967	39,59
367,177	80,55
367,387	62,12
367,596	-3,41
367,806	-73,04
368,016	70,31
368,225	107,18
368,435	62,12
368,644	-27,99
368,854	-9,56
369,064	55,98
369,273	-40,28
369,483	-9,56
369,692	53,93
369,902	-56,66
370,111	27,31
370,321	15,02
370,53	21,16
370,74	-48,47
370,949	80,55
371,159	103,08
371,368	90,79
371,578	70,31
371,787	80,55
371,997	-19,8
372,206	62,12
372,416	-11,61
372,625	-9,56
372,834	47,79
373,044	-23,89
373,253	58,03
373,462	35,5
373,672	53,93
373,881	47,79
374,09	-60,76
374,3	12,97
374,509	21,16
374,718	-93,52
374,928	113,32
375,137	4,78
375,346	39,59
375,555	176,81
375,765	-11,61
375,974	-17,75
376,183	78,51
376,392	0,68
376,601	-46,42
376,811	37,55
377,02	23,21
377,229	19,11
377,438	88,75
377,647	17,07
377,856	21,16
378,065	31,4
378,275	45,74
378,484	-44,37
378,693	-9,56
378,902	21,16
379,111	111,27
379,32	-34,13
379,529	47,79
379,738	21,16
379,947	55,98
380,156	6,83
380,365	41,64
380,574	144,04
380,783	17,07
380,992	-32,08
381,201	-3,41
381,41	21,16
381,619	72,36
381,828	109,23
382,037	129,7
382,245	144,04
382,454	103,08
382,663	31,4
382,872	33,45
383,081	23,21
383,29	17,07
383,499	-15,7
383,707	119,46
383,916	78,51
384,125	43,69
384,334	47,79
384,542	127,66
384,751	76,46
384,96	-25,94
385,169	-7,51
385,377	47,79
385,586	15,02
385,795	47,79
386,004	86,7
386,212	17,07
386,421	78,51
386,63	309,93
386,838	797,34
387,047	1206,94
387,255	1884,81
387,464	2687,62
387,673	3662,45
387,881	4774,5
388,09	5741,14
388,298	6412,87
388,507	8198,7
388,715	10041,87
388,924	10838,53
389,133	10377,74
389,341	9998,87
389,55	8786,47
389,758	6724,16
389,967	4500,07
390,175	2880,13
390,383	2278,02
390,592	1612,43
390,8	1178,26
391,009	809,63
391,217	512,67
391,426	176,81
391,634	115,37
391,842	72,36
392,051	78,51
392,259	135,85
392,467	115,37
392,676	-66,9
392,884	12,97
393,092	17,07
393,301	90,79
393,509	-19,8
393,717	113,32
393,925	25,26
394,134	8,87
394,342	125,61
394,55	29,35
394,758	90,79
394,967	45,74
395,175	4,78
395,383	62,12
395,591	105,13
395,799	156,33
396,007	123,56
396,216	242,34
396,424	164,52
396,632	197,29
396,84	139,94
397,048	176,81
397,256	185
397,464	105,13
397,672	123,56
397,88	31,4
398,088	-25,94
398,296	25,26
398,504	8,87
398,712	47,79
398,92	70,31
399,128	55,98
399,336	68,27
399,544	-85,33
399,752	29,35
399,96	21,16
400,168	15,02
400,376	35,5
400,584	70,31
400,792	53,93
401	109,23
401,207	33,45
401,415	164,52
401,623	178,86
401,831	189,1
402,039	244,39
402,247	287,4
402,454	385,7
402,662	359,08
402,87	344,74
403,078	500,39
403,285	488,1
403,493	209,58
403,701	258,73
403,909	72,36
404,116	197,29
404,324	62,12
404,532	55,98
404,739	55,98
404,947	60,07
405,155	60,07
405,362	39,59
405,57	27,31
405,778	-85,33
405,985	47,79
406,193	-7,51
406,4	-25,94
406,608	39,59
406,816	-1,37
407,023	88,75
407,231	-1,37
407,438	6,83
407,646	74,41
407,853	10,92
408,061	-1,37
408,268	41,64
408,476	-109,91
408,683	45,74
408,89	62,12
409,098	88,75
409,305	53,93
409,513	39,59
409,72	33,45
409,927	-19,8
410,135	21,16
410,342	-36,18
410,55	98,99
410,757	45,74
410,964	-7,51
411,172	152,23
411,379	88,75
411,586	62,12
411,793	76,46
412,001	-11,61
412,208	41,64
412,415	160,42
412,622	60,07
412,83	148,14
413,037	66,22
413,244	43,69
413,451	203,43
413,658	84,65
413,866	70,31
414,073	-25,94
414,28	62,12
414,487	-75,09
414,694	152,23
414,901	70,31
415,108	6,83
415,315	25,26
415,522	109,23
415,73	12,97
415,937	-27,99
416,144	-68,95
416,351	72,36
416,558	-17,75
416,765	-5,46
416,972	78,51
417,179	37,55
417,386	-27,99
417,593	-11,61
417,8	41,64
418,006	33,45
418,213	-34,13
418,42	80,55
418,627	33,45
418,834	-11,61
419,041	-77,14
419,248	19,11
419,455	137,9
419,661	72,36
419,868	-38,23
420,075	-17,75
420,282	-52,56
420,489	-3,41
420,696	-1,37
420,902	27,31
421,109	53,93
421,316	58,03
421,523	96,94
421,729	49,83
421,936	12,97
422,143	-9,56
422,349	12,97
422,556	-68,95
422,763	25,26
422,969	103,08
423,176	-85,33
423,383	68,27
423,589	283,3
423,796	49,83
424,002	-62,8
424,209	105,13
424,416	-9,56
424,622	-87,38
424,829	-36,18
425,035	-75,09
425,242	45,74
425,448	23,21
425,655	31,4
425,861	41,64
426,068	12,97
426,274	164,52
426,481	12,97
426,687	76,46
426,894	53,93
427,1	21,16
427,306	-66,9
427,513	96,94
427,719	47,79
427,926	8,87
428,132	-11,61
428,338	-30,04
428,545	37,55
428,751	-7,51
428,957	17,07
429,163	-30,04
429,37	55,98
429,576	-11,61
429,782	80,55
429,989	2,73
430,195	21,16
430,401	4,78
430,607	-30,04
430,813	66,22
431,02	37,55
431,226	-25,94
431,432	31,4
431,638	74,41
431,844	-36,18
432,05	-25,94
432,257	64,17
432,463	-25,94
432,669	105,13
432,875	-27,99
433,081	8,87
433,287	-5,46
433,493	-40,28
433,699	53,93
433,905	29,35
434,111	-34,13
434,317	-36,18
434,523	74,41
434,729	-3,41
434,935	-9,56
435,141	78,51
435,347	135,85
435,553	-46,42
435,759	-44,37
435,965	-5,46
436,171	64,17
436,377	88,75
436,582	94,89
436,788	-81,24
436,994	64,17
437,2	-11,61
437,406	111,27
437,612	72,36
437,818	86,7
438,023	-60,76
438,229	195,24
438,435	74,41
438,641	43,69
438,846	70,31
439,052	211,62
439,258	135,85
439,464	154,28
439,669	144,04
439,875	213,67
440,081	80,55
440,286	31,4
440,492	12,97
440,698	17,07
440,903	80,55
441,109	101,03
441,314	0,68
441,52	37,55
441,726	70,31
441,931	70,31
442,137	58,03
442,342	-7,51
442,548	45,74
442,753	119,46
442,959	-60,76
443,164	49,83
443,37	55,98
443,575	15,02
443,781	12,97
443,986	92,84
444,192	45,74
444,397	55,98
444,602	45,74
444,808	47,79
445,013	170,66
445,219	213,67
445,424	471,72
445,629	692,9
445,835	1059,48
446,04	1227,42
446,245	1620,63
446,451	1798,8
446,656	2241,16
446,861	2646,66
447,066	3134,07
447,272	3428,98
447,477	3390,07
447,682	2970,24
447,887	2519,68
448,093	2192,01
448,298	1716,88
448,503	963,23
448,708	746,14
448,913	371,37
449,118	348,84
449,324	275,11
449,529	172,71
449,734	15,02
449,939	-60,76
450,144	37,55
450,349	72,36
450,554	-101,72
450,759	41,64
450,964	123,56
451,169	35,5
451,374	-54,61
451,579	25,26
451,784	8,87
451,989	96,94
452,194	113,32
452,399	37,55
452,604	37,55
452,809	-21,84
453,014	23,21
453,219	33,45
453,424	148,14
453,629	-107,86
453,833	-93,52
454,038	23,21
454,243	-44,37
454,448	72,36
454,653	21,16
454,858	21,16
455,062	-64,85
455,267	43,69
455,472	109,23
455,677	-71
455,882	-85,33
456,086	94,89
456,291	-3,41
456,496	-19,8
456,7	55,98
456,905	-56,66
457,11	17,07
457,314	6,83
457,519	45,74
457,724	21,16
457,928	-7,51
458,133	-3,41
458,338	15,02
458,542	-19,8
458,747	-44,37
458,951	-23,89
459,156	90,79
459,36	-62,8
459,565	115,37
459,769	-27,99
459,974	103,08
460,178	4,78
460,383	-40,28
460,587	-11,61
460,792	49,83
460,996	-5,46
461,201	117,42
461,405	-17,75
461,61	-7,51
461,814	94,89
462,018	-77,14
462,223	21,16
462,427	4,78
462,631	4,78
462,836	98,99
463,04	-19,8
463,244	70,31
463,449	-77,14
463,653	156,33
463,857	-1,37
464,062	109,23
464,266	21,16
464,47	8,87
464,674	6,83
464,878	80,55
465,083	39,59
465,287	31,4
465,491	12,97
465,695	64,17
465,899	-38,23
466,104	-32,08
466,308	-15,7
466,512	62,12
466,716	-15,7
466,92	123,56
467,124	27,31
467,328	94,89
467,532	103,08
467,736	35,5
467,94	49,83
468,144	0,68
468,348	-19,8
468,552	92,84
468,756	72,36
468,96	96,94
469,164	-48,47
469,368	70,31
469,572	74,41
469,776	242,34
469,98	178,86
470,184	367,27
470,388	453,28
470,591	436,9
470,795	590,5
470,999	608,93
471,203	733,86
471,407	840,35
471,611	750,24
471,814	795,29
472,018	678,56
472,222	635,55
472,426	547,49
472,63	332,45
472,833	273,06
473,037	185
473,241	105,13
473,444	109,23
473,648	500,39
473,852	64,17
474,055	41,64
474,259	53,93
474,463	-3,41
474,666	70,31
474,87	-89,43
475,074	80,55
475,277	-5,46
475,481	64,17
475,684	21,16
475,888	29,35
476,091	47,79
476,295	29,35
476,498	-27,99
476,702	35,5
476,905	127,66
477,109	47,79
477,312	29,35
477,516	-48,47
477,719	133,8
477,923	-27,99
478,126	49,83
478,329	23,21
478,533	-34,13
478,736	90,79
478,94	-7,51
479,143	12,97
479,346	72,36
479,55	23,21
479,753	15,02
479,956	-7,51
480,159	-44,37
480,363	78,51
480,566	-15,7
480,769	25,26
480,972	-130,39
481,176	-40,28
481,379	152,23
481,582	139,94
481,785	-36,18
481,988	82,6
482,192	127,66
482,395	45,74
482,598	-50,52
482,801	25,26
483,004	94,89
483,207	45,74
483,41	15,02
483,613	111,27
483,817	31,4
484,02	-9,56
484,223	-48,47
484,426	47,79
484,629	0,68
484,832	96,94
485,035	25,26
485,238	37,55
485,441	62,12
485,644	25,26
485,846	12,97
486,049	-25,94
486,252	31,4
486,455	-64,85
486,658	17,07
486,861	90,79
487,064	135,85
487,267	-32,08
487,47	86,7
487,672	-3,41
487,875	29,35
488,078	21,16
488,281	53,93
488,484	33,45
488,686	15,02
488,889	6,83
489,092	29,35
489,295	23,21
489,497	144,04
489,7	12,97
489,903	6,83
490,105	6,83
490,308	86,7
490,511	160,42
490,713	348,84
490,916	377,51
491,118	574,11
491,321	817,82
491,524	895,65
491,726	955,04
491,929	1159,83
492,131	1282,71
492,334	1424,02
492,536	1473,17
492,739	1434,26
492,941	1348,25
493,144	1069,72
493,346	905,88
493,549	660,13
493,751	494,24
493,954	301,73
494,156	252,58
494,359	170,66
494,561	8,87
494,763	12,97
494,966	66,22
495,168	121,51
495,37	-36,18
495,573	25,26
495,775	37,55
495,977	29,35
496,18	45,74
496,382	123,56
496,584	4,78
496,787	74,41
496,989	-21,84
497,191	-36,18
497,393	127,66
497,595	37,55
497,798	-25,94
498	86,7
498,202	74,41
498,404	4,78
498,606	33,45
498,808	94,89
499,011	62,12
499,213	111,27
499,415	70,31
499,617	234,15
499,819	504,48
500,021	848,54
500,223	1094,3
500,425	1667,73
500,627	2097,8
500,829	2876,03
501,031	3252,86
501,233	3756,66
501,435	4495,97
501,637	4625
501,839	4936,29
502,041	4897,38
502,243	4358,76
502,445	3904,11
502,647	3160,7
502,848	2423,43
503,05	1770,13
503,252	1325,72
503,454	938,65
503,656	615,07
503,858	479,91
504,059	359,08
504,261	348,84
504,463	293,54
504,665	246,44
504,867	295,59
505,068	225,96
505,27	275,11
505,472	266,92
505,673	217,77
505,875	135,85
506,077	139,94
506,278	94,89
506,48	15,02
506,682	29,35
506,883	33,45
507,085	105,13
507,287	-34,13
507,488	53,93
507,69	68,27
507,891	0,68
508,093	45,74
508,294	15,02
508,496	-85,33
508,697	45,74
508,899	37,55
509,1	47,79
509,302	-44,37
509,503	6,83
509,705	55,98
509,906	90,79
510,108	-7,51
510,309	-1,37
510,51	45,74
510,712	-85,33
510,913	66,22
511,114	90,79
511,316	15,02
511,517	113,32
511,718	-36,18
511,92	-40,28
512,121	17,07
512,322	4,78
512,524	55,98
512,725	45,74
512,926	-3,41
513,127	-9,56
513,329	98,99
513,53	4,78
513,731	139,94
513,932	103,08
514,133	31,4
514,334	21,16
514,536	68,27
514,737	176,81
514,938	41,64
515,139	-60,76
515,34	-64,85
515,541	74,41
515,742	45,74
515,943	6,83
516,144	-17,75
516,345	53,93
516,546	-34,13
516,747	62,12
516,948	-44,37
517,149	6,83
517,35	-40,28
517,551	-58,71
517,752	86,7
517,953	39,59
518,154	-27,99
518,355	62,12
518,556	39,59
518,756	49,83
518,957	23,21
519,158	107,18
519,359	96,94
519,56	29,35
519,761	74,41
519,961	111,27
520,162	193,19
520,363	-15,7
520,564	-1,37
520,764	121,51
520,965	-52,56
521,166	98,99
521,366	19,11
521,567	105,13
521,768	31,4
521,968	-58,71
522,169	-56,66
522,37	-27,99
522,57	-54,61
522,771	45,74
522,972	-44,37
523,172	160,42
523,373	62,12
523,573	27,31
523,774	39,59
523,974	105,13
524,175	70,31
524,375	41,64
524,576	-23,89
524,776	-52,56
524,977	62,12
525,177	21,16
525,378	29,35
525,578	0,68
525,778	12,97
525,979	74,41
526,179	78,51
526,38	-25,94
526,58	-54,61
526,78	-5,46
526,981	107,18
527,181	-30,04
527,381	31,4
527,582	111,27
527,782	141,99
527,982	53,93
528,182	-27,99
528,383	55,98
528,583	-44,37
528,783	51,88
528,983	25,26
529,183	-36,18
529,384	8,87
529,584	107,18
529,784	94,89
529,984	80,55
530,184	21,16
530,384	-46,42
530,584	-44,37
530,784	39,59
530,984	-27,99
531,185	41,64
531,385	133,8
531,585	25,26
531,785	29,35
531,985	-7,51
532,185	-3,41
532,385	39,59
532,585	45,74
532,785	25,26
532,984	103,08
533,184	-36,18
533,384	0,68
533,584	-66,9
533,784	4,78
533,984	12,97
534,184	-118,1
534,384	12,97
534,583	45,74
534,783	37,55
534,983	64,17
535,183	64,17
535,383	4,78
535,582	127,66
535,782	-68,95
535,982	86,7
536,182	-19,8
536,381	62,12
536,581	-68,95
536,781	37,55
536,98	12,97
537,18	74,41
537,38	53,93
537,579	39,59
537,779	25,26
537,979	64,17
538,178	-56,66
538,378	80,55
538,577	-50,52
538,777	-15,7
538,976	-7,51
539,176	31,4
539,376	-42,32
539,575	-64,85
539,774	-19,8
539,974	21,16
540,173	45,74
540,373	72,36
540,572	86,7
540,772	-44,37
540,971	0,68
541,171	78,51
541,37	111,27
541,569	45,74
541,769	23,21
541,968	55,98
542,167	33,45
542,367	62,12
542,566	-48,47
542,765	-79,19
542,965	-17,75
543,164	-19,8
543,363	51,88
543,562	12,97
543,761	41,64
543,961	62,12
544,16	-85,33
544,359	66,22
544,558	39,59
544,757	-9,56
544,957	76,46
545,156	160,42
545,355	-11,61
545,554	39,59
545,753	-101,72
545,952	19,11
546,151	45,74
546,35	25,26
546,549	15,02
546,748	25,26
546,947	47,79
547,146	15,02
547,345	43,69
547,544	-83,28
547,743	39,59
547,942	-7,51
548,141	-36,18
548,34	74,41
548,539	21,16
548,738	-109,91
548,937	64,17
549,135	-30,04
549,334	37,55
549,533	51,88
549,732	29,35
549,931	45,74
550,13	-52,56
550,328	-30,04
550,527	-19,8
550,726	12,97
550,925	4,78
551,123	96,94
551,322	35,5
551,521	66,22
551,72	15,02
551,918	70,31
552,117	31,4
552,315	-13,65
552,514	-68,95
552,713	-32,08
552,911	-66,9
553,11	-44,37
553,309	-3,41
553,507	-27,99
553,706	-19,8
553,904	35,5
554,103	-7,51
554,301	41,64
554,5	49,83
554,698	88,75
554,897	53,93
555,095	-13,65
555,294	-83,28
555,492	-36,18
555,69	33,45
555,889	25,26
556,087	70,31
556,286	21,16
556,484	31,4
556,682	64,17
556,881	94,89
557,079	10,92
557,277	8,87
557,476	64,17
557,674	15,02
557,872	29,35
558,07	-15,7
558,269	51,88
558,467	51,88
558,665	53,93
558,863	-17,75
559,062	94,89
559,26	-15,7
559,458	29,35
559,656	62,12
559,854	74,41
560,052	60,07
560,25	31,4
560,449	252,58
560,647	25,26
560,845	-11,61
561,043	74,41
561,241	119,46
561,439	25,26
561,637	31,4
561,835	88,75
562,033	135,85
562,231	41,64
562,429	41,64
562,627	49,83
562,825	-11,61
563,023	70,31
563,221	88,75
563,418	45,74
563,616	37,55
563,814	176,81
564,012	82,6
564,21	90,79
564,408	101,03
564,605	64,17
564,803	31,4
565,001	162,47
565,199	-52,56
565,397	72,36
565,594	127,66
565,792	193,19
565,99	58,03
566,188	88,75
566,385	90,79
566,583	70,31
566,781	154,28
566,978	62,12
567,176	168,62
567,373	121,51
567,571	-44,37
567,769	111,27
567,966	15,02
568,164	70,31
568,361	78,51
568,559	80,55
568,756	25,26
568,954	64,17
569,151	29,35
569,349	103,08
569,546	12,97
569,744	98,99
569,941	119,46
570,139	41,64
570,336	0,68
570,534	82,6
570,731	64,17
570,928	21,16
571,126	156,33
571,323	144,04
571,52	37,55
571,718	66,22
571,915	37,55
572,112	-9,56
572,31	21,16
572,507	185
572,704	12,97
572,901	45,74
573,099	94,89
573,296	109,23
573,493	25,26
573,69	-7,51
573,887	37,55
574,085	111,27
574,282	53,93
574,479	58,03
574,676	68,27
574,873	68,27
575,07	41,64
575,267	17,07
575,464	82,6
575,661	111,27
575,858	23,21
576,055	55,98
576,252	187,05
576,449	164,52
576,646	55,98
576,843	8,87
577,04	137,9
577,237	156,33
577,434	119,46
577,631	23,21
577,828	160,42
578,025	62,12
578,222	4,78
578,419	154,28
578,615	80,55
578,812	152,23
579,009	74,41
579,206	94,89
579,403	135,85
579,599	146,09
579,796	127,66
579,993	154,28
580,19	90,79
580,386	121,51
580,583	127,66
580,78	53,93
580,976	70,31
581,173	80,55
581,37	162,47
581,566	62,12
581,763	105,13
581,96	144,04
582,156	119,46
582,353	156,33
582,549	148,14
582,746	119,46
582,942	66,22
583,139	168,62
583,335	193,19
583,532	215,72
583,728	160,42
583,925	158,38
584,121	90,79
584,318	258,73
584,514	211,62
584,711	258,73
584,907	234,15
585,103	393,89
585,3	455,33
585,496	514,72
585,693	1059,48
585,889	3551,86
586,085	7934,51
586,281	13797,85
586,478	21098,86
586,674	28664,05
586,87	37220,47
587,067	45658,1
587,263	50601,89
587,459	54288,24
587,655	57548,6
587,851	58648,36
588,048	57769,79
588,244	54214,51
588,44	50859,94
588,636	45045,76
588,832	38527,07
589,028	32209,09
589,224	26360,09
589,42	20732,27
589,617	14741,96
589,813	10027,54
590,009	5894,74
590,205	3687,03
590,401	2355,85
590,597	1495,7
590,793	1184,41
590,989	852,64
591,185	570,02
591,38	445,09
591,576	391,84
591,772	326,31
591,968	195,24
592,164	244,39
592,36	238,25
592,556	201,38
592,752	205,48
592,948	111,27
593,143	135,85
593,339	62,12
593,535	144,04
593,731	176,81
593,926	119,46
594,122	135,85
594,318	90,79
594,514	176,81
594,709	62,12
594,905	92,84
595,101	45,74
595,296	53,93
595,492	170,66
595,688	53,93
595,883	144,04
596,079	133,8
596,275	86,7
596,47	125,61
596,666	90,79
596,861	123,56
597,057	31,4
597,252	-21,84
597,448	72,36
597,643	123,56
597,839	133,8
598,034	45,74
598,23	49,83
598,425	-17,75
598,621	127,66
598,816	86,7
599,011	53,93
599,207	62,12
599,402	-44,37
599,597	172,71
599,793	37,55
599,988	23,21
600,183	55,98
600,379	119,46
600,574	78,51
600,769	62,12
600,965	53,93
601,16	-25,94
601,355	62,12
601,55	70,31
601,745	109,23
601,941	103,08
602,136	82,6
602,331	47,79
602,526	49,83
602,721	82,6
602,916	62,12
603,111	45,74
603,307	64,17
603,502	78,51
603,697	-42,32
603,892	127,66
604,087	31,4
604,282	129,7
604,477	139,94
604,672	53,93
604,867	64,17
605,062	72,36
605,257	107,18
605,452	160,42
605,646	94,89
605,841	4,78
606,036	64,17
606,231	31,4
606,426	41,64
606,621	-44,37
606,816	70,31
607,01	152,23
607,205	-36,18
607,4	78,51
607,595	86,7
607,79	174,76
607,984	119,46
608,179	49,83
608,374	37,55
608,569	51,88
608,763	21,16
608,958	21,16
609,153	39,59
609,347	78,51
609,542	45,74
609,736	107,18
609,931	6,83
610,126	80,55
610,32	49,83
610,515	-1,37
610,709	322,21
610,904	64,17
611,098	6,83
611,293	-68,95
611,487	55,98
611,682	27,31
611,876	-23,89
612,071	-7,51
612,265	47,79
612,46	37,55
612,654	82,6
612,848	80,55
613,043	6,83
613,237	88,75
613,432	-27,99
613,626	25,26
613,82	-9,56
614,014	105,13
614,209	80,55
614,403	0,68
614,597	70,31
614,792	39,59
614,986	64,17
615,18	45,74
615,374	144,04
615,568	60,07
615,763	45,74
615,957	21,16
616,151	146,09
616,345	195,24
616,539	41,64
616,733	4,78
616,927	55,98
617,121	37,55
617,316	0,68
617,51	90,79
617,704	53,93
617,898	121,51
618,092	64,17
618,286	10,92
618,48	29,35
618,674	217,77
618,868	55,98
619,061	21,16
619,255	152,23
619,449	29,35
619,643	-52,56
619,837	160,42
620,031	23,21
620,225	103,08
620,419	37,55
620,612	127,66
620,806	162,47
621	88,75
621,194	53,93
621,388	45,74
621,581	94,89
621,775	94,89
621,969	88,75
622,162	-27,99
622,356	33,45
622,55	82,6
622,743	27,31
622,937	-21,84
623,131	119,46
623,324	127,66
623,518	80,55
623,712	21,16
623,905	90,79
624,099	23,21
624,292	86,7
624,486	47,79
624,679	6,83
624,873	70,31
625,066	23,21
625,26	17,07
625,453	12,97
625,647	-7,51
625,84	23,21
626,034	148,14
626,227	17,07
626,42	76,46
626,614	68,27
626,807	111,27
627	15,02
627,194	33,45
627,387	70,31
627,58	-30,04
627,774	-19,8
627,967	98,99
628,16	33,45
628,353	90,79
628,547	37,55
628,74	92,84
628,933	-3,41
629,126	84,65
629,319	53,93
629,513	58,03
629,706	4,78
629,899	115,37
630,092	-19,8
630,285	-64,85
630,478	6,83
630,671	33,45
630,864	146,09
631,057	39,59
631,25	94,89
631,443	-7,51
631,636	39,59
631,829	70,31
632,022	90,79
632,215	-11,61
632,408	21,16
632,601	70,31
632,794	4,78
632,987	43,69
633,18	105,13
633,373	37,55
633,566	80,55
633,758	-11,61
633,951	113,32
634,144	86,7
634,337	47,79
634,53	39,59
634,722	94,89
634,915	80,55
635,108	-23,89
635,301	70,31
635,493	64,17
635,686	113,32
635,879	8,87
636,071	-23,89
636,264	107,18
636,457	23,21
636,649	-1,37
636,842	21,16
637,034	105,13
637,227	86,7
637,42	41,64
637,612	-34,13
637,805	-50,52
637,997	78,51
638,19	86,7
638,382	70,31
638,575	45,74
638,767	45,74
638,96	78,51
639,152	66,22
639,344	15,02
639,537	4,78
639,729	45,74
639,922	82,6
640,114	-1,37
640,306	41,64
640,499	-3,41
640,691	12,97
640,883	98,99
641,075	76,46
641,268	119,46
641,46	162,47
641,652	39,59
641,844	15,02
642,037	-25,94
642,229	39,59
642,421	12,97
642,613	-17,75
642,805	-3,41
642,998	2,73
643,19	6,83
643,382	62,12
643,574	-19,8
643,766	-1,37
643,958	25,26
644,15	119,46
644,342	148,14
644,534	66,22
644,726	70,31
644,918	45,74
645,11	23,21
645,302	39,59
645,494	96,94
645,686	49,83
645,878	74,41
646,07	64,17
646,262	45,74
646,453	-48,47
646,645	74,41
646,837	72,36
647,029	-32,08
647,221	37,55
647,413	0,68
647,604	68,27
647,796	98,99
647,988	154,28
648,18	4,78
648,371	70,31
648,563	119,46
648,755	33,45
648,947	-109,91
649,138	12,97
649,33	45,74
649,521	49,83
649,713	66,22
649,905	-44,37
650,096	135,85
650,288	35,5
650,479	-101,72
650,671	72,36
650,863	29,35
651,054	60,07
651,246	84,65
651,437	53,93
651,629	129,7
651,82	29,35
652,011	41,64
652,203	115,37
652,394	-32,08
652,586	86,7
652,777	17,07
652,968	39,59
653,16	-44,37
653,351	101,03
653,542	152,23
653,734	-15,7
653,925	-11,61
654,116	88,75
654,308	70,31
654,499	-30,04
654,69	51,88
654,881	55,98
655,073	19,11
655,264	58,03
655,455	53,93
655,646	66,22
655,837	103,08
656,028	80,55
656,219	-15,7
656,411	72,36
656,602	53,93
656,793	80,55
656,984	29,35
657,175	12,97
657,366	80,55
657,557	72,36
657,748	88,75
657,939	17,07
658,13	-13,65
658,321	45,74
658,512	58,03
658,703	105,13
658,894	72,36
659,084	10,92
659,275	37,55
659,466	82,6
659,657	109,23
659,848	86,7
660,039	111,27
660,23	66,22
660,42	107,18
660,611	-11,61
660,802	72,36
660,993	2,73
661,183	53,93
661,374	43,69
661,565	168,62
661,755	131,75
661,946	78,51
662,137	45,74
662,327	39,59
662,518	96,94
662,709	49,83
662,899	4,78
663,09	90,79
663,28	47,79
663,471	55,98
663,662	154,28
663,852	137,9
664,043	72,36
664,233	103,08
664,424	72,36
664,614	45,74
664,804	39,59
664,995	178,86
665,185	119,46
665,376	8,87
665,566	152,23
665,756	94,89
665,947	88,75
666,137	285,35
666,328	991,9
666,518	2093,71
666,708	3531,38
666,898	5249,63
667,089	7389,75
667,279	8997,41
667,469	10666,5
667,659	11514,36
667,85	11889,14
668,04	11901,43
668,23	11612,67
668,42	11162,11
668,61	10222,09
668,8	9490,97
668,991	8264,24
669,181	7430,71
669,371	6240,84
669,561	5683,8
669,751	4694,63
669,941	3781,23
670,131	2902,65
670,321	2011,79
670,511	1399,45
670,701	983,71
670,891	578,21
671,081	428,71
671,271	340,65
671,461	168,62
671,651	172,71
671,841	176,81
672,03	152,23
672,22	45,74
672,41	53,93
672,6	176,81
672,79	176,81
672,98	39,59
673,169	72,36
673,359	-25,94
673,549	123,56
673,739	4,78
673,928	-3,41
674,118	55,98
674,308	94,89
674,497	96,94
674,687	53,93
674,877	-34,13
675,066	-3,41
675,256	15,02
675,446	23,21
675,635	17,07
675,825	-9,56
676,014	27,31
676,204	47,79
676,393	31,4
676,583	103,08
676,772	-1,37
676,962	39,59
677,151	62,12
677,341	-27,99
677,53	66,22
677,72	74,41
677,909	58,03
678,099	-34,13
678,288	-27,99
678,477	45,74
678,667	76,46
678,856	162,47
679,045	31,4
679,235	98,99
679,424	94,89
679,613	86,7
679,802	86,7
679,992	78,51
680,181	111,27
680,37	55,98
680,559	62,12
680,748	113,32
680,938	4,78
681,127	47,79
681,316	86,7
681,505	33,45
681,694	47,79
681,883	29,35
682,072	23,21
682,261	12,97
682,45	-3,41
682,639	-13,65
682,828	76,46
683,017	86,7
683,206	45,74
683,395	-38,23
683,584	37,55
683,773	53,93
683,962	66,22
684,151	-23,89
684,34	45,74
684,529	51,88
684,718	62,12
684,907	-36,18
685,095	96,94
685,284	123,56
685,473	37,55
685,662	-36,18
685,851	187,05
686,039	64,17
686,228	78,51
686,417	-7,51
686,606	111,27
686,794	-25,94
686,983	-75,09
687,172	31,4
687,36	15,02
687,549	29,35
687,738	-3,41
687,926	-64,85
688,115	82,6
688,303	94,89
688,492	82,6
688,68	-50,52
688,869	31,4
689,057	4,78
689,246	21,16
689,434	88,75
689,623	47,79
689,811	15,02
690	70,31
690,188	45,74
690,377	121,51
690,565	137,9
690,753	115,37
690,942	-32,08
691,13	64,17
691,318	98,99
691,507	-50,52
691,695	55,98
691,883	-27,99
692,072	72,36
692,26	33,45
692,448	70,31
692,636	17,07
692,824	21,16
693,013	82,6
693,201	64,17
693,389	113,32
693,577	94,89
693,765	-7,51
693,953	-32,08
694,141	-7,51
694,329	-3,41
694,518	31,4
694,706	55,98
694,894	8,87
695,082	45,74
695,27	70,31
695,458	125,61
695,646	66,22
695,834	111,27
696,022	12,97
696,209	47,79
696,397	25,26
696,585	21,16
696,773	0,68
696,961	70,31
697,149	-15,7
697,337	72,36
697,525	96,94
697,712	70,31
697,9	55,98
698,088	39,59
698,276	12,97
698,463	39,59
698,651	127,66
698,839	55,98
699,027	53,93
699,214	103,08
699,402	-3,41
699,59	80,55
699,777	4,78
699,965	105,13
700,152	-11,61
700,34	37,55
700,528	31,4
700,715	21,16
700,903	162,47
701,09	62,12
701,278	103,08
701,465	62,12
701,653	12,97
701,84	8,87
702,028	86,7
702,215	105,13
702,402	70,31
702,59	123,56
702,777	119,46
702,965	129,7
703,152	88,75
703,339	78,51
703,527	21,16
703,714	80,55
703,901	84,65
704,088	170,66
704,276	96,94
704,463	152,23
704,65	123,56
704,837	242,34
705,025	918,17
705,212	2638,47
705,399	5782,1
705,586	9024,03
705,773	12564,97
705,96	16564,65
706,147	19220,87
706,335	21162,34
706,522	22405,46
706,709	22120,79
706,896	21778,78
707,083	20205,94
707,27	19341,7
707,457	17041,83
707,644	15903,16
707,831	13867,48
708,018	11958,77
708,205	10420,75
708,392	8929,83
708,578	7541,3
708,765	6216,27
708,952	5149,28
709,139	4084,33
709,326	2839,17
709,513	1907,34
709,7	1335,96
709,886	934,56
710,073	656,03
710,26	496,29
710,447	301,73
710,633	283,3
710,82	158,38
711,007	209,58
711,193	90,79
711,38	111,27
711,567	98,99
711,753	53,93
711,94	150,18
712,127	160,42
712,313	64,17
712,5	23,21
712,686	80,55
712,873	86,7
713,059	53,93
713,246	70,31
713,432	152,23
713,619	0,68
713,805	66,22
713,992	144,04
714,178	49,83
714,365	92,84
714,551	203,43
714,737	64,17
714,924	21,16
715,11	55,98
715,297	37,55
715,483	6,83
715,669	-58,71
715,855	111,27
716,042	82,6
716,228	21,16
716,414	176,81
716,6	90,79
716,787	37,55
716,973	8,87
717,159	21,16
717,345	37,55
717,531	-1,37
717,718	-19,8
717,904	121,51
718,09	4,78
718,276	-15,7
718,462	21,16
718,648	35,5
718,834	-11,61
719,02	70,31
719,206	29,35
719,392	-3,41
719,578	107,18
719,764	-44,37
719,95	-44,37
720,136	121,51
720,322	62,12
720,508	62,12
720,694	62,12
720,879	-27,99
721,065	23,21
721,251	-25,94
721,437	47,79
721,623	-7,51
721,809	39,59
721,994	90,79
722,18	-19,8
722,366	113,32
722,552	-1,37
722,737	39,59
722,923	70,31
723,109	127,66
723,294	-25,94
723,48	111,27
723,666	119,46
723,851	17,07
724,037	92,84
724,222	115,37
724,408	107,18
724,593	29,35
724,779	117,42
724,965	4,78
725,15	66,22
725,336	41,64
725,521	53,93
725,706	45,74
725,892	29,35
726,077	23,21
726,263	21,16
726,448	176,81
726,634	160,42
726,819	244,39
727,004	490,15
727,19	803,49
727,375	1340,05
727,56	1553,04
727,745	1784,46
727,931	2042,51
728,116	2134,67
728,301	2060,94
728,486	2241,16
728,672	2011,79
728,857	1880,72
729,042	1602,19
729,227	1594
729,412	1348,25
729,597	1110,68
729,783	1086,11
729,968	934,56
730,153	840,35
730,338	553,63
730,523	522,91
730,708	447,14
730,893	318,12
731,078	201,38
731,263	139,94
731,448	160,42
731,633	205,48
731,818	-3,41
732,003	4,78
732,187	47,79
732,372	74,41
732,557	107,18
732,742	37,55
732,927	-36,18
733,112	23,21
733,297	45,74
733,481	17,07
733,666	94,89
733,851	94,89
734,036	37,55
734,22	29,35
734,405	127,66
734,59	8,87
734,774	84,65
734,959	45,74
735,144	70,31
735,328	49,83
735,513	-11,61
735,698	29,35
735,882	39,59
736,067	139,94
736,251	60,07
736,436	17,07
736,62	55,98
736,805	-89,43
736,989	62,12
737,174	-9,56
737,358	-19,8
737,543	55,98
737,727	78,51
737,911	45,74
738,096	17,07
738,28	98,99
738,465	29,35
738,649	55,98
738,833	23,21
739,018	-17,75
739,202	6,83
739,386	-44,37
739,57	-1,37
739,755	31,4
739,939	72,36
740,123	-44,37
740,307	-17,75
740,491	88,75
740,676	-52,56
740,86	-44,37
741,044	-19,8
741,228	17,07
741,412	-66,9
741,596	-58,71
741,78	-48,47
741,964	74,41
742,148	-44,37
742,332	-9,56
742,516	-81,24
742,7	45,74
742,884	98,99
743,068	45,74
743,252	62,12
743,436	29,35
743,62	-73,04
743,804	148,14
743,988	96,94
744,172	17,07
744,356	33,45
744,539	45,74
744,723	-34,13
744,907	-52,56
745,091	12,97
745,275	17,07
745,458	78,51
745,642	-23,89
745,826	15,02
746,009	103,08
746,193	15,02
746,377	62,12
746,56	8,87
746,744	78,51
746,928	-21,84
747,111	31,4
747,295	6,83
747,478	-27,99
747,662	33,45
747,846	-48,47
748,029	12,97
748,213	2,73
748,396	37,55
748,58	17,07
748,763	-7,51
748,946	-62,8
749,13	-56,66
749,313	-27,99
749,497	66,22
749,68	62,12
749,863	12,97
750,047	-34,13
750,23	-23,89
750,413	62,12
750,597	-11,61
750,78	-52,56
750,963	6,83
751,146	21,16
751,33	37,55
751,513	31,4
751,696	-40,28
751,879	39,59
752,062	-58,71
752,246	45,74
752,429	62,12
752,612	94,89
752,795	-27,99
752,978	49,83
753,161	-58,71
753,344	-91,48
753,527	53,93
753,71	29,35
753,893	113,32
754,076	15,02
754,259	76,46
754,442	-1,37
754,625	-36,18
754,808	76,46
754,991	8,87
755,174	39,59
755,357	8,87
755,539	4,78
755,722	103,08
755,905	-13,65
756,088	-13,65
756,271	21,16
756,453	47,79
756,636	-99,67
756,819	-17,75
757,002	-77,14
757,184	74,41
757,367	94,89
757,55	-19,8
757,732	94,89
757,915	-68,95
758,098	-11,61
758,28	12,97
758,463	47,79
758,645	-68,95
758,828	121,51
759,011	74,41
759,193	-19,8
759,376	41,64
759,558	21,16
759,741	-77,14
759,923	-77,14
760,105	55,98
760,288	-3,41
760,47	-44,37
760,653	-60,76
760,835	-1,37
761,017	-1,37
761,2	-7,51
761,382	29,35
761,564	47,79
761,747	39,59
761,929	64,17
762,111	-50,52
762,294	15,02
762,476	230,06
762,658	78,51
762,84	127,66
763,022	37,55
763,205	29,35
763,387	129,7
763,569	4,78
763,751	-81,24
763,933	-105,81
764,115	-3,41
764,297	41,64
764,479	94,89
764,661	-27,99
764,843	58,03
765,025	64,17
765,207	62,12
765,389	-83,28
765,571	-44,37
765,753	70,31
765,935	37,55
766,117	29,35
766,299	170,66
766,481	119,46
766,663	4,78
766,845	0,68
767,026	4,78
767,208	-11,61
767,39	-11,61
767,572	-44,37
767,753	6,83
767,935	6,83
768,117	-77,14
768,299	113,32
768,48	8,87
768,662	37,55
768,844	21,16
769,025	137,9
769,207	-9,56
769,389	-25,94
769,57	53,93
769,752	33,45
769,933	-40,28
770,115	58,03
770,296	60,07
770,478	21,16
770,659	-19,8
770,841	168,62
771,022	4,78
771,204	12,97
771,385	72,36
771,567	127,66
771,748	123,56
771,929	-27,99
772,111	55,98
772,292	39,59
772,473	-15,7
772,655	17,07
772,836	70,31
773,017	119,46
773,199	113,32
773,38	135,85
773,561	55,98
773,742	121,51
773,923	41,64
774,105	101,03
774,286	8,87
774,467	0,68
774,648	-23,89
774,829	45,74
775,01	-50,52
775,191	-91,48
775,372	-42,32
775,553	66,22
775,734	66,22
775,915	-34,13
776,096	35,5
776,277	0,68
776,458	-56,66
776,639	70,31
776,82	86,7
777,001	-19,8
777,182	21,16
777,363	39,59
777,544	58,03
777,725	113,32
777,906	29,35
778,086	74,41
778,267	74,41
778,448	-1,37
778,629	8,87
778,809	74,41
778,99	53,93
779,171	-25,94
779,352	33,45
779,532	-27,99
779,713	-19,8
779,894	-48,47
780,074	152,23
780,255	39,59
780,435	86,7
780,616	76,46
780,797	31,4
780,977	-44,37
781,158	-68,95
781,338	33,45
781,519	41,64
781,699	70,31
781,88	39,59
782,06	33,45
782,241	-32,08
782,421	-58,71
782,601	53,93
782,782	2,73
782,962	127,66
783,142	27,31
783,323	31,4
783,503	45,74
783,683	96,94
783,864	-19,8
784,044	12,97
784,224	-11,61
784,404	27,31
784,585	45,74
784,765	-48,47
784,945	82,6
785,125	-44,37
785,305	21,16
785,485	103,08
785,666	68,27
785,846	-50,52
786,026	0,68
786,206	-42,32
786,386	-5,46
786,566	15,02
786,746	88,75
786,926	72,36
787,106	12,97
787,286	6,83
787,466	15,02
787,646	17,07
787,826	21,16
788,006	29,35
788,185	31,4
788,365	-3,41
788,545	88,75
788,725	-27,99
788,905	45,74
789,085	10,92
789,264	12,97
789,444	115,37
789,624	8,87
789,804	12,97
789,983	4,78
790,163	-15,7
790,343	10,92
790,522	-1,37
790,702	53,93
790,882	-9,56
791,061	152,23
791,241	6,83
791,42	4,78
791,6	41,64
791,78	29,35
791,959	47,79
792,139	-15,7
792,318	35,5
792,498	70,31
792,677	45,74
792,856	17,07
793,036	-25,94
793,215	29,35
793,395	111,27
793,574	-1,37
793,753	-36,18
793,933	103,08
794,112	39,59
794,291	-13,65
794,471	152,23
794,65	-40,28
794,829	-48,47
795,008	70,31
795,188	74,41
795,367	60,07
795,546	31,4
795,725	17,07
795,904	62,12
796,084	53,93
796,263	70,31
796,442	70,31
796,621	8,87
796,8	45,74
796,979	49,83
797,158	-134,48
797,337	4,78
797,516	119,46
797,695	137,9
797,874	88,75
798,053	105,13
798,232	-9,56
798,411	-89,43
798,59	-15,7
798,769	-36,18
798,947	31,4
799,126	-54,61
799,305	45,74
799,484	37,55
799,663	21,16
799,842	76,46
800,02	47,79
800,199	-54,61
800,378	74,41
800,557	31,4
800,735	-11,61
800,914	-9,56
801,093	-52,56
801,271	-15,7
801,45	6,83
801,628	64,17
801,807	45,74
801,986	70,31
802,164	107,18
802,343	4,78
802,521	-23,89
802,7	96,94
802,878	111,27
803,057	4,78
803,235	25,26
803,414	62,12
803,592	35,5
803,771	-9,56
803,949	45,74
804,127	4,78
804,306	129,7
804,484	4,78
804,662	-48,47
804,841	-66,9
805,019	15,02
805,197	-11,61
805,375	8,87
805,554	31,4
805,732	21,16
805,91	8,87
806,088	80,55
806,266	-48,47
806,445	-7,51
806,623	-27,99
806,801	39,59
806,979	105,13
807,157	17,07
807,335	-27,99
807,513	45,74
807,691	37,55
807,869	-19,8
808,047	47,79
808,225	-79,19
808,403	70,31
808,581	-79,19
808,759	111,27
808,937	58,03
809,115	127,66
809,293	121,51
809,471	62,12
809,649	33,45
809,826	78,51
810,004	39,59
810,182	-32,08
810,36	12,97
810,538	43,69
810,715	15,02
810,893	-93,52
811,071	-27,99
811,248	70,31
811,426	-99,67
811,604	115,37
811,781	74,41
811,959	58,03
812,137	-38,23
812,314	-85,33
812,492	-15,7
812,669	4,78
812,847	-42,32
813,024	33,45
813,202	135,85
813,379	31,4
813,557	111,27
813,734	53,93
813,912	66,22
814,089	39,59
814,267	49,83
814,444	-11,61
814,621	37,55
814,799	-32,08
814,976	55,98
815,153	39,59
815,331	53,93
815,508	17,07
815,685	23,21
815,862	29,35
816,04	47,79
816,217	-23,89
816,394	-1,37
816,571	12,97
816,748	156,33
816,926	101,03
817,103	221,86
817,28	47,79
817,457	-87,38
817,634	103,08
817,811	-36,18
817,988	47,79
818,165	15,02
818,342	86,7
818,519	58,03
818,696	-9,56
818,873	-34,13
819,05	94,89
819,227	17,07
819,404	-19,8
819,581	60,07
819,758	-32,08
819,934	33,45
820,111	-58,71
820,288	29,35
820,465	72,36
820,642	49,83
820,818	78,51
820,995	-34,13
821,172	8,87
821,349	25,26
821,525	-27,99
821,702	39,59
821,879	-124,24
822,055	-40,28
822,232	47,79
822,409	78,51
822,585	62,12
822,762	62,12
822,938	45,74
823,115	86,7
823,291	66,22
823,468	154,28
823,644	39,59
823,821	55,98
823,997	-25,94
824,174	21,16
824,35	-5,46
824,527	39,59
824,703	15,02
824,879	-27,99
825,056	33,45
825,232	121,51
825,408	49,83
825,585	15,02
825,761	17,07
825,937	-36,18
826,113	6,83
826,29	103,08
826,466	-42,32
826,642	402,08
826,818	51,88
826,994	10,92
827,17	-19,8
827,347	0,68
827,523	-15,7
827,699	88,75
827,875	12,97
828,051	72,36
828,227	37,55
828,403	39,59
828,579	144,04
828,755	45,74
828,931	-3,41
829,107	-11,61
829,283	152,23
829,459	-7,51
829,635	55,98
829,811	15,02
829,986	25,26
830,162	-19,8
830,338	107,18
830,514	8,87
830,69	-25,94
830,865	-68,95
831,041	39,59
831,217	-77,14
831,393	92,84
831,568	-68,95
831,744	21,16
831,92	21,16
832,095	-3,41
832,271	-21,84
832,447	-3,41
832,622	70,31
832,798	37,55
832,973	58,03
833,149	45,74
833,325	-3,41
833,5	86,7
833,676	23,21
833,851	12,97
834,027	-32,08
834,202	70,31
834,377	29,35
834,553	-1,37
834,728	23,21
834,904	58,03
835,079	49,83
835,254	-1,37
835,43	103,08
835,605	-60,76
835,78	31,4
835,955	-1,37
836,131	70,31
836,306	-109,91
836,481	-68,95
836,656	31,4
836,832	82,6
837,007	-27,99
837,182	-77,14
837,357	-36,18
837,532	-19,8
837,707	6,83
837,882	62,12
838,057	154,28
838,232	96,94
838,407	70,31
838,582	10,92
838,757	-1,37
838,932	88,75
839,107	-3,41
839,282	-17,75
839,457	-3,41
839,632	43,69
839,807	39,59
839,982	88,75
840,157	21,16
840,332	39,59
840,506	62,12
840,681	-83,28
840,856	6,83
841,031	-58,71
841,205	29,35
841,38	-27,99
841,555	101,03
841,73	-60,76
841,904	12,97
842,079	12,97
842,254	8,87
842,428	37,55
842,603	-48,47
842,777	-23,89
842,952	-19,8
843,126	-19,8
843,301	21,16
843,476	-52,56
843,65	29,35
843,825	74,41
843,999	53,93
844,173	12,97
844,348	23,21
844,522	72,36
844,697	-19,8
844,871	-118,1
845,045	170,66
845,22	29,35
845,394	103,08
845,568	-19,8
845,743	58,03
845,917	-25,94
846,091	15,02
846,265	25,26
846,44	103,08
846,614	55,98
846,788	21,16
846,962	-25,94
847,136	6,83
847,31	8,87
847,485	45,74
847,659	-77,14
847,833	105,13
848,007	41,64
848,181	8,87
848,355	-52,56
848,529	74,41
848,703	86,7
848,877	-42,32
849,051	80,55
849,225	-42,32
849,399	-19,8
849,573	-15,7
849,746	-23,89
849,92	23,21
850,094	35,5
850,268	-7,51
850,442	107,18
850,616	21,16
850,789	-23,89
850,963	-99,67
851,137	-81,24
851,311	135,85
851,484	49,83
851,658	41,64
851,832	-97,62
852,005	15,02
852,179	-21,84
852,352	17,07
852,526	21,16
852,7	64,17
852,873	-1,37
853,047	55,98
853,22	33,45
853,394	80,55
853,567	62,12
853,741	25,26
853,914	-32,08
854,088	-3,41
854,261	29,35
854,434	-7,51
854,608	-48,47
854,781	-11,61
854,955	-9,56
855,128	64,17
855,301	41,64
855,475	-32,08
855,648	2,73
855,821	105,13
855,994	-32,08
856,168	62,12
856,341	31,4
856,514	-101,72
856,687	0,68
856,86	90,79
857,033	98,99
857,207	64,17
857,38	-9,56
857,553	152,23
857,726	33,45
857,899	62,12
858,072	-126,29
858,245	45,74
858,418	-3,41
858,591	-11,61
858,764	-11,61
858,937	111,27
859,11	12,97
859,283	-9,56
859,455	-3,41
859,628	-42,32
859,801	90,79
859,974	187,05
860,147	-50,52
860,32	101,03
860,492	4,78
860,665	-114
860,838	4,78
861,011	45,74
861,183	103,08
861,356	45,74
861,529	86,7
861,701	-11,61
861,874	35,5
862,047	187,05
862,219	-13,65
862,392	27,31
862,564	-73,04
862,737	-44,37
862,909	70,31
863,082	-27,99
863,254	47,79
863,427	12,97
863,599	113,32
863,772	-64,85
863,944	47,79
864,117	-19,8
864,289	12,97
864,461	-52,56
864,634	53,93
864,806	-34,13
864,978	-1,37
865,151	-93,52
865,323	168,62
865,495	66,22
865,667	-11,61
865,84	107,18
866,012	-93,52
866,184	98,99
866,356	-52,56
866,528	37,55
866,7	-36,18
866,873	12,97
867,045	4,78
867,217	-101,72
867,389	-3,41
867,561	-52,56
867,733	21,16
867,905	4,78
868,077	-27,99
868,249	12,97
868,421	-50,52
868,593	-52,56
868,765	150,18
868,936	-64,85
869,108	23,21
869,28	119,46
869,452	-1,37
869,624	12,97
869,796	88,75
869,968	-11,61
870,139	170,66
870,311	-42,32
870,483	68,27
870,654	-27,99
870,826	103,08
870,998	-27,99
871,17	39,59
871,341	-89,43
871,513	4,78
871,684	-27,99
871,856	-1,37
872,028	29,35
872,199	-42,32
872,371	-66,9
872,542	51,88
872,714	8,87
872,885	72,36
873,057	45,74
873,228	-9,56
873,4	49,83
873,571	137,9
873,742	-11,61
873,914	31,4
874,085	68,27
874,256	94,89
874,428	-32,08
874,599	-62,8
874,77	127,66
874,942	4,78
875,113	-15,7
875,284	6,83
875,455	-58,71
875,626	27,31
875,798	-27,99
875,969	-44,37
876,14	29,35
876,311	-3,41
876,482	62,12
876,653	-11,61
876,824	64,17
876,995	-1,37
877,166	127,66
877,337	37,55
877,508	-50,52
877,679	78,51
877,85	27,31
878,021	-38,23
878,192	90,79
878,363	-27,99
878,534	-5,46
878,705	-27,99
878,876	-50,52
879,047	70,31
879,217	-52,56
879,388	8,87
879,559	80,55
879,73	80,55
879,9	-34,13
880,071	90,79
880,242	-3,41
880,413	39,59
880,583	31,4
880,754	47,79
880,924	-19,8
881,095	-40,28
881,266	-36,18
881,436	-87,38
881,607	62,12
881,777	64,17
881,948	-73,04
882,118	66,22
882,289	-19,8
882,459	-3,41
882,63	58,03
882,8	8,87
882,971	78,51
883,141	0,68
883,311	64,17
883,482	121,51
883,652	33,45
883,822	-58,71
883,993	-44,37
884,163	111,27
884,333	25,26
884,504	98,99
884,674	70,31
884,844	-48,47
885,014	-27,99
885,184	-1,37
885,355	35,5
885,525	37,55
885,695	80,55
885,865	82,6
886,035	72,36
886,205	-40,28
886,375	66,22
886,545	17,07
886,715	-93,52
886,885	-25,94
887,055	-40,28
887,225	-60,76
887,395	29,35
887,565	105,13
887,735	29,35
887,905	21,16
888,075	33,45
888,244	53,93
888,414	78,51
888,584	41,64
888,754	98,99
888,924	70,31
889,093	236,2
889,263	29,35
889,433	-64,85
889,603	21,16
889,772	-17,75
889,942	12,97
890,111	-99,67
890,281	45,74
890,451	-27,99
890,62	-36,18
890,79	-3,41
890,959	53,93
891,129	21,16
891,298	62,12
891,468	-17,75
891,637	55,98
891,807	6,83
891,976	150,18
892,146	6,83
892,315	72,36
892,485	72,36
892,654	-3,41
892,823	49,83
892,993	-52,56
893,162	49,83
893,331	66,22
893,501	39,59
893,67	25,26
893,839	15,02
894,008	12,97
894,177	4,78
894,347	-1,37
894,516	72,36
894,685	123,56
894,854	-73,04
895,023	74,41
895,192	21,16
