Data from he_USB4F104161__32__11-53-38-501.txt Node

Date: Tue Apr 14 11:53:38 EDT 2026
User: LaboPhy
Spectrometer: USB4F10416
Trigger mode: 4
Integration Time (sec): 1,000000E-1
Scans to average: 1
Electric dark correction enabled: true
Nonlinearity correction enabled: false
Boxcar width: 0
XAxis mode: Wavelengths
Number of Pixels in Spectrum: 3648
>>>>>Begin Spectral Data<<<<<
177,847	-111,96
178,066	-111,96
178,284	-111,96
178,502	-222,55
178,72	-165,2
178,939	17,07
179,157	64,17
179,375	0,68
179,593	-5,46
179,812	0,68
180,03	-52,56
180,248	-7,51
180,466	53,93
180,685	10,92
180,903	-30,04
181,121	-30,04
181,339	-21,85
181,557	-1,37
181,775	-40,28
181,994	-30,04
182,212	0,68
182,43	33,45
182,648	-50,52
182,866	-15,7
183,084	0,68
183,302	-87,38
183,52	-44,37
183,739	33,45
183,957	82,6
184,175	27,31
184,393	4,78
184,611	-64,85
184,829	-7,51
185,047	21,16
185,265	49,83
185,483	58,03
185,701	98,99
185,919	21,16
186,137	-64,85
186,355	17,07
186,573	-3,41
186,791	25,26
187,009	23,21
187,227	4,78
187,445	-5,46
187,663	17,07
187,881	-40,28
188,098	51,88
188,316	2,73
188,534	133,8
188,752	12,97
188,97	10,92
189,188	25,26
189,406	74,41
189,624	76,46
189,841	33,45
190,059	-56,66
190,277	35,5
190,495	-15,7
190,713	82,6
190,931	90,79
191,148	94,89
191,366	17,07
191,584	-50,52
191,802	25,26
192,019	111,27
192,237	58,03
192,455	-7,51
192,673	66,22
192,89	-23,89
193,108	-44,37
193,326	-23,89
193,543	12,97
193,761	21,16
193,979	-48,47
194,196	-56,66
194,414	68,27
194,632	33,45
194,849	-40,28
195,067	-77,14
195,285	25,26
195,502	-89,43
195,72	-13,65
195,937	0,68
196,155	49,83
196,373	-5,46
196,59	-3,41
196,808	68,27
197,025	41,64
197,243	148,14
197,46	49,83
197,678	68,27
197,895	8,87
198,113	-27,99
198,33	8,87
198,548	-27,99
198,765	-23,89
198,983	37,55
199,2	-7,51
199,418	109,22
199,635	10,92
199,853	-60,76
200,07	0,68
200,288	78,51
200,505	-81,24
200,722	94,89
200,94	74,41
201,157	19,11
201,375	66,22
201,592	21,16
201,809	17,07
202,027	90,79
202,244	49,83
202,461	-32,08
202,679	-11,61
202,896	-7,51
203,113	0,68
203,331	60,07
203,548	41,64
203,765	49,83
203,982	92,84
204,2	-21,85
204,417	-52,56
204,634	205,48
204,851	90,79
205,069	29,35
205,286	25,26
205,503	2,73
205,72	-7,51
205,937	0,68
206,155	-71
206,372	115,37
206,589	-40,28
206,806	-38,23
207,023	17,07
207,24	17,07
207,458	-81,24
207,675	-25,94
207,892	-13,65
208,109	-146,77
208,326	-95,57
208,543	-7,51
208,76	-44,37
208,977	43,69
209,194	84,65
209,411	-13,65
209,628	-15,7
209,845	92,84
210,062	58,03
210,279	-19,8
210,496	41,64
210,713	-3,41
210,93	-48,47
211,147	51,88
211,364	-23,89
211,581	0,68
211,798	90,79
212,015	-138,58
212,232	-56,66
212,449	-56,66
212,666	-21,85
212,883	-40,28
213,1	12,97
213,317	-54,61
213,533	-1,37
213,75	2,73
213,967	-34,13
214,184	-146,77
214,401	74,41
214,618	-17,75
214,835	-9,56
215,051	45,74
215,268	19,11
215,485	-5,46
215,702	41,64
215,919	-79,19
216,135	101,03
216,352	-40,28
216,569	19,11
216,786	76,46
217,002	-64,85
217,219	4,78
217,436	17,07
217,652	-9,56
217,869	-23,89
218,086	33,45
218,302	62,12
218,519	58,03
218,736	-46,42
218,952	-9,56
219,169	58,03
219,386	43,69
219,602	2,73
219,819	-54,61
220,036	-56,66
220,252	115,37
220,469	-48,47
220,685	8,87
220,902	49,83
221,118	2,73
221,335	-27,99
221,552	-85,33
221,768	51,88
221,985	76,46
222,201	78,51
222,418	94,89
222,634	-54,61
222,851	15,02
223,067	19,11
223,284	-93,52
223,5	25,26
223,716	-13,65
223,933	-40,28
224,149	8,87
224,366	-3,41
224,582	74,41
224,799	-146,77
225,015	-5,46
225,231	-77,14
225,448	31,4
225,664	23,21
225,88	-13,65
226,097	-11,61
226,313	-56,66
226,529	-7,51
226,746	53,93
226,962	-48,47
227,178	41,64
227,395	25,26
227,611	-40,28
227,827	12,97
228,044	66,22
228,26	66,22
228,476	-42,32
228,692	135,85
228,909	35,5
229,125	-11,61
229,341	-87,38
229,557	-19,8
229,773	-87,38
229,99	19,11
230,206	-66,9
230,422	19,11
230,638	19,11
230,854	-30,04
231,07	-93,52
231,286	4,78
231,503	2,73
231,719	-13,65
231,935	8,87
232,151	-38,23
232,367	144,04
232,583	-32,08
232,799	58,03
233,015	49,83
233,231	-5,46
233,447	17,07
233,663	-30,04
233,879	125,61
234,095	-7,51
234,311	76,46
234,527	37,55
234,743	84,65
234,959	10,92
235,175	-7,51
235,391	-21,85
235,607	29,35
235,823	62,12
236,039	-64,85
236,255	27,31
236,471	-40,28
236,687	43,69
236,903	70,31
237,118	58,03
237,334	-5,46
237,55	-11,61
237,766	-75,09
237,982	41,64
238,198	60,07
238,413	-7,51
238,629	27,31
238,845	29,35
239,061	49,83
239,277	-32,08
239,492	-48,47
239,708	-7,51
239,924	-56,66
240,14	25,26
240,355	72,36
240,571	-23,89
240,787	-64,85
241,003	86,7
241,218	0,68
241,434	-62,8
241,65	70,31
241,865	-89,43
242,081	107,18
242,297	-27,99
242,512	21,16
242,728	31,4
242,944	-46,42
243,159	17,07
243,375	49,83
243,59	17,07
243,806	49,83
244,022	27,31
244,237	-71
244,453	17,07
244,668	12,97
244,884	49,83
245,099	-44,37
245,315	135,85
245,53	84,65
245,746	82,6
245,961	62,12
246,177	-36,18
246,392	58,03
246,608	68,27
246,823	-38,23
247,039	-13,65
247,254	-3,41
247,47	49,83
247,685	-62,8
247,9	27,31
248,116	25,26
248,331	-89,43
248,547	60,07
248,762	-62,8
248,977	39,59
249,193	-23,89
249,408	41,64
249,623	-15,7
249,839	-93,52
250,054	-89,43
250,269	-58,71
250,485	21,16
250,7	-77,14
250,915	45,74
251,13	64,17
251,346	-42,32
251,561	51,88
251,776	90,79
251,991	-48,47
252,207	25,26
252,422	4,78
252,637	-17,75
252,852	-54,61
253,067	0,68
253,283	-36,18
253,498	-11,61
253,713	-73,04
253,928	-40,28
254,143	84,65
254,358	35,5
254,573	-40,28
254,788	-64,85
255,004	10,92
255,219	-138,58
255,434	-34,13
255,649	-73,04
255,864	78,51
256,079	-40,28
256,294	-50,52
256,509	-48,47
256,724	84,65
256,939	21,16
257,154	-32,08
257,369	60,07
257,584	33,45
257,799	-54,61
258,014	-71
258,229	43,69
258,444	-32,08
258,659	-52,56
258,874	66,22
259,089	74,41
259,304	-5,46
259,518	10,92
259,733	6,83
259,948	10,92
260,163	68,27
260,378	74,41
260,593	64,17
260,808	17,07
261,022	-97,62
261,237	80,55
261,452	23,21
261,667	33,45
261,882	-56,66
262,096	-1,37
262,311	78,51
262,526	-64,85
262,741	-34,13
262,955	-19,8
263,17	8,87
263,385	-15,7
263,6	-40,28
263,814	-73,04
264,029	-56,66
264,244	-73,04
264,458	66,22
264,673	19,11
264,888	109,22
265,102	29,35
265,317	-32,08
265,532	33,45
265,746	135,85
265,961	17,07
266,175	49,83
266,39	-13,65
266,605	80,55
266,819	2,73
267,034	-5,46
267,248	-32,08
267,463	21,16
267,677	-89,43
267,892	33,45
268,106	-30,04
268,321	98,99
268,535	60,07
268,75	43,69
268,964	-21,85
269,179	123,56
269,393	-7,51
269,608	27,31
269,822	-105,81
270,036	-89,43
270,251	12,97
270,465	-7,51
270,68	68,27
270,894	45,74
271,108	148,14
271,323	-19,8
271,537	-40,28
271,752	76,46
271,966	58,03
272,18	-32,08
272,394	-15,7
272,609	19,11
272,823	25,26
273,037	78,51
273,252	-56,66
273,466	-52,56
273,68	148,14
273,894	-5,46
274,109	-46,42
274,323	-17,75
274,537	-32,08
274,751	-40,28
274,966	58,03
275,18	-83,28
275,394	-105,81
275,608	-3,41
275,822	-52,56
276,036	17,07
276,25	49,83
276,465	31,4
276,679	74,41
276,893	-120,15
277,107	10,92
277,321	-97,62
277,535	82,6
277,749	125,61
277,963	51,88
278,177	-87,38
278,391	76,46
278,605	-42,32
278,819	64,17
279,033	0,68
279,247	-11,61
279,461	-5,46
279,675	-52,56
279,889	103,08
280,103	55,98
280,317	55,98
280,531	76,46
280,745	-23,89
280,959	-48,47
281,173	51,88
281,387	21,16
281,601	60,07
281,815	78,51
282,029	10,92
282,242	-52,56
282,456	-9,56
282,67	58,03
282,884	31,4
283,098	94,89
283,312	10,92
283,525	35,5
283,739	-42,32
283,953	33,45
284,167	-11,61
284,381	58,03
284,594	17,07
284,808	-56,66
285,022	12,97
285,235	33,45
285,449	-7,51
285,663	25,26
285,877	-40,28
286,09	148,14
286,304	78,51
286,518	58,03
286,731	-85,33
286,945	92,84
287,159	-46,42
287,372	-13,65
287,586	27,31
287,799	-81,24
288,013	-64,85
288,227	-17,75
288,44	256,68
288,654	0,68
288,867	0,68
289,081	-89,43
289,294	-3,41
289,508	94,89
289,721	41,64
289,935	43,69
290,148	60,07
290,362	-5,46
290,575	92,84
290,789	-15,7
291,002	-21,85
291,216	109,22
291,429	43,69
291,643	23,21
291,856	4,78
292,069	58,03
292,283	-132,44
292,496	0,68
292,71	43,69
292,923	33,45
293,136	-30,04
293,35	29,35
293,563	-30,04
293,776	-7,51
293,99	-52,56
294,203	43,69
294,416	-25,94
294,63	-62,8
294,843	55,98
295,056	43,69
295,269	-46,42
295,483	-30,04
295,696	37,55
295,909	-23,89
296,122	-7,51
296,335	2,73
296,549	-13,65
296,762	-50,52
296,975	-15,7
297,188	51,88
297,401	2,73
297,615	49,83
297,828	-13,65
298,041	84,65
298,254	-66,9
298,467	37,55
298,68	-1,37
298,893	-11,61
299,106	-7,51
299,319	19,11
299,532	51,88
299,745	-60,76
299,958	-56,66
300,171	-25,94
300,384	12,97
300,598	-60,76
300,81	25,26
301,023	-81,24
301,236	-1,37
301,449	-32,08
301,662	-30,04
301,875	33,45
302,088	33,45
302,301	35,5
302,514	8,87
302,727	66,22
302,94	-91,48
303,153	-36,18
303,366	-38,23
303,579	-32,08
303,791	6,83
304,004	-30,04
304,217	45,74
304,43	66,22
304,643	35,5
304,855	-64,85
305,068	49,83
305,281	25,26
305,494	66,22
305,707	43,69
305,919	94,89
306,132	-32,08
306,345	33,45
306,558	33,45
306,77	-71
306,983	-62,8
307,196	-15,7
307,408	-46,42
307,621	43,69
307,834	-73,04
308,046	-13,65
308,259	-21,85
308,472	-11,61
308,684	109,22
308,897	4,78
309,109	-21,85
309,322	-11,61
309,535	33,45
309,747	-7,51
309,96	94,89
310,172	0,68
310,385	107,18
310,597	12,97
310,81	-38,23
311,022	17,07
311,235	-15,7
311,447	2,73
311,66	-15,7
311,872	64,17
312,085	17,07
312,297	-71
312,51	-40,28
312,722	-56,66
312,934	66,22
313,147	-54,61
313,359	12,97
313,572	0,68
313,784	-3,41
313,996	-40,28
314,209	31,4
314,421	8,87
314,633	-64,85
314,846	27,31
315,058	25,26
315,27	-5,46
315,483	2,73
315,695	2,73
315,907	4,78
316,119	-58,71
316,332	-52,56
316,544	90,79
316,756	172,71
316,968	39,59
317,181	17,07
317,393	92,84
317,605	-23,89
317,817	21,16
318,029	105,13
318,241	103,08
318,454	25,26
318,666	127,66
318,878	-62,8
319,09	29,35
319,302	150,18
319,514	43,69
319,726	8,87
319,938	133,8
320,15	82,6
320,362	41,64
320,574	-56,66
320,786	-32,08
320,999	-68,95
321,211	92,84
321,423	107,18
321,635	-130,39
321,847	37,55
322,058	-54,61
322,27	41,64
322,482	43,69
322,694	60,07
322,906	-11,61
323,118	29,35
323,33	8,87
323,542	-42,32
323,754	2,73
323,966	-105,81
324,178	123,56
324,389	2,73
324,601	90,79
324,813	19,11
325,025	37,55
325,237	-40,28
325,449	94,89
325,66	-56,66
325,872	-32,08
326,084	-32,08
326,296	-48,47
326,507	82,6
326,719	-7,51
326,931	-48,47
327,143	29,35
327,354	41,64
327,566	-21,85
327,778	4,78
327,989	25,26
328,201	-23,89
328,413	4,78
328,624	78,51
328,836	-93,52
329,048	-32,08
329,259	-42,32
329,471	-1,37
329,682	70,31
329,894	0,68
330,106	-7,51
330,317	-34,13
330,529	64,17
330,74	49,83
330,952	-7,51
331,163	-13,65
331,375	-34,13
331,586	-19,8
331,798	-64,85
332,009	-56,66
332,221	25,26
332,432	33,45
332,644	-52,56
332,855	-81,24
333,067	-105,81
333,278	4,78
333,489	86,7
333,701	-17,75
333,912	-5,46
334,124	51,88
334,335	-64,85
334,546	-73,04
334,758	-13,65
334,969	182,95
335,18	35,5
335,392	41,64
335,603	37,55
335,814	62,12
336,025	-54,61
336,237	-64,85
336,448	-130,39
336,659	-48,47
336,87	144,04
337,082	98,99
337,293	-1,37
337,504	-32,08
337,715	27,31
337,926	10,92
338,138	8,87
338,349	98,99
338,56	-32,08
338,771	2,73
338,982	86,7
339,193	-3,41
339,404	37,55
339,616	33,45
339,827	107,18
340,038	-54,61
340,249	31,4
340,46	-62,8
340,671	0,68
340,882	117,42
341,093	82,6
341,304	12,97
341,515	8,87
341,726	-23,89
341,937	-52,56
342,148	-64,85
342,359	2,73
342,57	0,68
342,781	82,6
342,992	8,87
343,203	-11,61
343,414	37,55
343,624	-21,85
343,835	10,92
344,046	-15,7
344,257	-36,18
344,468	-56,66
344,679	-64,85
344,89	-56,66
345,1	-81,24
345,311	-64,85
345,522	29,35
345,733	-60,76
345,944	10,92
346,154	-23,89
346,365	72,36
346,576	-48,47
346,787	-77,14
346,997	-73,04
347,208	49,83
347,419	-68,95
347,629	107,18
347,84	127,66
348,051	-7,51
348,261	25,26
348,472	-52,56
348,683	29,35
348,893	19,11
349,104	-81,24
349,315	-62,8
349,525	-60,76
349,736	35,5
349,946	-15,7
350,157	101,03
350,368	74,41
350,578	-105,81
350,789	27,31
350,999	-19,8
351,21	29,35
351,42	-32,08
351,631	-40,28
351,841	-73,04
352,052	21,16
352,262	49,83
352,472	-81,24
352,683	-54,61
352,893	43,69
353,104	-23,89
353,314	66,22
353,525	338,6
353,735	86,7
353,945	-48,47
354,156	-13,65
354,366	84,65
354,576	164,52
354,787	19,11
354,997	-17,75
355,207	-13,65
355,418	-93,52
355,628	-40,28
355,838	-85,33
356,048	8,87
356,259	39,59
356,469	21,16
356,679	-38,23
356,889	53,93
357,1	-23,89
357,31	-30,04
357,52	8,87
357,73	-48,47
357,94	-21,85
358,15	-15,7
358,361	-32,08
358,571	-32,08
358,781	0,68
358,991	-21,85
359,201	-40,28
359,411	0,68
359,621	-38,23
359,831	0,68
360,041	27,31
360,251	25,26
360,461	70,31
360,672	-56,66
360,882	-42,32
361,092	-48,47
361,302	45,74
361,512	43,69
361,721	-3,41
361,931	-11,61
362,141	90,79
362,351	-21,85
362,561	33,45
362,771	17,07
362,981	115,37
363,191	-64,85
363,401	25,26
363,611	29,35
363,821	-101,72
364,03	27,31
364,24	72,36
364,45	4,78
364,66	307,88
364,87	-68,95
365,08	8,87
365,289	19,11
365,499	0,68
365,709	12,97
365,919	-7,51
366,128	-44,37
366,338	82,6
366,548	8,87
366,758	21,16
366,967	19,11
367,177	21,16
367,387	-56,66
367,596	62,12
367,806	0,68
368,016	62,12
368,225	74,41
368,435	-5,46
368,644	-48,47
368,854	-19,8
369,064	33,45
369,273	-13,65
369,483	-17,75
369,692	-5,46
369,902	-68,95
370,111	107,18
370,321	17,07
370,53	-48,47
370,74	-56,66
370,949	51,88
371,159	60,07
371,368	76,46
371,578	29,35
371,787	43,69
371,997	-15,7
372,206	35,5
372,416	66,22
372,625	19,11
372,834	19,11
373,044	-15,7
373,253	68,27
373,462	41,64
373,672	43,69
373,881	25,26
374,09	-9,56
374,3	74,41
374,509	-42,32
374,718	-32,08
374,928	88,75
375,137	27,31
375,346	19,11
375,555	39,59
375,765	12,97
375,974	98,99
376,183	58,03
376,392	0,68
376,601	12,97
376,811	62,12
377,02	84,65
377,229	47,79
377,438	-52,56
377,647	98,99
377,856	35,5
378,065	-30,04
378,275	-81,24
378,484	15,02
378,693	60,07
378,902	33,45
379,111	-3,41
379,32	25,26
379,529	-42,32
379,738	-42,32
379,947	-13,65
380,156	-19,8
380,365	0,68
380,574	103,08
380,783	-15,7
380,992	19,11
381,201	-54,61
381,41	-30,04
381,619	58,03
381,828	60,07
382,037	15,02
382,245	82,6
382,454	141,99
382,663	70,31
382,872	41,64
383,081	35,5
383,29	86,7
383,499	-25,94
383,707	33,45
383,916	117,42
384,125	94,89
384,334	-38,23
384,542	41,64
384,751	2,73
384,96	-54,61
385,169	-42,32
385,377	62,12
385,586	0,68
385,795	70,31
386,004	131,75
386,212	2,73
386,421	88,75
386,63	338,6
386,838	836,25
387,047	1145,5
387,255	1903,25
387,464	2806,4
387,673	3924,59
387,881	4868,7
388,09	5939,79
388,298	6787,65
388,507	8237,61
388,715	10162,7
388,924	11053,57
389,133	10611,21
389,341	10291,73
389,55	8931,87
389,758	6793,79
389,967	4432,49
390,175	2919,04
390,383	2345,61
390,592	1692,3
390,8	1106,59
391,009	819,87
391,217	436,9
391,426	275,11
391,634	141,99
391,842	90,79
392,051	27,31
392,259	82,6
392,467	12,97
392,676	-56,66
392,884	-32,08
393,092	-15,7
393,301	123,56
393,509	-48,47
393,717	37,55
393,925	-5,46
394,134	27,31
394,342	92,84
394,55	60,07
394,758	109,22
394,967	53,93
395,175	-23,89
395,383	74,41
395,591	43,69
395,799	123,56
396,007	119,46
396,216	250,53
396,424	185
396,632	197,29
396,84	197,29
397,048	174,76
397,256	201,38
397,464	78,51
397,672	135,85
397,88	49,83
398,088	98,99
398,296	-93,52
398,504	25,26
398,712	10,92
398,92	-30,04
399,128	33,45
399,336	49,83
399,544	-13,65
399,752	-30,04
399,96	-46,42
400,168	27,31
400,376	4,78
400,584	117,42
400,792	144,04
401	43,69
401,207	51,88
401,415	187,05
401,623	141,99
401,831	252,58
402,039	279,21
402,247	266,92
402,454	395,94
402,662	449,19
402,87	361,13
403,078	426,66
403,285	461,48
403,493	346,79
403,701	271,01
403,909	98,99
404,116	156,33
404,324	23,21
404,532	2,73
404,739	19,11
404,947	51,88
405,155	78,51
405,362	131,75
405,57	33,45
405,778	49,83
405,985	39,59
406,193	58,03
406,4	-97,62
406,608	29,35
406,816	-15,7
407,023	51,88
407,231	-30,04
407,438	107,18
407,646	8,87
407,853	-79,19
408,061	-93,52
408,268	0,68
408,476	4,78
408,683	35,5
408,89	64,17
409,098	17,07
409,305	60,07
409,513	33,45
409,72	66,22
409,927	58,03
410,135	90,79
410,342	-3,41
410,55	27,31
410,757	-21,85
410,964	-87,38
411,172	0,68
411,379	58,03
411,586	58,03
411,793	-44,37
412,001	-1,37
412,208	35,5
412,415	45,74
412,622	90,79
412,83	-30,04
413,037	156,33
413,244	6,83
413,451	41,64
413,658	33,45
413,866	58,03
414,073	74,41
414,28	109,22
414,487	41,64
414,694	35,5
414,901	-7,51
415,108	35,5
415,315	-40,28
415,522	27,31
415,73	39,59
415,937	8,87
416,144	19,11
416,351	-7,51
416,558	-87,38
416,765	-62,8
416,972	62,12
417,179	10,92
417,386	55,98
417,593	12,97
417,8	-73,04
418,006	-15,7
418,213	49,83
418,42	8,87
418,627	72,36
418,834	-42,32
419,041	-52,56
419,248	35,5
419,455	51,88
419,661	0,68
419,868	-56,66
420,075	-11,61
420,282	-73,04
420,489	-25,94
420,696	-21,85
420,902	55,98
421,109	90,79
421,316	-56,66
421,523	41,64
421,729	49,83
421,936	-19,8
422,143	0,68
422,349	-62,8
422,556	-81,24
422,763	60,07
422,969	-27,99
423,176	-32,08
423,383	4,78
423,589	246,44
423,796	-40,28
424,002	-27,99
424,209	37,55
424,416	62,12
424,622	-64,85
424,829	-71
425,035	0,68
425,242	-13,65
425,448	29,35
425,655	51,88
425,861	31,4
426,068	62,12
426,274	62,12
426,481	-36,18
426,687	76,46
426,894	8,87
427,1	41,64
427,306	-23,89
427,513	-40,28
427,719	-46,42
427,926	-32,08
428,132	4,78
428,338	-34,13
428,545	25,26
428,751	-15,7
428,957	-13,65
429,163	-7,51
429,37	82,6
429,576	-7,51
429,782	115,37
429,989	4,78
430,195	76,46
430,401	33,45
430,607	-64,85
430,813	-46,42
431,02	-7,51
431,226	29,35
431,432	19,11
431,638	0,68
431,844	-60,76
432,05	-62,8
432,257	-40,28
432,463	49,83
432,669	0,68
432,875	-77,14
433,081	-34,13
433,287	-48,47
433,493	-21,85
433,699	74,41
433,905	17,07
434,111	-25,94
434,317	-27,99
434,523	109,22
434,729	4,78
434,935	-68,95
435,141	45,74
435,347	-23,89
435,553	25,26
435,759	-42,32
435,965	-15,7
436,171	58,03
436,377	66,22
436,582	125,61
436,788	-30,04
436,994	117,42
437,2	25,26
437,406	84,65
437,612	25,26
437,818	45,74
438,023	-58,71
438,229	221,86
438,435	123,56
438,641	160,42
438,846	86,7
439,052	82,6
439,258	191,14
439,464	41,64
439,669	107,18
439,875	150,18
440,081	51,88
440,286	17,07
440,492	0,68
440,698	-15,7
440,903	25,26
441,109	148,14
441,314	-60,76
441,52	-23,89
441,726	25,26
441,931	-27,99
442,137	76,46
442,342	-11,61
442,548	84,65
442,753	182,95
442,959	-30,04
443,164	-15,7
443,37	82,6
443,575	-56,66
443,781	-68,95
443,986	33,45
444,192	49,83
444,397	-1,37
444,602	-73,04
444,808	43,69
445,013	70,31
445,219	146,09
445,424	471,72
445,629	602,79
445,835	1043,1
446,04	1229,46
446,245	1587,86
446,451	1985,16
446,656	2304,65
446,861	2665,09
447,066	3197,56
447,272	3383,93
447,477	3371,64
447,682	3136,12
447,887	2609,79
448,093	2222,73
448,298	1729,17
448,503	1055,39
448,708	754,34
448,913	445,09
449,118	404,13
449,324	152,23
449,529	189,1
449,734	74,41
449,939	39,59
450,144	84,65
450,349	4,78
450,554	-32,08
450,759	55,98
450,964	-5,46
451,169	78,51
451,374	-34,13
451,579	-32,08
451,784	-7,51
451,989	25,26
452,194	98,99
452,399	107,18
452,604	17,07
452,809	-30,04
453,014	-7,51
453,219	66,22
453,424	-5,46
453,629	-54,61
453,833	-36,18
454,038	0,68
454,243	0,68
454,448	-19,8
454,653	117,42
454,858	17,07
455,062	-48,47
455,267	-36,18
455,472	33,45
455,677	41,64
455,882	-107,86
456,086	37,55
456,291	12,97
456,496	-81,24
456,7	12,97
456,905	2,73
457,11	96,94
457,314	-48,47
457,519	-17,75
457,724	58,03
457,928	-13,65
458,133	-23,89
458,338	41,64
458,542	19,11
458,747	-3,41
458,951	-23,89
459,156	-15,7
459,36	-52,56
459,565	90,79
459,769	-60,76
459,974	47,79
460,178	-89,43
460,383	12,97
460,587	60,07
460,792	-7,51
460,996	19,11
461,201	0,68
461,405	-21,85
461,61	-23,89
461,814	76,46
462,018	-122,2
462,223	0,68
462,427	-9,56
462,631	-27,99
462,836	33,45
463,04	94,89
463,244	43,69
463,449	19,11
463,653	197,29
463,857	41,64
464,062	66,22
464,266	8,87
464,47	107,18
464,674	68,27
464,878	45,74
465,083	-21,85
465,287	51,88
465,491	51,88
465,695	29,35
465,899	43,69
466,104	17,07
466,308	-7,51
466,512	2,73
466,716	51,88
466,92	35,5
467,124	78,51
467,328	-15,7
467,532	98,99
467,736	-7,51
467,94	66,22
468,144	33,45
468,348	60,07
468,552	41,64
468,756	25,26
468,96	0,68
469,164	-5,46
469,368	74,41
469,572	21,16
469,776	135,85
469,98	268,97
470,184	311,97
470,388	426,66
470,591	600,74
470,795	549,54
470,999	680,61
471,203	660,13
471,407	783,01
471,611	783,01
471,814	615,07
472,018	508,58
472,222	522,91
472,426	647,84
472,63	287,4
472,833	283,3
473,037	94,89
473,241	109,22
473,444	158,38
473,648	475,81
473,852	-32,08
474,055	23,21
474,259	35,5
474,463	29,35
474,666	111,27
474,87	-3,41
475,074	51,88
475,277	31,4
475,481	129,7
475,684	33,45
475,888	53,93
476,091	58,03
476,295	-68,95
476,498	-3,41
476,702	-5,46
476,905	72,36
477,109	45,74
477,312	-9,56
477,516	-54,61
477,719	58,03
477,923	-21,85
478,126	-23,89
478,329	17,07
478,533	-60,76
478,736	66,22
478,94	107,18
479,143	25,26
479,346	-15,7
479,55	-13,65
479,753	49,83
479,956	-23,89
480,159	2,73
480,363	74,41
480,566	29,35
480,769	-23,89
480,972	6,83
481,176	2,73
481,379	92,84
481,582	90,79
481,785	-105,81
481,988	25,26
482,192	41,64
482,395	58,03
482,598	43,69
482,801	94,89
483,004	131,75
483,207	45,74
483,41	-5,46
483,613	58,03
483,817	17,07
484,02	-5,46
484,223	19,11
484,426	-13,65
484,629	10,92
484,832	84,65
485,035	2,73
485,238	17,07
485,441	-30,04
485,644	27,31
485,846	-1,37
486,049	-44,37
486,252	-13,65
486,455	-77,14
486,658	12,97
486,861	66,22
487,064	127,66
487,267	-30,04
487,47	90,79
487,672	-73,04
487,875	49,83
488,078	53,93
488,281	41,64
488,484	-19,8
488,686	-7,51
488,889	25,26
489,092	-79,19
489,295	8,87
489,497	80,55
489,7	4,78
489,903	31,4
490,105	12,97
490,308	68,27
490,511	148,14
490,713	299,69
490,916	385,7
491,118	590,5
491,321	678,56
491,524	905,88
491,726	1036,95
491,929	1155,74
492,131	1401,49
492,334	1344,15
492,536	1362,58
492,739	1387,16
492,941	1127,07
493,144	1127,07
493,346	815,77
493,549	635,55
493,751	490,15
493,954	295,59
494,156	318,12
494,359	139,94
494,561	-3,41
494,763	29,35
494,966	62,12
495,168	123,56
495,37	-52,56
495,573	12,97
495,775	-7,51
495,977	58,03
496,18	72,36
496,382	148,14
496,584	0,68
496,787	66,22
496,989	-21,85
497,191	12,97
497,393	94,89
497,595	17,07
497,798	-38,23
498	4,78
498,202	-38,23
498,404	-36,18
498,606	-7,51
498,808	127,66
499,011	78,51
499,213	74,41
499,415	0,68
499,617	266,92
499,819	500,39
500,021	821,92
500,223	1077,91
500,425	1606,29
500,627	2083,47
500,829	2826,88
501,031	3363,45
501,233	3998,32
501,435	4602,47
501,637	4997,73
501,839	4997,73
502,041	4936,29
502,243	4491,88
502,445	3897,97
502,647	3154,55
502,848	2417,29
503,05	1770,13
503,252	1387,16
503,454	957,08
503,656	553,63
503,858	467,62
504,059	295,59
504,261	352,93
504,463	311,97
504,665	197,29
504,867	193,19
505,068	283,3
505,27	240,29
505,472	354,98
505,673	221,86
505,875	94,89
506,077	109,22
506,278	49,83
506,48	84,65
506,682	27,31
506,883	76,46
507,085	66,22
507,287	-7,51
507,488	60,07
507,69	8,87
507,891	-23,89
508,093	176,81
508,294	-32,08
508,496	0,68
508,697	-13,65
508,899	-114
509,1	33,45
509,302	60,07
509,503	-23,89
509,705	74,41
509,906	15,02
510,108	-15,7
510,309	-15,7
510,51	-19,8
510,712	-13,65
510,913	-25,94
511,114	-23,89
511,316	-13,65
511,517	58,03
511,718	31,4
511,92	-77,14
512,121	41,64
512,322	-19,8
512,524	29,35
512,725	21,16
512,926	21,16
513,127	8,87
513,329	82,6
513,53	-15,7
513,731	10,92
513,932	51,88
514,133	41,64
514,334	6,83
514,536	58,03
514,737	-7,51
514,938	25,26
515,139	-23,89
515,34	29,35
515,541	17,07
515,742	-19,8
515,943	6,83
516,144	-87,38
516,345	10,92
516,546	17,07
516,747	47,79
516,948	19,11
517,149	-99,67
517,35	-36,18
517,551	-95,57
517,752	58,03
517,953	135,85
518,154	2,73
518,355	35,5
518,556	25,26
518,756	-32,08
518,957	-48,47
519,158	139,94
519,359	17,07
519,56	-13,65
519,761	29,35
519,961	78,51
520,162	117,42
520,363	8,87
520,564	-34,13
520,764	166,57
520,965	27,31
521,166	98,99
521,366	-23,89
521,567	78,51
521,768	-5,46
521,968	-21,85
522,169	-21,85
522,37	-79,19
522,57	-27,99
522,771	-13,65
522,972	-7,51
523,172	133,8
523,373	-32,08
523,573	33,45
523,774	8,87
523,974	90,79
524,175	29,35
524,375	25,26
524,576	-15,7
524,776	-87,38
524,977	25,26
525,177	82,6
525,378	17,07
525,578	53,93
525,778	78,51
525,979	62,12
526,179	41,64
526,38	-83,28
526,58	-40,28
526,78	-5,46
526,981	39,59
527,181	2,73
527,381	0,68
527,582	121,51
527,782	98,99
527,982	60,07
528,182	-30,04
528,383	-52,56
528,583	-73,04
528,783	8,87
528,983	49,83
529,183	43,69
529,384	74,41
529,584	84,65
529,784	66,22
529,984	47,79
530,184	45,74
530,384	25,26
530,584	-56,66
530,784	10,92
530,984	-46,42
531,185	19,11
531,385	70,31
531,585	10,92
531,785	41,64
531,985	19,11
532,185	41,64
532,385	10,92
532,585	21,16
532,785	25,26
532,984	12,97
533,184	31,4
533,384	-21,85
533,584	-40,28
533,784	10,92
533,984	74,41
534,184	2,73
534,384	-42,32
534,583	0,68
534,783	8,87
534,983	58,03
535,183	115,37
535,383	-87,38
535,582	-25,94
535,782	-15,7
535,982	72,36
536,182	6,83
536,381	0,68
536,581	-56,66
536,781	49,83
536,98	86,7
537,18	19,11
537,38	78,51
537,579	-89,43
537,779	62,12
537,979	60,07
538,178	19,11
538,378	148,14
538,577	-19,8
538,777	-19,8
538,976	29,35
539,176	35,5
539,376	-64,85
539,575	12,97
539,774	2,73
539,974	-15,7
540,173	-32,08
540,373	-15,7
540,572	-17,75
540,772	17,07
540,971	-32,08
541,171	27,31
541,37	8,87
541,569	-5,46
541,769	19,11
541,968	-21,85
542,167	2,73
542,367	98,99
542,566	35,5
542,765	-52,56
542,965	-23,89
543,164	58,03
543,363	-15,7
543,562	-62,8
543,761	35,5
543,961	55,98
544,16	-48,47
544,359	80,55
544,558	-32,08
544,757	-15,7
544,957	33,45
545,156	107,18
545,355	-19,8
545,554	123,56
545,753	-38,23
545,952	-56,66
546,151	-32,08
546,35	55,98
546,549	-3,41
546,748	53,93
546,947	84,65
547,146	-64,85
547,345	-7,51
547,544	35,5
547,743	-30,04
547,942	12,97
548,141	58,03
548,34	17,07
548,539	-21,85
548,738	-81,24
548,937	80,55
549,135	68,27
549,334	4,78
549,533	17,07
549,732	-30,04
549,931	66,22
550,13	17,07
550,328	-85,33
550,527	-15,7
550,726	66,22
550,925	-68,95
551,123	58,03
551,322	-75,09
551,521	49,83
551,72	17,07
551,918	0,68
552,117	45,74
552,315	60,07
552,514	10,92
552,713	4,78
552,911	-32,08
553,11	-93,52
553,309	47,79
553,507	-23,89
553,706	21,16
553,904	27,31
554,103	17,07
554,301	-13,65
554,5	2,73
554,698	33,45
554,897	4,78
555,095	101,03
555,294	-62,8
555,492	-27,99
555,69	94,89
555,889	-42,32
556,087	-7,51
556,286	123,56
556,484	15,02
556,682	86,7
556,881	0,68
557,079	2,73
557,277	51,88
557,476	94,89
557,674	37,55
557,872	92,84
558,07	25,26
558,269	23,21
558,467	25,26
558,665	101,03
558,863	-19,8
559,062	78,51
559,26	-30,04
559,458	-21,85
559,656	8,87
559,854	43,69
560,052	-5,46
560,25	68,27
560,449	291,49
560,647	25,26
560,845	-13,65
561,043	66,22
561,241	62,12
561,439	101,03
561,637	35,5
561,835	51,88
562,033	156,33
562,231	27,31
562,429	37,55
562,627	8,87
562,825	133,8
563,023	107,18
563,221	53,93
563,418	74,41
563,616	8,87
563,814	123,56
564,012	68,27
564,21	115,37
564,408	58,03
564,605	27,31
564,803	-85,33
565,001	154,28
565,199	-30,04
565,397	98,99
565,594	74,41
565,792	123,56
565,99	58,03
566,188	72,36
566,385	66,22
566,583	8,87
566,781	115,37
566,978	68,27
567,176	58,03
567,373	19,11
567,571	51,88
567,769	35,5
567,966	-36,18
568,164	8,87
568,361	82,6
568,559	64,17
568,756	15,02
568,954	41,64
569,151	51,88
569,349	82,6
569,546	-30,04
569,744	78,51
569,941	21,16
570,139	27,31
570,336	-36,18
570,534	76,46
570,731	-68,95
570,928	78,51
571,126	236,2
571,323	148,14
571,52	-40,28
571,718	90,79
571,915	125,61
572,112	6,83
572,31	19,11
572,507	139,94
572,704	-97,62
572,901	43,69
573,099	98,99
573,296	131,75
573,493	33,45
573,69	0,68
573,887	51,88
574,085	74,41
574,282	12,97
574,479	78,51
574,676	109,22
574,873	139,94
575,07	84,65
575,267	-5,46
575,464	-30,04
575,661	107,18
575,858	19,11
576,055	33,45
576,252	49,83
576,449	41,64
576,646	51,88
576,843	72,36
577,04	111,27
577,237	82,6
577,434	47,79
577,631	37,55
577,828	98,99
578,025	53,93
578,222	68,27
578,419	164,52
578,615	8,87
578,812	29,35
579,009	19,11
579,206	82,6
579,403	82,6
579,599	139,94
579,796	107,18
579,993	156,33
580,19	103,08
580,386	123,56
580,583	174,76
580,78	78,51
580,976	185
581,173	70,31
581,37	68,27
581,566	119,46
581,763	119,46
581,96	27,31
582,156	113,32
582,353	131,75
582,549	197,29
582,746	103,08
582,942	58,03
583,139	33,45
583,335	115,37
583,532	133,8
583,728	82,6
583,925	82,6
584,121	238,25
584,318	172,71
584,514	199,34
584,711	301,73
584,907	326,31
585,103	244,39
585,3	395,94
585,496	447,14
585,693	1086,11
585,889	3836,53
586,085	8241,71
586,281	14221,78
586,478	21768,54
586,674	29647,08
586,87	38273,12
587,067	46723,04
587,263	51785,62
587,459	55654,23
587,655	59438,88
587,851	59916,06
588,048	58963,75
588,244	55353,18
588,44	52012,94
588,636	46700,51
588,832	39594,06
589,028	33087,67
589,224	26646,8
589,42	21193,06
589,617	15319,49
589,813	10275,34
590,009	6181,45
590,205	3916,4
590,401	2196,11
590,597	1614,48
590,793	1116,83
590,989	836,25
591,185	684,7
591,38	397,99
591,576	299,69
591,772	316,07
591,968	209,58
592,164	252,58
592,36	250,53
592,556	172,71
592,752	238,25
592,948	117,42
593,143	129,7
593,339	58,03
593,535	107,18
593,731	101,03
593,926	180,9
594,122	78,51
594,318	107,18
594,514	107,18
594,709	-23,89
594,905	105,13
595,101	58,03
595,296	55,98
595,492	115,37
595,688	10,92
595,883	133,8
596,079	156,33
596,275	66,22
596,47	92,84
596,666	74,41
596,861	-1,37
597,057	127,66
597,252	8,87
597,448	62,12
597,643	115,37
597,839	131,75
598,034	4,78
598,23	17,07
598,425	86,7
598,621	49,83
598,816	92,84
599,011	35,5
599,207	-32,08
599,402	31,4
599,597	68,27
599,793	25,26
599,988	49,83
600,183	123,56
600,379	82,6
600,574	60,07
600,769	107,18
600,965	33,45
601,16	17,07
601,355	-25,94
601,55	33,45
601,745	33,45
601,941	103,08
602,136	158,38
602,331	107,18
602,526	27,31
602,721	66,22
602,916	51,88
603,111	41,64
603,307	60,07
603,502	53,93
603,697	-11,61
603,892	37,55
604,087	21,16
604,282	133,8
604,477	49,83
604,672	-13,65
604,867	-38,23
605,062	19,11
605,257	19,11
605,452	141,99
605,646	98,99
605,841	33,45
606,036	8,87
606,231	-62,8
606,426	0,68
606,621	90,79
606,816	17,07
607,01	82,6
607,205	148,14
607,4	6,83
607,595	90,79
607,79	19,11
607,984	103,08
608,179	58,03
608,374	-7,51
608,569	15,02
608,763	-44,37
608,958	66,22
609,153	144,04
609,347	35,5
609,542	66,22
609,736	92,84
609,931	58,03
610,126	-5,46
610,32	109,22
610,515	-3,41
610,709	271,01
610,904	107,18
611,098	-5,46
611,293	8,87
611,487	58,03
611,682	-1,37
611,876	-32,08
612,071	29,35
612,265	4,78
612,46	2,73
612,654	47,79
612,848	15,02
613,043	17,07
613,237	0,68
613,432	-48,47
613,626	4,78
613,82	-38,23
614,014	164,52
614,209	84,65
614,403	-62,8
614,597	76,46
614,792	19,11
614,986	-19,8
615,18	98,99
615,374	98,99
615,568	21,16
615,763	2,73
615,957	156,33
616,151	49,83
616,345	60,07
616,539	-23,89
616,733	45,74
616,927	4,78
617,121	-30,04
617,316	72,36
617,51	98,99
617,704	51,88
617,898	189,1
618,092	-118,1
618,286	66,22
618,48	-68,95
618,674	51,88
618,868	17,07
619,061	-68,95
619,255	58,03
619,449	70,31
619,643	49,83
619,837	152,23
620,031	33,45
620,225	96,94
620,419	19,11
620,612	72,36
620,806	66,22
621	35,5
621,194	12,97
621,388	98,99
621,581	27,31
621,775	-23,89
621,969	15,02
622,162	-5,46
622,356	82,6
622,55	51,88
622,743	62,12
622,937	-71
623,131	12,97
623,324	19,11
623,518	-3,41
623,712	-27,99
623,905	-19,8
624,099	58,03
624,292	51,88
624,486	-5,46
624,679	12,97
624,873	-36,18
625,066	66,22
625,26	60,07
625,453	-7,51
625,647	23,21
625,84	45,74
626,034	47,79
626,227	29,35
626,42	66,22
626,614	125,61
626,807	35,5
627	-15,7
627,194	82,6
627,387	8,87
627,58	-46,42
627,774	35,5
627,967	107,18
628,16	90,79
628,353	31,4
628,547	74,41
628,74	191,14
628,933	19,11
629,126	68,27
629,319	-13,65
629,513	-13,65
629,706	15,02
629,899	31,4
630,092	-1,37
630,285	-30,04
630,478	19,11
630,671	-30,04
630,864	49,83
631,057	-13,65
631,25	131,75
631,443	49,83
631,636	-36,18
631,829	-23,89
632,022	76,46
632,215	29,35
632,408	21,16
632,601	123,56
632,794	49,83
632,987	60,07
633,18	29,35
633,373	53,93
633,566	6,83
633,758	-32,08
633,951	19,11
634,144	-1,37
634,337	66,22
634,53	29,35
634,722	152,23
634,915	68,27
635,108	-1,37
635,301	-21,85
635,493	90,79
635,686	105,13
635,879	27,31
636,071	-21,85
636,264	47,79
636,457	37,55
636,649	8,87
636,842	-7,51
637,034	58,03
637,227	96,94
637,42	-9,56
637,612	-81,24
637,805	-25,94
637,997	82,6
638,19	-32,08
638,382	51,88
638,575	-87,38
638,767	-15,7
638,96	-3,41
639,152	55,98
639,344	123,56
639,537	-40,28
639,729	82,6
639,922	43,69
640,114	43,69
640,306	60,07
640,499	160,42
640,691	27,31
640,883	49,83
641,075	76,46
641,268	78,51
641,46	-5,46
641,652	-32,08
641,844	-38,23
642,037	2,73
642,229	76,46
642,421	15,02
642,613	27,31
642,805	17,07
642,998	-17,75
643,19	74,41
643,382	86,7
643,574	74,41
643,766	72,36
643,958	-23,89
644,15	101,03
644,342	74,41
644,534	148,14
644,726	-52,56
644,918	101,03
645,11	-15,7
645,302	39,59
645,494	68,27
645,686	-97,62
645,878	-13,65
646,07	82,6
646,262	41,64
646,453	-44,37
646,645	-7,51
646,837	58,03
647,029	45,74
647,221	45,74
647,413	-48,47
647,604	8,87
647,796	0,68
647,988	168,62
648,18	10,92
648,371	2,73
648,563	-7,51
648,755	39,59
648,947	-21,85
649,138	-21,85
649,33	111,27
649,521	72,36
649,713	58,03
649,905	-5,46
650,096	90,79
650,288	0,68
650,479	8,87
650,671	10,92
650,863	-19,8
651,054	-32,08
651,246	66,22
651,437	27,31
651,629	98,99
651,82	51,88
652,011	74,41
652,203	109,22
652,394	66,22
652,586	-19,8
652,777	-36,18
652,968	0,68
653,16	-56,66
653,351	66,22
653,542	139,94
653,734	-5,46
653,925	33,45
654,116	66,22
654,308	43,69
654,499	-38,23
654,69	0,68
654,881	-1,37
655,073	66,22
655,264	-7,51
655,455	-15,7
655,646	-25,94
655,837	90,79
656,028	156,33
656,219	53,93
656,411	17,07
656,602	58,03
656,793	64,17
656,984	68,27
657,175	37,55
657,366	70,31
657,557	37,55
657,748	-23,89
657,939	66,22
658,13	-13,65
658,321	-40,28
658,512	19,11
658,703	82,6
658,894	107,18
659,084	-23,89
659,275	19,11
659,466	76,46
659,657	90,79
659,848	98,99
660,039	29,35
660,23	109,22
660,42	33,45
660,611	29,35
660,802	-7,51
660,993	76,46
661,183	-1,37
661,374	33,45
661,565	180,9
661,755	98,99
661,946	101,03
662,137	51,88
662,327	37,55
662,518	-3,41
662,709	25,26
662,899	19,11
663,09	107,18
663,28	-3,41
663,471	-21,85
663,662	105,13
663,852	51,88
664,043	74,41
664,233	37,55
664,424	94,89
664,614	98,99
664,804	27,31
664,995	166,57
665,185	121,51
665,376	-7,51
665,566	148,14
665,756	-23,89
665,947	82,6
666,137	277,16
666,328	1098,39
666,518	2237,06
666,708	3646,07
666,898	5644,88
667,089	7520,82
667,279	9306,65
667,469	10836,49
667,659	12208,62
667,85	12093,94
668,04	12304,88
668,23	11829,75
668,42	11241,98
668,61	10676,74
668,8	9830,93
668,991	8878,63
669,181	7645,75
669,371	6496,84
669,561	5624,4
669,751	4815,46
669,941	3820,14
670,131	2982,53
670,321	2138,76
670,511	1450,64
670,701	983,71
670,891	543,39
671,081	377,51
671,271	352,93
671,461	230,06
671,651	213,67
671,841	90,79
672,03	117,42
672,22	17,07
672,41	74,41
672,6	117,42
672,79	107,18
672,98	25,26
673,169	86,7
673,359	-3,41
673,549	58,03
673,739	-19,8
673,928	-7,51
674,118	41,64
674,308	-5,46
674,497	144,04
674,687	-23,89
674,877	19,11
675,066	-52,56
675,256	-13,65
675,446	6,83
675,635	-54,61
675,825	-87,38
676,014	58,03
676,204	6,83
676,393	103,08
676,583	41,64
676,772	82,6
676,962	45,74
677,151	115,37
677,341	-101,72
677,53	72,36
677,72	47,79
677,909	60,07
678,099	2,73
678,288	-11,61
678,477	84,65
678,667	33,45
678,856	66,22
679,045	4,78
679,235	45,74
679,424	12,97
679,613	66,22
679,802	74,41
679,992	8,87
680,181	29,35
680,37	51,88
680,559	62,12
680,748	23,21
680,938	103,08
681,127	47,79
681,316	127,66
681,505	158,38
681,694	45,74
681,883	29,35
682,072	92,84
682,261	37,55
682,45	-105,81
682,639	-38,23
682,828	27,31
683,017	82,6
683,206	-40,28
683,395	43,69
683,584	74,41
683,773	109,22
683,962	-36,18
684,151	-9,56
684,34	90,79
684,529	0,68
684,718	-44,37
684,907	-54,61
685,095	119,46
685,284	115,37
685,473	58,03
685,662	-19,8
685,851	98,99
686,039	58,03
686,228	35,5
686,417	4,78
686,606	150,18
686,794	76,46
686,983	-32,08
687,172	123,56
687,36	-50,52
687,549	21,16
687,738	-5,46
687,926	-56,66
688,115	47,79
688,303	-7,51
688,492	92,84
688,68	-34,13
688,869	51,88
689,057	-73,04
689,246	-7,51
689,434	-27,99
689,623	-15,7
689,811	8,87
690	-11,61
690,188	31,4
690,377	35,5
690,565	70,31
690,753	12,97
690,942	27,31
691,13	115,37
691,318	33,45
691,507	15,02
691,695	-11,61
691,883	17,07
692,072	6,83
692,26	31,4
692,448	17,07
692,636	17,07
692,824	-25,94
693,013	90,79
693,201	62,12
693,389	41,64
693,577	-17,75
693,765	98,99
693,953	23,21
694,141	17,07
694,329	-7,51
694,518	82,6
694,706	78,51
694,894	-21,85
695,082	41,64
695,27	25,26
695,458	58,03
695,646	84,65
695,834	131,75
696,022	-7,51
696,209	60,07
696,397	60,07
696,585	41,64
696,773	4,78
696,961	25,26
697,149	4,78
697,337	-23,89
697,525	41,64
697,712	123,56
697,9	33,45
698,088	8,87
698,276	29,35
698,463	-7,51
698,651	119,46
698,839	4,78
699,027	12,97
699,214	94,89
699,402	-23,89
699,59	55,98
699,777	35,5
699,965	76,46
700,152	-11,61
700,34	68,27
700,528	41,64
700,715	37,55
700,903	90,79
701,09	27,31
701,278	8,87
701,465	27,31
701,653	21,16
701,84	27,31
702,028	78,51
702,215	80,55
702,402	33,45
702,59	27,31
702,777	74,41
702,965	66,22
703,152	111,27
703,339	158,38
703,527	0,68
703,714	33,45
703,901	101,03
704,088	98,99
704,276	135,85
704,463	141,99
704,65	164,52
704,837	305,83
705,025	860,83
705,212	2779,78
705,399	6109,77
705,586	9245,21
705,773	13115,87
705,96	16675,24
706,147	19886,46
706,335	22051,16
706,522	23085,39
706,709	22870,35
706,896	21999,96
707,083	21154,15
707,27	19777,92
707,457	17949,08
707,644	16423,34
707,831	14447,05
708,018	12331,5
708,205	10799,62
708,392	9064,99
708,578	7676,47
708,765	6439,5
708,952	5286,49
709,139	4160,11
709,326	2814,59
709,513	1942,16
709,7	1270,42
709,886	836,25
710,073	707,23
710,26	451,24
710,447	262,82
710,633	240,29
710,82	199,34
711,007	176,81
711,193	121,51
711,38	2,73
711,567	121,51
711,753	62,12
711,94	17,07
712,127	58,03
712,313	131,75
712,5	17,07
712,686	10,92
712,873	49,83
713,059	-15,7
713,246	70,31
713,432	19,11
713,619	21,16
713,805	8,87
713,992	107,18
714,178	-27,99
714,365	33,45
714,551	37,55
714,737	19,11
714,924	-68,95
715,11	74,41
715,297	-7,51
715,483	43,69
715,669	17,07
715,855	-21,85
716,042	21,16
716,228	-48,47
716,414	185
716,6	41,64
716,787	86,7
716,973	-40,28
717,159	35,5
717,345	49,83
717,531	-1,37
717,718	82,6
717,904	103,08
718,09	27,31
718,276	21,16
718,462	55,98
718,648	33,45
718,834	-36,18
719,02	27,31
719,206	-7,51
719,392	-54,61
719,578	0,68
719,764	19,11
719,95	-66,9
720,136	78,51
720,322	8,87
720,508	37,55
720,694	-32,08
720,879	-27,99
721,065	90,79
721,251	-64,85
721,437	-7,51
721,623	133,8
721,809	49,83
721,994	66,22
722,18	33,45
722,366	25,26
722,552	33,45
722,737	33,45
722,923	166,57
723,109	66,22
723,294	-40,28
723,48	35,5
723,666	58,03
723,851	-30,04
724,037	158,38
724,222	141,99
724,408	60,07
724,593	-5,46
724,779	58,03
724,965	-5,46
725,15	25,26
725,336	19,11
725,521	68,27
725,706	-23,89
725,892	33,45
726,077	41,64
726,263	-15,7
726,448	172,71
726,634	107,18
726,819	283,3
727,004	647,84
727,19	740
727,375	1278,62
727,56	1594
727,745	1761,94
727,931	2269,83
728,116	2296,46
728,301	2208,39
728,486	2267,78
728,672	2017,93
728,857	1960,59
729,042	1698,45
729,227	1442,45
729,412	1335,96
729,597	1245,85
729,783	1045,15
729,968	828,06
730,153	737,95
730,338	664,22
730,523	551,59
730,708	494,24
730,893	346,79
731,078	238,25
731,263	258,73
731,448	62,12
731,633	113,32
731,818	-30,04
732,003	-19,8
732,187	49,83
732,372	-32,08
732,557	45,74
732,742	-71
732,927	2,73
733,112	74,41
733,297	-5,46
733,481	-17,75
733,666	41,64
733,851	29,35
734,036	10,92
734,22	-7,51
734,405	101,03
734,59	-25,94
734,774	60,07
734,959	4,78
735,144	127,66
735,328	90,79
735,513	-91,48
735,698	-5,46
735,882	152,23
736,067	113,32
736,251	49,83
736,436	51,88
736,62	2,73
736,805	-46,42
736,989	25,26
737,174	-89,43
737,358	-73,04
737,543	37,55
737,727	62,12
737,911	107,18
738,096	-3,41
738,28	66,22
738,465	53,93
738,649	27,31
738,833	-27,99
739,018	0,68
739,202	12,97
739,386	0,68
739,57	-73,04
739,755	78,51
739,939	62,12
740,123	-50,52
740,307	-3,41
740,491	15,02
740,676	25,26
740,86	68,27
741,044	35,5
741,228	-11,61
741,412	-30,04
741,596	-87,38
741,78	-36,18
741,964	66,22
742,148	-23,89
742,332	-36,18
742,516	-79,19
742,7	111,27
742,884	10,92
743,068	37,55
743,252	33,45
743,436	45,74
743,62	-120,15
743,804	98,99
743,988	27,31
744,172	19,11
744,356	-17,75
744,539	-30,04
744,723	-122,2
744,907	-68,95
745,091	0,68
745,275	10,92
745,458	-5,46
745,642	31,4
745,826	-48,47
746,009	19,11
746,193	41,64
746,377	92,84
746,56	8,87
746,744	131,75
746,928	-15,7
747,111	49,83
747,295	-11,61
747,478	-40,28
747,662	-89,43
747,846	43,69
748,029	78,51
748,213	-5,46
748,396	17,07
748,58	43,69
748,763	0,68
748,946	-85,33
749,13	12,97
749,313	-40,28
749,497	117,42
749,68	41,64
749,863	-54,61
750,047	-40,28
750,23	-25,94
750,413	27,31
750,597	21,16
750,78	-52,56
750,963	109,22
751,146	-25,94
751,33	-1,37
751,513	0,68
751,696	-5,46
751,879	-77,14
752,062	-54,61
752,246	37,55
752,429	17,07
752,612	25,26
752,795	-79,19
752,978	-46,42
753,161	-23,89
753,344	17,07
753,527	45,74
753,71	-56,66
753,893	-19,8
754,076	19,11
754,259	25,26
754,442	-54,61
754,625	-52,56
754,808	119,46
754,991	0,68
755,174	19,11
755,357	37,55
755,539	0,68
755,722	17,07
755,905	-32,08
756,088	-48,47
756,271	41,64
756,453	98,99
756,636	-52,56
756,819	66,22
757,002	-95,57
757,184	51,88
757,367	86,7
757,55	10,92
757,732	70,31
757,915	-48,47
758,098	-73,04
758,28	78,51
758,463	29,35
758,645	25,26
758,828	8,87
759,011	96,94
759,193	-15,7
759,376	17,07
759,558	8,87
759,741	-9,56
759,923	-23,89
760,105	-64,85
760,288	-32,08
760,47	-13,65
760,653	-114
760,835	19,11
761,017	60,07
761,2	-71
761,382	111,27
761,564	-75,09
761,747	86,7
761,929	-27,99
762,111	8,87
762,294	74,41
762,476	191,14
762,658	37,55
762,84	82,6
763,022	45,74
763,205	109,22
763,387	127,66
763,569	64,17
763,751	-103,76
763,933	4,78
764,115	-5,46
764,297	12,97
764,479	4,78
764,661	-21,85
764,843	60,07
765,025	43,69
765,207	68,27
765,389	-17,75
765,571	17,07
765,753	51,88
765,935	51,88
766,117	0,68
766,299	53,93
766,481	144,04
766,663	0,68
766,845	-77,14
767,026	-1,37
767,208	27,31
767,39	10,92
767,572	-79,19
767,753	115,37
767,935	-1,37
768,117	-36,18
768,299	101,03
768,48	88,75
768,662	37,55
768,844	-64,85
769,025	129,7
769,207	-17,75
769,389	-27,99
769,57	58,03
769,752	-7,51
769,933	-60,76
770,115	107,18
770,296	-40,28
770,478	86,7
770,659	-15,7
770,841	207,53
771,022	27,31
771,204	0,68
771,385	78,51
771,567	64,17
771,748	58,03
771,929	6,83
772,111	10,92
772,292	80,55
772,473	41,64
772,655	8,87
772,836	-30,04
773,017	53,93
773,199	12,97
773,38	15,02
773,561	60,07
773,742	31,4
773,923	-7,51
774,105	139,94
774,286	64,17
774,467	-46,42
774,648	35,5
774,829	4,78
775,01	-5,46
775,191	-73,04
775,372	10,92
775,553	-36,18
775,734	21,16
775,915	-64,85
776,096	-19,8
776,277	60,07
776,458	-77,14
776,639	39,59
776,82	131,75
777,001	0,68
777,182	43,69
777,363	-3,41
777,544	-7,51
777,725	98,99
777,906	8,87
778,086	53,93
778,267	21,16
778,448	2,73
778,629	21,16
778,809	66,22
778,99	2,73
779,171	-32,08
779,352	33,45
779,532	-42,32
779,713	41,64
779,894	-7,51
780,074	49,83
780,255	66,22
780,435	35,5
780,616	37,55
780,797	66,22
780,977	12,97
781,158	41,64
781,338	-15,7
781,519	-75,09
781,699	197,29
781,88	33,45
782,06	78,51
782,241	-44,37
782,421	-64,85
782,601	51,88
782,782	41,64
782,962	80,55
783,142	-54,61
783,323	-7,51
783,503	123,56
783,683	68,27
783,864	-60,76
784,044	82,6
784,224	8,87
784,404	58,03
784,585	74,41
784,765	6,83
784,945	31,4
785,125	-11,61
785,305	45,74
785,485	82,6
785,666	86,7
785,846	33,45
786,026	-13,65
786,206	-32,08
786,386	-32,08
786,566	-5,46
786,746	-77,14
786,926	8,87
787,106	-11,61
787,286	-101,72
787,466	-48,47
787,646	25,26
787,826	19,11
788,006	43,69
788,185	94,89
788,365	-17,75
788,545	107,18
788,725	-21,85
788,905	0,68
789,085	58,03
789,264	-144,72
789,444	58,03
789,624	29,35
789,804	-32,08
789,983	51,88
790,163	-19,8
790,343	12,97
790,522	90,79
790,702	98,99
790,882	-15,7
791,061	103,08
791,241	37,55
791,42	39,59
791,6	117,42
791,78	66,22
791,959	-11,61
792,139	-48,47
792,318	8,87
792,498	84,65
792,677	53,93
792,856	0,68
793,036	8,87
793,215	-34,13
793,395	88,75
793,574	-91,48
793,753	-21,85
793,933	84,65
794,112	27,31
794,291	45,74
794,471	58,03
794,65	86,7
794,829	-27,99
795,008	29,35
795,188	66,22
795,367	70,31
795,546	-15,7
795,725	76,46
795,904	-103,76
796,084	-1,37
796,263	98,99
796,442	41,64
796,621	17,07
796,8	43,69
796,979	39,59
797,158	-17,75
797,337	21,16
797,516	55,98
797,695	60,07
797,874	-21,85
798,053	64,17
798,232	12,97
798,411	-85,33
798,59	-71
798,769	-13,65
798,947	-3,41
799,126	-56,66
799,305	101,03
799,484	19,11
799,663	27,31
799,842	33,45
800,02	43,69
800,199	-163,15
800,378	176,81
800,557	-118,1
800,735	-44,37
800,914	0,68
801,093	-30,04
801,271	0,68
801,45	74,41
801,628	111,27
801,807	-3,41
801,986	96,94
802,164	10,92
802,343	-54,61
802,521	-97,62
802,7	78,51
802,878	-19,8
803,057	55,98
803,235	-81,24
803,414	10,92
803,592	101,03
803,771	17,07
803,949	-5,46
804,127	-15,7
804,306	111,27
804,484	-58,71
804,662	41,64
804,841	2,73
805,019	8,87
805,197	82,6
805,375	12,97
805,554	-44,37
805,732	19,11
805,91	0,68
806,088	-27,99
806,266	-71
806,445	-46,42
806,623	-15,7
806,801	60,07
806,979	66,22
807,157	66,22
807,335	-64,85
807,513	-7,51
807,691	8,87
807,869	-11,61
808,047	66,22
808,225	-97,62
808,403	2,73
808,581	33,45
808,759	109,22
808,937	-81,24
809,115	49,83
809,293	96,94
809,471	8,87
809,649	135,85
809,826	0,68
810,004	49,83
810,182	-54,61
810,36	4,78
810,538	60,07
810,715	-85,33
810,893	-56,66
811,071	98,99
811,248	27,31
811,426	-21,85
811,604	60,07
811,781	148,14
811,959	0,68
812,137	17,07
812,314	17,07
812,492	-40,28
812,669	49,83
812,847	-36,18
813,024	-75,09
813,202	94,89
813,379	-36,18
813,557	4,78
813,734	74,41
813,912	-19,8
814,089	-27,99
814,267	60,07
814,444	49,83
814,621	10,92
814,799	2,73
814,976	17,07
815,153	17,07
815,331	8,87
815,508	-91,48
815,685	17,07
815,862	39,59
816,04	-40,28
816,217	4,78
816,394	17,07
816,571	-71
816,748	197,29
816,926	29,35
817,103	281,25
817,28	4,78
817,457	-11,61
817,634	139,94
817,811	-54,61
817,988	-64,85
818,165	51,88
818,342	101,03
818,519	-15,7
818,696	-5,46
818,873	-30,04
819,05	72,36
819,227	37,55
819,404	74,41
819,581	-1,37
819,758	4,78
819,934	-23,89
820,111	-54,61
820,288	-3,41
820,465	115,37
820,642	-3,41
820,818	82,6
820,995	60,07
821,172	90,79
821,349	25,26
821,525	-32,08
821,702	35,5
821,879	41,64
822,055	-23,89
822,232	55,98
822,409	8,87
822,585	6,83
822,762	17,07
822,938	74,41
823,115	37,55
823,291	-19,8
823,468	58,03
823,644	33,45
823,821	-5,46
823,997	-83,28
824,174	-3,41
824,35	29,35
824,527	-40,28
824,703	29,35
824,879	-66,9
825,056	58,03
825,232	86,7
825,408	-40,28
825,585	-21,85
825,761	-40,28
825,937	4,78
826,113	31,4
826,29	-7,51
826,466	-46,42
826,642	289,45
826,818	4,78
826,994	-27,99
827,17	-23,89
827,347	-15,7
827,523	-7,51
827,699	6,83
827,875	21,16
828,051	45,74
828,227	2,73
828,403	-15,7
828,579	109,22
828,755	98,99
828,931	-30,04
829,107	47,79
829,283	133,8
829,459	6,83
829,635	-36,18
829,811	21,16
829,986	33,45
830,162	-5,46
830,338	90,79
830,514	-97,62
830,69	-38,23
830,865	-17,75
831,041	66,22
831,217	27,31
831,393	-105,81
831,568	-64,85
831,744	41,64
831,92	86,7
832,095	-73,04
832,271	2,73
832,447	19,11
832,622	58,03
832,798	-3,41
832,973	-32,08
833,149	-7,51
833,325	-5,46
833,5	-7,51
833,676	-15,7
833,851	-32,08
834,027	-32,08
834,202	-21,85
834,377	25,26
834,553	43,69
834,728	8,87
834,904	-52,56
835,079	-40,28
835,254	2,73
835,43	-7,51
835,605	4,78
835,78	-85,33
835,955	-1,37
836,131	8,87
836,306	-66,9
836,481	-134,48
836,656	-7,51
836,832	92,84
837,007	-40,28
837,182	-34,13
837,357	43,69
837,532	-21,85
837,707	2,73
837,882	8,87
838,057	27,31
838,232	109,22
838,407	-15,7
838,582	0,68
838,757	0,68
838,932	68,27
839,107	-23,89
839,282	-56,66
839,457	-5,46
839,632	-3,41
839,807	-21,85
839,982	-36,18
840,157	-11,61
840,332	60,07
840,506	-19,8
840,681	45,74
840,856	19,11
841,031	-48,47
841,205	27,31
841,38	66,22
841,555	92,84
841,73	-7,51
841,904	25,26
842,079	25,26
842,254	10,92
842,428	45,74
842,603	-32,08
842,777	-116,05
842,952	-73,04
843,126	-23,89
843,301	45,74
843,476	-48,47
843,65	-17,75
843,825	82,6
843,999	-7,51
844,173	-52,56
844,348	8,87
844,522	19,11
844,697	-25,94
844,871	53,93
845,045	103,08
845,22	47,79
845,394	84,65
845,568	-9,56
845,743	29,35
845,917	-58,71
846,091	-23,89
846,265	4,78
846,44	27,31
846,614	35,5
846,788	-87,38
846,962	15,02
847,136	119,46
847,31	33,45
847,485	92,84
847,659	-25,94
847,833	74,41
848,007	37,55
848,181	-5,46
848,355	66,22
848,529	62,12
848,703	66,22
848,877	-66,9
849,051	98,99
849,225	58,03
849,399	-11,61
849,573	-27,99
849,746	0,68
849,92	2,73
850,094	-3,41
850,268	-11,61
850,442	41,64
850,616	-73,04
850,789	10,92
850,963	-48,47
851,137	-68,95
851,311	115,37
851,484	68,27
851,658	60,07
851,832	29,35
852,005	12,97
852,179	37,55
852,352	4,78
852,526	25,26
852,7	-21,85
852,873	-91,48
853,047	0,68
853,22	49,83
853,394	-13,65
853,567	23,21
853,741	-54,61
853,914	-25,94
854,088	19,11
854,261	29,35
854,434	8,87
854,608	-13,65
854,781	-38,23
854,955	29,35
855,128	41,64
855,301	-30,04
855,475	0,68
855,648	-34,13
855,821	78,51
855,994	90,79
856,168	37,55
856,341	47,79
856,514	-62,8
856,687	8,87
856,86	66,22
857,033	-7,51
857,207	33,45
857,38	-46,42
857,553	98,99
857,726	43,69
857,899	49,83
858,072	27,31
858,245	12,97
858,418	-81,24
858,591	-13,65
858,764	-15,7
858,937	47,79
859,11	2,73
859,283	17,07
859,455	-48,47
859,628	-23,89
859,801	119,46
859,974	49,83
860,147	-48,47
860,32	-7,51
860,492	45,74
860,665	-152,92
860,838	76,46
861,011	27,31
861,183	15,02
861,356	43,69
861,529	51,88
861,701	0,68
861,874	43,69
862,047	78,51
862,219	-7,51
862,392	94,89
862,564	33,45
862,737	19,11
862,909	101,03
863,082	-38,23
863,254	70,31
863,427	19,11
863,599	33,45
863,772	-56,66
863,944	35,5
864,117	17,07
864,289	-56,66
864,461	-50,52
864,634	8,87
864,806	-27,99
864,978	43,69
865,151	-52,56
865,323	125,61
865,495	66,22
865,667	55,98
865,84	117,42
866,012	-101,72
866,184	29,35
866,356	-30,04
866,528	90,79
866,7	25,26
866,873	-13,65
867,045	6,83
867,217	-81,24
867,389	21,16
867,561	12,97
867,733	125,61
867,905	15,02
868,077	-23,89
868,249	21,16
868,421	2,73
868,593	-73,04
868,765	64,17
868,936	-44,37
869,108	-1,37
869,28	131,75
869,452	-13,65
869,624	-7,51
869,796	21,16
869,968	-15,7
870,139	98,99
870,311	-40,28
870,483	82,6
870,654	-40,28
870,826	-46,42
870,998	49,83
871,17	23,21
871,341	-77,14
871,513	-32,08
871,684	-62,8
871,856	-5,46
872,028	21,16
872,199	-32,08
872,371	-97,62
872,542	35,5
872,714	19,11
872,885	25,26
873,057	17,07
873,228	33,45
873,4	90,79
873,571	107,18
873,742	8,87
873,914	0,68
874,085	-79,19
874,256	-7,51
874,428	-46,42
874,599	33,45
874,77	62,12
874,942	-109,91
875,113	29,35
875,284	-68,95
875,455	-75,09
875,626	27,31
875,798	15,02
875,969	4,78
876,14	4,78
876,311	19,11
876,482	92,84
876,653	51,88
876,824	82,6
876,995	-1,37
877,166	17,07
877,337	111,27
877,508	-62,8
877,679	-11,61
877,85	-5,46
878,021	-77,14
878,192	6,83
878,363	-40,28
878,534	-54,61
878,705	2,73
878,876	-7,51
879,047	82,6
879,217	-17,75
879,388	115,37
879,559	15,02
879,73	113,32
879,9	-40,28
880,071	25,26
880,242	-40,28
880,413	0,68
880,583	-21,85
880,754	90,79
880,924	29,35
881,095	-114
881,266	23,21
881,436	80,55
881,607	90,79
881,777	37,55
881,948	-7,51
882,118	-5,46
882,289	-54,61
882,459	0,68
882,63	-66,9
882,8	55,98
882,971	103,08
883,141	-7,51
883,311	-21,85
883,482	70,31
883,652	-21,85
883,822	-89,43
883,993	-3,41
884,163	35,5
884,333	45,74
884,504	8,87
884,674	12,97
884,844	66,22
885,014	-89,43
885,184	-85,33
885,355	-23,89
885,525	-89,43
885,695	60,07
885,865	94,89
886,035	8,87
886,205	-27,99
886,375	74,41
886,545	0,68
886,715	-77,14
886,885	51,88
887,055	82,6
887,225	25,26
887,395	-48,47
887,565	135,85
887,735	-3,41
887,905	2,73
888,075	-73,04
888,244	115,37
888,414	25,26
888,584	19,11
888,754	-13,65
888,924	-5,46
889,093	156,33
889,263	41,64
889,433	10,92
889,603	49,83
889,772	43,69
889,942	123,56
890,111	62,12
890,281	43,69
890,451	-48,47
890,62	64,17
890,79	-11,61
890,959	45,74
891,129	49,83
891,298	-27,99
891,468	0,68
891,637	-7,51
891,807	-27,99
891,976	-13,65
892,146	-23,89
892,315	0,68
892,485	49,83
892,654	-21,85
892,823	-23,89
892,993	-73,04
893,162	101,03
893,331	105,13
893,501	-54,61
893,67	8,87
893,839	-15,7
894,008	-68,95
894,177	-3,41
894,347	8,87
894,516	148,14
894,685	70,31
894,854	10,92
895,023	86,7
895,192	10,92
