Data from he_USB4F104161__37__11-53-38-941.txt Node

Date: Tue Apr 14 11:53:38 EDT 2026
User: LaboPhy
Spectrometer: USB4F10416
Trigger mode: 4
Integration Time (sec): 1,000000E-1
Scans to average: 1
Electric dark correction enabled: true
Nonlinearity correction enabled: false
Boxcar width: 0
XAxis mode: Wavelengths
Number of Pixels in Spectrum: 3648
>>>>>Begin Spectral Data<<<<<
177,847	-162,3
178,066	-162,3
178,284	-162,3
178,502	-233,98
178,72	-211,45
178,939	-6,66
179,157	-4,61
179,375	-55,81
179,593	22,02
179,812	91,65
180,03	3,58
180,248	28,16
180,466	-39,42
180,685	-2,56
180,903	-6,66
181,121	-55,81
181,339	26,11
181,557	-27,14
181,775	-35,33
181,994	-23,04
182,212	-68,09
182,43	-29,18
182,648	108,03
182,866	83,45
183,084	34,3
183,302	-6,66
183,52	79,36
183,739	26,11
183,957	99,84
184,175	-84,48
184,393	19,97
184,611	75,26
184,829	22,02
185,047	13,82
185,265	36,35
185,483	-47,62
185,701	83,45
185,919	-39,42
186,137	-35,33
186,355	3,58
186,573	-14,85
186,791	83,45
187,009	30,21
187,227	-0,51
187,445	-25,09
187,663	13,82
187,881	-16,9
188,098	9,73
188,316	65,02
188,534	46,59
188,752	34,3
188,97	-18,94
189,188	11,78
189,406	69,12
189,624	22,02
189,841	-18,94
190,059	-100,86
190,277	30,21
190,495	42,5
190,713	54,78
190,931	101,89
191,148	-6,66
191,366	-23,04
191,584	108,03
191,802	50,69
192,019	165,37
192,237	71,17
192,455	9,73
192,673	34,3
192,89	-37,38
193,108	-6,66
193,326	60,93
193,543	44,54
193,761	-12,8
193,979	58,88
194,196	-33,28
194,414	-14,85
194,632	26,11
194,849	-45,57
195,067	-88,57
195,285	52,74
195,502	-61,95
195,72	13,82
195,937	3,58
196,155	60,93
196,373	13,82
196,59	73,21
196,808	1,54
197,025	50,69
197,243	222,72
197,46	54,78
197,678	140,8
197,895	13,82
198,113	15,87
198,33	-20,99
198,548	42,5
198,765	-29,18
198,983	67,07
199,2	-31,23
199,418	-2,56
199,635	-37,38
199,853	5,63
200,07	58,88
200,288	-18,94
200,505	19,97
200,722	30,21
200,94	44,54
201,157	-4,61
201,375	67,07
201,592	-18,94
201,809	110,08
202,027	42,5
202,244	32,26
202,461	44,54
202,679	3,58
202,896	1,54
203,113	-6,66
203,331	11,78
203,548	-23,04
203,765	19,97
203,982	26,11
204,2	-39,42
204,417	26,11
204,634	169,47
204,851	108,03
205,069	-12,8
205,286	26,11
205,503	91,65
205,72	-35,33
205,937	38,4
206,155	-55,81
206,372	108,03
206,589	-35,33
206,806	-33,28
207,023	40,45
207,24	28,16
207,458	15,87
207,675	-43,52
207,892	36,35
208,109	-10,75
208,326	-25,09
208,543	28,16
208,76	-37,38
208,977	91,65
209,194	26,11
209,411	-51,71
209,628	9,73
209,845	13,82
210,062	-6,66
210,279	-45,57
210,496	11,78
210,713	9,73
210,93	-33,28
211,147	11,78
211,364	34,3
211,581	22,02
211,798	-6,66
212,015	-113,15
212,232	-68,09
212,449	62,98
212,666	58,88
212,883	26,11
213,1	-37,38
213,317	34,3
213,533	-23,04
213,75	9,73
213,967	-4,61
214,184	-23,04
214,401	19,97
214,618	-68,09
214,835	-29,18
215,051	69,12
215,268	-4,61
215,485	13,82
215,702	-12,8
215,919	-20,99
216,135	85,5
216,352	38,4
216,569	5,63
216,786	3,58
217,002	52,74
217,219	24,06
217,436	9,73
217,652	42,5
217,869	42,5
218,086	58,88
218,302	81,41
218,519	77,31
218,736	-61,95
218,952	-100,86
219,169	75,26
219,386	13,82
219,602	-78,33
219,819	54,78
220,036	-84,48
220,252	48,64
220,469	34,3
220,685	28,16
220,902	-43,52
221,118	-12,8
221,335	1,54
221,552	-14,85
221,768	28,16
221,985	-23,04
222,201	-29,18
222,418	116,22
222,634	-113,15
222,851	-31,23
223,067	7,68
223,284	3,58
223,5	15,87
223,716	5,63
223,933	26,11
224,149	-37,38
224,366	-37,38
224,582	-115,2
224,799	-55,81
225,015	-14,85
225,231	-29,18
225,448	-39,42
225,664	-6,66
225,88	-53,76
226,097	60,93
226,313	-27,14
226,529	17,92
226,746	-4,61
226,962	-43,52
227,178	36,35
227,395	-23,04
227,611	19,97
227,827	34,3
228,044	11,78
228,26	114,17
228,476	-47,62
228,692	116,22
228,909	19,97
229,125	17,92
229,341	28,16
229,557	-20,99
229,773	-8,7
229,99	1,54
230,206	-61,95
230,422	3,58
230,638	-72,19
230,854	15,87
231,07	-94,72
231,286	26,11
231,503	-47,62
231,719	-102,91
231,935	5,63
232,151	-43,52
232,367	140,8
232,583	15,87
232,799	36,35
233,015	17,92
233,231	-27,14
233,447	-68,09
233,663	-96,77
233,879	-23,04
234,095	-14,85
234,311	28,16
234,527	-39,42
234,743	81,41
234,959	44,54
235,175	60,93
235,391	-31,23
235,607	34,3
235,823	17,92
236,039	3,58
236,255	-14,85
236,471	3,58
236,687	-4,61
236,903	13,82
237,118	11,78
237,334	-31,23
237,55	-12,8
237,766	-43,52
237,982	-55,81
238,198	26,11
238,413	-0,51
238,629	42,5
238,845	36,35
239,061	42,5
239,277	30,21
239,492	-51,71
239,708	-6,66
239,924	9,73
240,14	58,88
240,355	69,12
240,571	-23,04
240,787	-6,66
241,003	34,3
241,218	40,45
241,434	-14,85
241,65	1,54
241,865	15,87
242,081	58,88
242,297	-129,53
242,512	-86,53
242,728	-16,9
242,944	-104,96
243,159	83,45
243,375	28,16
243,59	13,82
243,806	67,07
244,022	67,07
244,237	-76,29
244,453	11,78
244,668	81,41
244,884	144,89
245,099	42,5
245,315	75,26
245,53	58,88
245,746	140,8
245,961	38,4
246,177	-64
246,392	-4,61
246,608	69,12
246,823	-23,04
247,039	-6,66
247,254	-2,56
247,47	30,21
247,685	-53,76
247,9	60,93
248,116	19,97
248,331	-51,71
248,547	60,93
248,762	-64
248,977	36,35
249,193	42,5
249,408	91,65
249,623	3,58
249,839	19,97
250,054	-121,34
250,269	-27,14
250,485	-6,66
250,7	26,11
250,915	-57,86
251,13	83,45
251,346	1,54
251,561	38,4
251,776	97,79
251,991	-37,38
252,207	75,26
252,422	17,92
252,637	9,73
252,852	-45,57
253,067	44,54
253,283	28,16
253,498	26,11
253,713	13,82
253,928	83,45
254,143	-23,04
254,358	54,78
254,573	9,73
254,788	-10,75
255,004	-27,14
255,219	-39,42
255,434	-43,52
255,649	-115,2
255,864	15,87
256,079	50,69
256,294	-10,75
256,509	-39,42
256,724	52,74
256,939	-43,52
257,154	1,54
257,369	50,69
257,584	93,69
257,799	-4,61
258,014	-0,51
258,229	17,92
258,444	26,11
258,659	-64
258,874	69,12
259,089	26,11
259,304	-76,29
259,518	71,17
259,733	-14,85
259,948	-41,47
260,163	40,45
260,378	101,89
260,593	17,92
260,808	28,16
261,022	-47,62
261,237	44,54
261,452	56,83
261,667	-20,99
261,882	42,5
262,096	-18,94
262,311	42,5
262,526	-64
262,741	13,82
262,955	-12,8
263,17	42,5
263,385	-8,7
263,6	-55,81
263,814	-45,57
264,029	-59,9
264,244	-10,75
264,458	-2,56
264,673	91,65
264,888	99,84
265,102	-23,04
265,317	-23,04
265,532	-18,94
265,746	89,6
265,961	58,88
266,175	-4,61
266,39	17,92
266,605	-78,33
266,819	42,5
267,034	77,31
267,248	-94,72
267,463	26,11
267,677	-16,9
267,892	-18,94
268,106	-104,96
268,321	-37,38
268,535	48,64
268,75	1,54
268,964	-20,99
269,179	54,78
269,393	-2,56
269,608	48,64
269,822	1,54
270,036	-43,52
270,251	1,54
270,465	24,06
270,68	-6,66
270,894	-6,66
271,108	91,65
271,323	-68,09
271,537	1,54
271,752	1,54
271,966	11,78
272,18	-109,05
272,394	-27,14
272,609	77,31
272,823	-37,38
273,037	-23,04
273,252	-14,85
273,466	34,3
273,68	26,11
273,894	34,3
274,109	34,3
274,323	67,07
274,537	32,26
274,751	-4,61
274,966	42,5
275,18	-27,14
275,394	-8,7
275,608	-64
275,822	-31,23
276,036	-31,23
276,25	19,97
276,465	42,5
276,679	1,54
276,893	-68,09
277,107	103,93
277,321	-80,38
277,535	11,78
277,749	95,74
277,963	36,35
278,177	-14,85
278,391	62,98
278,605	32,26
278,819	28,16
279,033	-84,48
279,247	62,98
279,461	17,92
279,675	-10,75
279,889	79,36
280,103	-4,61
280,317	69,12
280,531	-70,14
280,745	-20,99
280,959	-45,57
281,173	48,64
281,387	69,12
281,601	-37,38
281,815	-6,66
282,029	-4,61
282,242	69,12
282,456	3,58
282,67	54,78
282,884	-14,85
283,098	81,41
283,312	-49,66
283,525	28,16
283,739	19,97
283,953	50,69
284,167	93,69
284,381	1,54
284,594	42,5
284,808	-20,99
285,022	-70,14
285,235	-2,56
285,449	1,54
285,663	69,12
285,877	5,63
286,09	67,07
286,304	52,74
286,518	24,06
286,731	-55,81
286,945	93,69
287,159	-121,34
287,372	1,54
287,586	1,54
287,799	-23,04
288,013	-100,86
288,227	-76,29
288,44	202,24
288,654	34,3
288,867	19,97
289,081	-12,8
289,294	30,21
289,508	54,78
289,721	36,35
289,935	-51,71
290,148	58,88
290,362	52,74
290,575	62,98
290,789	-25,09
291,002	-47,62
291,216	157,18
291,429	-6,66
291,643	-43,52
291,856	-41,47
292,069	-27,14
292,283	-55,81
292,496	-49,66
292,71	75,26
292,923	-55,81
293,136	-27,14
293,35	-12,8
293,563	-18,94
293,776	-6,66
293,99	17,92
294,203	52,74
294,416	-12,8
294,63	3,58
294,843	-6,66
295,056	91,65
295,269	-61,95
295,483	-76,29
295,696	-31,23
295,909	-41,47
296,122	-14,85
296,335	87,55
296,549	3,58
296,762	-6,66
296,975	-4,61
297,188	30,21
297,401	-4,61
297,615	30,21
297,828	-107,01
298,041	93,69
298,254	-113,15
298,467	-31,23
298,68	-45,57
298,893	-72,19
299,106	-4,61
299,319	11,78
299,532	24,06
299,745	17,92
299,958	-78,33
300,171	-107,01
300,384	44,54
300,598	-25,09
300,81	28,16
301,023	-23,04
301,236	-43,52
301,449	-45,57
301,662	-70,14
301,875	-96,77
302,088	22,02
302,301	-2,56
302,514	-55,81
302,727	50,69
302,94	-76,29
303,153	-6,66
303,366	1,54
303,579	-109,05
303,791	83,45
304,004	3,58
304,217	93,69
304,43	44,54
304,643	26,11
304,855	26,11
305,068	99,84
305,281	62,98
305,494	87,55
305,707	-0,51
305,919	142,85
306,132	1,54
306,345	58,88
306,558	38,4
306,77	-12,8
306,983	26,11
307,196	34,3
307,408	-20,99
307,621	99,84
307,834	-33,28
308,046	-6,66
308,259	-31,23
308,472	9,73
308,684	93,69
308,897	-47,62
309,109	-55,81
309,322	-111,1
309,535	-2,56
309,747	103,93
309,96	19,97
310,172	126,46
310,385	38,4
310,597	-14,85
310,81	-20,99
311,022	-20,99
311,235	3,58
311,447	30,21
311,66	-27,14
311,872	67,07
312,085	34,3
312,297	-59,9
312,51	-133,63
312,722	5,63
312,934	91,65
313,147	-31,23
313,359	-18,94
313,572	-35,33
313,784	-23,04
313,996	-55,81
314,209	28,16
314,421	-4,61
314,633	-129,53
314,846	-43,52
315,058	52,74
315,27	-10,75
315,483	-72,19
315,695	-47,62
315,907	-6,66
316,119	-39,42
316,332	44,54
316,544	1,54
316,756	11,78
316,968	19,97
317,181	50,69
317,393	44,54
317,605	-2,56
317,817	58,88
318,029	108,03
318,241	85,5
318,454	30,21
318,666	69,12
318,878	-14,85
319,09	26,11
319,302	126,46
319,514	99,84
319,726	40,45
319,938	136,7
320,15	79,36
320,362	-53,76
320,574	-61,95
320,786	-59,9
320,999	-78,33
321,211	-6,66
321,423	69,12
321,635	-94,72
321,847	-2,56
322,058	46,59
322,27	28,16
322,482	-49,66
322,694	99,84
322,906	34,3
323,118	83,45
323,33	28,16
323,542	42,5
323,754	-76,29
323,966	-137,73
324,178	67,07
324,389	62,98
324,601	93,69
324,813	19,97
325,025	26,11
325,237	-59,9
325,449	54,78
325,66	-64
325,872	-27,14
326,084	52,74
326,296	-25,09
326,507	-35,33
326,719	-10,75
326,931	-84,48
327,143	73,21
327,354	103,93
327,566	36,35
327,778	81,41
327,989	108,03
328,201	9,73
328,413	44,54
328,624	-31,23
328,836	-6,66
329,048	-64
329,259	60,93
329,471	-55,81
329,682	-72,19
329,894	-18,94
330,106	-31,23
330,317	-35,33
330,529	75,26
330,74	-33,28
330,952	-18,94
331,163	9,73
331,375	83,45
331,586	34,3
331,798	11,78
332,009	42,5
332,221	-51,71
332,432	19,97
332,644	3,58
332,855	-76,29
333,067	-6,66
333,278	1,54
333,489	44,54
333,701	-162,3
333,912	-35,33
334,124	-80,38
334,335	-125,44
334,546	-64
334,758	-0,51
334,969	116,22
335,18	5,63
335,392	36,35
335,603	79,36
335,814	34,3
336,025	1,54
336,237	1,54
336,448	-68,09
336,659	1,54
336,87	79,36
337,082	108,03
337,293	-14,85
337,504	32,26
337,715	-43,52
337,926	-43,52
338,138	-72,19
338,349	-27,14
338,56	26,11
338,771	-31,23
338,982	-2,56
339,193	9,73
339,404	108,03
339,616	11,78
339,827	22,02
340,038	-16,9
340,249	1,54
340,46	-37,38
340,671	34,3
340,882	50,69
341,093	-20,99
341,304	-4,61
341,515	-37,38
341,726	-53,76
341,937	-4,61
342,148	17,92
342,359	-45,57
342,57	-43,52
342,781	69,12
342,992	-20,99
343,203	9,73
343,414	67,07
343,624	44,54
343,835	-37,38
344,046	-61,95
344,257	1,54
344,468	19,97
344,679	-64
344,89	13,82
345,1	-70,14
345,311	-23,04
345,522	-8,7
345,733	-55,81
345,944	-37,38
346,154	56,83
346,365	83,45
346,576	-53,76
346,787	5,63
346,997	34,3
347,208	34,3
347,419	-37,38
347,629	36,35
347,84	-14,85
348,051	-12,8
348,261	38,4
348,472	7,68
348,683	34,3
348,893	-20,99
349,104	-23,04
349,315	17,92
349,525	-47,62
349,736	95,74
349,946	-68,09
350,157	69,12
350,368	-23,04
350,578	-152,06
350,789	54,78
350,999	9,73
351,21	-23,04
351,42	-64
351,631	-39,42
351,841	-18,94
352,052	-37,38
352,262	22,02
352,472	-39,42
352,683	-10,75
352,893	22,02
353,104	-23,04
353,314	75,26
353,525	339,45
353,735	48,64
353,945	-4,61
354,156	-74,24
354,366	42,5
354,576	99,84
354,787	-39,42
354,997	-61,95
355,207	-14,85
355,418	-64
355,628	5,63
355,838	-4,61
356,048	-10,75
356,259	52,74
356,469	-86,53
356,679	-27,14
356,889	-12,8
357,1	-51,71
357,31	1,54
357,52	54,78
357,73	28,16
357,94	-18,94
358,15	-88,57
358,361	1,54
358,571	50,69
358,781	44,54
358,991	-84,48
359,201	38,4
359,411	-37,38
359,621	-92,67
359,831	46,59
360,041	62,98
360,251	54,78
360,461	44,54
360,672	3,58
360,882	-47,62
361,092	-23,04
361,302	-6,66
361,512	83,45
361,721	9,73
361,931	3,58
362,141	122,37
362,351	3,58
362,561	-14,85
362,771	26,11
362,981	50,69
363,191	-2,56
363,401	5,63
363,611	52,74
363,821	-43,52
364,03	-61,95
364,24	5,63
364,45	-12,8
364,66	232,96
364,87	-20,99
365,08	26,11
365,289	-47,62
365,499	-6,66
365,709	30,21
365,919	26,11
366,128	-39,42
366,338	60,93
366,548	-123,39
366,758	44,54
366,967	50,69
367,177	75,26
367,387	52,74
367,596	-27,14
367,806	19,97
368,016	79,36
368,225	62,98
368,435	79,36
368,644	17,92
368,854	42,5
369,064	42,5
369,273	17,92
369,483	-29,18
369,692	-20,99
369,902	17,92
370,111	56,83
370,321	-4,61
370,53	83,45
370,74	-14,85
370,949	13,82
371,159	-18,94
371,368	38,4
371,578	-23,04
371,787	69,12
371,997	17,92
372,206	-14,85
372,416	-4,61
372,625	42,5
372,834	24,06
373,044	-39,42
373,253	83,45
373,462	75,26
373,672	-39,42
373,881	67,07
374,09	9,73
374,3	58,88
374,509	-12,8
374,718	-80,38
374,928	91,65
375,137	3,58
375,346	1,54
375,555	67,07
375,765	-14,85
375,974	19,97
376,183	91,65
376,392	-51,71
376,601	75,26
376,811	52,74
377,02	128,51
377,229	67,07
377,438	50,69
377,647	-47,62
377,856	-16,9
378,065	60,93
378,275	-72,19
378,484	-104,96
378,693	-0,51
378,902	3,58
379,111	26,11
379,32	-29,18
379,529	-61,95
379,738	58,88
379,947	116,22
380,156	-25,09
380,365	-23,04
380,574	95,74
380,783	71,17
380,992	-23,04
381,201	-6,66
381,41	22,02
381,619	11,78
381,828	95,74
382,037	83,45
382,245	132,61
382,454	99,84
382,663	52,74
382,872	13,82
383,081	38,4
383,29	93,69
383,499	54,78
383,707	42,5
383,916	26,11
384,125	26,11
384,334	50,69
384,542	167,42
384,751	75,26
384,96	42,5
385,169	-31,23
385,377	91,65
385,586	120,32
385,795	142,85
386,004	108,03
386,212	17,92
386,421	99,84
386,63	345,59
386,838	787,96
387,047	1134,06
387,255	1936,87
387,464	2811,35
387,673	3704,26
387,881	4838,84
388,09	5731,75
388,298	6628,76
388,507	8369,54
388,715	9831,79
388,924	11074,9
389,133	10564,96
389,341	10237,28
389,55	8938,87
389,758	6843,8
389,967	4425,15
390,175	2813,4
390,383	2291,17
390,592	1828,32
390,8	1107,44
391,009	738,8
391,217	536,06
391,426	370,17
391,634	142,85
391,842	108,03
392,051	46,59
392,259	67,07
392,467	-14,85
392,676	-90,62
392,884	17,92
393,092	5,63
393,301	44,54
393,509	7,68
393,717	101,89
393,925	-20,99
394,134	-80,38
394,342	28,16
394,55	157,18
394,758	7,68
394,967	-29,18
395,175	9,73
395,383	91,65
395,591	146,94
395,799	130,56
396,007	93,69
396,216	204,28
396,424	165,37
396,632	173,57
396,84	136,7
397,048	132,61
397,256	185,85
397,464	71,17
397,672	175,61
397,88	-14,85
398,088	-43,52
398,296	26,11
398,504	44,54
398,712	5,63
398,92	30,21
399,128	19,97
399,336	-14,85
399,544	-10,75
399,752	40,45
399,96	42,5
400,168	52,74
400,376	52,74
400,584	157,18
400,792	83,45
401	79,36
401,207	101,89
401,415	108,03
401,623	110,08
401,831	218,62
402,039	198,14
402,247	267,77
402,454	419,32
402,662	380,41
402,87	437,75
403,078	482,81
403,285	470,52
403,493	210,43
403,701	214,52
403,909	151,04
404,116	169,47
404,324	101,89
404,532	95,74
404,739	-59,9
404,947	9,73
405,155	17,92
405,362	54,78
405,57	46,59
405,778	-51,71
405,985	-12,8
406,193	-39,42
406,4	-68,09
406,608	67,07
406,816	112,13
407,023	69,12
407,231	-6,66
407,438	26,11
407,646	-37,38
407,853	-86,53
408,061	-20,99
408,268	3,58
408,476	-33,28
408,683	38,4
408,89	34,3
409,098	17,92
409,305	-16,9
409,513	36,35
409,72	-6,66
409,927	-43,52
410,135	130,56
410,342	-31,23
410,55	77,31
410,757	38,4
410,964	-96,77
411,172	71,17
411,379	71,17
411,586	79,36
411,793	-18,94
412,001	75,26
412,208	77,31
412,415	77,31
412,622	161,28
412,83	62,98
413,037	42,5
413,244	50,69
413,451	36,35
413,658	85,5
413,866	44,54
414,073	26,11
414,28	71,17
414,487	-23,04
414,694	128,51
414,901	38,4
415,108	87,55
415,315	9,73
415,522	75,26
415,73	38,4
415,937	-0,51
416,144	-68,09
416,351	44,54
416,558	-31,23
416,765	-59,9
416,972	-64
417,179	54,78
417,386	75,26
417,593	67,07
417,8	26,11
418,006	-29,18
418,213	62,98
418,42	58,88
418,627	83,45
418,834	-12,8
419,041	-33,28
419,248	-10,75
419,455	87,55
419,661	26,11
419,868	-72,19
420,075	3,58
420,282	-68,09
420,489	-59,9
420,696	3,58
420,902	87,55
421,109	112,13
421,316	-16,9
421,523	28,16
421,729	26,11
421,936	-45,57
422,143	17,92
422,349	-61,95
422,556	-35,33
422,763	36,35
422,969	34,3
423,176	-113,15
423,383	-59,9
423,589	265,72
423,796	81,41
424,002	-72,19
424,209	56,83
424,416	26,11
424,622	-150,01
424,829	-31,23
425,035	-102,91
425,242	1,54
425,448	-27,14
425,655	91,65
425,861	-59,9
426,068	34,3
426,274	99,84
426,481	-6,66
426,687	-64
426,894	26,11
427,1	50,69
427,306	3,58
427,513	-18,94
427,719	75,26
427,926	28,16
428,132	9,73
428,338	-45,57
428,545	5,63
428,751	-39,42
428,957	15,87
429,163	-4,61
429,37	58,88
429,576	19,97
429,782	-35,33
429,989	15,87
430,195	83,45
430,401	42,5
430,607	-51,71
430,813	-104,96
431,02	26,11
431,226	50,69
431,432	22,02
431,638	-66,05
431,844	-61,95
432,05	52,74
432,257	-2,56
432,463	30,21
432,669	-8,7
432,875	-6,66
433,081	-23,04
433,287	-14,85
433,493	-80,38
433,699	87,55
433,905	34,3
434,111	-20,99
434,317	-10,75
434,523	101,89
434,729	24,06
434,935	-102,91
435,141	17,92
435,347	22,02
435,553	-10,75
435,759	-86,53
435,965	1,54
436,171	13,82
436,377	101,89
436,582	58,88
436,788	-23,04
436,994	83,45
437,2	-0,51
437,406	32,26
437,612	69,12
437,818	130,56
438,023	-39,42
438,229	222,72
438,435	34,3
438,641	79,36
438,846	126,46
439,052	165,37
439,258	167,42
439,464	108,03
439,669	65,02
439,875	128,51
440,081	44,54
440,286	-96,77
440,492	-23,04
440,698	36,35
440,903	5,63
441,109	79,36
441,314	-47,62
441,52	-25,09
441,726	34,3
441,931	3,58
442,137	116,22
442,342	-23,04
442,548	77,31
442,753	120,32
442,959	-129,53
443,164	97,79
443,37	75,26
443,575	-76,29
443,781	-23,04
443,986	140,8
444,192	34,3
444,397	32,26
444,602	-117,25
444,808	50,69
445,013	44,54
445,219	118,27
445,424	517,62
445,629	736,76
445,835	1107,44
446,04	1287,66
446,245	1664,49
446,451	1869,28
446,656	2215,39
446,861	2610,65
447,066	3057,11
447,272	3483,08
447,477	3335,63
447,682	2876,88
447,887	2590,17
448,093	2282,97
448,298	1754,6
448,503	1115,63
448,708	706,04
448,913	407,03
449,118	333,31
449,324	132,61
449,529	148,99
449,734	-14,85
449,939	-47,62
450,144	101,89
450,349	118,27
450,554	-31,23
450,759	87,55
450,964	34,3
451,169	-2,56
451,374	36,35
451,579	52,74
451,784	67,07
451,989	26,11
452,194	73,21
452,399	1,54
452,604	-78,33
452,809	-137,73
453,014	-53,76
453,219	19,97
453,424	50,69
453,629	-35,33
453,833	-55,81
454,038	3,58
454,243	5,63
454,448	50,69
454,653	30,21
454,858	19,97
455,062	-47,62
455,267	-39,42
455,472	38,4
455,677	-66,05
455,882	-88,57
456,086	85,5
456,291	83,45
456,496	-64
456,7	-55,81
456,905	17,92
457,11	81,41
457,314	-14,85
457,519	50,69
457,724	58,88
457,928	28,16
458,133	-72,19
458,338	52,74
458,542	9,73
458,747	-45,57
458,951	22,02
459,156	36,35
459,36	-43,52
459,565	144,89
459,769	-14,85
459,974	126,46
460,178	-37,38
460,383	5,63
460,587	34,3
460,792	93,69
460,996	-45,57
461,201	67,07
461,405	-31,23
461,61	-39,42
461,814	26,11
462,018	-23,04
462,223	-45,57
462,427	11,78
462,631	17,92
462,836	13,82
463,04	38,4
463,244	50,69
463,449	-102,91
463,653	112,13
463,857	-20,99
464,062	144,89
464,266	-14,85
464,47	42,5
464,674	-23,04
464,878	58,88
465,083	-41,47
465,287	87,55
465,491	13,82
465,695	105,98
465,899	11,78
466,104	34,3
466,308	-12,8
466,512	58,88
466,716	19,97
466,92	116,22
467,124	69,12
467,328	-37,38
467,532	46,59
467,736	-6,66
467,94	77,31
468,144	-10,75
468,348	-12,8
468,552	110,08
468,756	46,59
468,96	30,21
469,164	-14,85
469,368	36,35
469,572	75,26
469,776	192
469,98	157,18
470,184	359,93
470,388	525,82
470,591	398,84
470,795	544,25
470,999	714,23
471,203	781,81
471,407	722,42
471,611	701,94
471,814	796,15
472,018	689,65
472,222	574,97
472,426	517,62
472,63	355,83
472,833	275,96
473,037	116,22
473,241	159,23
473,444	169,47
473,648	488,95
473,852	9,73
474,055	-29,18
474,259	52,74
474,463	-23,04
474,666	28,16
474,87	19,97
475,074	71,17
475,277	-61,95
475,481	99,84
475,684	34,3
475,888	-12,8
476,091	7,68
476,295	-31,23
476,498	-39,42
476,702	75,26
476,905	36,35
477,109	95,74
477,312	42,5
477,516	-76,29
477,719	38,4
477,923	36,35
478,126	-29,18
478,329	-2,56
478,533	30,21
478,736	126,46
478,94	-23,04
479,143	26,11
479,346	19,97
479,55	7,68
479,753	-8,7
479,956	-135,68
480,159	-72,19
480,363	28,16
480,566	-86,53
480,769	-39,42
480,972	-0,51
481,176	26,11
481,379	151,04
481,582	28,16
481,785	9,73
481,988	30,21
482,192	108,03
482,395	1,54
482,598	5,63
482,801	-57,86
483,004	34,3
483,207	-43,52
483,41	42,5
483,613	26,11
483,817	9,73
484,02	-39,42
484,223	-68,09
484,426	-41,47
484,629	-55,81
484,832	-6,66
485,035	46,59
485,238	-43,52
485,441	-64
485,644	26,11
485,846	28,16
486,049	-47,62
486,252	11,78
486,455	-90,62
486,658	36,35
486,861	52,74
487,064	28,16
487,267	-45,57
487,47	83,45
487,672	26,11
487,875	13,82
488,078	32,26
488,281	52,74
488,484	9,73
488,686	-29,18
488,889	46,59
489,092	5,63
489,295	110,08
489,497	148,99
489,7	-10,75
489,903	30,21
490,105	-35,33
490,308	58,88
490,511	243,2
490,713	243,2
490,916	361,98
491,118	534,01
491,321	763,38
491,524	865,78
491,726	986,61
491,929	1052,14
492,131	1314,28
492,334	1363,44
492,536	1322,48
492,739	1320,43
492,941	1218,03
493,144	1066,48
493,346	959,99
493,549	624,12
493,751	402,94
493,954	339,45
494,156	142,85
494,359	112,13
494,561	-6,66
494,763	54,78
494,966	110,08
495,168	58,88
495,37	-70,14
495,573	9,73
495,775	28,16
495,977	159,23
496,18	69,12
496,382	54,78
496,584	46,59
496,787	124,41
496,989	-76,29
497,191	-35,33
497,393	42,5
497,595	-14,85
497,798	34,3
498	42,5
498,202	67,07
498,404	7,68
498,606	9,73
498,808	30,21
499,011	54,78
499,213	67,07
499,415	26,11
499,617	218,62
499,819	472,57
500,021	927,22
500,223	1254,89
500,425	1680,87
500,627	2053,6
500,829	2780,63
501,031	3358,16
501,233	3829,19
501,435	4564,41
501,637	4924,85
501,839	4998,58
502,041	4832,69
502,243	4445,63
502,445	3859,91
502,647	3112,4
502,848	2459,1
503,05	1863,14
503,252	1408,49
503,454	919,03
503,656	644,6
503,858	450,04
504,059	345,59
504,261	325,12
504,463	374,27
504,665	284,16
504,867	173,57
505,068	232,96
505,27	314,88
505,472	230,91
505,673	230,91
505,875	126,46
506,077	148,99
506,278	65,02
506,48	28,16
506,682	1,54
506,883	67,07
507,085	42,5
507,287	-39,42
507,488	28,16
507,69	75,26
507,891	-31,23
508,093	181,76
508,294	-47,62
508,496	-33,28
508,697	-37,38
508,899	34,3
509,1	24,06
509,302	17,92
509,503	71,17
509,705	54,78
509,906	-23,04
510,108	9,73
510,309	19,97
510,51	1,54
510,712	-31,23
510,913	-20,99
511,114	-29,18
511,316	-29,18
511,517	120,32
511,718	34,3
511,92	-45,57
512,121	9,73
512,322	75,26
512,524	75,26
512,725	17,92
512,926	17,92
513,127	-4,61
513,329	-20,99
513,53	-31,23
513,731	58,88
513,932	3,58
514,133	-72,19
514,334	-37,38
514,536	83,45
514,737	30,21
514,938	9,73
515,139	-39,42
515,34	-35,33
515,541	85,5
515,742	-78,33
515,943	-29,18
516,144	17,92
516,345	3,58
516,546	1,54
516,747	50,69
516,948	44,54
517,149	46,59
517,35	-31,23
517,551	-23,04
517,752	19,97
517,953	19,97
518,154	40,45
518,355	79,36
518,556	-14,85
518,756	-23,04
518,957	5,63
519,158	132,61
519,359	50,69
519,56	81,41
519,761	26,11
519,961	91,65
520,162	136,7
520,363	-74,24
520,564	-31,23
520,764	230,91
520,965	-98,81
521,166	22,02
521,366	-20,99
521,567	26,11
521,768	52,74
521,968	-37,38
522,169	-4,61
522,37	-80,38
522,57	1,54
522,771	58,88
522,972	-113,15
523,172	87,55
523,373	58,88
523,573	-51,71
523,774	101,89
523,974	75,26
524,175	34,3
524,375	34,3
524,576	42,5
524,776	9,73
524,977	-47,62
525,177	17,92
525,378	19,97
525,578	34,3
525,778	58,88
525,979	5,63
526,179	9,73
526,38	11,78
526,58	-10,75
526,78	-2,56
526,981	67,07
527,181	44,54
527,381	15,87
527,582	62,98
527,782	75,26
527,982	-14,85
528,182	9,73
528,383	-39,42
528,583	-2,56
528,783	44,54
528,983	50,69
529,183	-10,75
529,384	-6,66
529,584	132,61
529,784	181,76
529,984	52,74
530,184	19,97
530,384	11,78
530,584	9,73
530,784	-6,66
530,984	-43,52
531,185	83,45
531,385	9,73
531,585	17,92
531,785	-2,56
531,985	-31,23
532,185	5,63
532,385	-29,18
532,585	132,61
532,785	19,97
532,984	75,26
533,184	24,06
533,384	30,21
533,584	-80,38
533,784	62,98
533,984	26,11
534,184	-4,61
534,384	-43,52
534,583	9,73
534,783	-59,9
534,983	26,11
535,183	1,54
535,383	-31,23
535,582	71,17
535,782	32,26
535,982	77,31
536,182	3,58
536,381	-45,57
536,581	-14,85
536,781	9,73
536,98	28,16
537,18	42,5
537,38	54,78
537,579	36,35
537,779	11,78
537,979	36,35
538,178	-45,57
538,378	108,03
538,577	-2,56
538,777	-20,99
538,976	-92,67
539,176	75,26
539,376	36,35
539,575	-47,62
539,774	-0,51
539,974	-35,33
540,173	75,26
540,373	-12,8
540,572	-12,8
540,772	26,11
540,971	-12,8
541,171	38,4
541,37	3,58
541,569	34,3
541,769	-94,72
541,968	1,54
542,167	-23,04
542,367	1,54
542,566	-64
542,765	-47,62
542,965	-49,66
543,164	-6,66
543,363	11,78
543,562	-92,67
543,761	-39,42
543,961	124,41
544,16	-109,05
544,359	103,93
544,558	67,07
544,757	-2,56
544,957	9,73
545,156	134,65
545,355	-2,56
545,554	3,58
545,753	-47,62
545,952	-23,04
546,151	62,98
546,35	-14,85
546,549	48,64
546,748	108,03
546,947	42,5
547,146	-90,62
547,345	58,88
547,544	40,45
547,743	-72,19
547,942	22,02
548,141	-72,19
548,34	36,35
548,539	17,92
548,738	-76,29
548,937	75,26
549,135	77,31
549,334	46,59
549,533	-18,94
549,732	95,74
549,931	28,16
550,13	-107,01
550,328	1,54
550,527	-12,8
550,726	30,21
550,925	1,54
551,123	-64
551,322	26,11
551,521	50,69
551,72	58,88
551,918	142,85
552,117	52,74
552,315	-2,56
552,514	-31,23
552,713	-23,04
552,911	-78,33
553,11	-96,77
553,309	1,54
553,507	-55,81
553,706	-47,62
553,904	19,97
554,103	75,26
554,301	26,11
554,5	1,54
554,698	48,64
554,897	-94,72
555,095	17,92
555,294	-16,9
555,492	-88,57
555,69	112,13
555,889	-23,04
556,087	50,69
556,286	165,37
556,484	28,16
556,682	48,64
556,881	-12,8
557,079	50,69
557,277	69,12
557,476	38,4
557,674	-20,99
557,872	128,51
558,07	-27,14
558,269	-51,71
558,467	50,69
558,665	65,02
558,863	50,69
559,062	77,31
559,26	-14,85
559,458	-37,38
559,656	140,8
559,854	-35,33
560,052	52,74
560,25	83,45
560,449	183,81
560,647	42,5
560,845	-14,85
561,043	5,63
561,241	171,52
561,439	105,98
561,637	-18,94
561,835	36,35
562,033	77,31
562,231	-12,8
562,429	52,74
562,627	44,54
562,825	9,73
563,023	87,55
563,221	-23,04
563,418	77,31
563,616	52,74
563,814	99,84
564,012	30,21
564,21	85,5
564,408	77,31
564,605	69,12
564,803	-31,23
565,001	224,76
565,199	3,58
565,397	60,93
565,594	169,47
565,792	52,74
565,99	17,92
566,188	87,55
566,385	75,26
566,583	26,11
566,781	91,65
566,978	105,98
567,176	136,7
567,373	38,4
567,571	1,54
567,769	83,45
567,966	9,73
568,164	58,88
568,361	-23,04
568,559	95,74
568,756	-35,33
568,954	120,32
569,151	148,99
569,349	151,04
569,546	50,69
569,744	130,56
569,941	52,74
570,139	-12,8
570,336	-27,14
570,534	32,26
570,731	54,78
570,928	-35,33
571,126	198,14
571,323	210,43
571,52	9,73
571,718	42,5
571,915	95,74
572,112	-51,71
572,31	36,35
572,507	67,07
572,704	36,35
572,901	17,92
573,099	75,26
573,296	83,45
573,493	7,68
573,69	19,97
573,887	71,17
574,085	62,98
574,282	67,07
574,479	79,36
574,676	136,7
574,873	124,41
575,07	87,55
575,267	-55,81
575,464	108,03
575,661	42,5
575,858	54,78
576,055	50,69
576,252	132,61
576,449	32,26
576,646	93,69
576,843	36,35
577,04	87,55
577,237	161,28
577,434	5,63
577,631	46,59
577,828	108,03
578,025	75,26
578,222	73,21
578,419	79,36
578,615	13,82
578,812	71,17
579,009	-12,8
579,206	173,57
579,403	48,64
579,599	128,51
579,796	-6,66
579,993	192
580,19	77,31
580,386	79,36
580,583	167,42
580,78	19,97
580,976	206,33
581,173	71,17
581,37	85,5
581,566	120,32
581,763	30,21
581,96	-4,61
582,156	67,07
582,353	124,41
582,549	95,74
582,746	167,42
582,942	112,13
583,139	185,85
583,335	148,99
583,532	157,18
583,728	204,28
583,925	130,56
584,121	177,66
584,318	232,96
584,514	216,57
584,711	318,97
584,907	214,52
585,103	273,92
585,3	427,51
585,496	454,14
585,693	1095,15
585,889	3720,65
586,085	8121,73
586,281	14071,08
586,478	21654,71
586,674	29062,21
586,87	37471,17
587,067	46244,67
587,263	51950,31
587,459	55177,91
587,655	58481,28
587,851	59693,68
588,048	58194,57
588,244	54317,76
588,44	51141,36
588,636	45574,98
588,832	39166,89
589,028	32537,62
589,224	26002,55
589,42	20862,15
589,617	15099,16
589,813	10175,84
590,009	6055,33
590,205	3823,05
590,401	2250,21
590,597	1512,94
590,793	1054,19
590,989	804,34
591,185	648,69
591,38	495,1
591,576	331,26
591,772	376,31
591,968	220,67
592,164	247,29
592,36	257,53
592,556	192
592,752	222,72
592,948	185,85
593,143	56,83
593,339	26,11
593,535	67,07
593,731	136,7
593,926	58,88
594,122	116,22
594,318	42,5
594,514	167,42
594,709	-47,62
594,905	69,12
595,101	83,45
595,296	73,21
595,492	206,33
595,688	50,69
595,883	153,09
596,079	89,6
596,275	62,98
596,47	144,89
596,666	19,97
596,861	36,35
597,057	101,89
597,252	46,59
597,448	91,65
597,643	108,03
597,839	83,45
598,034	42,5
598,23	-47,62
598,425	105,98
598,621	67,07
598,816	73,21
599,011	44,54
599,207	36,35
599,402	83,45
599,597	105,98
599,793	99,84
599,988	50,69
600,183	11,78
600,379	124,41
600,574	124,41
600,769	99,84
600,965	9,73
601,16	34,3
601,355	32,26
601,55	112,13
601,745	93,69
601,941	138,75
602,136	58,88
602,331	75,26
602,526	9,73
602,721	87,55
602,916	-39,42
603,111	22,02
603,307	50,69
603,502	50,69
603,697	-70,14
603,892	-2,56
604,087	95,74
604,282	140,8
604,477	30,21
604,672	-37,38
604,867	99,84
605,062	71,17
605,257	34,3
605,452	208,38
605,646	52,74
605,841	19,97
606,036	-43,52
606,231	-84,48
606,426	50,69
606,621	-14,85
606,816	124,41
607,01	198,14
607,205	9,73
607,4	83,45
607,595	54,78
607,79	-47,62
607,984	77,31
608,179	3,58
608,374	67,07
608,569	-12,8
608,763	-14,85
608,958	-6,66
609,153	112,13
609,347	116,22
609,542	99,84
609,736	58,88
609,931	-61,95
610,126	34,3
610,32	50,69
610,515	3,58
610,709	265,72
610,904	-4,61
611,098	-2,56
611,293	-70,14
611,487	58,88
611,682	-20,99
611,876	-47,62
612,071	7,68
612,265	3,58
612,46	26,11
612,654	132,61
612,848	85,5
613,043	17,92
613,237	-6,66
613,432	22,02
613,626	17,92
613,82	36,35
614,014	56,83
614,209	140,8
614,403	7,68
614,597	-18,94
614,792	79,36
614,986	-14,85
615,18	79,36
615,374	99,84
615,568	50,69
615,763	-39,42
615,957	36,35
616,151	44,54
616,345	163,33
616,539	-14,85
616,733	26,11
616,927	7,68
617,121	46,59
617,316	44,54
617,51	91,65
617,704	50,69
617,898	112,13
618,092	-2,56
618,286	67,07
618,48	-20,99
618,674	91,65
618,868	89,6
619,061	42,5
619,255	128,51
619,449	-6,66
619,643	-27,14
619,837	71,17
620,031	9,73
620,225	132,61
620,419	24,06
620,612	126,46
620,806	128,51
621	142,85
621,194	50,69
621,388	85,5
621,581	62,98
621,775	-23,04
621,969	17,92
622,162	44,54
622,356	67,07
622,55	91,65
622,743	17,92
622,937	-41,47
623,131	-14,85
623,324	189,95
623,518	-6,66
623,712	50,69
623,905	-23,04
624,099	17,92
624,292	60,93
624,486	62,98
624,679	26,11
624,873	-2,56
625,066	118,27
625,26	60,93
625,453	-55,81
625,647	17,92
625,84	30,21
626,034	48,64
626,227	9,73
626,42	-23,04
626,614	1,54
626,807	153,09
627	91,65
627,194	17,92
627,387	26,11
627,58	-4,61
627,774	-6,66
627,967	85,5
628,16	26,11
628,353	28,16
628,547	67,07
628,74	50,69
628,933	-64
629,126	60,93
629,319	58,88
629,513	-18,94
629,706	-39,42
629,899	69,12
630,092	-29,18
630,285	-55,81
630,478	-20,99
630,671	11,78
630,864	83,45
631,057	-39,42
631,25	153,09
631,443	101,89
631,636	17,92
631,829	85,5
632,022	50,69
632,215	38,4
632,408	60,93
632,601	108,03
632,794	17,92
632,987	-6,66
633,18	91,65
633,373	22,02
633,566	99,84
633,758	-107,01
633,951	-4,61
634,144	11,78
634,337	26,11
634,53	54,78
634,722	87,55
634,915	9,73
635,108	9,73
635,301	71,17
635,493	-37,38
635,686	140,8
635,879	42,5
636,071	-86,53
636,264	46,59
636,457	77,31
636,649	28,16
636,842	1,54
637,034	112,13
637,227	91,65
637,42	19,97
637,612	38,4
637,805	-59,9
637,997	83,45
638,19	9,73
638,382	30,21
638,575	-2,56
638,767	3,58
638,96	101,89
639,152	114,17
639,344	153,09
639,537	-37,38
639,729	42,5
639,922	58,88
640,114	38,4
640,306	50,69
640,499	22,02
640,691	116,22
640,883	-6,66
641,075	42,5
641,268	67,07
641,46	50,69
641,652	69,12
641,844	-2,56
642,037	28,16
642,229	62,98
642,421	95,74
642,613	28,16
642,805	-35,33
642,998	22,02
643,19	58,88
643,382	130,56
643,574	99,84
643,766	1,54
643,958	93,69
644,15	83,45
644,342	79,36
644,534	134,65
644,726	-29,18
644,918	40,45
645,11	-12,8
645,302	-12,8
645,494	52,74
645,686	5,63
645,878	-88,57
646,07	42,5
646,262	13,82
646,453	26,11
646,645	77,31
646,837	17,92
647,029	118,27
647,221	71,17
647,413	22,02
647,604	-31,23
647,796	13,82
647,988	67,07
648,18	69,12
648,371	-10,75
648,563	26,11
648,755	120,32
648,947	-31,23
649,138	-66,05
649,33	46,59
649,521	19,97
649,713	11,78
649,905	34,3
650,096	-4,61
650,288	17,92
650,479	-109,05
650,671	58,88
650,863	-35,33
651,054	-74,24
651,246	71,17
651,437	-72,19
651,629	126,46
651,82	44,54
652,011	67,07
652,203	75,26
652,394	62,98
652,586	85,5
652,777	26,11
652,968	71,17
653,16	-86,53
653,351	13,82
653,542	17,92
653,734	5,63
653,925	-86,53
654,116	151,04
654,308	99,84
654,499	-6,66
654,69	91,65
654,881	48,64
655,073	36,35
655,264	32,26
655,455	-10,75
655,646	-12,8
655,837	108,03
656,028	79,36
656,219	19,97
656,411	-27,14
656,602	30,21
656,793	91,65
656,984	177,66
657,175	91,65
657,366	36,35
657,557	75,26
657,748	-35,33
657,939	67,07
658,13	13,82
658,321	93,69
658,512	26,11
658,703	62,98
658,894	122,37
659,084	69,12
659,275	-18,94
659,466	132,61
659,657	124,41
659,848	122,37
660,039	91,65
660,23	22,02
660,42	26,11
660,611	-18,94
660,802	17,92
660,993	-27,14
661,183	91,65
661,374	-14,85
661,565	124,41
661,755	87,55
661,946	62,98
662,137	60,93
662,327	38,4
662,518	44,54
662,709	38,4
662,899	44,54
663,09	26,11
663,28	54,78
663,471	-2,56
663,662	130,56
663,852	99,84
664,043	34,3
664,233	58,88
664,424	50,69
664,614	30,21
664,804	22,02
664,995	58,88
665,185	62,98
665,376	85,5
665,566	60,93
665,756	108,03
665,947	65,02
666,137	296,44
666,328	994,8
666,518	2172,38
666,708	3587,53
666,898	5475,76
667,089	7366,03
667,279	9153,91
667,469	10708,32
667,659	11625,81
667,85	11734,35
668,04	12098,89
668,23	11715,92
668,42	10980,7
668,61	10415,46
668,8	9799,02
668,991	8555,9
669,181	7431,57
669,371	6280,61
669,561	5598,63
669,751	4732,34
669,941	3849,67
670,131	2942,42
670,321	2092,51
670,511	1476,07
670,701	892,4
670,891	597,49
671,081	419,32
671,271	222,72
671,461	181,76
671,651	208,38
671,841	79,36
672,03	165,37
672,22	44,54
672,41	167,42
672,6	124,41
672,79	110,08
672,98	-84,48
673,169	-16,9
673,359	-6,66
673,549	17,92
673,739	-39,42
673,928	-6,66
674,118	26,11
674,308	60,93
674,497	134,65
674,687	26,11
674,877	42,5
675,066	-55,81
675,256	44,54
675,446	-14,85
675,635	13,82
675,825	48,64
676,014	40,45
676,204	38,4
676,393	50,69
676,583	9,73
676,772	17,92
676,962	-20,99
677,151	67,07
677,341	58,88
677,53	-6,66
677,72	34,3
677,909	134,65
678,099	-2,56
678,288	65,02
678,477	69,12
678,667	69,12
678,856	77,31
679,045	42,5
679,235	73,21
679,424	46,59
679,613	144,89
679,802	91,65
679,992	36,35
680,181	19,97
680,37	11,78
680,559	46,59
680,748	91,65
680,938	19,97
681,127	69,12
681,316	75,26
681,505	67,07
681,694	28,16
681,883	19,97
682,072	17,92
682,261	-2,56
682,45	-55,81
682,639	-55,81
682,828	73,21
683,017	85,5
683,206	28,16
683,395	9,73
683,584	50,69
683,773	3,58
683,962	-39,42
684,151	-6,66
684,34	79,36
684,529	40,45
684,718	-10,75
684,907	15,87
685,095	-6,66
685,284	118,27
685,473	-12,8
685,662	9,73
685,851	36,35
686,039	-14,85
686,228	65,02
686,417	50,69
686,606	50,69
686,794	34,3
686,983	9,73
687,172	19,97
687,36	11,78
687,549	9,73
687,738	28,16
687,926	50,69
688,115	-6,66
688,303	-6,66
688,492	83,45
688,68	-53,76
688,869	7,68
689,057	19,97
689,246	34,3
689,434	58,88
689,623	22,02
689,811	58,88
690	19,97
690,188	-55,81
690,377	52,74
690,565	132,61
690,753	17,92
690,942	15,87
691,13	-57,86
691,318	60,93
691,507	-20,99
691,695	58,88
691,883	-35,33
692,072	54,78
692,26	157,18
692,448	75,26
692,636	11,78
692,824	11,78
693,013	52,74
693,201	-29,18
693,389	-70,14
693,577	91,65
693,765	13,82
693,953	-14,85
694,141	-6,66
694,329	-16,9
694,518	11,78
694,706	95,74
694,894	52,74
695,082	36,35
695,27	-20,99
695,458	-39,42
695,646	75,26
695,834	124,41
696,022	19,97
696,209	71,17
696,397	17,92
696,585	50,69
696,773	26,11
696,961	99,84
697,149	38,4
697,337	19,97
697,525	108,03
697,712	108,03
697,9	62,98
698,088	42,5
698,276	91,65
698,463	11,78
698,651	67,07
698,839	26,11
699,027	67,07
699,214	99,84
699,402	-0,51
699,59	40,45
699,777	-18,94
699,965	42,5
700,152	-12,8
700,34	54,78
700,528	89,6
700,715	17,92
700,903	3,58
701,09	110,08
701,278	69,12
701,465	52,74
701,653	32,26
701,84	62,98
702,028	153,09
702,215	97,79
702,402	34,3
702,59	112,13
702,777	50,69
702,965	118,27
703,152	62,98
703,339	148,99
703,527	26,11
703,714	108,03
703,901	19,97
704,088	87,55
704,276	-4,61
704,463	202,24
704,65	165,37
704,837	357,88
705,025	959,99
705,212	2721,24
705,399	5727,66
705,586	9174,39
705,773	12854,59
705,96	16497,92
706,147	19549,4
706,335	21460,15
706,522	22701,22
706,709	22439,08
706,896	22090,93
707,083	20561,09
707,27	19670,23
707,457	17712,37
707,644	16096,52
707,831	14116,14
708,018	12397,89
708,205	10628,45
708,392	9160,05
708,578	7591,31
708,765	6489,5
708,952	5158,32
709,139	3954,12
709,326	2848,21
709,513	1969,63
709,7	1304,04
709,886	869,87
710,073	603,64
710,26	484,86
710,447	292,35
710,633	249,34
710,82	198,14
711,007	116,22
711,193	85,5
711,38	87,55
711,567	93,69
711,753	58,88
711,94	140,8
712,127	50,69
712,313	146,94
712,5	34,3
712,686	75,26
712,873	13,82
713,059	5,63
713,246	112,13
713,432	75,26
713,619	-59,9
713,805	-55,81
713,992	148,99
714,178	-2,56
714,365	36,35
714,551	85,5
714,737	11,78
714,924	-45,57
715,11	34,3
715,297	34,3
715,483	56,83
715,669	75,26
715,855	52,74
716,042	17,92
716,228	-14,85
716,414	67,07
716,6	-20,99
716,787	9,73
716,973	30,21
717,159	48,64
717,345	34,3
717,531	22,02
717,718	24,06
717,904	79,36
718,09	9,73
718,276	-10,75
718,462	-53,76
718,648	17,92
718,834	-31,23
719,02	32,26
719,206	52,74
719,392	-2,56
719,578	-35,33
719,764	1,54
719,95	-18,94
720,136	83,45
720,322	42,5
720,508	38,4
720,694	-80,38
720,879	-59,9
721,065	26,11
721,251	60,93
721,437	75,26
721,623	69,12
721,809	-37,38
721,994	38,4
722,18	3,58
722,366	28,16
722,552	-55,81
722,737	-39,42
722,923	83,45
723,109	19,97
723,294	-49,66
723,48	46,59
723,666	87,55
723,851	7,68
724,037	42,5
724,222	108,03
724,408	103,93
724,593	97,79
724,779	69,12
724,965	42,5
725,15	36,35
725,336	77,31
725,521	116,22
725,706	-72,19
725,892	-20,99
726,077	-47,62
726,263	13,82
726,448	167,42
726,634	146,94
726,819	329,21
727,004	585,21
727,19	812,53
727,375	1209,84
727,56	1570,28
727,745	1840,61
727,931	2262,49
728,116	2209,25
728,301	2315,74
728,486	2221,53
728,672	1971,68
728,857	1998,31
729,042	1664,49
729,227	1517,03
729,412	1291,76
729,597	1179,12
729,783	1046
729,968	900,59
730,153	726,52
730,338	550,39
730,523	513,53
730,708	439,8
730,893	337,4
731,078	265,72
731,263	124,41
731,448	103,93
731,633	62,98
731,818	-6,66
732,003	-39,42
732,187	22,02
732,372	62,98
732,557	50,69
732,742	-4,61
732,927	-12,8
733,112	-4,61
733,297	-16,9
733,481	30,21
733,666	-31,23
733,851	-6,66
734,036	-31,23
734,22	-14,85
734,405	130,56
734,59	9,73
734,774	120,32
734,959	-96,77
735,144	17,92
735,328	42,5
735,513	-14,85
735,698	-6,66
735,882	140,8
736,067	118,27
736,251	1,54
736,436	-20,99
736,62	30,21
736,805	58,88
736,989	83,45
737,174	-61,95
737,358	-80,38
737,543	99,84
737,727	-119,29
737,911	112,13
738,096	28,16
738,28	126,46
738,465	50,69
738,649	52,74
738,833	34,3
739,018	60,93
739,202	-66,05
739,386	-18,94
739,57	5,63
739,755	17,92
739,939	22,02
740,123	-33,28
740,307	91,65
740,491	36,35
740,676	-12,8
740,86	81,41
741,044	17,92
741,228	-45,57
741,412	-31,23
741,596	-35,33
741,78	-39,42
741,964	42,5
742,148	-78,33
742,332	-4,61
742,516	-94,72
742,7	-27,14
742,884	19,97
743,068	-23,04
743,252	42,5
743,436	3,58
743,62	-121,34
743,804	48,64
743,988	56,83
744,172	42,5
744,356	-39,42
744,539	1,54
744,723	-23,04
744,907	-59,9
745,091	-80,38
745,275	-23,04
745,458	48,64
745,642	-41,47
745,826	-6,66
746,009	148,99
746,193	1,54
746,377	-14,85
746,56	52,74
746,744	75,26
746,928	-72,19
747,111	-43,52
747,295	-43,52
747,478	9,73
747,662	-10,75
747,846	79,36
748,029	-6,66
748,213	50,69
748,396	-39,42
748,58	-6,66
748,763	-23,04
748,946	-64
749,13	13,82
749,313	-43,52
749,497	58,88
749,68	75,26
749,863	44,54
750,047	34,3
750,23	9,73
750,413	79,36
750,597	50,69
750,78	-20,99
750,963	42,5
751,146	26,11
751,33	-0,51
751,513	34,3
751,696	1,54
751,879	-6,66
752,062	-4,61
752,246	46,59
752,429	42,5
752,612	3,58
752,795	50,69
752,978	58,88
753,161	-102,91
753,344	-64
753,527	44,54
753,71	-37,38
753,893	-6,66
754,076	-37,38
754,259	46,59
754,442	26,11
754,625	-100,86
754,808	34,3
754,991	36,35
755,174	50,69
755,357	-35,33
755,539	-10,75
755,722	67,07
755,905	75,26
756,088	36,35
756,271	-43,52
756,453	85,5
756,636	-113,15
756,819	120,32
757,002	-109,05
757,184	108,03
757,367	38,4
757,55	67,07
757,732	169,47
757,915	-51,71
758,098	40,45
758,28	99,84
758,463	11,78
758,645	50,69
758,828	128,51
759,011	83,45
759,193	54,78
759,376	89,6
759,558	-37,38
759,741	-6,66
759,923	-20,99
760,105	-23,04
760,288	30,21
760,47	-47,62
760,653	-35,33
760,835	-6,66
761,017	-66,05
761,2	-31,23
761,382	130,56
761,564	13,82
761,747	130,56
761,929	-6,66
762,111	52,74
762,294	77,31
762,476	159,23
762,658	103,93
762,84	99,84
763,022	42,5
763,205	-31,23
763,387	85,5
763,569	22,02
763,751	-6,66
763,933	1,54
764,115	-88,57
764,297	-57,86
764,479	-23,04
764,661	11,78
764,843	112,13
765,025	101,89
765,207	34,3
765,389	36,35
765,571	-100,86
765,753	67,07
765,935	-23,04
766,117	60,93
766,299	134,65
766,481	140,8
766,663	-6,66
766,845	-43,52
767,026	50,69
767,208	69,12
767,39	-53,76
767,572	-72,19
767,753	67,07
767,935	-39,42
768,117	34,3
768,299	50,69
768,48	11,78
768,662	17,92
768,844	-90,62
769,025	85,5
769,207	-72,19
769,389	-8,7
769,57	79,36
769,752	108,03
769,933	-12,8
770,115	19,97
770,296	-23,04
770,478	110,08
770,659	-14,85
770,841	214,52
771,022	-6,66
771,204	87,55
771,385	26,11
771,567	5,63
771,748	167,42
771,929	-78,33
772,111	52,74
772,292	128,51
772,473	36,35
772,655	-10,75
772,836	17,92
773,017	42,5
773,199	91,65
773,38	50,69
773,561	95,74
773,742	9,73
773,923	17,92
774,105	157,18
774,286	83,45
774,467	-16,9
774,648	34,3
774,829	-31,23
775,01	-55,81
775,191	-29,18
775,372	-39,42
775,553	-33,28
775,734	-96,77
775,915	-55,81
776,096	-70,14
776,277	-23,04
776,458	-66,05
776,639	-39,42
776,82	101,89
777,001	36,35
777,182	-12,8
777,363	-31,23
777,544	67,07
777,725	118,27
777,906	75,26
778,086	75,26
778,267	46,59
778,448	22,02
778,629	22,02
778,809	110,08
778,99	-12,8
779,171	-23,04
779,352	-4,61
779,532	-10,75
779,713	-111,1
779,894	9,73
780,074	101,89
780,255	50,69
780,435	75,26
780,616	34,3
780,797	91,65
780,977	-70,14
781,158	5,63
781,338	13,82
781,519	38,4
781,699	144,89
781,88	-39,42
782,06	28,16
782,241	-39,42
782,421	-39,42
782,601	52,74
782,782	-72,19
782,962	26,11
783,142	-4,61
783,323	42,5
783,503	67,07
783,683	99,84
783,864	-68,09
784,044	58,88
784,224	79,36
784,404	26,11
784,585	69,12
784,765	-27,14
784,945	87,55
785,125	-43,52
785,305	-20,99
785,485	122,37
785,666	99,84
785,846	-43,52
786,026	50,69
786,206	-37,38
786,386	48,64
786,566	28,16
786,746	-64
786,926	-64
787,106	-53,76
787,286	-57,86
787,466	19,97
787,646	62,98
787,826	13,82
788,006	42,5
788,185	50,69
788,365	-53,76
788,545	67,07
788,725	28,16
788,905	34,3
789,085	28,16
789,264	-31,23
789,444	-6,66
789,624	36,35
789,804	-2,56
789,983	83,45
790,163	36,35
790,343	19,97
790,522	120,32
790,702	58,88
790,882	-55,81
791,061	81,41
791,241	19,97
791,42	-4,61
791,6	79,36
791,78	34,3
791,959	-61,95
792,139	-29,18
792,318	-18,94
792,498	93,69
792,677	-12,8
792,856	-20,99
793,036	34,3
793,215	-37,38
793,395	58,88
793,574	26,11
793,753	42,5
793,933	161,28
794,112	99,84
794,291	-6,66
794,471	126,46
794,65	26,11
794,829	1,54
795,008	103,93
795,188	46,59
795,367	83,45
795,546	50,69
795,725	13,82
795,904	-47,62
796,084	50,69
796,263	77,31
796,442	67,07
796,621	28,16
796,8	58,88
796,979	11,78
797,158	13,82
797,337	-49,66
797,516	-31,23
797,695	52,74
797,874	-2,56
798,053	83,45
798,232	65,02
798,411	-53,76
798,59	-6,66
798,769	-45,57
798,947	-72,19
799,126	34,3
799,305	19,97
799,484	-6,66
799,663	-39,42
799,842	26,11
800,02	-39,42
800,199	-6,66
800,378	99,84
800,557	-29,18
800,735	-61,95
800,914	-39,42
801,093	-31,23
801,271	34,3
801,45	7,68
801,628	108,03
801,807	3,58
801,986	11,78
802,164	5,63
802,343	32,26
802,521	-109,05
802,7	9,73
802,878	22,02
803,057	44,54
803,235	-39,42
803,414	-35,33
803,592	75,26
803,771	-20,99
803,949	17,92
804,127	-18,94
804,306	56,83
804,484	-68,09
804,662	116,22
804,841	-51,71
805,019	26,11
805,197	13,82
805,375	3,58
805,554	9,73
805,732	-94,72
805,91	-6,66
806,088	-25,09
806,266	-2,56
806,445	11,78
806,623	-53,76
806,801	11,78
806,979	134,65
807,157	34,3
807,335	-133,63
807,513	-31,23
807,691	-18,94
807,869	-20,99
808,047	-66,05
808,225	-39,42
808,403	19,97
808,581	50,69
808,759	89,6
808,937	-16,9
809,115	91,65
809,293	91,65
809,471	22,02
809,649	40,45
809,826	67,07
810,004	34,3
810,182	-70,14
810,36	-41,47
810,538	34,3
810,715	5,63
810,893	-4,61
811,071	62,98
811,248	50,69
811,426	-80,38
811,604	19,97
811,781	17,92
811,959	36,35
812,137	1,54
812,314	-94,72
812,492	11,78
812,669	85,5
812,847	-107,01
813,024	-4,61
813,202	91,65
813,379	9,73
813,557	32,26
813,734	93,69
813,912	56,83
814,089	-0,51
814,267	116,22
814,444	58,88
814,621	-14,85
814,799	1,54
814,976	140,8
815,153	93,69
815,331	9,73
815,508	-2,56
815,685	-16,9
815,862	9,73
816,04	-35,33
816,217	9,73
816,394	-25,09
816,571	34,3
816,748	132,61
816,926	124,41
817,103	214,52
817,28	83,45
817,457	38,4
817,634	116,22
817,811	3,58
817,988	34,3
818,165	-39,42
818,342	9,73
818,519	-20,99
818,696	-12,8
818,873	-104,96
819,05	44,54
819,227	1,54
819,404	-51,71
819,581	-20,99
819,758	-45,57
819,934	-31,23
820,111	9,73
820,288	50,69
820,465	124,41
820,642	87,55
820,818	-12,8
820,995	-23,04
821,172	-10,75
821,349	95,74
821,525	26,11
821,702	13,82
821,879	-55,81
822,055	-37,38
822,232	-27,14
822,409	17,92
822,585	75,26
822,762	24,06
822,938	34,3
823,115	26,11
823,291	26,11
823,468	91,65
823,644	19,97
823,821	11,78
823,997	-43,52
824,174	3,58
824,35	75,26
824,527	42,5
824,703	-6,66
824,879	34,3
825,056	-14,85
825,232	134,65
825,408	-31,23
825,585	-45,57
825,761	-47,62
825,937	50,69
826,113	-70,14
826,29	1,54
826,466	-64
826,642	345,59
826,818	91,65
826,994	-29,18
827,17	1,54
827,347	7,68
827,523	-39,42
827,699	-4,61
827,875	11,78
828,051	54,78
828,227	9,73
828,403	87,55
828,579	181,76
828,755	112,13
828,931	-29,18
829,107	19,97
829,283	136,7
829,459	-47,62
829,635	-27,14
829,811	46,59
829,986	19,97
830,162	71,17
830,338	3,58
830,514	-55,81
830,69	-16,9
830,865	-84,48
831,041	19,97
831,217	3,58
831,393	-18,94
831,568	-23,04
831,744	34,3
831,92	-2,56
832,095	30,21
832,271	-47,62
832,447	81,41
832,622	116,22
832,798	9,73
832,973	-45,57
833,149	69,12
833,325	-14,85
833,5	60,93
833,676	1,54
833,851	34,3
834,027	36,35
834,202	17,92
834,377	7,68
834,553	24,06
834,728	42,5
834,904	30,21
835,079	-10,75
835,254	-47,62
835,43	17,92
835,605	-6,66
835,78	22,02
835,955	17,92
836,131	50,69
836,306	-80,38
836,481	-29,18
836,656	42,5
836,832	79,36
837,007	-47,62
837,182	-88,57
837,357	-0,51
837,532	-2,56
837,707	17,92
837,882	54,78
838,057	58,88
838,232	75,26
838,407	28,16
838,582	9,73
838,757	9,73
838,932	71,17
839,107	-6,66
839,282	-57,86
839,457	60,93
839,632	58,88
839,807	62,98
839,982	-45,57
840,157	-66,05
840,332	75,26
840,506	-51,71
840,681	-35,33
840,856	-23,04
841,031	-55,81
841,205	1,54
841,38	-12,8
841,555	58,88
841,73	5,63
841,904	17,92
842,079	7,68
842,254	-2,56
842,428	32,26
842,603	-80,38
842,777	-47,62
842,952	3,58
843,126	-35,33
843,301	132,61
843,476	19,97
843,65	11,78
843,825	75,26
843,999	22,02
844,173	-51,71
844,348	26,11
844,522	17,92
844,697	-47,62
844,871	-53,76
845,045	42,5
845,22	22,02
845,394	48,64
845,568	-55,81
845,743	161,28
845,917	48,64
846,091	-27,14
846,265	15,87
846,44	17,92
846,614	48,64
846,788	-18,94
846,962	-35,33
847,136	22,02
847,31	11,78
847,485	112,13
847,659	-18,94
847,833	108,03
848,007	17,92
848,181	85,5
848,355	-10,75
848,529	132,61
848,703	62,98
848,877	-39,42
849,051	85,5
849,225	-23,04
849,399	-4,61
849,573	-14,85
849,746	22,02
849,92	-27,14
850,094	-2,56
850,268	9,73
850,442	13,82
850,616	-8,7
850,789	83,45
850,963	-88,57
851,137	-66,05
851,311	159,23
851,484	67,07
851,658	13,82
851,832	-88,57
852,005	-0,51
852,179	-10,75
852,352	-39,42
852,526	-57,86
852,7	13,82
852,873	-18,94
853,047	46,59
853,22	71,17
853,394	67,07
853,567	34,3
853,741	-37,38
853,914	-29,18
854,088	79,36
854,261	13,82
854,434	-6,66
854,608	-33,28
854,781	-57,86
854,955	-29,18
855,128	69,12
855,301	36,35
855,475	-57,86
855,648	-45,57
855,821	58,88
855,994	54,78
856,168	9,73
856,341	56,83
856,514	-6,66
856,687	65,02
856,86	77,31
857,033	-20,99
857,207	-8,7
857,38	-37,38
857,553	116,22
857,726	7,68
857,899	132,61
858,072	9,73
858,245	17,92
858,418	5,63
858,591	58,88
858,764	-23,04
858,937	87,55
859,11	17,92
859,283	42,5
859,455	-39,42
859,628	-61,95
859,801	71,17
859,974	52,74
860,147	-70,14
860,32	17,92
860,492	30,21
860,665	-109,05
860,838	1,54
861,011	93,69
861,183	5,63
861,356	58,88
861,529	71,17
861,701	-39,42
861,874	17,92
862,047	161,28
862,219	71,17
862,392	75,26
862,564	5,63
862,737	-78,33
862,909	69,12
863,082	9,73
863,254	83,45
863,427	-94,72
863,599	69,12
863,772	-39,42
863,944	17,92
864,117	58,88
864,289	13,82
864,461	-18,94
864,634	-20,99
864,806	-47,62
864,978	62,98
865,151	42,5
865,323	42,5
865,495	89,6
865,667	-4,61
865,84	-6,66
866,012	11,78
866,184	9,73
866,356	-68,09
866,528	42,5
866,7	58,88
866,873	-27,14
867,045	-10,75
867,217	-45,57
867,389	22,02
867,561	-45,57
867,733	110,08
867,905	46,59
868,077	-45,57
868,249	38,4
868,421	-35,33
868,593	50,69
868,765	93,69
868,936	-31,23
869,108	54,78
869,28	19,97
869,452	-64
869,624	-88,57
869,796	13,82
869,968	26,11
870,139	93,69
870,311	-45,57
870,483	52,74
870,654	-12,8
870,826	22,02
870,998	-31,23
871,17	11,78
871,341	-27,14
871,513	120,32
871,684	-23,04
871,856	69,12
872,028	-27,14
872,199	-29,18
872,371	-107,01
872,542	-16,9
872,714	75,26
872,885	97,79
873,057	-20,99
873,228	108,03
873,4	65,02
873,571	89,6
873,742	-31,23
873,914	42,5
874,085	56,83
874,256	11,78
874,428	-86,53
874,599	-31,23
874,77	34,3
874,942	-53,76
875,113	9,73
875,284	-43,52
875,455	-14,85
875,626	30,21
875,798	-37,38
875,969	-47,62
876,14	50,69
876,311	67,07
876,482	161,28
876,653	28,16
876,824	42,5
876,995	38,4
877,166	87,55
877,337	83,45
877,508	22,02
877,679	60,93
877,85	-39,42
878,021	-18,94
878,192	26,11
878,363	-6,66
878,534	5,63
878,705	-96,77
878,876	1,54
879,047	54,78
879,217	-35,33
879,388	-6,66
879,559	-23,04
879,73	44,54
879,9	-31,23
880,071	30,21
880,242	34,3
880,413	34,3
880,583	40,45
880,754	40,45
880,924	-55,81
881,095	-49,66
881,266	-78,33
881,436	-10,75
881,607	114,17
881,777	22,02
881,948	1,54
882,118	-45,57
882,289	-31,23
882,459	-14,85
882,63	52,74
882,8	-18,94
882,971	44,54
883,141	-31,23
883,311	-0,51
883,482	132,61
883,652	3,58
883,822	-39,42
883,993	-14,85
884,163	17,92
884,333	50,69
884,504	54,78
884,674	54,78
884,844	-4,61
885,014	-10,75
885,184	11,78
885,355	-55,81
885,525	-35,33
885,695	81,41
885,865	46,59
886,035	67,07
886,205	-64
886,375	83,45
886,545	17,92
886,715	-18,94
886,885	17,92
887,055	17,92
887,225	-47,62
887,395	-117,25
887,565	132,61
887,735	30,21
887,905	34,3
888,075	1,54
888,244	56,83
888,414	38,4
888,584	28,16
888,754	83,45
888,924	58,88
889,093	157,18
889,263	-16,9
889,433	-10,75
889,603	50,69
889,772	50,69
889,942	26,11
890,111	-39,42
890,281	11,78
890,451	-23,04
890,62	17,92
890,79	3,58
890,959	38,4
891,129	67,07
891,298	36,35
891,468	38,4
891,637	38,4
891,807	79,36
891,976	-27,14
892,146	26,11
892,315	36,35
892,485	19,97
892,654	-80,38
892,823	-41,47
892,993	-33,28
893,162	126,46
893,331	54,78
893,501	52,74
893,67	-4,61
893,839	-20,99
894,008	28,16
894,177	19,97
894,347	3,58
894,516	75,26
894,685	-31,23
894,854	-43,52
895,023	22,02
895,192	-55,81
