Data from he_USB4F104161__13__11-53-35-219.txt Node

Date: Tue Apr 14 11:53:35 EDT 2026
User: LaboPhy
Spectrometer: USB4F10416
Trigger mode: 4
Integration Time (sec): 1,000000E-1
Scans to average: 1
Electric dark correction enabled: true
Nonlinearity correction enabled: false
Boxcar width: 0
XAxis mode: Wavelengths
Number of Pixels in Spectrum: 3648
>>>>>Begin Spectral Data<<<<<
177,847	-209,23
178,066	-209,23
178,284	-209,23
178,502	-194,9
178,72	-174,42
178,939	44,71
179,157	-12,63
179,375	-16,73
179,593	36,52
179,812	155,3
180,03	-24,92
180,248	3,75
180,466	-18,77
180,685	-63,83
180,903	-26,96
181,121	-39,25
181,339	-37,2
181,557	-8,53
181,775	-20,82
181,994	-24,92
182,212	-26,96
182,43	-2,39
182,648	16,04
182,866	65,19
183,084	67,24
183,302	-39,25
183,52	-94,55
183,739	89,77
183,957	67,24
184,175	-8,53
184,393	-0,34
184,611	36,52
184,829	-69,97
185,047	-22,87
185,265	65,19
185,483	48,81
185,701	-0,34
185,919	118,44
186,137	20,14
186,355	16,04
186,573	44,71
186,791	89,77
187,009	-12,63
187,227	40,62
187,445	-0,34
187,663	61,1
187,881	-55,64
188,098	16,04
188,316	97,96
188,534	16,04
188,752	-33,11
188,97	-43,35
189,188	9,9
189,406	52,91
189,624	52,91
189,841	-33,11
190,059	-74,07
190,277	-0,34
190,495	40,62
190,713	48,81
190,931	91,82
191,148	-43,35
191,366	-33,11
191,584	65,19
191,802	-2,39
192,019	83,63
192,237	36,52
192,455	7,85
192,673	100,01
192,89	-72,02
193,108	52,91
193,326	-82,26
193,543	75,43
193,761	-31,06
193,979	-6,49
194,196	-115,03
194,414	67,24
194,632	65,19
194,849	-37,2
195,067	-49,49
195,285	104,11
195,502	-82,26
195,72	-94,55
195,937	1,71
196,155	32,43
196,373	24,23
196,59	-41,3
196,808	-41,3
197,025	93,87
197,243	196,26
197,46	77,48
197,678	89,77
197,895	52,91
198,113	59,05
198,33	48,81
198,548	1,71
198,765	11,95
198,983	13,99
199,2	-31,06
199,418	20,14
199,635	-41,3
199,853	-16,73
200,07	-2,39
200,288	-8,53
200,505	-6,49
200,722	9,9
200,94	-0,34
201,157	34,47
201,375	44,71
201,592	-88,4
201,809	32,43
202,027	61,1
202,244	57
202,461	65,19
202,679	-20,82
202,896	40,62
203,113	42,67
203,331	-24,92
203,548	-55,64
203,765	16,04
203,982	71,34
204,2	-29,01
204,417	-20,82
204,634	151,21
204,851	57
205,069	-20,82
205,286	42,67
205,503	9,9
205,72	38,57
205,937	57
206,155	16,04
206,372	130,73
206,589	-63,83
206,806	57
207,023	75,43
207,24	-33,11
207,458	-61,78
207,675	-14,68
207,892	24,23
208,109	-39,25
208,326	-16,73
208,543	32,43
208,76	73,39
208,977	57
209,194	32,43
209,411	16,04
209,628	-14,68
209,845	-53,59
210,062	-6,49
210,279	-63,83
210,496	-45,4
210,713	-16,73
210,93	-82,26
211,147	175,78
211,364	34,47
211,581	-8,53
211,798	128,68
212,015	-53,59
212,232	-8,53
212,449	11,95
212,666	48,81
212,883	28,33
213,1	-33,11
213,317	-80,21
213,533	30,38
213,75	-49,49
213,967	-31,06
214,184	-98,64
214,401	-76,12
214,618	-57,68
214,835	-6,49
215,051	24,23
215,268	11,95
215,485	65,19
215,702	52,91
215,919	-69,97
216,135	124,58
216,352	20,14
216,569	73,39
216,786	-0,34
217,002	52,91
217,219	-0,34
217,436	-4,44
217,652	50,86
217,869	48,81
218,086	85,67
218,302	67,24
218,519	126,63
218,736	32,43
218,952	-98,64
219,169	-22,87
219,386	93,87
219,602	-12,63
219,819	-16,73
220,036	-39,25
220,252	61,1
220,469	-63,83
220,685	24,23
220,902	-45,4
221,118	-57,68
221,335	-69,97
221,552	-31,06
221,768	40,62
221,985	24,23
222,201	9,9
222,418	1,71
222,634	-88,4
222,851	-35,16
223,067	7,85
223,284	24,23
223,5	-8,53
223,716	44,71
223,933	71,34
224,149	-49,49
224,366	-4,44
224,582	-16,73
224,799	-51,54
225,015	30,38
225,231	-76,12
225,448	-55,64
225,664	-41,3
225,88	11,95
226,097	-29,01
226,313	-41,3
226,529	28,33
226,746	20,14
226,962	-53,59
227,178	65,19
227,395	9,9
227,611	-37,2
227,827	57
228,044	69,29
228,26	-18,77
228,476	1,71
228,692	91,82
228,909	16,04
229,125	1,71
229,341	-49,49
229,557	-55,64
229,773	-65,88
229,99	30,38
230,206	-20,82
230,422	24,23
230,638	-96,6
230,854	57
231,07	-123,22
231,286	18,09
231,503	52,91
231,719	-53,59
231,935	57
232,151	1,71
232,367	36,52
232,583	69,29
232,799	32,43
233,015	13,99
233,231	-14,68
233,447	-18,77
233,663	-31,06
233,879	-33,11
234,095	-33,11
234,311	32,43
234,527	-8,53
234,743	20,14
234,959	-0,34
235,175	-65,88
235,391	-31,06
235,607	50,86
235,823	18,09
236,039	-45,4
236,255	-69,97
236,471	7,85
236,687	40,62
236,903	-6,49
237,118	-0,34
237,334	38,57
237,55	5,8
237,766	-74,07
237,982	73,39
238,198	54,95
238,413	-26,96
238,629	20,14
238,845	-69,97
239,061	42,67
239,277	-49,49
239,492	57
239,708	59,05
239,924	-59,73
240,14	-12,63
240,355	155,3
240,571	20,14
240,787	-55,64
241,003	28,33
241,218	-63,83
241,434	16,04
241,65	59,05
241,865	24,23
242,081	57
242,297	-139,6
242,512	3,75
242,728	26,28
242,944	32,43
243,159	34,47
243,375	20,14
243,59	16,04
243,806	16,04
244,022	30,38
244,237	-49,49
244,453	-24,92
244,668	38,57
244,884	155,3
245,099	-51,54
245,315	110,25
245,53	34,47
245,746	69,29
245,961	28,33
246,177	26,28
246,392	63,15
246,608	79,53
246,823	26,28
247,039	-33,11
247,254	-29,01
247,47	65,19
247,685	-39,25
247,9	-49,49
248,116	7,85
248,331	-18,77
248,547	-4,44
248,762	-49,49
248,977	16,04
249,193	83,63
249,408	91,82
249,623	7,85
249,839	-10,58
250,054	-78,16
250,269	32,43
250,485	26,28
250,7	-33,11
250,915	59,05
251,13	46,76
251,346	57
251,561	77,48
251,776	81,58
251,991	-90,45
252,207	48,81
252,422	3,75
252,637	1,71
252,852	36,52
253,067	24,23
253,283	1,71
253,498	-29,01
253,713	-22,87
253,928	7,85
254,143	-51,54
254,358	-78,16
254,573	-8,53
254,788	-98,64
255,004	-14,68
255,219	-96,6
255,434	-61,78
255,649	-57,68
255,864	20,14
256,079	32,43
256,294	-31,06
256,509	7,85
256,724	16,04
256,939	-49,49
257,154	-16,73
257,369	1,71
257,584	44,71
257,799	-47,44
258,014	18,09
258,229	36,52
258,444	20,14
258,659	7,85
258,874	77,48
259,089	16,04
259,304	65,19
259,518	-72,02
259,733	-90,45
259,948	24,23
260,163	85,67
260,378	106,15
260,593	9,9
260,808	7,85
261,022	-123,22
261,237	-4,44
261,452	73,39
261,667	-29,01
261,882	40,62
262,096	81,58
262,311	32,43
262,526	-45,4
262,741	-2,39
262,955	-55,64
263,17	181,93
263,385	61,1
263,6	-63,83
263,814	-45,4
264,029	-80,21
264,244	42,67
264,458	59,05
264,673	52,91
264,888	89,77
265,102	69,29
265,317	-69,97
265,532	-12,63
265,746	26,28
265,961	30,38
266,175	69,29
266,39	-69,97
266,605	-22,87
266,819	16,04
267,034	-14,68
267,248	-112,98
267,463	-0,34
267,677	18,09
267,892	-14,68
268,106	-57,68
268,321	-2,39
268,535	-4,44
268,75	73,39
268,964	-63,83
269,179	-4,44
269,393	-69,97
269,608	9,9
269,822	-106,84
270,036	-115,03
270,251	34,47
270,465	-16,73
270,68	-8,53
270,894	-16,73
271,108	138,92
271,323	48,81
271,537	16,04
271,752	-2,39
271,966	-45,4
272,18	-155,99
272,394	73,39
272,609	18,09
272,823	-53,59
273,037	44,71
273,252	-0,34
273,466	-33,11
273,68	7,85
273,894	11,95
274,109	-22,87
274,323	42,67
274,537	-0,34
274,751	-63,83
274,966	-0,34
275,18	-41,3
275,394	-8,53
275,608	-72,02
275,822	-115,03
276,036	-82,26
276,25	1,71
276,465	-33,11
276,679	-39,25
276,893	-20,82
277,107	83,63
277,321	-0,34
277,535	32,43
277,749	65,19
277,963	-0,34
278,177	7,85
278,391	1,71
278,605	-90,45
278,819	110,25
279,033	-88,4
279,247	7,85
279,461	59,05
279,675	-12,63
279,889	59,05
280,103	40,62
280,317	57
280,531	-90,45
280,745	-0,34
280,959	-39,25
281,173	-37,2
281,387	79,53
281,601	81,58
281,815	-8,53
282,029	-69,97
282,242	-39,25
282,456	-14,68
282,67	7,85
282,884	-26,96
283,098	32,43
283,312	-4,44
283,525	-24,92
283,739	50,86
283,953	-33,11
284,167	54,95
284,381	26,28
284,594	59,05
284,808	-12,63
285,022	-22,87
285,235	57
285,449	16,04
285,663	-49,49
285,877	-20,82
286,09	-16,73
286,304	77,48
286,518	-72,02
286,731	-90,45
286,945	50,86
287,159	-74,07
287,372	22,19
287,586	9,9
287,799	26,28
288,013	16,04
288,227	-45,4
288,44	278,18
288,654	-72,02
288,867	57
289,081	16,04
289,294	32,43
289,508	57
289,721	50,86
289,935	-33,11
290,148	81,58
290,362	77,48
290,575	13,99
290,789	-41,3
291,002	-65,88
291,216	40,62
291,429	-72,02
291,643	-31,06
291,856	-12,63
292,069	-39,25
292,283	-49,49
292,496	3,75
292,71	-39,25
292,923	50,86
293,136	-49,49
293,35	61,1
293,563	-33,11
293,776	44,71
293,99	-0,34
294,203	42,67
294,416	57
294,63	24,23
294,843	-4,44
295,056	-37,2
295,269	89,77
295,483	-8,53
295,696	-0,34
295,909	-0,34
296,122	65,19
296,335	40,62
296,549	34,47
296,762	-0,34
296,975	-61,78
297,188	-80,21
297,401	-22,87
297,615	40,62
297,828	-24,92
298,041	143,02
298,254	-65,88
298,467	48,81
298,68	-12,63
298,893	9,9
299,106	32,43
299,319	30,38
299,532	83,63
299,745	-65,88
299,958	-47,44
300,171	-96,6
300,384	59,05
300,598	-16,73
300,81	40,62
301,023	-12,63
301,236	-10,58
301,449	81,58
301,662	-49,49
301,875	-80,21
302,088	16,04
302,301	24,23
302,514	-86,36
302,727	48,81
302,94	-74,07
303,153	7,85
303,366	-59,73
303,579	-33,11
303,791	77,48
304,004	7,85
304,217	124,58
304,43	73,39
304,643	30,38
304,855	-80,21
305,068	59,05
305,281	-33,11
305,494	3,75
305,707	1,71
305,919	112,3
306,132	11,95
306,345	69,29
306,558	50,86
306,77	-47,44
306,983	-82,26
307,196	26,28
307,408	1,71
307,621	-24,92
307,834	-16,73
308,046	-33,11
308,259	-59,73
308,472	-43,35
308,684	65,19
308,897	-22,87
309,109	-31,06
309,322	-35,16
309,535	44,71
309,747	106,15
309,96	100,01
310,172	95,91
310,385	16,04
310,597	-8,53
310,81	-4,44
311,022	-90,45
311,235	-57,68
311,447	9,9
311,66	-63,83
311,872	18,09
312,085	57
312,297	-24,92
312,51	-57,68
312,722	-96,6
312,934	24,23
313,147	-90,45
313,359	-82,26
313,572	-29,01
313,784	3,75
313,996	-41,3
314,209	155,3
314,421	-78,16
314,633	-45,4
314,846	-61,78
315,058	24,23
315,27	7,85
315,483	7,85
315,695	7,85
315,907	-24,92
316,119	-8,53
316,332	-33,11
316,544	40,62
316,756	16,04
316,968	26,28
317,181	65,19
317,393	26,28
317,605	36,52
317,817	11,95
318,029	126,63
318,241	106,15
318,454	18,09
318,666	48,81
318,878	48,81
319,09	32,43
319,302	128,68
319,514	118,44
319,726	-8,53
319,938	134,82
320,15	97,96
320,362	16,04
320,574	-16,73
320,786	22,19
320,999	13,99
321,211	77,48
321,423	81,58
321,635	-22,87
321,847	7,85
322,058	-35,16
322,27	-12,63
322,482	36,52
322,694	61,1
322,906	93,87
323,118	89,77
323,33	26,28
323,542	-8,53
323,754	-8,53
323,966	-112,98
324,178	124,58
324,389	-6,49
324,601	30,38
324,813	-14,68
325,025	-41,3
325,237	-82,26
325,449	-14,68
325,66	-61,78
325,872	-29,01
326,084	9,9
326,296	3,75
326,507	-20,82
326,719	36,52
326,931	-112,98
327,143	73,39
327,354	-8,53
327,566	-37,2
327,778	7,85
327,989	-24,92
328,201	-57,68
328,413	-14,68
328,624	11,95
328,836	9,9
329,048	-98,64
329,259	-20,82
329,471	40,62
329,682	-65,88
329,894	40,62
330,106	-110,93
330,317	24,23
330,529	44,71
330,74	-22,87
330,952	-22,87
331,163	-39,25
331,375	73,39
331,586	-6,49
331,798	32,43
332,009	-4,44
332,221	13,99
332,432	46,76
332,644	-0,34
332,855	-143,7
333,067	-16,73
333,278	-18,77
333,489	48,81
333,701	-90,45
333,912	-55,64
334,124	-24,92
334,335	-29,01
334,546	-96,6
334,758	69,29
334,969	206,5
335,18	-29,01
335,392	20,14
335,603	-14,68
335,814	26,28
336,025	52,91
336,237	16,04
336,448	-61,78
336,659	-41,3
336,87	28,33
337,082	61,1
337,293	1,71
337,504	26,28
337,715	-53,59
337,926	-55,64
338,138	-12,63
338,349	40,62
338,56	24,23
338,771	30,38
338,982	40,62
339,193	20,14
339,404	155,3
339,616	48,81
339,827	-6,49
340,038	-65,88
340,249	-0,34
340,46	-33,11
340,671	91,82
340,882	171,69
341,093	52,91
341,304	-65,88
341,515	-53,59
341,726	-16,73
341,937	-29,01
342,148	95,91
342,359	-53,59
342,57	-37,2
342,781	57
342,992	-49,49
343,203	-16,73
343,414	-20,82
343,624	-63,83
343,835	16,04
344,046	42,67
344,257	9,9
344,468	-8,53
344,679	-69,97
344,89	-31,06
345,1	-53,59
345,311	-53,59
345,522	-24,92
345,733	-24,92
345,944	-78,16
346,154	3,75
346,365	40,62
346,576	20,14
346,787	-57,68
346,997	32,43
347,208	73,39
347,419	-90,45
347,629	91,82
347,84	89,77
348,051	-16,73
348,261	20,14
348,472	-18,77
348,683	30,38
348,893	9,9
349,104	32,43
349,315	-6,49
349,525	-14,68
349,736	16,04
349,946	-39,25
350,157	134,82
350,368	44,71
350,578	-90,45
350,789	16,04
350,999	-53,59
351,21	-0,34
351,42	11,95
351,631	-33,11
351,841	-90,45
352,052	59,05
352,262	-33,11
352,472	-29,01
352,683	-53,59
352,893	-92,5
353,104	-80,21
353,314	69,29
353,525	456,36
353,735	28,33
353,945	16,04
354,156	-123,22
354,366	-6,49
354,576	52,91
354,787	-41,3
354,997	-53,59
355,207	-37,2
355,418	-29,01
355,628	-31,06
355,838	-22,87
356,048	52,91
356,259	114,34
356,469	1,71
356,679	1,71
356,889	40,62
357,1	-135,51
357,31	-41,3
357,52	-2,39
357,73	-57,68
357,94	18,09
358,15	-24,92
358,361	28,33
358,571	16,04
358,781	1,71
358,991	-112,98
359,201	-49,49
359,411	-63,83
359,621	-0,34
359,831	30,38
360,041	-26,96
360,251	-6,49
360,461	32,43
360,672	63,15
360,882	-39,25
361,092	-24,92
361,302	67,24
361,512	32,43
361,721	16,04
361,931	34,47
362,141	28,33
362,351	-57,68
362,561	28,33
362,771	-31,06
362,981	57
363,191	7,85
363,401	30,38
363,611	11,95
363,821	48,81
364,03	1,71
364,24	28,33
364,45	20,14
364,66	157,35
364,87	24,23
365,08	26,28
365,289	-6,49
365,499	32,43
365,709	26,28
365,919	-24,92
366,128	-29,01
366,338	34,47
366,548	-82,26
366,758	7,85
366,967	-63,83
367,177	52,91
367,387	-20,82
367,596	-6,49
367,806	3,75
368,016	-39,25
368,225	34,47
368,435	89,77
368,644	36,52
368,854	-51,54
369,064	69,29
369,273	-8,53
369,483	-14,68
369,692	-2,39
369,902	-16,73
370,111	52,91
370,321	-63,83
370,53	85,67
370,74	-49,49
370,949	57
371,159	85,67
371,368	54,95
371,578	38,57
371,787	-4,44
371,997	-16,73
372,206	-6,49
372,416	75,43
372,625	59,05
372,834	-18,77
373,044	18,09
373,253	-37,2
373,462	75,43
373,672	-61,78
373,881	42,67
374,09	40,62
374,3	32,43
374,509	34,47
374,718	-43,35
374,928	71,34
375,137	54,95
375,346	-6,49
375,555	97,96
375,765	-98,64
375,974	48,81
376,183	42,67
376,392	7,85
376,601	-0,34
376,811	40,62
377,02	114,34
377,229	11,95
377,438	77,48
377,647	-39,25
377,856	-96,6
378,065	16,04
378,275	-24,92
378,484	-88,4
378,693	20,14
378,902	46,76
379,111	18,09
379,32	-16,73
379,529	-53,59
379,738	-4,44
379,947	-35,16
380,156	40,62
380,365	16,04
380,574	149,16
380,783	-65,88
380,992	102,06
381,201	7,85
381,41	-49,49
381,619	-33,11
381,828	67,24
382,037	67,24
382,245	116,39
382,454	65,19
382,663	28,33
382,872	65,19
383,081	85,67
383,29	122,54
383,499	57
383,707	155,3
383,916	24,23
384,125	40,62
384,334	24,23
384,542	114,34
384,751	32,43
384,96	16,04
385,169	-31,06
385,377	32,43
385,586	-22,87
385,795	9,9
386,004	71,34
386,212	18,09
386,421	100,01
386,63	362,15
386,838	757,41
387,047	1113,75
387,255	1787,54
387,464	2707,07
387,673	3464,82
387,881	4464,23
388,09	5340,76
388,298	6004,3
388,507	7571
388,715	9242,14
388,924	10249,74
389,133	9831,96
389,341	9465,37
389,55	8373,8
389,758	6315,59
389,967	4222,57
390,175	2682,5
390,383	2178,7
390,592	1625,75
390,8	1097,37
391,009	763,55
391,217	489,12
391,426	302,76
391,634	59,05
391,842	-2,39
392,051	9,9
392,259	52,91
392,467	40,62
392,676	-29,01
392,884	20,14
393,092	16,04
393,301	110,25
393,509	-37,2
393,717	130,73
393,925	1,71
394,134	-24,92
394,342	63,15
394,55	110,25
394,758	57
394,967	63,15
395,175	3,75
395,383	52,91
395,591	42,67
395,799	175,78
396,007	36,52
396,216	245,41
396,424	147,11
396,632	190,12
396,84	134,82
397,048	151,21
397,256	181,93
397,464	57
397,672	46,76
397,88	-41,3
398,088	32,43
398,296	-41,3
398,504	-0,34
398,712	-33,11
398,92	-49,49
399,128	16,04
399,336	-47,44
399,544	52,91
399,752	-18,77
399,96	73,39
400,168	18,09
400,376	-31,06
400,584	95,91
400,792	24,23
401	50,86
401,207	46,76
401,415	124,58
401,623	183,98
401,831	229,03
402,039	224,94
402,247	233,13
402,454	403,11
402,662	427,68
402,87	411,3
403,078	497,32
403,285	306,85
403,493	220,84
403,701	163,5
403,909	122,54
404,116	163,5
404,324	38,57
404,532	63,15
404,739	-12,63
404,947	40,62
405,155	-12,63
405,362	89,77
405,57	65,19
405,778	-14,68
405,985	26,28
406,193	-57,68
406,4	-49,49
406,608	63,15
406,816	-29,01
407,023	-6,49
407,231	-29,01
407,438	85,67
407,646	24,23
407,853	-0,34
408,061	34,47
408,268	-8,53
408,476	-33,11
408,683	69,29
408,89	116,39
409,098	61,1
409,305	13,99
409,513	-24,92
409,72	24,23
409,927	-8,53
410,135	147,11
410,342	-45,4
410,55	81,58
410,757	-16,73
410,964	-82,26
411,172	73,39
411,379	77,48
411,586	42,67
411,793	-39,25
412,001	57
412,208	57
412,415	52,91
412,622	134,82
412,83	40,62
413,037	102,06
413,244	-24,92
413,451	114,34
413,658	50,86
413,866	61,1
414,073	71,34
414,28	97,96
414,487	-29,01
414,694	52,91
414,901	16,04
415,108	40,62
415,315	50,86
415,522	24,23
415,73	-4,44
415,937	16,04
416,144	-82,26
416,351	44,71
416,558	18,09
416,765	-6,49
416,972	-129,36
417,179	-39,25
417,386	32,43
417,593	91,82
417,8	-41,3
418,006	7,85
418,213	7,85
418,42	59,05
418,627	40,62
418,834	-45,4
419,041	-29,01
419,248	-45,4
419,455	48,81
419,661	-39,25
419,868	26,28
420,075	20,14
420,282	-74,07
420,489	-59,73
420,696	-98,64
420,902	32,43
421,109	44,71
421,316	32,43
421,523	-16,73
421,729	9,9
421,936	-8,53
422,143	116,39
422,349	65,19
422,556	-49,49
422,763	11,95
422,969	-45,4
423,176	-65,88
423,383	50,86
423,589	294,57
423,796	48,81
424,002	-57,68
424,209	52,91
424,416	-76,12
424,622	-49,49
424,829	-80,21
425,035	-137,56
425,242	106,15
425,448	-41,3
425,655	20,14
425,861	30,38
426,068	-29,01
426,274	71,34
426,481	18,09
426,687	89,77
426,894	65,19
427,1	-24,92
427,306	-33,11
427,513	22,19
427,719	24,23
427,926	81,58
428,132	50,86
428,338	-65,88
428,545	83,63
428,751	-4,44
428,957	57
429,163	-31,06
429,37	48,81
429,576	-14,68
429,782	1,71
429,989	-59,73
430,195	16,04
430,401	63,15
430,607	-98,64
430,813	-2,39
431,02	-6,49
431,226	5,8
431,432	24,23
431,638	57
431,844	-104,79
432,05	-14,68
432,257	-16,73
432,463	81,58
432,669	-57,68
432,875	-4,44
433,081	-121,17
433,287	-14,68
433,493	-86,36
433,699	73,39
433,905	16,04
434,111	-74,07
434,317	-12,63
434,523	57
434,729	-20,82
434,935	-39,25
435,141	73,39
435,347	-10,58
435,553	11,95
435,759	20,14
435,965	18,09
436,171	100,01
436,377	108,2
436,582	52,91
436,788	-63,83
436,994	75,43
437,2	18,09
437,406	50,86
437,612	81,58
437,818	40,62
438,023	-72,02
438,229	194,22
438,435	122,54
438,641	30,38
438,846	155,3
439,052	173,74
439,258	188,07
439,464	24,23
439,669	89,77
439,875	167,59
440,081	134,82
440,286	-106,84
440,492	48,81
440,698	7,85
440,903	-8,53
441,109	91,82
441,314	16,04
441,52	-33,11
441,726	18,09
441,931	69,29
442,137	97,96
442,342	18,09
442,548	79,53
442,753	100,01
442,959	-65,88
443,164	42,67
443,37	7,85
443,575	67,24
443,781	-31,06
443,986	75,43
444,192	42,67
444,397	57
444,602	7,85
444,808	-35,16
445,013	50,86
445,219	157,35
445,424	466,6
445,629	605,86
445,835	966,3
446,04	1244,82
446,245	1474,2
446,451	1752,72
446,656	2115,21
446,861	2475,65
447,066	2942,59
447,272	3122,81
447,477	3325,56
447,682	2854,53
447,887	2410,12
448,093	2207,37
448,298	1576,59
448,503	982,68
448,708	681,63
448,913	403,11
449,118	319,14
449,324	183,98
449,529	155,3
449,734	59,05
449,939	-16,73
450,144	89,77
450,349	52,91
450,554	-31,06
450,759	20,14
450,964	-49,49
451,169	40,62
451,374	-24,92
451,579	24,23
451,784	-33,11
451,989	-33,11
452,194	42,67
452,399	16,04
452,604	16,04
452,809	-45,4
453,014	3,75
453,219	3,75
453,424	36,52
453,629	-57,68
453,833	-37,2
454,038	40,62
454,243	-26,96
454,448	24,23
454,653	108,2
454,858	-4,44
455,062	7,85
455,267	-72,02
455,472	122,54
455,677	57
455,882	-49,49
456,086	87,72
456,291	3,75
456,496	-82,26
456,7	-14,68
456,905	20,14
457,11	57
457,314	-8,53
457,519	-112,98
457,724	-63,83
457,928	9,9
458,133	-57,68
458,338	5,8
458,542	-20,82
458,747	-41,3
458,951	-29,01
459,156	57
459,36	-35,16
459,565	7,85
459,769	-37,2
459,974	-0,34
460,178	-37,2
460,383	-57,68
460,587	-55,64
460,792	44,71
460,996	-47,44
461,201	-61,78
461,405	24,23
461,61	-10,58
461,814	32,43
462,018	-155,99
462,223	24,23
462,427	-24,92
462,631	-8,53
462,836	83,63
463,04	-18,77
463,244	120,49
463,449	7,85
463,653	188,07
463,857	24,23
464,062	57
464,266	-8,53
464,47	-55,64
464,674	106,15
464,878	130,73
465,083	-24,92
465,287	73,39
465,491	9,9
465,695	73,39
465,899	-22,87
466,104	20,14
466,308	40,62
466,512	50,86
466,716	81,58
466,92	24,23
467,124	65,19
467,328	-22,87
467,532	128,68
467,736	-8,53
467,94	81,58
468,144	42,67
468,348	48,81
468,552	108,2
468,756	34,47
468,96	89,77
469,164	-65,88
469,368	16,04
469,572	85,67
469,776	122,54
469,98	263,85
470,184	298,66
470,388	411,3
470,591	386,72
470,795	573,09
470,999	657,06
471,203	640,67
471,407	781,98
471,611	736,93
471,814	702,11
472,018	523,94
472,222	566,95
472,426	474,79
472,63	360,1
472,833	229,03
473,037	249,51
473,241	65,19
473,444	28,33
473,648	566,95
473,852	-12,63
474,055	-33,11
474,259	48,81
474,463	108,2
474,666	59,05
474,87	24,23
475,074	32,43
475,277	69,29
475,481	73,39
475,684	-43,35
475,888	-16,73
476,091	-20,82
476,295	-24,92
476,498	-49,49
476,702	73,39
476,905	54,95
477,109	28,33
477,312	46,76
477,516	-12,63
477,719	16,04
477,923	-0,34
478,126	24,23
478,329	9,9
478,533	11,95
478,736	44,71
478,94	-47,44
479,143	-24,92
479,346	50,86
479,55	93,87
479,753	18,09
479,956	-74,07
480,159	-108,88
480,363	81,58
480,566	-4,44
480,769	-6,49
480,972	7,85
481,176	-47,44
481,379	83,63
481,582	106,15
481,785	-45,4
481,988	44,71
482,192	65,19
482,395	-37,2
482,598	11,95
482,801	20,14
483,004	112,3
483,207	-16,73
483,41	-6,49
483,613	52,91
483,817	18,09
484,02	-20,82
484,223	-16,73
484,426	-16,73
484,629	-20,82
484,832	54,95
485,035	30,38
485,238	48,81
485,441	1,71
485,644	65,19
485,846	93,87
486,049	-35,16
486,252	-69,97
486,455	-106,84
486,658	18,09
486,861	52,91
487,064	-6,49
487,267	-61,78
487,47	9,9
487,672	-0,34
487,875	7,85
488,078	38,57
488,281	44,71
488,484	87,72
488,686	-8,53
488,889	-22,87
489,092	9,9
489,295	83,63
489,497	89,77
489,7	-10,58
489,903	-0,34
490,105	18,09
490,308	34,47
490,511	196,26
490,713	280,23
490,916	368,29
491,118	548,51
491,321	706,21
491,524	732,83
491,726	1050,27
491,929	1126,04
492,131	1382,04
492,334	1345,17
492,536	1384,09
492,739	1306,26
492,941	1236,63
493,144	1056,41
493,346	908,96
493,549	599,71
493,751	392,87
493,954	278,18
494,156	188,07
494,359	81,58
494,561	-24,92
494,763	81,58
494,966	81,58
495,168	100,01
495,37	-74,07
495,573	7,85
495,775	24,23
495,977	57
496,18	75,43
496,382	65,19
496,584	-65,88
496,787	110,25
496,989	-37,2
497,191	-16,73
497,393	138,92
497,595	-55,64
497,798	34,47
498	7,85
498,202	7,85
498,404	28,33
498,606	-31,06
498,808	112,3
499,011	97,96
499,213	73,39
499,415	57
499,617	192,17
499,819	456,36
500,021	794,27
500,223	1070,75
500,425	1519,25
500,627	2137,74
500,829	2612,87
501,031	3194,49
501,233	3612,28
501,435	4136,56
501,637	4654,69
501,839	4662,88
502,041	4593,25
502,243	4392,55
502,445	3720,82
502,647	2926,21
502,848	2332,3
503,05	1703,57
503,252	1253,02
503,454	884,38
503,656	474,79
503,858	382,63
504,059	247,46
504,261	278,18
504,463	319,14
504,665	237,22
504,867	212,65
505,068	212,65
505,27	300,71
505,472	255,65
505,673	231,08
505,875	79,53
506,077	59,05
506,278	89,77
506,48	24,23
506,682	77,48
506,883	91,82
507,085	-16,73
507,287	-33,11
507,488	48,81
507,69	65,19
507,891	-8,53
508,093	75,43
508,294	-33,11
508,496	-31,06
508,697	-63,83
508,899	-41,3
509,1	20,14
509,302	108,2
509,503	-20,82
509,705	5,8
509,906	30,38
510,108	16,04
510,309	9,9
510,51	-6,49
510,712	-14,68
510,913	-39,25
511,114	3,75
511,316	-110,93
511,517	-6,49
511,718	-57,68
511,92	30,38
512,121	48,81
512,322	-22,87
512,524	83,63
512,725	75,43
512,926	67,24
513,127	-14,68
513,329	50,86
513,53	-14,68
513,731	81,58
513,932	-16,73
514,133	-24,92
514,334	-61,78
514,536	-31,06
514,737	-20,82
514,938	-0,34
515,139	-16,73
515,34	-98,64
515,541	54,95
515,742	-53,59
515,943	85,67
516,144	75,43
516,345	65,19
516,546	34,47
516,747	-20,82
516,948	-37,2
517,149	9,9
517,35	-80,21
517,551	16,04
517,752	-4,44
517,953	46,76
518,154	-2,39
518,355	48,81
518,556	-31,06
518,756	-49,49
518,957	-4,44
519,158	59,05
519,359	54,95
519,56	59,05
519,761	126,63
519,961	57
520,162	138,92
520,363	-90,45
520,564	-49,49
520,764	100,01
520,965	40,62
521,166	67,24
521,366	7,85
521,567	93,87
521,768	73,39
521,968	-0,34
522,169	-29,01
522,37	7,85
522,57	-4,44
522,771	5,8
522,972	-74,07
523,172	147,11
523,373	16,04
523,573	-24,92
523,774	32,43
523,974	83,63
524,175	-6,49
524,375	61,1
524,576	-57,68
524,776	40,62
524,977	7,85
525,177	83,63
525,378	24,23
525,578	108,2
525,778	-22,87
525,979	-12,63
526,179	-41,3
526,38	65,19
526,58	-49,49
526,78	-41,3
526,981	77,48
527,181	42,67
527,381	24,23
527,582	22,19
527,782	50,86
527,982	63,15
528,182	46,76
528,383	1,71
528,583	-6,49
528,783	114,34
528,983	93,87
529,183	-33,11
529,384	73,39
529,584	57
529,784	134,82
529,984	65,19
530,184	34,47
530,384	-39,25
530,584	-57,68
530,784	52,91
530,984	7,85
531,185	34,47
531,385	16,04
531,585	73,39
531,785	102,06
531,985	1,71
532,185	48,81
532,385	26,28
532,585	-57,68
532,785	24,23
532,984	65,19
533,184	52,91
533,384	-41,3
533,584	-110,93
533,784	-33,11
533,984	32,43
534,184	-57,68
534,384	-4,44
534,583	61,1
534,783	-43,35
534,983	-2,39
535,183	-67,92
535,383	-63,83
535,582	42,67
535,782	11,95
535,982	38,57
536,182	-16,73
536,381	48,81
536,581	-24,92
536,781	9,9
536,98	3,75
537,18	61,1
537,38	36,52
537,579	1,71
537,779	-61,78
537,979	-8,53
538,178	-67,92
538,378	79,53
538,577	-24,92
538,777	-82,26
538,976	42,67
539,176	61,1
539,376	-74,07
539,575	18,09
539,774	73,39
539,974	-69,97
540,173	-0,34
540,373	-49,49
540,572	-96,6
540,772	67,24
540,971	-72,02
541,171	87,72
541,37	-57,68
541,569	52,91
541,769	75,43
541,968	3,75
542,167	32,43
542,367	26,28
542,566	-90,45
542,765	-45,4
542,965	16,04
543,164	81,58
543,363	-33,11
543,562	9,9
543,761	-0,34
543,961	73,39
544,16	-123,22
544,359	26,28
544,558	42,67
544,757	-14,68
544,957	40,62
545,156	91,82
545,355	-65,88
545,554	32,43
545,753	-98,64
545,952	40,62
546,151	28,33
546,35	-10,58
546,549	-16,73
546,748	40,62
546,947	24,23
547,146	-16,73
547,345	-4,44
547,544	-35,16
547,743	-69,97
547,942	-12,63
548,141	34,47
548,34	89,77
548,539	-14,68
548,738	48,81
548,937	61,1
549,135	106,15
549,334	-12,63
549,533	32,43
549,732	16,04
549,931	81,58
550,13	-65,88
550,328	20,14
550,527	-39,25
550,726	48,81
550,925	-55,64
551,123	89,77
551,322	-24,92
551,521	81,58
551,72	24,23
551,918	40,62
552,117	1,71
552,315	-0,34
552,514	7,85
552,713	32,43
552,911	26,28
553,11	-162,13
553,309	32,43
553,507	-26,96
553,706	-24,92
553,904	81,58
554,103	54,95
554,301	20,14
554,5	-12,63
554,698	24,23
554,897	32,43
555,095	-20,82
555,294	-74,07
555,492	1,71
555,69	89,77
555,889	-74,07
556,087	83,63
556,286	108,2
556,484	34,47
556,682	-12,63
556,881	28,33
557,079	50,86
557,277	9,9
557,476	52,91
557,674	-65,88
557,872	11,95
558,07	34,47
558,269	-8,53
558,467	77,48
558,665	7,85
558,863	-24,92
559,062	40,62
559,26	-6,49
559,458	1,71
559,656	93,87
559,854	-16,73
560,052	73,39
560,25	24,23
560,449	331,43
560,647	36,52
560,845	24,23
561,043	52,91
561,241	85,67
561,439	81,58
561,637	-37,2
561,835	16,04
562,033	163,5
562,231	34,47
562,429	-61,78
562,627	32,43
562,825	-43,35
563,023	50,86
563,221	-47,44
563,418	-4,44
563,616	97,96
563,814	130,73
564,012	7,85
564,21	28,33
564,408	-16,73
564,605	36,52
564,803	32,43
565,001	257,7
565,199	-24,92
565,397	26,28
565,594	85,67
565,792	59,05
565,99	42,67
566,188	69,29
566,385	75,43
566,583	18,09
566,781	-22,87
566,978	50,86
567,176	132,78
567,373	3,75
567,571	114,34
567,769	22,19
567,966	-74,07
568,164	65,19
568,361	-47,44
568,559	89,77
568,756	-10,58
568,954	89,77
569,151	48,81
569,349	118,44
569,546	20,14
569,744	83,63
569,941	69,29
570,139	24,23
570,336	46,76
570,534	83,63
570,731	44,71
570,928	26,28
571,126	128,68
571,323	138,92
571,52	-0,34
571,718	42,67
571,915	149,16
572,112	-86,36
572,31	32,43
572,507	77,48
572,704	59,05
572,901	81,58
573,099	-18,77
573,296	136,87
573,493	-12,63
573,69	-16,73
573,887	32,43
574,085	173,74
574,282	50,86
574,479	59,05
574,676	114,34
574,873	106,15
575,07	93,87
575,267	-55,64
575,464	59,05
575,661	155,3
575,858	7,85
576,055	73,39
576,252	83,63
576,449	1,71
576,646	61,1
576,843	-10,58
577,04	81,58
577,237	157,35
577,434	130,73
577,631	108,2
577,828	188,07
578,025	22,19
578,222	42,67
578,419	52,91
578,615	95,91
578,812	-0,34
579,009	102,06
579,206	22,19
579,403	106,15
579,599	179,88
579,796	42,67
579,993	157,35
580,19	48,81
580,386	108,2
580,583	75,43
580,78	-41,3
580,976	130,73
581,173	108,2
581,37	132,78
581,566	163,5
581,763	61,1
581,96	40,62
582,156	114,34
582,353	143,02
582,549	171,69
582,746	151,21
582,942	65,19
583,139	220,84
583,335	155,3
583,532	147,11
583,728	93,87
583,925	171,69
584,121	163,5
584,318	204,46
584,514	212,65
584,711	175,78
584,907	325,29
585,103	239,27
585,3	378,53
585,496	499,36
585,693	1064,6
585,889	3550,84
586,085	7405,11
586,281	13254,11
586,478	19768,7
586,674	26713,36
586,87	35355,79
587,067	43154,46
587,263	48235,47
587,459	51858,32
587,655	55423,84
587,851	56085,33
588,048	54422,38
588,244	51319,71
588,44	47936,46
588,636	42425,38
588,832	36113,54
589,028	29762,79
589,224	24460,6
589,42	19328,39
589,617	14108,12
589,813	9059,87
590,009	5594,71
590,205	3532,4
590,401	2160,27
590,597	1287,83
590,793	1074,84
590,989	704,16
591,185	560,8
591,38	425,64
591,576	302,76
591,772	304,81
591,968	245,41
592,164	306,85
592,36	212,65
592,556	161,45
592,752	208,55
592,948	169,64
593,143	50,86
593,339	102,06
593,535	128,68
593,731	132,78
593,926	167,59
594,122	69,29
594,318	83,63
594,514	171,69
594,709	7,85
594,905	122,54
595,101	79,53
595,296	3,75
595,492	95,91
595,688	67,24
595,883	106,15
596,079	73,39
596,275	77,48
596,47	36,52
596,666	32,43
596,861	54,95
597,057	-20,82
597,252	9,9
597,448	67,24
597,643	132,78
597,839	167,59
598,034	48,81
598,23	11,95
598,425	52,91
598,621	52,91
598,816	75,43
599,011	77,48
599,207	44,71
599,402	42,67
599,597	91,82
599,793	28,33
599,988	7,85
600,183	1,71
600,379	13,99
600,574	61,1
600,769	40,62
600,965	28,33
601,16	59,05
601,355	3,75
601,55	81,58
601,745	7,85
601,941	114,34
602,136	77,48
602,331	57
602,526	44,71
602,721	44,71
602,916	-0,34
603,111	59,05
603,307	97,96
603,502	-4,44
603,697	44,71
603,892	57
604,087	97,96
604,282	122,54
604,477	91,82
604,672	114,34
604,867	38,57
605,062	52,91
605,257	44,71
605,452	130,73
605,646	122,54
605,841	89,77
606,036	40,62
606,231	-20,82
606,426	7,85
606,621	24,23
606,816	32,43
607,01	138,92
607,205	116,39
607,4	3,75
607,595	102,06
607,79	-22,87
607,984	54,95
608,179	48,81
608,374	81,58
608,569	-26,96
608,763	-33,11
608,958	28,33
609,153	24,23
609,347	79,53
609,542	1,71
609,736	85,67
609,931	11,95
610,126	44,71
610,32	120,49
610,515	28,33
610,709	286,37
610,904	48,81
611,098	24,23
611,293	-33,11
611,487	-6,49
611,682	13,99
611,876	24,23
612,071	40,62
612,265	104,11
612,46	-41,3
612,654	65,19
612,848	-16,73
613,043	-16,73
613,237	-8,53
613,432	7,85
613,626	18,09
613,82	16,04
614,014	48,81
614,209	73,39
614,403	-74,07
614,597	40,62
614,792	73,39
614,986	42,67
615,18	83,63
615,374	50,86
615,568	114,34
615,763	32,43
615,957	59,05
616,151	40,62
616,345	106,15
616,539	7,85
616,733	24,23
616,927	61,1
617,121	-16,73
617,316	73,39
617,51	97,96
617,704	75,43
617,898	124,58
618,092	5,8
618,286	59,05
618,48	40,62
618,674	130,73
618,868	140,97
619,061	16,04
619,255	114,34
619,449	18,09
619,643	57
619,837	91,82
620,031	13,99
620,225	114,34
620,419	-53,59
620,612	42,67
620,806	42,67
621	104,11
621,194	-22,87
621,388	50,86
621,581	32,43
621,775	63,15
621,969	112,3
622,162	16,04
622,356	-26,96
622,55	-8,53
622,743	-24,92
622,937	24,23
623,131	16,04
623,324	155,3
623,518	26,28
623,712	-31,06
623,905	-20,82
624,099	81,58
624,292	48,81
624,486	-12,63
624,679	1,71
624,873	57
625,066	-0,34
625,26	38,57
625,453	-29,01
625,647	-29,01
625,84	34,47
626,034	124,58
626,227	-6,49
626,42	57
626,614	75,43
626,807	169,64
627	9,9
627,194	75,43
627,387	73,39
627,58	-0,34
627,774	24,23
627,967	44,71
628,16	20,14
628,353	116,39
628,547	16,04
628,74	114,34
628,933	-41,3
629,126	108,2
629,319	48,81
629,513	11,95
629,706	-33,11
629,899	36,52
630,092	75,43
630,285	-74,07
630,478	-35,16
630,671	26,28
630,864	38,57
631,057	61,1
631,25	50,86
631,443	46,76
631,636	-14,68
631,829	85,67
632,022	40,62
632,215	65,19
632,408	73,39
632,601	81,58
632,794	24,23
632,987	36,52
633,18	81,58
633,373	-16,73
633,566	16,04
633,758	-63,83
633,951	34,47
634,144	3,75
634,337	16,04
634,53	77,48
634,722	38,57
634,915	1,71
635,108	-31,06
635,301	81,58
635,493	42,67
635,686	112,3
635,879	7,85
636,071	-74,07
636,264	81,58
636,457	110,25
636,649	-65,88
636,842	106,15
637,034	89,77
637,227	69,29
637,42	89,77
637,612	-47,44
637,805	-33,11
637,997	83,63
638,19	59,05
638,382	-24,92
638,575	32,43
638,767	-8,53
638,96	108,2
639,152	73,39
639,344	122,54
639,537	-74,07
639,729	57
639,922	89,77
640,114	-33,11
640,306	40,62
640,499	155,3
640,691	18,09
640,883	24,23
641,075	73,39
641,268	100,01
641,46	91,82
641,652	9,9
641,844	40,62
642,037	100,01
642,229	42,67
642,421	65,19
642,613	-8,53
642,805	24,23
642,998	42,67
643,19	46,76
643,382	124,58
643,574	89,77
643,766	-14,68
643,958	9,9
644,15	108,2
644,342	91,82
644,534	50,86
644,726	-57,68
644,918	97,96
645,11	-0,34
645,302	69,29
645,494	97,96
645,686	1,71
645,878	28,33
646,07	36,52
646,262	28,33
646,453	-47,44
646,645	-31,06
646,837	83,63
647,029	-65,88
647,221	28,33
647,413	34,47
647,604	16,04
647,796	26,28
647,988	-0,34
648,18	59,05
648,371	-59,73
648,563	16,04
648,755	18,09
648,947	-63,83
649,138	42,67
649,33	122,54
649,521	18,09
649,713	42,67
649,905	-4,44
650,096	65,19
650,288	61,1
650,479	-63,83
650,671	7,85
650,863	16,04
651,054	-61,78
651,246	65,19
651,437	-29,01
651,629	65,19
651,82	50,86
652,011	73,39
652,203	7,85
652,394	100,01
652,586	7,85
652,777	36,52
652,968	93,87
653,16	7,85
653,351	24,23
653,542	132,78
653,734	61,1
653,925	-0,34
654,116	30,38
654,308	71,34
654,499	28,33
654,69	32,43
654,881	97,96
655,073	24,23
655,264	48,81
655,455	34,47
655,646	24,23
655,837	42,67
656,028	130,73
656,219	-35,16
656,411	16,04
656,602	73,39
656,793	-16,73
656,984	130,73
657,175	34,47
657,366	57
657,557	81,58
657,748	83,63
657,939	24,23
658,13	-24,92
658,321	83,63
658,512	32,43
658,703	91,82
658,894	50,86
659,084	50,86
659,275	52,91
659,466	104,11
659,657	151,21
659,848	57
660,039	59,05
660,23	9,9
660,42	26,28
660,611	18,09
660,802	44,71
660,993	81,58
661,183	16,04
661,374	34,47
661,565	102,06
661,755	28,33
661,946	97,96
662,137	89,77
662,327	-4,44
662,518	112,3
662,709	-4,44
662,899	36,52
663,09	73,39
663,28	22,19
663,471	40,62
663,662	171,69
663,852	122,54
664,043	42,67
664,233	26,28
664,424	16,04
664,614	73,39
664,804	48,81
664,995	93,87
665,185	114,34
665,376	-33,11
665,566	77,48
665,756	50,86
665,947	26,28
666,137	235,18
666,328	990,88
666,518	1998,48
666,708	3247,74
666,898	4996,7
667,089	6833,73
667,279	8703,53
667,469	10192,4
667,659	11001,35
667,85	11271,68
668,04	11494,91
668,23	10874,37
668,42	10444,3
668,61	9743,89
668,8	8998,43
668,991	8136,24
669,181	6798,91
669,371	5748,31
669,561	5176,92
669,751	4316,78
669,941	3563,12
670,131	2735,74
670,321	1934,99
670,511	1318,55
670,701	900,76
670,891	528,03
671,081	380,58
671,271	278,18
671,461	128,68
671,651	249,51
671,841	177,83
672,03	147,11
672,22	67,24
672,41	212,65
672,6	122,54
672,79	81,58
672,98	48,81
673,169	77,48
673,359	16,04
673,549	40,62
673,739	-47,44
673,928	75,43
674,118	18,09
674,308	-33,11
674,497	134,82
674,687	-55,64
674,877	85,67
675,066	1,71
675,256	-49,49
675,446	106,15
675,635	24,23
675,825	-57,68
676,014	42,67
676,204	-39,25
676,393	42,67
676,583	102,06
676,772	85,67
676,962	28,33
677,151	48,81
677,341	40,62
677,53	-24,92
677,72	26,28
677,909	77,48
678,099	-49,49
678,288	18,09
678,477	50,86
678,667	26,28
678,856	118,44
679,045	81,58
679,235	79,53
679,424	3,75
679,613	75,43
679,802	120,49
679,992	-24,92
680,181	1,71
680,37	106,15
680,559	44,71
680,748	81,58
680,938	13,99
681,127	9,9
681,316	57
681,505	9,9
681,694	3,75
681,883	67,24
682,072	32,43
682,261	57
682,45	-49,49
682,639	-41,3
682,828	1,71
683,017	114,34
683,206	-16,73
683,395	26,28
683,584	42,67
683,773	18,09
683,962	7,85
684,151	-20,82
684,34	67,24
684,529	7,85
684,718	-6,49
684,907	-78,16
685,095	48,81
685,284	77,48
685,473	9,9
685,662	-65,88
685,851	42,67
686,039	52,91
686,228	-12,63
686,417	40,62
686,606	89,77
686,794	97,96
686,983	-63,83
687,172	69,29
687,36	50,86
687,549	-119,12
687,738	-12,63
687,926	50,86
688,115	30,38
688,303	57
688,492	24,23
688,68	-65,88
688,869	-14,68
689,057	-14,68
689,246	-0,34
689,434	65,19
689,623	-2,39
689,811	77,48
690	-51,54
690,188	32,43
690,377	13,99
690,565	81,58
690,753	59,05
690,942	97,96
691,13	69,29
691,318	30,38
691,507	59,05
691,695	-2,39
691,883	44,71
692,072	-39,25
692,26	110,25
692,448	16,04
692,636	59,05
692,824	26,28
693,013	18,09
693,201	-65,88
693,389	-41,3
693,577	126,63
693,765	36,52
693,953	-39,25
694,141	1,71
694,329	-45,4
694,518	81,58
694,706	42,67
694,894	-16,73
695,082	11,95
695,27	65,19
695,458	48,81
695,646	65,19
695,834	100,01
696,022	48,81
696,209	161,45
696,397	91,82
696,585	18,09
696,773	-55,64
696,961	89,77
697,149	34,47
697,337	32,43
697,525	40,62
697,712	-4,44
697,9	-12,63
698,088	16,04
698,276	77,48
698,463	18,09
698,651	75,43
698,839	59,05
699,027	71,34
699,214	100,01
699,402	48,81
699,59	-24,92
699,777	30,38
699,965	75,43
700,152	-74,07
700,34	-41,3
700,528	-82,26
700,715	-47,44
700,903	40,62
701,09	65,19
701,278	-57,68
701,465	34,47
701,653	34,47
701,84	-6,49
702,028	120,49
702,215	100,01
702,402	40,62
702,59	87,72
702,777	48,81
702,965	116,39
703,152	85,67
703,339	116,39
703,527	61,1
703,714	-4,44
703,901	65,19
704,088	91,82
704,276	67,24
704,463	138,92
704,65	179,88
704,837	282,28
705,025	779,93
705,212	2557,57
705,399	5520,98
705,586	8443,43
705,773	11849,21
705,96	15599,04
706,147	18380,18
706,335	19983,74
706,522	21120,36
706,709	21112,17
706,896	20641,14
707,083	19299,72
707,27	18136,47
707,457	16442,8
707,644	14982,6
707,831	13106,66
708,018	11283,97
708,205	9928,21
708,392	8390,19
708,578	7069,25
708,765	5918,29
708,952	4810,34
709,139	3739,25
709,326	2606,72
709,513	1842,83
709,7	1195,67
709,886	941,72
710,073	655,01
710,26	470,69
710,447	274,09
710,633	245,41
710,82	229,03
711,007	83,63
711,193	48,81
711,38	106,15
711,567	87,72
711,753	26,28
711,94	106,15
712,127	91,82
712,313	122,54
712,5	48,81
712,686	57
712,873	-12,63
713,059	40,62
713,246	20,14
713,432	34,47
713,619	67,24
713,805	57
713,992	171,69
714,178	-78,16
714,365	89,77
714,551	132,78
714,737	89,77
714,924	-63,83
715,11	34,47
715,297	11,95
715,483	-0,34
715,669	65,19
715,855	7,85
716,042	7,85
716,228	-22,87
716,414	118,44
716,6	11,95
716,787	3,75
716,973	67,24
717,159	81,58
717,345	28,33
717,531	9,9
717,718	73,39
717,904	69,29
718,09	-26,96
718,276	57
718,462	-47,44
718,648	50,86
718,834	-63,83
719,02	48,81
719,206	26,28
719,392	-16,73
719,578	-33,11
719,764	61,1
719,95	-31,06
720,136	136,87
720,322	81,58
720,508	-6,49
720,694	3,75
720,879	-4,44
721,065	50,86
721,251	-59,73
721,437	36,52
721,623	116,39
721,809	16,04
721,994	16,04
722,18	-16,73
722,366	28,33
722,552	-31,06
722,737	-6,49
722,923	40,62
723,109	83,63
723,294	-29,01
723,48	83,63
723,666	81,58
723,851	40,62
724,037	140,97
724,222	167,59
724,408	57
724,593	65,19
724,779	59,05
724,965	-29,01
725,15	50,86
725,336	7,85
725,521	97,96
725,706	-47,44
725,892	28,33
726,077	18,09
726,263	-18,77
726,448	102,06
726,634	147,11
726,819	261,8
727,004	528,03
727,19	818,85
727,375	1236,63
727,56	1451,67
727,745	1826,45
727,931	2086,54
728,116	2252,42
728,301	2147,98
728,486	2145,93
728,672	1881,74
728,857	1851,02
729,042	1590,93
729,227	1482,39
729,412	1328,79
729,597	1171,1
729,783	966,3
729,968	876,19
730,153	736,93
730,338	671,39
730,523	478,88
730,708	425,64
730,893	272,04
731,078	231,08
731,263	163,5
731,448	81,58
731,633	73,39
731,818	9,9
732,003	28,33
732,187	-33,11
732,372	7,85
732,557	89,77
732,742	-65,88
732,927	28,33
733,112	61,1
733,297	13,99
733,481	26,28
733,666	40,62
733,851	-20,82
734,036	-78,16
734,22	-72,02
734,405	126,63
734,59	-43,35
734,774	28,33
734,959	-47,44
735,144	102,06
735,328	48,81
735,513	-33,11
735,698	13,99
735,882	57
736,067	89,77
736,251	61,1
736,436	40,62
736,62	-16,73
736,805	-29,01
736,989	83,63
737,174	-88,4
737,358	-82,26
737,543	-14,68
737,727	7,85
737,911	85,67
738,096	1,71
738,28	118,44
738,465	24,23
738,649	106,15
738,833	11,95
739,018	-14,68
739,202	-55,64
739,386	-61,78
739,57	-6,49
739,755	114,34
739,939	40,62
740,123	-53,59
740,307	48,81
740,491	26,28
740,676	-4,44
740,86	1,71
741,044	-49,49
741,228	-47,44
741,412	-137,56
741,596	-80,21
741,78	-72,02
741,964	18,09
742,148	-45,4
742,332	-8,53
742,516	-106,84
742,7	32,43
742,884	-33,11
743,068	36,52
743,252	61,1
743,436	-14,68
743,62	-137,56
743,804	91,82
743,988	11,95
744,172	28,33
744,356	-12,63
744,539	-6,49
744,723	-18,77
744,907	-14,68
745,091	106,15
745,275	-29,01
745,458	18,09
745,642	-57,68
745,826	26,28
746,009	24,23
746,193	34,47
746,377	50,86
746,56	48,81
746,744	34,47
746,928	28,33
747,111	26,28
747,295	-8,53
747,478	-10,58
747,662	-29,01
747,846	-4,44
748,029	42,67
748,213	-20,82
748,396	26,28
748,58	36,52
748,763	1,71
748,946	-26,96
749,13	-90,45
749,313	9,9
749,497	81,58
749,68	73,39
749,863	77,48
750,047	-12,63
750,23	16,04
750,413	48,81
750,597	40,62
750,78	-0,34
750,963	65,19
751,146	59,05
751,33	-35,16
751,513	-16,73
751,696	11,95
751,879	-8,53
752,062	-119,12
752,246	34,47
752,429	89,77
752,612	28,33
752,795	-20,82
752,978	44,71
753,161	-57,68
753,344	-69,97
753,527	40,62
753,71	-20,82
753,893	63,15
754,076	-31,06
754,259	52,91
754,442	-41,3
754,625	-96,6
754,808	89,77
754,991	18,09
755,174	-14,68
755,357	-14,68
755,539	-45,4
755,722	108,2
755,905	-33,11
756,088	-6,49
756,271	-55,64
756,453	32,43
756,636	-98,64
756,819	42,67
757,002	-74,07
757,184	140,97
757,367	138,92
757,55	28,33
757,732	126,63
757,915	11,95
758,098	-78,16
758,28	63,15
758,463	38,57
758,645	-12,63
758,828	69,29
759,011	61,1
759,193	-84,31
759,376	28,33
759,558	-84,31
759,741	-35,16
759,923	-61,78
760,105	-4,44
760,288	116,39
760,47	-123,22
760,653	-22,87
760,835	7,85
761,017	-63,83
761,2	38,57
761,382	81,58
761,564	26,28
761,747	34,47
761,929	-33,11
762,111	3,75
762,294	-16,73
762,476	91,82
762,658	30,38
762,84	65,19
763,022	7,85
763,205	67,24
763,387	134,82
763,569	7,85
763,751	-47,44
763,933	-49,49
764,115	7,85
764,297	28,33
764,479	-24,92
764,661	-24,92
764,843	32,43
765,025	7,85
765,207	40,62
765,389	-47,44
765,571	-57,68
765,753	-12,63
765,935	-49,49
766,117	44,71
766,299	97,96
766,481	9,9
766,663	-0,34
766,845	-74,07
767,026	-14,68
767,208	48,81
767,39	40,62
767,572	-45,4
767,753	48,81
767,935	18,09
768,117	-33,11
768,299	57
768,48	1,71
768,662	24,23
768,844	-8,53
769,025	108,2
769,207	-6,49
769,389	-6,49
769,57	42,67
769,752	-14,68
769,933	-72,02
770,115	-20,82
770,296	-31,06
770,478	-37,2
770,659	-63,83
770,841	198,31
771,022	-4,44
771,204	30,38
771,385	42,67
771,567	116,39
771,748	106,15
771,929	32,43
772,111	48,81
772,292	11,95
772,473	26,28
772,655	-2,39
772,836	-96,6
773,017	81,58
773,199	114,34
773,38	-12,63
773,561	91,82
773,742	36,52
773,923	-69,97
774,105	59,05
774,286	-0,34
774,467	-24,92
774,648	-80,21
774,829	-8,53
775,01	7,85
775,191	67,24
775,372	-49,49
775,553	-0,34
775,734	20,14
775,915	-12,63
776,096	7,85
776,277	36,52
776,458	-16,73
776,639	-8,53
776,82	81,58
777,001	75,43
777,182	-33,11
777,363	-29,01
777,544	16,04
777,725	57
777,906	-22,87
778,086	59,05
778,267	71,34
778,448	9,9
778,629	-8,53
778,809	147,11
778,99	-4,44
779,171	-84,31
779,352	-41,3
779,532	-94,55
779,713	-14,68
779,894	52,91
780,074	75,43
780,255	7,85
780,435	48,81
780,616	132,78
780,797	138,92
780,977	-8,53
781,158	-8,53
781,338	-74,07
781,519	-0,34
781,699	183,98
781,88	24,23
782,06	73,39
782,241	-74,07
782,421	-72,02
782,601	9,9
782,782	69,29
782,962	42,67
783,142	-33,11
783,323	85,67
783,503	85,67
783,683	36,52
783,864	-47,44
784,044	11,95
784,224	65,19
784,404	-0,34
784,585	9,9
784,765	18,09
784,945	73,39
785,125	-16,73
785,305	16,04
785,485	28,33
785,666	-6,49
785,846	-14,68
786,026	3,75
786,206	-82,26
786,386	106,15
786,566	-92,5
786,746	24,23
786,926	-24,92
787,106	34,47
787,286	-0,34
787,466	11,95
787,646	36,52
787,826	1,71
788,006	114,34
788,185	16,04
788,365	-14,68
788,545	36,52
788,725	3,75
788,905	44,71
789,085	-22,87
789,264	-49,49
789,444	57
789,624	-22,87
789,804	-0,34
789,983	-16,73
790,163	18,09
790,343	11,95
790,522	44,71
790,702	57
790,882	24,23
791,061	85,67
791,241	-49,49
791,42	18,09
791,6	44,71
791,78	-22,87
791,959	-39,25
792,139	-74,07
792,318	1,71
792,498	3,75
792,677	40,62
792,856	-8,53
793,036	-16,73
793,215	-37,2
793,395	75,43
793,574	-18,77
793,753	18,09
793,933	81,58
794,112	34,47
794,291	48,81
794,471	100,01
794,65	-8,53
794,829	1,71
795,008	85,67
795,188	163,5
795,367	106,15
795,546	7,85
795,725	-12,63
795,904	26,28
796,084	24,23
796,263	24,23
796,442	65,19
796,621	40,62
796,8	97,96
796,979	18,09
797,158	-86,36
797,337	16,04
797,516	42,67
797,695	73,39
797,874	52,91
798,053	65,19
798,232	69,29
798,411	-47,44
798,59	-26,96
798,769	5,8
798,947	7,85
799,126	44,71
799,305	69,29
799,484	9,9
799,663	-49,49
799,842	106,15
800,02	59,05
800,199	-6,49
800,378	52,91
800,557	26,28
800,735	-92,5
800,914	-102,74
801,093	52,91
801,271	-63,83
801,45	-12,63
801,628	73,39
801,807	-6,49
801,986	7,85
802,164	26,28
802,343	36,52
802,521	-96,6
802,7	79,53
802,878	48,81
803,057	-26,96
803,235	24,23
803,414	11,95
803,592	97,96
803,771	-6,49
803,949	69,29
804,127	30,38
804,306	93,87
804,484	-37,2
804,662	38,57
804,841	-94,55
805,019	3,75
805,197	65,19
805,375	44,71
805,554	11,95
805,732	-51,54
805,91	57
806,088	22,19
806,266	-55,64
806,445	28,33
806,623	-16,73
806,801	18,09
806,979	112,3
807,157	20,14
807,335	-104,79
807,513	-22,87
807,691	-88,4
807,869	-74,07
808,047	-16,73
808,225	-74,07
808,403	16,04
808,581	-31,06
808,759	171,69
808,937	44,71
809,115	140,97
809,293	81,58
809,471	9,9
809,649	-65,88
809,826	40,62
810,004	-6,49
810,182	7,85
810,36	-24,92
810,538	59,05
810,715	52,91
810,893	-78,16
811,071	-4,44
811,248	16,04
811,426	-102,74
811,604	81,58
811,781	89,77
811,959	48,81
812,137	-26,96
812,314	-57,68
812,492	-6,49
812,669	9,9
812,847	-49,49
813,024	3,75
813,202	65,19
813,379	-98,64
813,557	73,39
813,734	50,86
813,912	48,81
814,089	46,76
814,267	16,04
814,444	-39,25
814,621	20,14
814,799	-39,25
814,976	138,92
815,153	83,63
815,331	26,28
815,508	-16,73
815,685	-12,63
815,862	59,05
816,04	11,95
816,217	-6,49
816,394	-16,73
816,571	40,62
816,748	147,11
816,926	81,58
817,103	286,37
817,28	-24,92
817,457	-16,73
817,634	59,05
817,811	-74,07
817,988	-12,63
818,165	81,58
818,342	67,24
818,519	7,85
818,696	-0,34
818,873	-63,83
819,05	61,1
819,227	-18,77
819,404	9,9
819,581	-86,36
819,758	7,85
819,934	32,43
820,111	-57,68
820,288	-37,2
820,465	85,67
820,642	16,04
820,818	-14,68
820,995	40,62
821,172	59,05
821,349	30,38
821,525	-12,63
821,702	36,52
821,879	-61,78
822,055	-22,87
822,232	-74,07
822,409	-16,73
822,585	138,92
822,762	57
822,938	-0,34
823,115	32,43
823,291	-8,53
823,468	163,5
823,644	7,85
823,821	73,39
823,997	-49,49
824,174	-123,22
824,35	30,38
824,527	40,62
824,703	100,01
824,879	-0,34
825,056	42,67
825,232	91,82
825,408	16,04
825,585	-18,77
825,761	-4,44
825,937	-90,45
826,113	32,43
826,29	24,23
826,466	-16,73
826,642	364,2
826,818	-8,53
826,994	75,43
827,17	-59,73
827,347	-6,49
827,523	-80,21
827,699	-6,49
827,875	-4,44
828,051	48,81
828,227	-8,53
828,403	81,58
828,579	171,69
828,755	-14,68
828,931	89,77
829,107	48,81
829,283	143,02
829,459	-22,87
829,635	16,04
829,811	-49,49
829,986	-8,53
830,162	-31,06
830,338	42,67
830,514	-49,49
830,69	-8,53
830,865	-14,68
831,041	48,81
831,217	28,33
831,393	-8,53
831,568	-33,11
831,744	1,71
831,92	-33,11
832,095	-8,53
832,271	-49,49
832,447	34,47
832,622	128,68
832,798	36,52
832,973	52,91
833,149	75,43
833,325	40,62
833,5	-33,11
833,676	61,1
833,851	50,86
834,027	-33,11
834,202	-82,26
834,377	48,81
834,553	-24,92
834,728	-72,02
834,904	-80,21
835,079	-31,06
835,254	-47,44
835,43	34,47
835,605	9,9
835,78	-65,88
835,955	48,81
836,131	-20,82
836,306	-47,44
836,481	-26,96
836,656	67,24
836,832	7,85
837,007	-39,25
837,182	-8,53
837,357	-20,82
837,532	65,19
837,707	-33,11
837,882	13,99
838,057	32,43
838,232	24,23
838,407	40,62
838,582	-49,49
838,757	-4,44
838,932	-16,73
839,107	1,71
839,282	-139,6
839,457	28,33
839,632	50,86
839,807	-0,34
839,982	-20,82
840,157	3,75
840,332	28,33
840,506	-31,06
840,681	-49,49
840,856	-4,44
841,031	-86,36
841,205	-65,88
841,38	67,24
841,555	106,15
841,73	5,8
841,904	3,75
842,079	-29,01
842,254	83,63
842,428	-4,44
842,603	-57,68
842,777	-8,53
842,952	-33,11
843,126	-37,2
843,301	22,19
843,476	-14,68
843,65	44,71
843,825	61,1
843,999	-49,49
844,173	-63,83
844,348	-8,53
844,522	83,63
844,697	50,86
844,871	-53,59
845,045	65,19
845,22	13,99
845,394	147,11
845,568	20,14
845,743	-20,82
845,917	42,67
846,091	-6,49
846,265	7,85
846,44	50,86
846,614	-6,49
846,788	-55,64
846,962	106,15
847,136	24,23
847,31	24,23
847,485	116,39
847,659	-57,68
847,833	81,58
848,007	89,77
848,181	71,34
848,355	-24,92
848,529	100,01
848,703	81,58
848,877	-102,74
849,051	16,04
849,225	67,24
849,399	-24,92
849,573	-24,92
849,746	-39,25
849,92	-24,92
850,094	61,1
850,268	-0,34
850,442	40,62
850,616	24,23
850,789	-39,25
850,963	-12,63
851,137	-33,11
851,311	171,69
851,484	34,47
851,658	-8,53
851,832	-53,59
852,005	7,85
852,179	-20,82
852,352	-57,68
852,526	-20,82
852,7	-53,59
852,873	22,19
853,047	-35,16
853,22	-41,3
853,394	-0,34
853,567	9,9
853,741	-16,73
853,914	-74,07
854,088	16,04
854,261	24,23
854,434	-4,44
854,608	54,95
854,781	-49,49
854,955	16,04
855,128	32,43
855,301	18,09
855,475	24,23
855,648	34,47
855,821	-63,83
855,994	-6,49
856,168	75,43
856,341	59,05
856,514	18,09
856,687	69,29
856,86	16,04
857,033	-16,73
857,207	73,39
857,38	-0,34
857,553	1,71
857,726	42,67
857,899	77,48
858,072	-24,92
858,245	-96,6
858,418	16,04
858,591	-16,73
858,764	-72,02
858,937	18,09
859,11	26,28
859,283	22,19
859,455	48,81
859,628	59,05
859,801	34,47
859,974	91,82
860,147	-115,03
860,32	24,23
860,492	42,67
860,665	-29,01
860,838	52,91
861,011	-47,44
861,183	34,47
861,356	57
861,529	59,05
861,701	1,71
861,874	3,75
862,047	93,87
862,219	-0,34
862,392	36,52
862,564	-39,25
862,737	34,47
862,909	48,81
863,082	-47,44
863,254	73,39
863,427	42,67
863,599	24,23
863,772	-24,92
863,944	-0,34
864,117	59,05
864,289	9,9
864,461	-41,3
864,634	34,47
864,806	7,85
864,978	26,28
865,151	-96,6
865,323	130,73
865,495	75,43
865,667	-6,49
865,84	155,3
866,012	-63,83
866,184	63,15
866,356	-67,92
866,528	34,47
866,7	-49,49
866,873	-20,82
867,045	-39,25
867,217	-14,68
867,389	-0,34
867,561	-41,3
867,733	-53,59
867,905	-2,39
868,077	32,43
868,249	-6,49
868,421	-29,01
868,593	-41,3
868,765	138,92
868,936	-24,92
869,108	57
869,28	48,81
869,452	-33,11
869,624	-88,4
869,796	26,28
869,968	67,24
870,139	188,07
870,311	-14,68
870,483	1,71
870,654	-24,92
870,826	24,23
870,998	-39,25
871,17	20,14
871,341	28,33
871,513	20,14
871,684	-106,84
871,856	28,33
872,028	18,09
872,199	-98,64
872,371	-0,34
872,542	-49,49
872,714	20,14
872,885	132,78
873,057	11,95
873,228	24,23
873,4	48,81
873,571	171,69
873,742	-80,21
873,914	52,91
874,085	32,43
874,256	44,71
874,428	-0,34
874,599	-0,34
874,77	-0,34
874,942	-8,53
875,113	100,01
875,284	-84,31
875,455	-49,49
875,626	59,05
875,798	-33,11
875,969	24,23
876,14	48,81
876,311	100,01
876,482	-0,34
876,653	89,77
876,824	24,23
876,995	-6,49
877,166	24,23
877,337	40,62
877,508	-26,96
877,679	26,28
877,85	-16,73
878,021	7,85
878,192	44,71
878,363	-0,34
878,534	-74,07
878,705	-8,53
878,876	48,81
879,047	50,86
879,217	-39,25
879,388	-0,34
879,559	69,29
879,73	32,43
879,9	-65,88
880,071	24,23
880,242	50,86
880,413	9,9
880,583	-0,34
880,754	40,62
880,924	-14,68
881,095	-37,2
881,266	-90,45
881,436	57
881,607	89,77
881,777	-14,68
881,948	7,85
882,118	24,23
882,289	-16,73
882,459	-24,92
882,63	16,04
882,8	7,85
882,971	100,01
883,141	75,43
883,311	32,43
883,482	97,96
883,652	-8,53
883,822	-41,3
883,993	-57,68
884,163	-22,87
884,333	-35,16
884,504	-41,3
884,674	97,96
884,844	26,28
885,014	50,86
885,184	7,85
885,355	-12,63
885,525	7,85
885,695	7,85
885,865	89,77
886,035	40,62
886,205	-14,68
886,375	52,91
886,545	9,9
886,715	-16,73
886,885	30,38
887,055	-31,06
887,225	-22,87
887,395	24,23
887,565	65,19
887,735	24,23
887,905	-41,3
888,075	-41,3
888,244	57
888,414	50,86
888,584	83,63
888,754	18,09
888,924	-35,16
889,093	28,33
889,263	-24,92
889,433	-16,73
889,603	9,9
889,772	-102,74
889,942	52,91
890,111	-14,68
890,281	-104,79
890,451	-31,06
890,62	26,28
890,79	1,71
890,959	-39,25
891,129	-10,58
891,298	36,52
891,468	7,85
891,637	46,76
891,807	-14,68
891,976	48,81
892,146	-26,96
892,315	77,48
892,485	73,39
892,654	-41,3
892,823	-45,4
892,993	-31,06
893,162	26,28
893,331	-8,53
893,501	118,44
893,67	79,53
893,839	-37,2
894,008	1,71
894,177	83,63
894,347	3,75
894,516	100,01
894,685	79,53
894,854	-24,92
895,023	22,19
895,192	-16,73
