Data from he_USB4F104161__35__11-53-38-765.txt Node

Date: Tue Apr 14 11:53:38 EDT 2026
User: LaboPhy
Spectrometer: USB4F10416
Trigger mode: 4
Integration Time (sec): 1,000000E-1
Scans to average: 1
Electric dark correction enabled: true
Nonlinearity correction enabled: false
Boxcar width: 0
XAxis mode: Wavelengths
Number of Pixels in Spectrum: 3648
>>>>>Begin Spectral Data<<<<<
177,847	-212,99
178,066	-212,99
178,284	-212,99
178,502	-169,98
178,72	-120,83
178,939	2,05
179,157	-36,86
179,375	-81,92
179,593	12,29
179,812	63,49
180,03	12,29
180,248	-10,24
180,466	6,14
180,685	6,14
180,903	-2,05
181,121	-26,62
181,339	55,3
181,557	28,67
181,775	-63,49
181,994	-18,43
182,212	-63,49
182,43	-26,62
182,648	14,34
182,866	6,14
183,084	6,14
183,302	-59,39
183,52	-24,58
183,739	43,01
183,957	10,24
184,175	-10,24
184,393	-14,34
184,611	6,14
184,829	16,38
185,047	-51,2
185,265	47,1
185,483	-8,19
185,701	30,72
185,919	40,96
186,137	16,38
186,355	40,96
186,573	-51,2
186,791	53,25
187,009	-8,19
187,227	-2,05
187,445	4,1
187,663	16,38
187,881	-18,43
188,098	4,1
188,316	-92,16
188,534	137,21
188,752	-2,05
188,97	6,14
189,188	-65,54
189,406	49,15
189,624	47,1
189,841	8,19
190,059	-77,82
190,277	-32,77
190,495	57,34
190,713	96,25
190,931	116,73
191,148	120,83
191,366	-47,1
191,584	8,19
191,802	114,69
192,019	139,26
192,237	-14,34
192,455	18,43
192,673	22,53
192,89	30,72
193,108	26,62
193,326	-71,68
193,543	81,92
193,761	-0
193,979	-2,05
194,196	-18,43
194,414	92,16
194,632	73,73
194,849	-63,49
195,067	-51,2
195,285	2,05
195,502	-98,3
195,72	40,96
195,937	-10,24
196,155	120,83
196,373	-8,19
196,59	-67,58
196,808	-10,24
197,025	36,86
197,243	145,41
197,46	112,64
197,678	38,91
197,895	-10,24
198,113	-55,3
198,33	-24,58
198,548	28,67
198,765	-22,53
198,983	-8,19
199,2	-57,34
199,418	63,49
199,635	12,29
199,853	49,15
200,07	-26,62
200,288	-40,96
200,505	-43,01
200,722	88,06
200,94	14,34
201,157	59,39
201,375	57,34
201,592	47,1
201,809	12,29
202,027	118,78
202,244	-2,05
202,461	-22,53
202,679	-10,24
202,896	-6,14
203,113	-30,72
203,331	14,34
203,548	-65,54
203,765	2,05
203,982	38,91
204,2	-83,97
204,417	-47,1
204,634	141,31
204,851	88,06
205,069	49,15
205,286	20,48
205,503	73,73
205,72	-16,38
205,937	22,53
206,155	6,14
206,372	139,26
206,589	-55,3
206,806	59,39
207,023	47,1
207,24	92,16
207,458	-88,06
207,675	-94,21
207,892	-26,62
208,109	-83,97
208,326	-10,24
208,543	-24,58
208,76	-26,62
208,977	98,3
209,194	51,2
209,411	-75,77
209,628	-6,14
209,845	34,82
210,062	30,72
210,279	2,05
210,496	30,72
210,713	-2,05
210,93	-63,49
211,147	22,53
211,364	-69,63
211,581	2,05
211,798	24,58
212,015	-102,4
212,232	-18,43
212,449	-2,05
212,666	-10,24
212,883	-92,16
213,1	-8,19
213,317	-0
213,533	38,91
213,75	-30,72
213,967	55,3
214,184	-73,73
214,401	-24,58
214,618	-57,34
214,835	22,53
215,051	106,49
215,268	-22,53
215,485	12,29
215,702	-43,01
215,919	-2,05
216,135	63,49
216,352	14,34
216,569	-16,38
216,786	77,82
217,002	92,16
217,219	53,25
217,436	67,58
217,652	-10,24
217,869	92,16
218,086	96,25
218,302	55,3
218,519	-26,62
218,736	22,53
218,952	-34,82
219,169	59,39
219,386	55,3
219,602	-8,19
219,819	38,91
220,036	-59,39
220,252	120,83
220,469	-14,34
220,685	18,43
220,902	-12,29
221,118	-10,24
221,335	-10,24
221,552	14,34
221,768	75,77
221,985	-30,72
222,201	8,19
222,418	55,3
222,634	-14,34
222,851	6,14
223,067	40,96
223,284	30,72
223,5	8,19
223,716	53,25
223,933	-6,14
224,149	-40,96
224,366	-71,68
224,582	-92,16
224,799	-18,43
225,015	-2,05
225,231	-34,82
225,448	-43,01
225,664	-18,43
225,88	-43,01
226,097	90,11
226,313	-6,14
226,529	49,15
226,746	-34,82
226,962	-40,96
227,178	-51,2
227,395	-32,77
227,611	-38,91
227,827	-12,29
228,044	30,72
228,26	8,19
228,476	-47,1
228,692	131,07
228,909	2,05
229,125	22,53
229,341	-32,77
229,557	-34,82
229,773	-71,68
229,99	45,06
230,206	-96,25
230,422	16,38
230,638	-59,39
230,854	79,87
231,07	-131,07
231,286	71,68
231,503	6,14
231,719	-22,53
231,935	2,05
232,151	-8,19
232,367	129,02
232,583	24,58
232,799	6,14
233,015	-2,05
233,231	-6,14
233,447	51,2
233,663	6,14
233,879	90,11
234,095	14,34
234,311	116,73
234,527	26,62
234,743	71,68
234,959	-26,62
235,175	38,91
235,391	-18,43
235,607	-83,97
235,823	133,12
236,039	-8,19
236,255	-34,82
236,471	-6,14
236,687	-8,19
236,903	34,82
237,118	32,77
237,334	-2,05
237,55	-12,29
237,766	-65,54
237,982	83,97
238,198	24,58
238,413	-16,38
238,629	34,82
238,845	10,24
239,061	55,3
239,277	-71,68
239,492	-59,39
239,708	-67,58
239,924	-116,73
240,14	-40,96
240,355	98,3
240,571	-26,62
240,787	6,14
241,003	71,68
241,218	-79,87
241,434	16,38
241,65	14,34
241,865	-100,35
242,081	22,53
242,297	-16,38
242,512	-53,25
242,728	-71,68
242,944	18,43
243,159	20,48
243,375	-2,05
243,59	6,14
243,806	65,53
244,022	65,53
244,237	6,14
244,453	-2,05
244,668	59,39
244,884	92,16
245,099	-0
245,315	-2,05
245,53	47,1
245,746	71,68
245,961	-16,38
246,177	26,62
246,392	14,34
246,608	63,49
246,823	-10,24
247,039	-20,48
247,254	-61,44
247,47	-8,19
247,685	-55,3
247,9	-8,19
248,116	-22,53
248,331	-20,48
248,547	126,97
248,762	-30,72
248,977	36,86
249,193	65,53
249,408	49,15
249,623	-47,1
249,839	-24,58
250,054	-47,1
250,269	-24,58
250,485	-47,1
250,7	28,67
250,915	55,3
251,13	40,96
251,346	4,1
251,561	63,49
251,776	14,34
251,991	-106,49
252,207	55,3
252,422	63,49
252,637	-8,19
252,852	28,67
253,067	38,91
253,283	20,48
253,498	-8,19
253,713	28,67
253,928	-24,58
254,143	22,53
254,358	-28,67
254,573	-30,72
254,788	-57,34
255,004	-34,82
255,219	-49,15
255,434	-51,2
255,649	38,91
255,864	-2,05
256,079	-36,86
256,294	-28,67
256,509	-67,58
256,724	-16,38
256,939	-108,54
257,154	14,34
257,369	-38,91
257,584	96,25
257,799	-71,68
258,014	-30,72
258,229	-30,72
258,444	-26,62
258,659	-90,11
258,874	45,06
259,089	73,73
259,304	-26,62
259,518	-8,19
259,733	47,1
259,948	2,05
260,163	49,15
260,378	102,4
260,593	6,14
260,808	22,53
261,022	-83,97
261,237	22,53
261,452	22,53
261,667	-34,82
261,882	88,06
262,096	96,25
262,311	112,64
262,526	-65,54
262,741	-10,24
262,955	-67,58
263,17	10,24
263,385	14,34
263,6	18,43
263,814	-18,43
264,029	-63,49
264,244	18,43
264,458	16,38
264,673	-2,05
264,888	51,2
265,102	38,91
265,317	-53,25
265,532	-16,38
265,746	59,39
265,961	79,87
266,175	14,34
266,39	81,92
266,605	-26,62
266,819	47,1
267,034	55,3
267,248	-43,01
267,463	30,72
267,677	-24,58
267,892	-34,82
268,106	-131,07
268,321	40,96
268,535	186,37
268,75	18,43
268,964	-43,01
269,179	104,45
269,393	73,73
269,608	24,58
269,822	-18,43
270,036	-92,16
270,251	-34,82
270,465	-26,62
270,68	-22,53
270,894	-83,97
271,108	161,79
271,323	6,14
271,537	-8,19
271,752	14,34
271,966	14,34
272,18	-26,62
272,394	-2,05
272,609	8,19
272,823	63,49
273,037	24,58
273,252	-43,01
273,466	8,19
273,68	83,97
273,894	-6,14
274,109	-2,05
274,323	-47,1
274,537	-57,34
274,751	-51,2
274,966	28,67
275,18	-100,35
275,394	-75,77
275,608	-26,62
275,822	-67,58
276,036	18,43
276,25	-10,24
276,465	2,05
276,679	43,01
276,893	-22,53
277,107	51,2
277,321	-34,82
277,535	14,34
277,749	30,72
277,963	-32,77
278,177	-131,07
278,391	63,49
278,605	-139,26
278,819	67,58
279,033	-96,25
279,247	-55,3
279,461	92,16
279,675	24,58
279,889	63,49
280,103	14,34
280,317	47,1
280,531	-112,64
280,745	-65,54
280,959	-59,39
281,173	88,06
281,387	88,06
281,601	20,48
281,815	79,87
282,029	-34,82
282,242	43,01
282,456	53,25
282,67	63,49
282,884	-75,77
283,098	18,43
283,312	-2,05
283,525	-2,05
283,739	86,01
283,953	-4,1
284,167	2,05
284,381	-0
284,594	-34,82
284,808	-26,62
285,022	-6,14
285,235	49,15
285,449	-0
285,663	40,96
285,877	-10,24
286,09	-34,82
286,304	63,49
286,518	38,91
286,731	-75,77
286,945	16,38
287,159	-40,96
287,372	2,05
287,586	-16,38
287,799	8,19
288,013	-59,39
288,227	6,14
288,44	161,79
288,654	88,06
288,867	6,14
289,081	-22,53
289,294	-18,43
289,508	8,19
289,721	-8,19
289,935	-16,38
290,148	67,58
290,362	47,1
290,575	2,05
290,789	-43,01
291,002	-2,05
291,216	20,48
291,429	-53,25
291,643	2,05
291,856	-30,72
292,069	-18,43
292,283	-67,58
292,496	-28,67
292,71	-2,05
292,923	-18,43
293,136	-26,62
293,35	8,19
293,563	-26,62
293,776	8,19
293,99	-0
294,203	51,2
294,416	-75,77
294,63	-83,97
294,843	-10,24
295,056	67,58
295,269	-30,72
295,483	-98,3
295,696	-18,43
295,909	-63,49
296,122	77,82
296,335	24,58
296,549	8,19
296,762	-2,05
296,975	-40,96
297,188	-2,05
297,401	-2,05
297,615	-16,38
297,828	-92,16
298,041	32,77
298,254	-0
298,467	-26,62
298,68	6,14
298,893	-6,14
299,106	-106,49
299,319	-16,38
299,532	49,15
299,745	-10,24
299,958	-26,62
300,171	-63,49
300,384	30,72
300,598	-65,54
300,81	-24,58
301,023	-32,77
301,236	-100,35
301,449	-8,19
301,662	-83,97
301,875	-75,77
302,088	34,82
302,301	-10,24
302,514	-28,67
302,727	-2,05
302,94	-59,39
303,153	-16,38
303,366	24,58
303,579	-73,73
303,791	-20,48
304,004	-38,91
304,217	112,64
304,43	40,96
304,643	-2,05
304,855	-26,62
305,068	47,1
305,281	88,06
305,494	-34,82
305,707	-2,05
305,919	133,12
306,132	26,62
306,345	-59,39
306,558	96,25
306,77	10,24
306,983	-26,62
307,196	108,54
307,408	-0
307,621	-14,34
307,834	-49,15
308,046	-18,43
308,259	-30,72
308,472	-2,05
308,684	86,01
308,897	-55,3
309,109	14,34
309,322	-51,2
309,535	-10,24
309,747	67,58
309,96	14,34
310,172	43,01
310,385	30,72
310,597	-53,25
310,81	8,19
311,022	-26,62
311,235	16,38
311,447	51,2
311,66	-55,3
311,872	43,01
312,085	81,92
312,297	-47,1
312,51	-81,92
312,722	-18,43
312,934	139,26
313,147	-34,82
313,359	-22,53
313,572	-22,53
313,784	16,38
313,996	18,43
314,209	63,49
314,421	22,53
314,633	-88,06
314,846	-51,2
315,058	45,06
315,27	24,58
315,483	-61,44
315,695	40,96
315,907	-61,44
316,119	-38,91
316,332	-43,01
316,544	67,58
316,756	-16,38
316,968	51,2
317,181	18,43
317,393	79,87
317,605	26,62
317,817	188,41
318,029	139,26
318,241	67,58
318,454	120,83
318,666	145,41
318,878	38,91
319,09	55,3
319,302	98,3
319,514	100,35
319,726	-10,24
319,938	161,79
320,15	77,82
320,362	10,24
320,574	-26,62
320,786	-73,73
320,999	-106,49
321,211	-18,43
321,423	24,58
321,635	-65,54
321,847	2,05
322,058	-38,91
322,27	-6,14
322,482	22,53
322,694	51,2
322,906	34,82
323,118	38,91
323,33	63,49
323,542	20,48
323,754	-2,05
323,966	-45,06
324,178	55,3
324,389	-0
324,601	75,77
324,813	22,53
325,025	6,14
325,237	-59,39
325,449	6,14
325,66	-59,39
325,872	-49,15
326,084	47,1
326,296	-2,05
326,507	-51,2
326,719	75,77
326,931	-81,92
327,143	40,96
327,354	63,49
327,566	71,68
327,778	-8,19
327,989	86,01
328,201	-104,45
328,413	28,67
328,624	61,44
328,836	-16,38
329,048	-114,69
329,259	-26,62
329,471	6,14
329,682	-75,77
329,894	-51,2
330,106	-53,25
330,317	-49,15
330,529	47,1
330,74	-18,43
330,952	-2,05
331,163	-75,77
331,375	65,53
331,586	51,2
331,798	-24,58
332,009	-22,53
332,221	38,91
332,432	47,1
332,644	8,19
332,855	-14,34
333,067	55,3
333,278	34,82
333,489	79,87
333,701	-67,58
333,912	-67,58
334,124	26,62
334,335	-53,25
334,546	-18,43
334,758	14,34
334,969	174,08
335,18	96,25
335,392	63,49
335,603	51,2
335,814	71,68
336,025	-120,83
336,237	-34,82
336,448	-59,39
336,659	-2,05
336,87	49,15
337,082	120,83
337,293	-47,1
337,504	22,53
337,715	-38,91
337,926	-34,82
338,138	6,14
338,349	-6,14
338,56	8,19
338,771	-10,24
338,982	79,87
339,193	-16,38
339,404	98,3
339,616	-14,34
339,827	77,82
340,038	-131,07
340,249	88,06
340,46	-51,2
340,671	-26,62
340,882	69,63
341,093	40,96
341,304	-55,3
341,515	-67,58
341,726	10,24
341,937	63,49
342,148	51,2
342,359	-40,96
342,57	-34,82
342,781	104,45
342,992	-2,05
343,203	-73,73
343,414	26,62
343,624	-59,39
343,835	26,62
344,046	43,01
344,257	-55,3
344,468	-47,1
344,679	-32,77
344,89	-79,87
345,1	-81,92
345,311	-26,62
345,522	-8,19
345,733	49,15
345,944	32,77
346,154	38,91
346,365	47,1
346,576	55,3
346,787	-90,11
346,997	6,14
347,208	88,06
347,419	-34,82
347,629	16,38
347,84	57,34
348,051	-24,58
348,261	-40,96
348,472	-30,72
348,683	12,29
348,893	-92,16
349,104	26,62
349,315	-43,01
349,525	14,34
349,736	-14,34
349,946	6,14
350,157	6,14
350,368	79,87
350,578	-124,93
350,789	32,77
350,999	-38,91
351,21	-10,24
351,42	-88,06
351,631	-18,43
351,841	-71,68
352,052	20,48
352,262	38,91
352,472	-14,34
352,683	-30,72
352,893	114,69
353,104	-77,82
353,314	79,87
353,525	366,59
353,735	-2,05
353,945	-40,96
354,156	-38,91
354,366	16,38
354,576	38,91
354,787	-47,1
354,997	-10,24
355,207	-30,72
355,418	-40,96
355,628	-86,01
355,838	38,91
356,048	2,05
356,259	43,01
356,469	-75,77
356,679	59,39
356,889	63,49
357,1	-81,92
357,31	-43,01
357,52	2,05
357,73	30,72
357,94	-30,72
358,15	-67,58
358,361	-4,1
358,571	22,53
358,781	57,34
358,991	-47,1
359,201	-40,96
359,411	-24,58
359,621	-79,87
359,831	104,45
360,041	-94,21
360,251	-26,62
360,461	-32,77
360,672	12,29
360,882	-114,69
361,092	26,62
361,302	55,3
361,512	79,87
361,721	6,14
361,931	106,49
362,141	73,73
362,351	63,49
362,561	-26,62
362,771	86,01
362,981	116,73
363,191	-51,2
363,401	-20,48
363,611	-32,77
363,821	-14,34
364,03	-90,11
364,24	22,53
364,45	55,3
364,66	243,71
364,87	-2,05
365,08	63,49
365,289	-51,2
365,499	-26,62
365,709	-40,96
365,919	-34,82
366,128	-92,16
366,338	14,34
366,548	-34,82
366,758	-34,82
366,967	2,05
367,177	22,53
367,387	55,3
367,596	38,91
367,806	16,38
368,016	-16,38
368,225	-8,19
368,435	71,68
368,644	24,58
368,854	-18,43
369,064	22,53
369,273	43,01
369,483	16,38
369,692	32,77
369,902	-108,54
370,111	61,44
370,321	-32,77
370,53	-69,63
370,74	-0
370,949	16,38
371,159	47,1
371,368	65,53
371,578	14,34
371,787	-2,05
371,997	18,43
372,206	-8,19
372,416	57,34
372,625	18,43
372,834	-73,73
373,044	-36,86
373,253	43,01
373,462	86,01
373,672	-10,24
373,881	40,96
374,09	20,48
374,3	2,05
374,509	-4,1
374,718	-6,14
374,928	79,87
375,137	47,1
375,346	-0
375,555	131,07
375,765	-8,19
375,974	-47,1
376,183	88,06
376,392	-18,43
376,601	40,96
376,811	67,58
377,02	88,06
377,229	124,93
377,438	38,91
377,647	-49,15
377,856	8,19
378,065	-55,3
378,275	-24,58
378,484	-20,48
378,693	38,91
378,902	-2,05
379,111	59,39
379,32	-2,05
379,529	6,14
379,738	65,53
379,947	8,19
380,156	-16,38
380,365	-100,35
380,574	18,43
380,783	-116,73
380,992	22,53
381,201	-8,19
381,41	2,05
381,619	28,67
381,828	53,25
382,037	47,1
382,245	219,13
382,454	112,64
382,663	47,1
382,872	-10,24
383,081	59,39
383,29	67,58
383,499	24,58
383,707	145,41
383,916	30,72
384,125	43,01
384,334	-63,49
384,542	51,2
384,751	32,77
384,96	24,58
385,169	-63,49
385,377	51,2
385,586	65,53
385,795	135,17
386,004	108,54
386,212	30,72
386,421	45,06
386,63	311,29
386,838	745,46
387,047	1202,16
387,255	2009,06
387,464	2824,15
387,673	3850,18
387,881	4820,92
388,09	6033,32
388,298	6856,6
388,507	8361,86
388,715	10254,18
388,924	11149,14
389,133	10835,8
389,341	10336,1
389,55	9004,92
389,758	6989,72
389,967	4630,46
390,175	2891,73
390,383	2301,92
390,592	1816,55
390,8	1083,38
391,009	837,62
391,217	440,31
391,426	368,63
391,634	79,87
391,842	116,73
392,051	47,1
392,259	63,49
392,467	14,34
392,676	10,24
392,884	6,14
393,092	-59,39
393,301	81,92
393,509	-4,1
393,717	55,3
393,925	22,53
394,134	-6,14
394,342	36,86
394,55	90,11
394,758	40,96
394,967	22,53
395,175	-0
395,383	88,06
395,591	73,73
395,799	106,49
396,007	104,45
396,216	294,91
396,424	145,41
396,632	155,65
396,84	186,37
397,048	247,8
397,256	143,36
397,464	38,91
397,672	112,64
397,88	-26,62
398,088	-49,15
398,296	47,1
398,504	24,58
398,712	65,53
398,92	10,24
399,128	-34,82
399,336	-18,43
399,544	-6,14
399,752	40,96
399,96	43,01
400,168	22,53
400,376	8,19
400,584	141,31
400,792	24,58
401	71,68
401,207	49,15
401,415	122,88
401,623	129,02
401,831	176,13
402,039	292,86
402,247	264,19
402,454	417,79
402,662	448,51
402,87	417,79
403,078	432,12
403,285	382,97
403,493	319,48
403,701	235,52
403,909	104,45
404,116	190,46
404,324	-40,96
404,532	40,96
404,739	-53,25
404,947	-10,24
405,155	55,3
405,362	-34,82
405,57	-26,62
405,778	-18,43
405,985	49,15
406,193	47,1
406,4	-34,82
406,608	-22,53
406,816	-67,58
407,023	10,24
407,231	-83,97
407,438	137,21
407,646	34,82
407,853	-18,43
408,061	-47,1
408,268	10,24
408,476	-75,77
408,683	28,67
408,89	32,77
409,098	104,45
409,305	30,72
409,513	-32,77
409,72	73,73
409,927	-43,01
410,135	55,3
410,342	-6,14
410,55	43,01
410,757	-40,96
410,964	6,14
411,172	55,3
411,379	73,73
411,586	51,2
411,793	14,34
412,001	-43,01
412,208	96,25
412,415	151,55
412,622	108,54
412,83	63,49
413,037	131,07
413,244	14,34
413,451	71,68
413,658	114,69
413,866	75,77
414,073	-18,43
414,28	96,25
414,487	-18,43
414,694	71,68
414,901	-2,05
415,108	40,96
415,315	79,87
415,522	114,69
415,73	-90,11
415,937	-96,25
416,144	-67,58
416,351	36,86
416,558	-79,87
416,765	24,58
416,972	30,72
417,179	-18,43
417,386	98,3
417,593	-2,05
417,8	-53,25
418,006	2,05
418,213	73,73
418,42	28,67
418,627	63,49
418,834	-10,24
419,041	4,1
419,248	34,82
419,455	112,64
419,661	106,49
419,868	-10,24
420,075	-34,82
420,282	-24,58
420,489	22,53
420,696	10,24
420,902	96,25
421,109	81,92
421,316	-20,48
421,523	-8,19
421,729	-59,39
421,936	-67,58
422,143	59,39
422,349	-98,3
422,556	-57,34
422,763	-38,91
422,969	-59,39
423,176	-71,68
423,383	-10,24
423,589	309,24
423,796	-18,43
424,002	-83,97
424,209	2,05
424,416	16,38
424,622	-32,77
424,829	-30,72
425,035	-133,12
425,242	-0
425,448	-47,1
425,655	16,38
425,861	10,24
426,068	30,72
426,274	63,49
426,481	-51,2
426,687	-14,34
426,894	-22,53
427,1	38,91
427,306	-81,92
427,513	6,14
427,719	8,19
427,926	22,53
428,132	-2,05
428,338	-45,06
428,545	-2,05
428,751	22,53
428,957	51,2
429,163	32,77
429,37	30,72
429,576	18,43
429,782	49,15
429,989	47,1
430,195	43,01
430,401	-18,43
430,607	8,19
430,813	-51,2
431,02	10,24
431,226	83,97
431,432	-43,01
431,638	57,34
431,844	-65,54
432,05	-40,96
432,257	40,96
432,463	38,91
432,669	22,53
432,875	-55,3
433,081	-47,1
433,287	-16,38
433,493	-16,38
433,699	2,05
433,905	36,86
434,111	-96,25
434,317	-88,06
434,523	129,02
434,729	6,14
434,935	-149,5
435,141	116,73
435,347	49,15
435,553	-10,24
435,759	40,96
435,965	49,15
436,171	-92,16
436,377	-10,24
436,582	81,92
436,788	38,91
436,994	106,49
437,2	-0
437,406	49,15
437,612	47,1
437,818	88,06
438,023	-75,77
438,229	167,93
438,435	112,64
438,641	104,45
438,846	65,53
439,052	90,11
439,258	192,51
439,464	90,11
439,669	104,45
439,875	145,41
440,081	32,77
440,286	-32,77
440,492	6,14
440,698	-26,62
440,903	34,82
441,109	120,83
441,314	-51,2
441,52	-49,15
441,726	-0
441,931	-6,14
442,137	55,3
442,342	10,24
442,548	40,96
442,753	-0
442,959	-22,53
443,164	38,91
443,37	63,49
443,575	-8,19
443,781	30,72
443,986	104,45
444,192	43,01
444,397	-10,24
444,602	-51,2
444,808	83,97
445,013	63,49
445,219	157,69
445,424	419,83
445,629	677,88
445,835	1087,47
446,04	1146,86
446,245	1644,52
446,451	1824,74
446,656	2236,38
446,861	2709,46
447,066	3375,05
447,272	3463,12
447,477	3426,25
447,682	3147,73
447,887	2602,97
448,093	2238,43
448,298	1708,01
448,503	1062,9
448,708	665,59
448,913	460,79
449,118	337,91
449,324	212,99
449,529	153,6
449,734	38,91
449,939	-26,62
450,144	135,17
450,349	-2,05
450,554	-75,77
450,759	-0
450,964	-10,24
451,169	71,68
451,374	14,34
451,579	49,15
451,784	22,53
451,989	-6,14
452,194	126,97
452,399	-34,82
452,604	-65,54
452,809	-2,05
453,014	-51,2
453,219	-26,62
453,424	133,12
453,629	-81,92
453,833	-79,87
454,038	81,92
454,243	-18,43
454,448	38,91
454,653	32,77
454,858	2,05
455,062	-18,43
455,267	-47,1
455,472	16,38
455,677	6,14
455,882	-47,1
456,086	90,11
456,291	65,53
456,496	-59,39
456,7	-2,05
456,905	-16,38
457,11	4,1
457,314	-8,19
457,519	-0
457,724	47,1
457,928	-24,58
458,133	-14,34
458,338	-10,24
458,542	16,38
458,747	26,62
458,951	8,19
459,156	40,96
459,36	-34,82
459,565	57,34
459,769	47,1
459,974	14,34
460,178	8,19
460,383	4,1
460,587	-75,77
460,792	30,72
460,996	24,58
461,201	-88,06
461,405	-28,67
461,61	-75,77
461,814	98,3
462,018	-67,58
462,223	-34,82
462,427	22,53
462,631	-0
462,836	71,68
463,04	24,58
463,244	122,88
463,449	-18,43
463,653	71,68
463,857	79,87
464,062	131,07
464,266	24,58
464,47	-24,58
464,674	83,97
464,878	43,01
465,083	-2,05
465,287	24,58
465,491	-2,05
465,695	34,82
465,899	-20,48
466,104	67,58
466,308	26,62
466,512	73,73
466,716	-16,38
466,92	57,34
467,124	34,82
467,328	8,19
467,532	16,38
467,736	88,06
467,94	100,35
468,144	-6,14
468,348	79,87
468,552	172,03
468,756	14,34
468,96	30,72
469,164	6,14
469,368	-12,29
469,572	163,84
469,776	208,89
469,98	227,32
470,184	212,99
470,388	452,6
470,591	462,84
470,795	616,44
470,999	716,79
471,203	692,21
471,407	821,24
471,611	784,37
471,814	794,61
472,018	598,01
472,222	686,07
472,426	464,89
472,63	333,82
472,833	309,24
473,037	196,6
473,241	98,3
473,444	63,49
473,648	452,6
473,852	-10,24
474,055	-24,58
474,259	-0
474,463	49,15
474,666	143,36
474,87	67,58
475,074	26,62
475,277	26,62
475,481	-10,24
475,684	-32,77
475,888	-32,77
476,091	-16,38
476,295	-63,49
476,498	-10,24
476,702	36,86
476,905	51,2
477,109	79,87
477,312	36,86
477,516	-88,06
477,719	122,88
477,923	-12,29
478,126	-32,77
478,329	-49,15
478,533	-88,06
478,736	-34,82
478,94	55,3
479,143	-26,62
479,346	-26,62
479,55	40,96
479,753	-43,01
479,956	-83,97
480,159	-71,68
480,363	32,77
480,566	96,25
480,769	30,72
480,972	-6,14
481,176	-2,05
481,379	73,73
481,582	59,39
481,785	-40,96
481,988	-2,05
482,192	40,96
482,395	-14,34
482,598	6,14
482,801	-83,97
483,004	112,64
483,207	-96,25
483,41	43,01
483,613	10,24
483,817	96,25
484,02	38,91
484,223	-43,01
484,426	-32,77
484,629	-0
484,832	98,3
485,035	18,43
485,238	22,53
485,441	-51,2
485,644	22,53
485,846	-2,05
486,049	-100,35
486,252	-30,72
486,455	-90,11
486,658	2,05
486,861	22,53
487,064	63,49
487,267	-51,2
487,47	55,3
487,672	63,49
487,875	-2,05
488,078	16,38
488,281	112,64
488,484	51,2
488,686	14,34
488,889	30,72
489,092	-81,92
489,295	24,58
489,497	98,3
489,7	2,05
489,903	40,96
490,105	-63,49
490,308	40,96
490,511	243,71
490,713	270,33
490,916	382,97
491,118	622,58
491,321	751,6
491,524	858,1
491,726	1069,04
491,929	1171,44
492,131	1308,65
492,334	1400,81
492,536	1474,54
492,739	1355,76
492,941	1357,8
493,144	1087,47
493,346	874,48
493,549	573,43
493,751	401,4
493,954	258,04
494,156	260,09
494,359	145,41
494,561	-26,62
494,763	81,92
494,966	10,24
495,168	59,39
495,37	-49,15
495,573	4,1
495,775	30,72
495,977	22,53
496,18	57,34
496,382	174,08
496,584	71,68
496,787	92,16
496,989	-86,01
497,191	-18,43
497,393	-2,05
497,595	-90,11
497,798	-34,82
498	96,25
498,202	8,19
498,404	40,96
498,606	10,24
498,808	151,55
499,011	65,53
499,213	26,62
499,415	67,58
499,617	83,97
499,819	456,7
500,021	784,37
500,223	1169,39
500,425	1636,33
500,627	2283,49
500,829	2834,39
501,031	3432,4
501,233	3880,9
501,435	4454,33
501,637	5115,83
501,839	4880,31
502,041	4802,49
502,243	4583,35
502,445	3835,85
502,647	3213,26
502,848	2361,31
503,05	1785,83
503,252	1275,88
503,454	966,64
503,656	587,77
503,858	423,93
504,059	262,14
504,261	333,82
504,463	329,72
504,665	227,32
504,867	190,46
505,068	249,85
505,27	368,63
505,472	245,76
505,673	212,99
505,875	131,07
506,077	47,1
506,278	55,3
506,48	14,34
506,682	71,68
506,883	71,68
507,085	40,96
507,287	-26,62
507,488	30,72
507,69	83,97
507,891	-71,68
508,093	133,12
508,294	-67,58
508,496	-40,96
508,697	-55,3
508,899	-8,19
509,1	6,14
509,302	71,68
509,503	4,1
509,705	43,01
509,906	43,01
510,108	-32,77
510,309	14,34
510,51	16,38
510,712	-32,77
510,913	-14,34
511,114	-32,77
511,316	-83,97
511,517	16,38
511,718	-24,58
511,92	-8,19
512,121	20,48
512,322	75,77
512,524	129,02
512,725	4,1
512,926	28,67
513,127	-51,2
513,329	32,77
513,53	-10,24
513,731	57,34
513,932	75,77
514,133	-120,83
514,334	2,05
514,536	51,2
514,737	45,06
514,938	-71,68
515,139	-6,14
515,34	-90,11
515,541	57,34
515,742	-55,3
515,943	6,14
516,144	40,96
516,345	-2,05
516,546	53,25
516,747	16,38
516,948	71,68
517,149	-81,92
517,35	-26,62
517,551	-71,68
517,752	26,62
517,953	-24,58
518,154	10,24
518,355	112,64
518,556	96,25
518,756	18,43
518,957	-14,34
519,158	-20,48
519,359	20,48
519,56	-53,25
519,761	14,34
519,961	55,3
520,162	206,84
520,363	-63,49
520,564	-26,62
520,764	131,07
520,965	22,53
521,166	16,38
521,366	-4,1
521,567	32,77
521,768	71,68
521,968	-18,43
522,169	-2,05
522,37	2,05
522,57	-73,73
522,771	-12,29
522,972	-116,73
523,172	133,12
523,373	92,16
523,573	-49,15
523,774	-0
523,974	40,96
524,175	30,72
524,375	-16,38
524,576	40,96
524,776	22,53
524,977	-10,24
525,177	22,53
525,378	22,53
525,578	67,58
525,778	81,92
525,979	65,53
526,179	-4,1
526,38	-8,19
526,58	55,3
526,78	-34,82
526,981	98,3
527,181	-10,24
527,381	22,53
527,582	100,35
527,782	8,19
527,982	14,34
528,182	-16,38
528,383	-16,38
528,583	38,91
528,783	26,62
528,983	-0
529,183	28,67
529,384	-51,2
529,584	137,21
529,784	155,65
529,984	34,82
530,184	-34,82
530,384	8,19
530,584	-2,05
530,784	18,43
530,984	-18,43
531,185	-47,1
531,385	67,58
531,585	69,63
531,785	-32,77
531,985	-38,91
532,185	-43,01
532,385	-30,72
532,585	-16,38
532,785	14,34
532,984	32,77
533,184	30,72
533,384	-32,77
533,584	-49,15
533,784	65,53
533,984	6,14
534,184	22,53
534,384	-26,62
534,583	30,72
534,783	-71,68
534,983	14,34
535,183	-90,11
535,383	-38,91
535,582	-6,14
535,782	-14,34
535,982	6,14
536,182	-16,38
536,381	-71,68
536,581	-88,06
536,781	88,06
536,98	30,72
537,18	104,45
537,38	26,62
537,579	30,72
537,779	2,05
537,979	36,86
538,178	14,34
538,378	26,62
538,577	-104,45
538,777	-30,72
538,976	79,87
539,176	6,14
539,376	-51,2
539,575	28,67
539,774	67,58
539,974	-43,01
540,173	-2,05
540,373	49,15
540,572	30,72
540,772	6,14
540,971	-40,96
541,171	30,72
541,37	55,3
541,569	-6,14
541,769	30,72
541,968	-79,87
542,167	14,34
542,367	-24,58
542,566	-18,43
542,765	-32,77
542,965	-71,68
543,164	18,43
543,363	-38,91
543,562	-63,49
543,761	40,96
543,961	-8,19
544,16	-79,87
544,359	129,02
544,558	18,43
544,757	34,82
544,957	79,87
545,156	86,01
545,355	-18,43
545,554	57,34
545,753	-6,14
545,952	-40,96
546,151	6,14
546,35	-18,43
546,549	47,1
546,748	63,49
546,947	26,62
547,146	-34,82
547,345	28,67
547,544	-108,54
547,743	-10,24
547,942	-26,62
548,141	-16,38
548,34	83,97
548,539	65,53
548,738	14,34
548,937	71,68
549,135	30,72
549,334	-28,67
549,533	14,34
549,732	96,25
549,931	83,97
550,13	-0
550,328	16,38
550,527	-18,43
550,726	47,1
550,925	-30,72
551,123	-2,05
551,322	14,34
551,521	10,24
551,72	-22,53
551,918	55,3
552,117	73,73
552,315	-32,77
552,514	-67,58
552,713	-10,24
552,911	-10,24
553,11	-16,38
553,309	-2,05
553,507	43,01
553,706	18,43
553,904	-30,72
554,103	77,82
554,301	61,44
554,5	2,05
554,698	6,14
554,897	-71,68
555,095	-26,62
555,294	-49,15
555,492	-47,1
555,69	-26,62
555,889	-24,58
556,087	75,77
556,286	75,77
556,484	55,3
556,682	-45,06
556,881	-55,3
557,079	10,24
557,277	90,11
557,476	59,39
557,674	98,3
557,872	55,3
558,07	14,34
558,269	34,82
558,467	-24,58
558,665	36,86
558,863	81,92
559,062	-2,05
559,26	47,1
559,458	-71,68
559,656	77,82
559,854	28,67
560,052	30,72
560,25	139,26
560,449	284,67
560,647	47,1
560,845	-71,68
561,043	116,73
561,241	143,36
561,439	71,68
561,637	43,01
561,835	73,73
562,033	75,77
562,231	-2,05
562,429	8,19
562,627	18,43
562,825	-49,15
563,023	65,53
563,221	53,25
563,418	22,53
563,616	55,3
563,814	161,79
564,012	22,53
564,21	57,34
564,408	63,49
564,605	14,34
564,803	-51,2
565,001	294,91
565,199	-10,24
565,397	92,16
565,594	116,73
565,792	104,45
565,99	18,43
566,188	141,31
566,385	38,91
566,583	-88,06
566,781	59,39
566,978	114,69
567,176	161,79
567,373	75,77
567,571	92,16
567,769	47,1
567,966	8,19
568,164	88,06
568,361	22,53
568,559	79,87
568,756	63,49
568,954	69,63
569,151	79,87
569,349	69,63
569,546	34,82
569,744	92,16
569,941	71,68
570,139	131,07
570,336	-18,43
570,534	49,15
570,731	63,49
570,928	-10,24
571,126	202,75
571,323	131,07
571,52	14,34
571,718	126,97
571,915	-0
572,112	30,72
572,31	55,3
572,507	92,16
572,704	-18,43
572,901	-90,11
573,099	49,15
573,296	155,65
573,493	-10,24
573,69	38,91
573,887	96,25
574,085	131,07
574,282	88,06
574,479	26,62
574,676	28,67
574,873	65,53
575,07	65,53
575,267	-2,05
575,464	73,73
575,661	180,22
575,858	14,34
576,055	14,34
576,252	129,02
576,449	43,01
576,646	83,97
576,843	100,35
577,04	112,64
577,237	98,3
577,434	53,25
577,631	18,43
577,828	75,77
578,025	-10,24
578,222	55,3
578,419	6,14
578,615	47,1
578,812	178,17
579,009	55,3
579,206	57,34
579,403	38,91
579,599	206,84
579,796	88,06
579,993	133,12
580,19	6,14
580,386	67,58
580,583	38,91
580,78	53,25
580,976	116,73
581,173	47,1
581,37	108,54
581,566	83,97
581,763	104,45
581,96	149,5
582,156	104,45
582,353	167,93
582,549	169,98
582,746	202,75
582,942	63,49
583,139	149,5
583,335	124,93
583,532	147,45
583,728	88,06
583,925	104,45
584,121	161,79
584,318	188,41
584,514	262,14
584,711	247,8
584,907	276,48
585,103	296,96
585,3	409,59
585,496	552,95
585,693	1124,33
585,889	3594,19
586,085	8503,17
586,281	14497,57
586,478	22066,86
586,674	29783,61
586,87	38636,98
587,067	47211,82
587,263	52778,2
587,459	55813,29
587,655	59589,75
587,851	61039,71
588,048	59614,32
588,244	56188,07
588,44	52428
588,636	46667,06
588,832	40179,1
589,028	33578,5
589,224	27369,05
589,42	21335,74
589,617	15628,05
589,813	10180,45
590,009	6203,3
590,205	3981,25
590,401	2275,29
590,597	1546,22
590,793	1105,9
590,989	739,32
591,185	608,25
591,38	520,18
591,576	262,14
591,772	335,87
591,968	260,09
592,164	305,15
592,36	253,95
592,556	172,03
592,752	194,56
592,948	110,59
593,143	67,58
593,339	96,25
593,535	57,34
593,731	167,93
593,926	223,23
594,122	24,58
594,318	71,68
594,514	145,41
594,709	71,68
594,905	55,3
595,101	112,64
595,296	30,72
595,492	149,5
595,688	67,58
595,883	73,73
596,079	161,79
596,275	10,24
596,47	153,6
596,666	30,72
596,861	116,73
597,057	-2,05
597,252	67,58
597,448	24,58
597,643	53,25
597,839	83,97
598,034	88,06
598,23	55,3
598,425	92,16
598,621	120,83
598,816	112,64
599,011	32,77
599,207	43,01
599,402	6,14
599,597	169,98
599,793	55,3
599,988	55,3
600,183	137,21
600,379	59,39
600,574	26,62
600,769	59,39
600,965	55,3
601,16	30,72
601,355	-0
601,55	63,49
601,745	51,2
601,941	18,43
602,136	118,78
602,331	71,68
602,526	40,96
602,721	90,11
602,916	24,58
603,111	-14,34
603,307	-2,05
603,502	129,02
603,697	8,19
603,892	137,21
604,087	47,1
604,282	75,77
604,477	139,26
604,672	-32,77
604,867	26,62
605,062	63,49
605,257	96,25
605,452	215,04
605,646	92,16
605,841	47,1
606,036	-8,19
606,231	22,53
606,426	14,34
606,621	2,05
606,816	92,16
607,01	114,69
607,205	61,44
607,4	30,72
607,595	110,59
607,79	98,3
607,984	-18,43
608,179	30,72
608,374	-8,19
608,569	40,96
608,763	38,91
608,958	-30,72
609,153	73,73
609,347	32,77
609,542	79,87
609,736	145,41
609,931	-0
610,126	-18,43
610,32	92,16
610,515	-38,91
610,709	284,67
610,904	8,19
611,098	16,38
611,293	6,14
611,487	-16,38
611,682	34,82
611,876	16,38
612,071	32,77
612,265	96,25
612,46	-14,34
612,654	92,16
612,848	32,77
613,043	-8,19
613,237	20,48
613,432	-88,06
613,626	-14,34
613,82	32,77
614,014	100,35
614,209	6,14
614,403	55,3
614,597	30,72
614,792	-22,53
614,986	14,34
615,18	57,34
615,374	16,38
615,568	96,25
615,763	57,34
615,957	6,14
616,151	6,14
616,345	38,91
616,539	4,1
616,733	47,1
616,927	96,25
617,121	-51,2
617,316	-34,82
617,51	79,87
617,704	104,45
617,898	79,87
618,092	-0
618,286	-47,1
618,48	-32,77
618,674	122,88
618,868	67,58
619,061	-45,06
619,255	141,31
619,449	47,1
619,643	26,62
619,837	100,35
620,031	57,34
620,225	100,35
620,419	71,68
620,612	104,45
620,806	53,25
621	110,59
621,194	79,87
621,388	81,92
621,581	51,2
621,775	47,1
621,969	43,01
622,162	71,68
622,356	43,01
622,55	55,3
622,743	-24,58
622,937	-30,72
623,131	20,48
623,324	120,83
623,518	-10,24
623,712	-16,38
623,905	6,14
624,099	-20,48
624,292	-2,05
624,486	59,39
624,679	32,77
624,873	-2,05
625,066	104,45
625,26	14,34
625,453	-8,19
625,647	14,34
625,84	22,53
626,034	112,64
626,227	8,19
626,42	67,58
626,614	30,72
626,807	81,92
627	14,34
627,194	-40,96
627,387	14,34
627,58	-2,05
627,774	-22,53
627,967	79,87
628,16	71,68
628,353	104,45
628,547	55,3
628,74	106,49
628,933	-24,58
629,126	22,53
629,319	30,72
629,513	24,58
629,706	-18,43
629,899	47,1
630,092	-57,34
630,285	-43,01
630,478	-14,34
630,671	75,77
630,864	71,68
631,057	-2,05
631,25	63,49
631,443	22,53
631,636	112,64
631,829	112,64
632,022	129,02
632,215	16,38
632,408	-16,38
632,601	36,86
632,794	-51,2
632,987	-26,62
633,18	-10,24
633,373	49,15
633,566	-30,72
633,758	-40,96
633,951	22,53
634,144	59,39
634,337	-51,2
634,53	38,91
634,722	157,69
634,915	-83,97
635,108	2,05
635,301	32,77
635,493	55,3
635,686	151,55
635,879	112,64
636,071	-32,77
636,264	65,53
636,457	108,54
636,649	-34,82
636,842	-8,19
637,034	98,3
637,227	96,25
637,42	53,25
637,612	81,92
637,805	-22,53
637,997	88,06
638,19	38,91
638,382	-32,77
638,575	38,91
638,767	38,91
638,96	81,92
639,152	18,43
639,344	96,25
639,537	-18,43
639,729	51,2
639,922	55,3
640,114	-10,24
640,306	88,06
640,499	120,83
640,691	-49,15
640,883	-6,14
641,075	55,3
641,268	24,58
641,46	96,25
641,652	79,87
641,844	-12,29
642,037	-4,1
642,229	24,58
642,421	129,02
642,613	49,15
642,805	30,72
642,998	24,58
643,19	65,53
643,382	96,25
643,574	104,45
643,766	73,73
643,958	-24,58
644,15	86,01
644,342	137,21
644,534	100,35
644,726	-24,58
644,918	73,73
645,11	71,68
645,302	-8,19
645,494	-71,68
645,686	14,34
645,878	-51,2
646,07	88,06
646,262	55,3
646,453	-2,05
646,645	-40,96
646,837	10,24
647,029	79,87
647,221	-2,05
647,413	4,1
647,604	-12,29
647,796	96,25
647,988	88,06
648,18	47,1
648,371	-51,2
648,563	2,05
648,755	63,49
648,947	-65,54
649,138	2,05
649,33	63,49
649,521	83,97
649,713	55,3
649,905	75,77
650,096	49,15
650,288	14,34
650,479	-2,05
650,671	59,39
650,863	18,43
651,054	24,58
651,246	53,25
651,437	-10,24
651,629	92,16
651,82	36,86
652,011	38,91
652,203	71,68
652,394	22,53
652,586	71,68
652,777	14,34
652,968	-47,1
653,16	-26,62
653,351	108,54
653,542	75,77
653,734	55,3
653,925	-40,96
654,116	71,68
654,308	55,3
654,499	-8,19
654,69	18,43
654,881	38,91
655,073	26,62
655,264	49,15
655,455	-65,54
655,646	40,96
655,837	47,1
656,028	100,35
656,219	-18,43
656,411	59,39
656,602	30,72
656,793	38,91
656,984	81,92
657,175	32,77
657,366	26,62
657,557	32,77
657,748	2,05
657,939	-2,05
658,13	26,62
658,321	49,15
658,512	59,39
658,703	104,45
658,894	147,45
659,084	30,72
659,275	40,96
659,466	12,29
659,657	90,11
659,848	4,1
660,039	55,3
660,23	28,67
660,42	-2,05
660,611	-18,43
660,802	63,49
660,993	12,29
661,183	30,72
661,374	-40,96
661,565	120,83
661,755	22,53
661,946	104,45
662,137	18,43
662,327	-6,14
662,518	122,88
662,709	-0
662,899	-26,62
663,09	57,34
663,28	110,59
663,471	-2,05
663,662	157,69
663,852	30,72
664,043	163,84
664,233	38,91
664,424	22,53
664,614	55,3
664,804	96,25
664,995	104,45
665,185	71,68
665,376	-8,19
665,566	106,49
665,756	71,68
665,947	122,88
666,137	292,86
666,328	993,26
666,518	2271,2
666,708	3786,69
666,898	5625,77
667,089	7583,63
667,279	9320,31
667,469	10860,38
667,659	11941,71
667,85	12212,04
668,04	12482,37
668,23	12121,93
668,42	11435,86
668,61	10667,87
668,8	9721,71
668,991	8806,27
669,181	7655,31
669,371	6477,73
669,561	5674,92
669,751	4800,44
669,941	3989,44
670,131	2979,79
670,321	2187,23
670,511	1462,25
670,701	989,17
670,891	604,15
671,081	319,48
671,271	243,71
671,461	186,37
671,651	196,6
671,841	88,06
672,03	182,27
672,22	73,73
672,41	102,4
672,6	96,25
672,79	67,58
672,98	38,91
673,169	10,24
673,359	-2,05
673,549	14,34
673,739	-8,19
673,928	-2,05
674,118	10,24
674,308	98,3
674,497	145,41
674,687	-16,38
674,877	-2,05
675,066	-6,14
675,256	2,05
675,446	88,06
675,635	-30,72
675,825	38,91
676,014	-55,3
676,204	-34,82
676,393	88,06
676,583	75,77
676,772	112,64
676,962	14,34
677,151	106,49
677,341	10,24
677,53	32,77
677,72	49,15
677,909	18,43
678,099	-2,05
678,288	-14,34
678,477	79,87
678,667	100,35
678,856	10,24
679,045	120,83
679,235	47,1
679,424	90,11
679,613	139,26
679,802	-0
679,992	-24,58
680,181	36,86
680,37	88,06
680,559	49,15
680,748	129,02
680,938	69,63
681,127	-2,05
681,316	-18,43
681,505	57,34
681,694	6,14
681,883	26,62
682,072	55,3
682,261	-18,43
682,45	-83,97
682,639	-59,39
682,828	47,1
683,017	96,25
683,206	14,34
683,395	-26,62
683,584	141,31
683,773	81,92
683,962	106,49
684,151	-43,01
684,34	83,97
684,529	-55,3
684,718	-6,14
684,907	18,43
685,095	55,3
685,284	120,83
685,473	71,68
685,662	-30,72
685,851	116,73
686,039	20,48
686,228	-26,62
686,417	-14,34
686,606	129,02
686,794	-18,43
686,983	-59,39
687,172	6,14
687,36	20,48
687,549	63,49
687,738	59,39
687,926	32,77
688,115	-79,87
688,303	26,62
688,492	47,1
688,68	-2,05
688,869	-75,77
689,057	-8,19
689,246	-40,96
689,434	24,58
689,623	-16,38
689,811	65,53
690	-67,58
690,188	-18,43
690,377	55,3
690,565	30,72
690,753	14,34
690,942	59,39
691,13	47,1
691,318	79,87
691,507	-38,91
691,695	-43,01
691,883	51,2
692,072	26,62
692,26	131,07
692,448	73,73
692,636	12,29
692,824	-47,1
693,013	137,21
693,201	14,34
693,389	6,14
693,577	38,91
693,765	83,97
693,953	51,2
694,141	-53,25
694,329	-75,77
694,518	34,82
694,706	34,82
694,894	43,01
695,082	36,86
695,27	32,77
695,458	63,49
695,646	2,05
695,834	122,88
696,022	-2,05
696,209	57,34
696,397	28,67
696,585	-10,24
696,773	6,14
696,961	10,24
697,149	-8,19
697,337	53,25
697,525	90,11
697,712	61,44
697,9	20,48
698,088	71,68
698,276	65,53
698,463	28,67
698,651	77,82
698,839	38,91
699,027	16,38
699,214	92,16
699,402	8,19
699,59	32,77
699,777	22,53
699,965	38,91
700,152	14,34
700,34	-8,19
700,528	6,14
700,715	4,1
700,903	108,54
701,09	88,06
701,278	38,91
701,465	47,1
701,653	55,3
701,84	38,91
702,028	145,41
702,215	65,53
702,402	8,19
702,59	51,2
702,777	96,25
702,965	63,49
703,152	49,15
703,339	194,56
703,527	55,3
703,714	137,21
703,901	73,73
704,088	129,02
704,276	116,73
704,463	163,84
704,65	186,37
704,837	296,96
705,025	890,87
705,212	2811,86
705,399	5971,88
705,586	9467,76
705,773	13240,12
705,96	16824,06
706,147	20012,75
706,335	21669,56
706,522	23015,07
706,709	22912,67
706,896	22494,89
707,083	21118,65
707,27	19838,67
707,457	18112,24
707,644	16621,31
707,831	14567,2
708,018	12441,41
708,205	10848,09
708,392	9209,72
708,578	7722,89
708,765	6600,6
708,952	5408,69
709,139	4089,79
709,326	2852,82
709,513	2009,06
709,7	1337,32
709,886	882,67
710,073	671,73
710,26	495,61
710,447	251,9
710,633	186,37
710,82	145,41
711,007	153,6
711,193	124,93
711,38	75,77
711,567	112,64
711,753	77,82
711,94	133,12
712,127	96,25
712,313	155,65
712,5	26,62
712,686	96,25
712,873	47,1
713,059	14,34
713,246	38,91
713,432	100,35
713,619	-79,87
713,805	6,14
713,992	-0
714,178	16,38
714,365	36,86
714,551	190,46
714,737	38,91
714,924	-4,1
715,11	14,34
715,297	100,35
715,483	22,53
715,669	-2,05
715,855	-43,01
716,042	49,15
716,228	-8,19
716,414	90,11
716,6	43,01
716,787	-6,14
716,973	-51,2
717,159	-57,34
717,345	116,73
717,531	-0
717,718	6,14
717,904	63,49
718,09	53,25
718,276	88,06
718,462	-16,38
718,648	14,34
718,834	104,45
719,02	79,87
719,206	43,01
719,392	2,05
719,578	-6,14
719,764	6,14
719,95	-26,62
720,136	98,3
720,322	-6,14
720,508	22,53
720,694	14,34
720,879	-0
721,065	116,73
721,251	-6,14
721,437	63,49
721,623	96,25
721,809	6,14
721,994	88,06
722,18	-92,16
722,366	-30,72
722,552	-10,24
722,737	40,96
722,923	2,05
723,109	98,3
723,294	30,72
723,48	6,14
723,666	104,45
723,851	22,53
724,037	30,72
724,222	104,45
724,408	16,38
724,593	81,92
724,779	8,19
724,965	-32,77
725,15	30,72
725,336	-20,48
725,521	118,78
725,706	6,14
725,892	6,14
726,077	6,14
726,263	-0
726,448	77,82
726,634	118,78
726,819	292,86
727,004	610,29
727,19	817,14
727,375	1302,51
727,56	1564,65
727,745	1802,21
727,931	2185,18
728,116	2131,94
728,301	2260,96
728,486	2258,91
728,672	2045,92
728,857	1955,81
729,042	1841,12
729,227	1548,26
729,412	1290,22
729,597	1243,12
729,783	991,22
729,968	892,91
730,153	731,12
730,338	579,58
730,523	522,23
730,708	366,59
730,893	382,97
731,078	231,42
731,263	270,33
731,448	79,87
731,633	98,3
731,818	-40,96
732,003	10,24
732,187	47,1
732,372	40,96
732,557	30,72
732,742	2,05
732,927	-6,14
733,112	6,14
733,297	-43,01
733,481	-2,05
733,666	14,34
733,851	55,3
734,036	-81,92
734,22	-22,53
734,405	26,62
734,59	-16,38
734,774	96,25
734,959	-40,96
735,144	155,65
735,328	-10,24
735,513	-108,54
735,698	-53,25
735,882	26,62
736,067	88,06
736,251	-47,1
736,436	-34,82
736,62	-22,53
736,805	-51,2
736,989	34,82
737,174	-65,54
737,358	-79,87
737,543	18,43
737,727	26,62
737,911	145,41
738,096	36,86
738,28	-16,38
738,465	12,29
738,649	20,48
738,833	61,44
739,018	14,34
739,202	-34,82
739,386	43,01
739,57	-55,3
739,755	-18,43
739,939	51,2
740,123	-26,62
740,307	6,14
740,491	-6,14
740,676	-6,14
740,86	22,53
741,044	-73,73
741,228	14,34
741,412	-100,35
741,596	6,14
741,78	-40,96
741,964	8,19
742,148	-108,54
742,332	65,53
742,516	-83,97
742,7	38,91
742,884	-24,58
743,068	40,96
743,252	40,96
743,436	57,34
743,62	-149,5
743,804	73,73
743,988	83,97
744,172	6,14
744,356	96,25
744,539	20,48
744,723	14,34
744,907	-40,96
745,091	16,38
745,275	4,1
745,458	22,53
745,642	-18,43
745,826	-24,58
746,009	16,38
746,193	55,3
746,377	106,49
746,56	30,72
746,744	55,3
746,928	-10,24
747,111	67,58
747,295	12,29
747,478	-10,24
747,662	2,05
747,846	88,06
748,029	20,48
748,213	22,53
748,396	-2,05
748,58	-45,06
748,763	-2,05
748,946	-38,91
749,13	10,24
749,313	-67,58
749,497	34,82
749,68	49,15
749,863	-10,24
750,047	-43,01
750,23	-40,96
750,413	18,43
750,597	55,3
750,78	-2,05
750,963	49,15
751,146	6,14
751,33	-6,14
751,513	65,53
751,696	-10,24
751,879	8,19
752,062	-96,25
752,246	2,05
752,429	14,34
752,612	-40,96
752,795	-59,39
752,978	-43,01
753,161	-67,58
753,344	-98,3
753,527	47,1
753,71	-94,21
753,893	102,4
754,076	-71,68
754,259	126,97
754,442	-18,43
754,625	-75,77
754,808	108,54
754,991	96,25
755,174	12,29
755,357	-100,35
755,539	30,72
755,722	71,68
755,905	6,14
756,088	47,1
756,271	-59,39
756,453	-18,43
756,636	-96,25
756,819	114,69
757,002	-51,2
757,184	79,87
757,367	88,06
757,55	-55,3
757,732	55,3
757,915	-18,43
758,098	12,29
758,28	-22,53
758,463	22,53
758,645	-2,05
758,828	106,49
759,011	-0
759,193	-12,29
759,376	-43,01
759,558	-79,87
759,741	22,53
759,923	-49,15
760,105	-92,16
760,288	14,34
760,47	-61,44
760,653	22,53
760,835	-45,06
761,017	-40,96
761,2	30,72
761,382	49,15
761,564	10,24
761,747	-0
761,929	-24,58
762,111	-26,62
762,294	-18,43
762,476	139,26
762,658	-0
762,84	6,14
763,022	-10,24
763,205	114,69
763,387	71,68
763,569	26,62
763,751	-63,49
763,933	-69,63
764,115	-83,97
764,297	-26,62
764,479	2,05
764,661	-22,53
764,843	104,45
765,025	-81,92
765,207	14,34
765,389	-34,82
765,571	-55,3
765,753	49,15
765,935	-10,24
766,117	-4,1
766,299	32,77
766,481	96,25
766,663	-28,67
766,845	-120,83
767,026	-40,96
767,208	-81,92
767,39	-43,01
767,572	-32,77
767,753	71,68
767,935	24,58
768,117	-6,14
768,299	-16,38
768,48	-43,01
768,662	-6,14
768,844	-16,38
769,025	161,79
769,207	26,62
769,389	-92,16
769,57	-6,14
769,752	59,39
769,933	63,49
770,115	14,34
770,296	18,43
770,478	149,5
770,659	-57,34
770,841	202,75
771,022	36,86
771,204	47,1
771,385	22,53
771,567	88,06
771,748	59,39
771,929	-36,86
772,111	-55,3
772,292	104,45
772,473	38,91
772,655	22,53
772,836	34,82
773,017	67,58
773,199	88,06
773,38	73,73
773,561	57,34
773,742	47,1
773,923	-16,38
774,105	8,19
774,286	112,64
774,467	-73,73
774,648	-59,39
774,829	71,68
775,01	-49,15
775,191	-77,82
775,372	-2,05
775,553	-0
775,734	-10,24
775,915	-30,72
776,096	-18,43
776,277	92,16
776,458	-63,49
776,639	100,35
776,82	79,87
777,001	-2,05
777,182	10,24
777,363	-49,15
777,544	67,58
777,725	129,02
777,906	-26,62
778,086	34,82
778,267	32,77
778,448	18,43
778,629	-2,05
778,809	141,31
778,99	-36,86
779,171	-43,01
779,352	61,44
779,532	-120,83
779,713	-59,39
779,894	30,72
780,074	153,6
780,255	92,16
780,435	36,86
780,616	83,97
780,797	57,34
780,977	-10,24
781,158	-32,77
781,338	36,86
781,519	-18,43
781,699	217,08
781,88	-8,19
782,06	-49,15
782,241	63,49
782,421	-43,01
782,601	30,72
782,782	49,15
782,962	47,1
783,142	-32,77
783,323	24,58
783,503	71,68
783,683	47,1
783,864	49,15
784,044	55,3
784,224	124,93
784,404	-16,38
784,585	22,53
784,765	-2,05
784,945	79,87
785,125	-34,82
785,305	75,77
785,485	106,49
785,666	43,01
785,846	49,15
786,026	-28,67
786,206	-75,77
786,386	-43,01
786,566	-16,38
786,746	-6,14
786,926	-0
787,106	26,62
787,286	-73,73
787,466	96,25
787,646	40,96
787,826	47,1
788,006	131,07
788,185	34,82
788,365	-24,58
788,545	-12,29
788,725	43,01
788,905	-6,14
789,085	-59,39
789,264	-45,06
789,444	51,2
789,624	57,34
789,804	6,14
789,983	71,68
790,163	-32,77
790,343	49,15
790,522	32,77
790,702	18,43
790,882	22,53
791,061	73,73
791,241	30,72
791,42	-22,53
791,6	4,1
791,78	6,14
791,959	8,19
792,139	-43,01
792,318	30,72
792,498	81,92
792,677	90,11
792,856	-28,67
793,036	-18,43
793,215	-34,82
793,395	59,39
793,574	-43,01
793,753	-2,05
793,933	83,97
794,112	8,19
794,291	-18,43
794,471	180,22
794,65	-22,53
794,829	-43,01
795,008	67,58
795,188	57,34
795,367	122,88
795,546	38,91
795,725	-45,06
795,904	-0
796,084	26,62
796,263	-10,24
796,442	104,45
796,621	24,58
796,8	47,1
796,979	16,38
797,158	-26,62
797,337	-32,77
797,516	30,72
797,695	57,34
797,874	102,4
798,053	71,68
798,232	2,05
798,411	-38,91
798,59	-18,43
798,769	-32,77
798,947	-14,34
799,126	63,49
799,305	-2,05
799,484	8,19
799,663	-116,73
799,842	-8,19
800,02	8,19
800,199	-22,53
800,378	47,1
800,557	16,38
800,735	-26,62
800,914	-0
801,093	18,43
801,271	6,14
801,45	22,53
801,628	2,05
801,807	-2,05
801,986	38,91
802,164	16,38
802,343	-26,62
802,521	-18,43
802,7	51,2
802,878	88,06
803,057	6,14
803,235	4,1
803,414	14,34
803,592	30,72
803,771	-22,53
803,949	22,53
804,127	-10,24
804,306	20,48
804,484	59,39
804,662	-55,3
804,841	-67,58
805,019	88,06
805,197	-16,38
805,375	47,1
805,554	88,06
805,732	-4,1
805,91	14,34
806,088	-24,58
806,266	-30,72
806,445	-43,01
806,623	-30,72
806,801	55,3
806,979	98,3
807,157	14,34
807,335	-65,54
807,513	-2,05
807,691	-8,19
807,869	-63,49
808,047	8,19
808,225	-116,73
808,403	65,53
808,581	-6,14
808,759	145,41
808,937	22,53
809,115	57,34
809,293	-24,58
809,471	-40,96
809,649	18,43
809,826	63,49
810,004	73,73
810,182	-34,82
810,36	-86,01
810,538	63,49
810,715	14,34
810,893	-14,34
811,071	-6,14
811,248	116,73
811,426	2,05
811,604	43,01
811,781	28,67
811,959	30,72
812,137	-2,05
812,314	-65,54
812,492	30,72
812,669	-34,82
812,847	-18,43
813,024	-36,86
813,202	63,49
813,379	-67,58
813,557	71,68
813,734	135,17
813,912	47,1
814,089	28,67
814,267	57,34
814,444	24,58
814,621	30,72
814,799	-67,58
814,976	28,67
815,153	88,06
815,331	-38,91
815,508	10,24
815,685	-0
815,862	32,77
816,04	20,48
816,217	-34,82
816,394	30,72
816,571	14,34
816,748	194,56
816,926	92,16
817,103	223,23
817,28	75,77
817,457	-67,58
817,634	120,83
817,811	-26,62
817,988	-47,1
818,165	106,49
818,342	-24,58
818,519	22,53
818,696	-16,38
818,873	8,19
819,05	92,16
819,227	6,14
819,404	-51,2
819,581	-0
819,758	-6,14
819,934	-2,05
820,111	-49,15
820,288	22,53
820,465	-14,34
820,642	122,88
820,818	36,86
820,995	-20,48
821,172	14,34
821,349	49,15
821,525	30,72
821,702	116,73
821,879	-67,58
822,055	-63,49
822,232	14,34
822,409	-51,2
822,585	10,24
822,762	34,82
822,938	38,91
823,115	79,87
823,291	49,15
823,468	106,49
823,644	-14,34
823,821	98,3
823,997	79,87
824,174	-104,45
824,35	51,2
824,527	-26,62
824,703	16,38
824,879	-0
825,056	81,92
825,232	71,68
825,408	-10,24
825,585	24,58
825,761	-67,58
825,937	-67,58
826,113	16,38
826,29	55,3
826,466	-32,77
826,642	393,21
826,818	81,92
826,994	22,53
827,17	-16,38
827,347	-133,12
827,523	-112,64
827,699	-18,43
827,875	26,62
828,051	71,68
828,227	-10,24
828,403	129,02
828,579	151,55
828,755	34,82
828,931	-26,62
829,107	34,82
829,283	180,22
829,459	-30,72
829,635	55,3
829,811	40,96
829,986	53,25
830,162	6,14
830,338	-10,24
830,514	-18,43
830,69	-43,01
830,865	30,72
831,041	49,15
831,217	-96,25
831,393	-2,05
831,568	20,48
831,744	75,77
831,92	36,86
832,095	-38,91
832,271	-4,1
832,447	32,77
832,622	88,06
832,798	22,53
832,973	12,29
833,149	83,97
833,325	34,82
833,5	57,34
833,676	14,34
833,851	92,16
834,027	-8,19
834,202	-6,14
834,377	90,11
834,553	18,43
834,728	22,53
834,904	6,14
835,079	-43,01
835,254	-47,1
835,43	-32,77
835,605	16,38
835,78	-30,72
835,955	22,53
836,131	14,34
836,306	-38,91
836,481	-12,29
836,656	71,68
836,832	59,39
837,007	-75,77
837,182	-0
837,357	-26,62
837,532	-12,29
837,707	-53,25
837,882	-18,43
838,057	104,45
838,232	77,82
838,407	16,38
838,582	-65,54
838,757	-2,05
838,932	55,3
839,107	-16,38
839,282	-26,62
839,457	6,14
839,632	79,87
839,807	67,58
839,982	18,43
840,157	-16,38
840,332	26,62
840,506	-26,62
840,681	6,14
840,856	-18,43
841,031	-57,34
841,205	-30,72
841,38	45,06
841,555	38,91
841,73	-43,01
841,904	-55,3
842,079	14,34
842,254	-0
842,428	2,05
842,603	-63,49
842,777	-114,69
842,952	34,82
843,126	6,14
843,301	34,82
843,476	-16,38
843,65	-14,34
843,825	73,73
843,999	-12,29
844,173	-51,2
844,348	-30,72
844,522	71,68
844,697	-43,01
844,871	-26,62
845,045	40,96
845,22	-14,34
845,394	88,06
845,568	-38,91
845,743	28,67
845,917	63,49
846,091	-57,34
846,265	2,05
846,44	65,53
846,614	8,19
846,788	6,14
846,962	-0
847,136	20,48
847,31	-63,49
847,485	108,54
847,659	-18,43
847,833	24,58
848,007	26,62
848,181	32,77
848,355	-67,58
848,529	36,86
848,703	96,25
848,877	-131,07
849,051	55,3
849,225	14,34
849,399	-16,38
849,573	-90,11
849,746	79,87
849,92	-24,58
850,094	-24,58
850,268	-6,14
850,442	81,92
850,616	-59,39
850,789	34,82
850,963	-8,19
851,137	-16,38
851,311	137,21
851,484	96,25
851,658	73,73
851,832	-75,77
852,005	-18,43
852,179	-34,82
852,352	14,34
852,526	-36,86
852,7	47,1
852,873	-100,35
853,047	-30,72
853,22	-40,96
853,394	55,3
853,567	22,53
853,741	10,24
853,914	55,3
854,088	47,1
854,261	2,05
854,434	4,1
854,608	-2,05
854,781	-73,73
854,955	16,38
855,128	-24,58
855,301	-16,38
855,475	-18,43
855,648	4,1
855,821	10,24
855,994	24,58
856,168	86,01
856,341	26,62
856,514	-79,87
856,687	-34,82
856,86	-2,05
857,033	8,19
857,207	6,14
857,38	-43,01
857,553	49,15
857,726	-14,34
857,899	57,34
858,072	22,53
858,245	14,34
858,418	-43,01
858,591	-34,82
858,764	4,1
858,937	96,25
859,11	30,72
859,283	40,96
859,455	-32,77
859,628	-88,06
859,801	55,3
859,974	59,39
860,147	-24,58
860,32	-104,45
860,492	-43,01
860,665	-106,49
860,838	-18,43
861,011	34,82
861,183	88,06
861,356	83,97
861,529	112,64
861,701	-26,62
861,874	49,15
862,047	165,89
862,219	79,87
862,392	40,96
862,564	6,14
862,737	47,1
862,909	96,25
863,082	14,34
863,254	83,97
863,427	45,06
863,599	100,35
863,772	-43,01
863,944	-26,62
864,117	30,72
864,289	-2,05
864,461	-30,72
864,634	67,58
864,806	-59,39
864,978	65,53
865,151	-92,16
865,323	112,64
865,495	104,45
865,667	-59,39
865,84	49,15
866,012	-59,39
866,184	96,25
866,356	-59,39
866,528	-6,14
866,7	-34,82
866,873	-34,82
867,045	-22,53
867,217	-30,72
867,389	106,49
867,561	14,34
867,733	14,34
867,905	6,14
868,077	2,05
868,249	-43,01
868,421	32,77
868,593	40,96
868,765	90,11
868,936	-63,49
869,108	14,34
869,28	133,12
869,452	6,14
869,624	8,19
869,796	30,72
869,968	2,05
870,139	96,25
870,311	49,15
870,483	88,06
870,654	-59,39
870,826	40,96
870,998	-26,62
871,17	12,29
871,341	-67,58
871,513	118,78
871,684	-2,05
871,856	-38,91
872,028	59,39
872,199	-20,48
872,371	-59,39
872,542	47,1
872,714	-45,06
872,885	24,58
873,057	6,14
873,228	67,58
873,4	-24,58
873,571	38,91
873,742	-75,77
873,914	73,73
874,085	-10,24
874,256	32,77
874,428	-51,2
874,599	6,14
874,77	47,1
874,942	-34,82
875,113	6,14
875,284	-55,3
875,455	-22,53
875,626	18,43
875,798	16,38
875,969	-40,96
876,14	57,34
876,311	22,53
876,482	59,39
876,653	92,16
876,824	40,96
876,995	-8,19
877,166	120,83
877,337	-10,24
877,508	-26,62
877,679	14,34
877,85	-34,82
878,021	-22,53
878,192	22,53
878,363	-24,58
878,534	-59,39
878,705	-83,97
878,876	-67,58
879,047	53,25
879,217	-90,11
879,388	10,24
879,559	38,91
879,73	30,72
879,9	8,19
880,071	114,69
880,242	18,43
880,413	22,53
880,583	71,68
880,754	30,72
880,924	30,72
881,095	-40,96
881,266	-34,82
881,436	63,49
881,607	65,53
881,777	-10,24
881,948	-10,24
882,118	10,24
882,289	-26,62
882,459	8,19
882,63	10,24
882,8	-0
882,971	-18,43
883,141	6,14
883,311	14,34
883,482	104,45
883,652	-28,67
883,822	-112,64
883,993	-57,34
884,163	104,45
884,333	6,14
884,504	79,87
884,674	22,53
884,844	32,77
885,014	-49,15
885,184	-69,63
885,355	22,53
885,525	-22,53
885,695	57,34
885,865	63,49
886,035	6,14
886,205	-57,34
886,375	-0
886,545	30,72
886,715	-126,97
886,885	-4,1
887,055	-22,53
887,225	-55,3
887,395	-2,05
887,565	120,83
887,735	-43,01
887,905	2,05
888,075	-100,35
888,244	88,06
888,414	-2,05
888,584	77,82
888,754	-24,58
888,924	16,38
889,093	161,79
889,263	-28,67
889,433	-10,24
889,603	-12,29
889,772	22,53
889,942	47,1
890,111	63,49
890,281	63,49
890,451	-26,62
890,62	-4,1
890,79	-34,82
890,959	-24,58
891,129	47,1
891,298	14,34
891,468	34,82
891,637	18,43
891,807	2,05
891,976	133,12
892,146	24,58
892,315	26,62
892,485	49,15
892,654	-32,77
892,823	-73,73
892,993	-2,05
893,162	-2,05
893,331	49,15
893,501	-0
893,67	24,58
893,839	-24,58
894,008	-30,72
894,177	-43,01
894,347	-2,05
894,516	104,45
894,685	34,82
894,854	-22,53
895,023	51,2
895,192	79,87
