Data from he_USB4F104161__34__11-53-38-688.txt Node

Date: Tue Apr 14 11:53:38 EDT 2026
User: LaboPhy
Spectrometer: USB4F10416
Trigger mode: 4
Integration Time (sec): 1,000000E-1
Scans to average: 1
Electric dark correction enabled: true
Nonlinearity correction enabled: false
Boxcar width: 0
XAxis mode: Wavelengths
Number of Pixels in Spectrum: 3648
>>>>>Begin Spectral Data<<<<<
177,847	-144,55
178,066	-144,55
178,284	-144,55
178,502	-189,61
178,72	-185,51
178,939	62,29
179,157	29,52
179,375	-9,39
179,593	2,9
179,812	-5,29
180,03	19,29
180,248	2,9
180,466	29,52
180,685	-23,72
180,903	-33,96
181,121	-38,06
181,339	-36,01
181,557	13,14
181,775	-11,43
181,994	-15,53
182,212	27,48
182,43	-19,63
182,648	13,14
182,866	37,72
183,084	84,82
183,302	7
183,52	19,29
183,739	56,15
183,957	43,86
184,175	-3,24
184,393	11,09
184,611	21,33
184,829	52,05
185,047	-19,63
185,265	109,4
185,483	-13,48
185,701	21,33
185,919	-21,67
186,137	21,33
186,355	27,48
186,573	64,34
186,791	95,06
187,009	54,1
187,227	158,55
187,445	64,34
187,663	52,05
187,881	19,29
188,098	-17,58
188,316	23,38
188,534	43,86
188,752	4,95
188,97	-13,48
189,188	-48,3
189,406	60,24
189,624	64,34
189,841	-29,87
190,059	-126,12
190,277	-25,77
190,495	-17,58
190,713	93,01
190,931	195,41
191,148	70,48
191,366	-13,48
191,584	-5,29
191,802	25,43
192,019	136,02
192,237	29,52
192,455	72,53
192,673	29,52
192,89	-9,39
193,108	-15,53
193,326	-74,92
193,543	158,55
193,761	60,24
193,979	58,2
194,196	-54,44
194,414	7
194,632	68,44
194,849	68,44
195,067	-60,59
195,285	-13,48
195,502	-87,21
195,72	-13,48
195,937	7
196,155	33,62
196,373	21,33
196,59	-27,82
196,808	21,33
197,025	160,59
197,243	256,85
197,46	97,11
197,678	109,4
197,895	-11,43
198,113	60,24
198,33	-9,39
198,548	-33,96
198,765	-52,39
198,983	88,92
199,2	-85,16
199,418	117,59
199,635	35,67
199,853	21,33
200,07	66,39
200,288	23,38
200,505	19,29
200,722	72,53
200,94	68,44
201,157	93,01
201,375	-3,24
201,592	7
201,809	-5,29
202,027	76,63
202,244	27,48
202,461	35,67
202,679	-5,29
202,896	-29,87
203,113	-70,83
203,331	0,85
203,548	-5,29
203,765	4,95
203,982	88,92
204,2	33,62
204,417	-5,29
204,634	183,12
204,851	21,33
205,069	31,57
205,286	41,81
205,503	43,86
205,72	47,96
205,937	76,63
206,155	-72,87
206,372	74,58
206,589	-13,48
206,806	64,34
207,023	60,24
207,24	-3,24
207,458	-5,29
207,675	-13,48
207,892	27,48
208,109	-46,25
208,326	-72,87
208,543	-38,06
208,76	54,1
208,977	125,78
209,194	68,44
209,411	4,95
209,628	19,29
209,845	-36,01
210,062	88,92
210,279	-11,43
210,496	13,14
210,713	-95,4
210,93	7
211,147	58,2
211,364	-17,58
211,581	56,15
211,798	119,64
212,015	-58,54
212,232	37,72
212,449	7
212,666	19,29
212,883	-7,34
213,1	68,44
213,317	-29,87
213,533	-1,19
213,75	4,95
213,967	52,05
214,184	-44,2
214,401	68,44
214,618	-56,49
214,835	23,38
215,051	101,2
215,268	72,53
215,485	72,53
215,702	-38,06
215,919	-29,87
216,135	244,56
216,352	11,09
216,569	-21,67
216,786	-17,58
217,002	80,72
217,219	-19,63
217,436	21,33
217,652	-9,39
217,869	2,9
218,086	113,49
218,302	74,58
218,519	74,58
218,736	-13,48
218,952	-40,11
219,169	11,09
219,386	11,09
219,602	-44,2
219,819	-9,39
220,036	-60,59
220,252	-44,2
220,469	-1,19
220,685	13,14
220,902	29,52
221,118	43,86
221,335	-1,19
221,552	60,24
221,768	35,67
221,985	-52,39
222,201	41,81
222,418	176,98
222,634	-3,24
222,851	-11,43
223,067	-54,44
223,284	27,48
223,5	-29,87
223,716	23,38
223,933	-11,43
224,149	27,48
224,366	9,05
224,582	-46,25
224,799	39,76
225,015	39,76
225,231	27,48
225,448	-29,87
225,664	86,87
225,88	-3,24
226,097	60,24
226,313	-101,55
226,529	-36,01
226,746	15,19
226,962	-11,43
227,178	78,68
227,395	25,43
227,611	54,1
227,827	-42,15
228,044	127,83
228,26	62,29
228,476	2,9
228,692	109,4
228,909	93,01
229,125	15,19
229,341	52,05
229,557	-13,48
229,773	-64,68
229,99	160,59
230,206	-33,96
230,422	21,33
230,638	-62,63
230,854	31,57
231,07	-19,63
231,286	138,07
231,503	56,15
231,719	-89,26
231,935	31,57
232,151	0,85
232,367	136,02
232,583	-13,48
232,799	39,76
233,015	66,39
233,231	-99,5
233,447	47,96
233,663	-46,25
233,879	88,92
234,095	-62,63
234,311	103,25
234,527	-21,67
234,743	-11,43
234,959	-17,58
235,175	17,24
235,391	-74,92
235,607	23,38
235,823	54,1
236,039	-132,26
236,255	68,44
236,471	95,06
236,687	-48,3
236,903	11,09
237,118	86,87
237,334	-9,39
237,55	39,76
237,766	-107,69
237,982	15,19
238,198	66,39
238,413	-21,67
238,629	70,48
238,845	-25,77
239,061	56,15
239,277	4,95
239,492	-70,83
239,708	-13,48
239,924	-60,59
240,14	-15,53
240,355	138,07
240,571	56,15
240,787	70,48
241,003	109,4
241,218	70,48
241,434	-5,29
241,65	56,15
241,865	-58,54
242,081	60,24
242,297	-38,06
242,512	-5,29
242,728	64,34
242,944	-54,44
243,159	21,33
243,375	-50,35
243,59	-5,29
243,806	43,86
244,022	84,82
244,237	-76,97
244,453	23,38
244,668	21,33
244,884	144,21
245,099	33,62
245,315	133,97
245,53	60,24
245,746	33,62
245,961	43,86
246,177	19,29
246,392	117,59
246,608	84,82
246,823	-5,29
247,039	9,05
247,254	27,48
247,47	52,05
247,685	-1,19
247,9	-58,54
248,116	62,29
248,331	19,29
248,547	78,68
248,762	-3,24
248,977	43,86
249,193	146,26
249,408	70,48
249,623	-46,25
249,839	-13,48
250,054	-42,15
250,269	-50,35
250,485	109,4
250,7	68,44
250,915	-9,39
251,13	-54,44
251,346	-25,77
251,561	60,24
251,776	129,88
251,991	-76,97
252,207	7
252,422	13,14
252,637	-76,97
252,852	-95,4
253,067	35,67
253,283	2,9
253,498	66,39
253,713	-19,63
253,928	-70,83
254,143	2,9
254,358	19,29
254,573	-9,39
254,788	-62,63
255,004	29,52
255,219	21,33
255,434	-13,48
255,649	2,9
255,864	-27,82
256,079	31,57
256,294	-19,63
256,509	97,11
256,724	-1,19
256,939	-31,91
257,154	68,44
257,369	125,78
257,584	68,44
257,799	-33,96
258,014	35,67
258,229	60,24
258,444	27,48
258,659	33,62
258,874	15,19
259,089	11,09
259,304	-62,63
259,518	11,09
259,733	19,29
259,948	-25,77
260,163	64,34
260,378	152,4
260,593	47,96
260,808	41,81
261,022	-87,21
261,237	78,68
261,452	-13,48
261,667	21,33
261,882	76,63
262,096	56,15
262,311	90,96
262,526	-70,83
262,741	23,38
262,955	-5,29
263,17	56,15
263,385	-13,48
263,6	21,33
263,814	-29,87
264,029	-68,78
264,244	29,52
264,458	80,72
264,673	146,26
264,888	-1,19
265,102	13,14
265,317	-21,67
265,532	0,85
265,746	43,86
265,961	101,2
266,175	27,48
266,39	84,82
266,605	27,48
266,819	-19,63
267,034	72,53
267,248	54,1
267,463	-3,24
267,677	11,09
267,892	27,48
268,106	-38,06
268,321	-1,19
268,535	84,82
268,75	68,44
268,964	-5,29
269,179	7
269,393	45,91
269,608	43,86
269,822	-25,77
270,036	-36,01
270,251	78,68
270,465	2,9
270,68	41,81
270,894	68,44
271,108	103,25
271,323	-42,15
271,537	-3,24
271,752	47,96
271,966	-11,43
272,18	-62,63
272,394	-50,35
272,609	-23,72
272,823	29,52
273,037	80,72
273,252	-29,87
273,466	31,57
273,68	72,53
273,894	60,24
274,109	-46,25
274,323	129,88
274,537	60,24
274,751	-62,63
274,966	-5,29
275,18	-68,78
275,394	-91,31
275,608	-76,97
275,822	-36,01
276,036	54,1
276,25	35,67
276,465	-21,67
276,679	11,09
276,893	-15,53
277,107	121,68
277,321	-5,29
277,535	2,9
277,749	-27,82
277,963	142,16
278,177	-64,68
278,391	31,57
278,605	-15,53
278,819	19,29
279,033	-54,44
279,247	29,52
279,461	-11,43
279,675	-13,48
279,889	25,43
280,103	15,19
280,317	50
280,531	21,33
280,745	39,76
280,959	-29,87
281,173	11,09
281,387	-5,29
281,601	7
281,815	93,01
282,029	-113,83
282,242	50
282,456	-109,74
282,67	23,38
282,884	11,09
283,098	21,33
283,312	-3,24
283,525	19,29
283,739	19,29
283,953	80,72
284,167	19,29
284,381	17,24
284,594	4,95
284,808	35,67
285,022	19,29
285,235	43,86
285,449	78,68
285,663	33,62
285,877	-58,54
286,09	-19,63
286,304	60,24
286,518	27,48
286,731	-27,82
286,945	93,01
287,159	-68,78
287,372	29,52
287,586	-29,87
287,799	88,92
288,013	-5,29
288,227	0,85
288,44	275,28
288,654	76,63
288,867	-1,19
289,081	-40,11
289,294	97,11
289,508	-17,58
289,721	39,76
289,935	13,14
290,148	72,53
290,362	72,53
290,575	31,57
290,789	13,14
291,002	-29,87
291,216	43,86
291,429	7
291,643	41,81
291,856	7
292,069	-42,15
292,283	13,14
292,496	84,82
292,71	68,44
292,923	27,48
293,136	-54,44
293,35	95,06
293,563	-11,43
293,776	19,29
293,99	27,48
294,203	-15,53
294,416	-27,82
294,63	-27,82
294,843	15,19
295,056	109,4
295,269	-38,06
295,483	-93,35
295,696	11,09
295,909	13,14
296,122	52,05
296,335	35,67
296,549	-9,39
296,762	-25,77
296,975	35,67
297,188	19,29
297,401	2,9
297,615	-5,29
297,828	-46,25
298,041	187,22
298,254	-27,82
298,467	70,48
298,68	-64,68
298,893	-27,82
299,106	-33,96
299,319	11,09
299,532	101,2
299,745	-19,63
299,958	19,29
300,171	17,24
300,384	60,24
300,598	-85,16
300,81	33,62
301,023	-19,63
301,236	-60,59
301,449	-27,82
301,662	-50,35
301,875	35,67
302,088	2,9
302,301	-9,39
302,514	-46,25
302,727	68,44
302,94	-38,06
303,153	-36,01
303,366	-27,82
303,579	13,14
303,791	-13,48
304,004	-29,87
304,217	74,58
304,43	72,53
304,643	37,72
304,855	-101,55
305,068	109,4
305,281	58,2
305,494	21,33
305,707	-3,24
305,919	146,26
306,132	-3,24
306,345	-3,24
306,558	109,4
306,77	-42,15
306,983	25,43
307,196	21,33
307,408	17,24
307,621	39,76
307,834	33,62
308,046	-17,58
308,259	35,67
308,472	52,05
308,684	2,9
308,897	19,29
309,109	-5,29
309,322	-9,39
309,535	43,86
309,747	35,67
309,96	111,44
310,172	45,91
310,385	72,53
310,597	11,09
310,81	15,19
311,022	19,29
311,235	-87,21
311,447	-3,24
311,66	2,9
311,872	11,09
312,085	29,52
312,297	-23,72
312,51	-17,58
312,722	13,14
312,934	125,78
313,147	-60,59
313,359	11,09
313,572	2,9
313,784	-13,48
313,996	68,44
314,209	27,48
314,421	-62,63
314,633	-58,54
314,846	-60,59
315,058	15,19
315,27	-17,58
315,483	-46,25
315,695	52,05
315,907	37,72
316,119	-29,87
316,332	-13,48
316,544	60,24
316,756	68,44
316,968	82,77
317,181	-5,29
317,393	58,2
317,605	-3,24
317,817	27,48
318,029	117,59
318,241	158,55
318,454	146,26
318,666	76,63
318,878	76,63
319,09	-11,43
319,302	60,24
319,514	101,2
319,726	101,2
319,938	160,59
320,15	88,92
320,362	23,38
320,574	-46,25
320,786	-58,54
320,999	-109,74
321,211	-25,77
321,423	-60,59
321,635	-5,29
321,847	88,92
322,058	29,52
322,27	27,48
322,482	31,57
322,694	93,01
322,906	-44,2
323,118	52,05
323,33	117,59
323,542	39,76
323,754	45,91
323,966	-101,55
324,178	70,48
324,389	13,14
324,601	64,34
324,813	19,29
325,025	52,05
325,237	23,38
325,449	11,09
325,66	68,44
325,872	-21,67
326,084	-44,2
326,296	-17,58
326,507	52,05
326,719	35,67
326,931	-3,24
327,143	105,3
327,354	117,59
327,566	35,67
327,778	35,67
327,989	29,52
328,201	-60,59
328,413	31,57
328,624	29,52
328,836	2,9
329,048	-81,07
329,259	-21,67
329,471	76,63
329,682	27,48
329,894	11,09
330,106	-31,91
330,317	-54,44
330,529	133,97
330,74	-13,48
330,952	60,24
331,163	-64,68
331,375	21,33
331,586	-66,73
331,798	11,09
332,009	-46,25
332,221	82,77
332,432	-25,77
332,644	43,86
332,855	-52,39
333,067	27,48
333,278	-46,25
333,489	56,15
333,701	-70,83
333,912	19,29
334,124	-15,53
334,335	2,9
334,546	-29,87
334,758	56,15
334,969	121,68
335,18	19,29
335,392	-38,06
335,603	119,64
335,814	78,68
336,025	-42,15
336,237	-19,63
336,448	-99,5
336,659	27,48
336,87	136,02
337,082	232,27
337,293	-38,06
337,504	103,25
337,715	-19,63
337,926	33,62
338,138	-29,87
338,349	19,29
338,56	-27,82
338,771	-50,35
338,982	66,39
339,193	-29,87
339,404	19,29
339,616	25,43
339,827	60,24
340,038	-54,44
340,249	-13,48
340,46	-5,29
340,671	21,33
340,882	127,83
341,093	27,48
341,304	21,33
341,515	-17,58
341,726	-60,59
341,937	-58,54
342,148	-29,87
342,359	-48,3
342,57	-54,44
342,781	15,19
342,992	33,62
343,203	11,09
343,414	19,29
343,624	-3,24
343,835	-46,25
344,046	-9,39
344,257	-31,91
344,468	-29,87
344,679	-79,02
344,89	-21,67
345,1	-11,43
345,311	-52,39
345,522	2,9
345,733	144,21
345,944	13,14
346,154	121,68
346,365	43,86
346,576	-38,06
346,787	-79,02
346,997	11,09
347,208	2,9
347,419	-38,06
347,629	43,86
347,84	37,72
348,051	-46,25
348,261	-60,59
348,472	-29,87
348,683	43,86
348,893	2,9
349,104	68,44
349,315	27,48
349,525	76,63
349,736	60,24
349,946	60,24
350,157	43,86
350,368	39,76
350,578	-46,25
350,789	82,77
350,999	19,29
351,21	31,57
351,42	-113,83
351,631	-25,77
351,841	-40,11
352,052	-58,54
352,262	90,96
352,472	-68,78
352,683	29,52
352,893	39,76
353,104	19,29
353,314	127,83
353,525	306
353,735	29,52
353,945	-13,48
354,156	2,9
354,366	60,24
354,576	166,74
354,787	2,9
354,997	-17,58
355,207	37,72
355,418	47,96
355,628	-62,63
355,838	35,67
356,048	45,91
356,259	50
356,469	-29,87
356,679	-27,82
356,889	43,86
357,1	-29,87
357,31	37,72
357,52	-21,67
357,73	-85,16
357,94	60,24
358,15	-21,67
358,361	11,09
358,571	-11,43
358,781	-42,15
358,991	-36,01
359,201	0,85
359,411	13,14
359,621	11,09
359,831	29,52
360,041	-44,2
360,251	-13,48
360,461	11,09
360,672	35,67
360,882	-17,58
361,092	-62,63
361,302	101,2
361,512	101,2
361,721	-17,58
361,931	45,91
362,141	93,01
362,351	-48,3
362,561	45,91
362,771	19,29
362,981	68,44
363,191	2,9
363,401	43,86
363,611	-85,16
363,821	-46,25
364,03	-54,44
364,24	31,57
364,45	60,24
364,66	273,23
364,87	-3,24
365,08	80,72
365,289	-23,72
365,499	-58,54
365,709	35,67
365,919	23,38
366,128	-76,97
366,338	35,67
366,548	11,09
366,758	-42,15
366,967	-58,54
367,177	-3,24
367,387	25,43
367,596	4,95
367,806	-76,97
368,016	11,09
368,225	19,29
368,435	95,06
368,644	-62,63
368,854	35,67
369,064	-1,19
369,273	-25,77
369,483	-13,48
369,692	-50,35
369,902	43,86
370,111	11,09
370,321	-5,29
370,53	-46,25
370,74	4,95
370,949	39,76
371,159	109,4
371,368	-21,67
371,578	2,9
371,787	-17,58
371,997	78,68
372,206	-44,2
372,416	-11,43
372,625	45,91
372,834	-17,58
373,044	-85,16
373,253	129,88
373,462	37,72
373,672	-19,63
373,881	-19,63
374,09	47,96
374,3	31,57
374,509	27,48
374,718	-62,63
374,928	45,91
375,137	4,95
375,346	-25,77
375,555	125,78
375,765	-87,21
375,974	-13,48
376,183	68,44
376,392	-38,06
376,601	2,9
376,811	47,96
377,02	109,4
377,229	0,85
377,438	68,44
377,647	-66,73
377,856	-7,34
378,065	4,95
378,275	-87,21
378,484	-54,44
378,693	-5,29
378,902	15,19
379,111	60,24
379,32	17,24
379,529	54,1
379,738	11,09
379,947	45,91
380,156	2,9
380,365	11,09
380,574	99,16
380,783	-62,63
380,992	4,95
381,201	21,33
381,41	-29,87
381,619	-5,29
381,828	68,44
382,037	54,1
382,245	140,12
382,454	101,2
382,663	74,58
382,872	21,33
383,081	76,63
383,29	111,44
383,499	-36,01
383,707	80,72
383,916	70,48
384,125	119,64
384,334	-87,21
384,542	133,97
384,751	31,57
384,96	-13,48
385,169	19,29
385,377	60,24
385,586	37,72
385,795	72,53
386,004	144,21
386,212	52,05
386,421	76,63
386,63	396,11
386,838	809,8
387,047	1180,48
387,255	2001,72
387,464	2714,41
387,673	3803,93
387,881	4813,58
388,09	5749,5
388,298	6576,88
388,507	8057,56
388,715	9929,41
388,924	11139,76
389,133	10332,86
389,341	10156,73
389,55	8886,99
389,758	6716,14
389,967	4565,78
390,175	2724,65
390,383	2333,49
390,592	1669,95
390,8	1162,05
391,009	783,18
391,217	545,61
391,426	379,73
391,634	109,4
391,842	150,36
392,051	88,92
392,259	11,09
392,467	52,05
392,676	-79,02
392,884	9,05
393,092	-44,2
393,301	127,83
393,509	19,29
393,717	84,82
393,925	-19,63
394,134	-13,48
394,342	97,11
394,55	105,3
394,758	117,59
394,967	35,67
395,175	11,09
395,383	101,2
395,591	33,62
395,799	109,4
396,007	111,44
396,216	281,43
396,424	246,61
396,632	166,74
396,84	199,51
397,048	187,22
397,256	193,36
397,464	88,92
397,672	103,25
397,88	23,38
398,088	31,57
398,296	4,95
398,504	45,91
398,712	15,19
398,92	41,81
399,128	-13,48
399,336	70,48
399,544	76,63
399,752	-105,64
399,96	60,24
400,168	70,48
400,376	7
400,584	56,15
400,792	72,53
401	158,55
401,207	107,35
401,415	121,68
401,623	127,83
401,831	252,75
402,039	314,19
402,247	219,99
402,454	430,93
402,662	414,54
402,87	359,25
403,078	547,66
403,285	316,24
403,493	250,71
403,701	256,85
403,909	90,96
404,116	209,75
404,324	84,82
404,532	76,63
404,739	31,57
404,947	13,14
405,155	21,33
405,362	101,2
405,57	84,82
405,778	13,14
405,985	25,43
406,193	88,92
406,4	-38,06
406,608	70,48
406,816	-44,2
407,023	66,39
407,231	-48,3
407,438	4,95
407,646	-21,67
407,853	29,52
408,061	15,19
408,268	56,15
408,476	-3,24
408,683	4,95
408,89	33,62
409,098	45,91
409,305	9,05
409,513	-11,43
409,72	35,67
409,927	-42,15
410,135	56,15
410,342	-1,19
410,55	144,21
410,757	17,24
410,964	37,72
411,172	113,49
411,379	54,1
411,586	2,9
411,793	80,72
412,001	93,01
412,208	80,72
412,415	199,51
412,622	76,63
412,83	19,29
413,037	86,87
413,244	37,72
413,451	113,49
413,658	78,68
413,866	129,88
414,073	70,48
414,28	136,02
414,487	-11,43
414,694	23,38
414,901	35,67
415,108	-1,19
415,315	-70,83
415,522	84,82
415,73	-27,82
415,937	-13,48
416,144	4,95
416,351	-3,24
416,558	-48,3
416,765	-46,25
416,972	27,48
417,179	-89,26
417,386	19,29
417,593	54,1
417,8	9,05
418,006	52,05
418,213	2,9
418,42	111,44
418,627	35,67
418,834	21,33
419,041	60,24
419,248	2,9
419,455	43,86
419,661	29,52
419,868	-7,34
420,075	-50,35
420,282	-3,24
420,489	11,09
420,696	23,38
420,902	-25,77
421,109	109,4
421,316	-54,44
421,523	82,77
421,729	101,2
421,936	23,38
422,143	93,01
422,349	-44,2
422,556	-3,24
422,763	2,9
422,969	-7,34
423,176	2,9
423,383	45,91
423,589	316,24
423,796	62,29
424,002	-21,67
424,209	95,06
424,416	76,63
424,622	-111,78
424,829	-54,44
425,035	-9,39
425,242	68,44
425,448	19,29
425,655	80,72
425,861	19,29
426,068	119,64
426,274	62,29
426,481	70,48
426,687	101,2
426,894	-29,87
427,1	80,72
427,306	-13,48
427,513	43,86
427,719	78,68
427,926	0,85
428,132	-19,63
428,338	23,38
428,545	-68,78
428,751	-3,24
428,957	7
429,163	-27,82
429,37	68,44
429,576	23,38
429,782	11,09
429,989	-64,68
430,195	41,81
430,401	47,96
430,607	7
430,813	-68,78
431,02	86,87
431,226	93,01
431,432	95,06
431,638	-29,87
431,844	-74,92
432,05	23,38
432,257	11,09
432,463	35,67
432,669	43,86
432,875	-25,77
433,081	2,9
433,287	-11,43
433,493	-13,48
433,699	60,24
433,905	11,09
434,111	-48,3
434,317	-13,48
434,523	39,76
434,729	117,59
434,935	19,29
435,141	119,64
435,347	27,48
435,553	35,67
435,759	2,9
435,965	-3,24
436,171	-9,39
436,377	174,93
436,582	54,1
436,788	-5,29
436,994	123,73
437,2	-29,87
437,406	-11,43
437,612	152,4
437,818	162,64
438,023	68,44
438,229	174,93
438,435	121,68
438,641	88,92
438,846	142,16
439,052	154,45
439,258	232,27
439,464	9,05
439,669	148,31
439,875	215,89
440,081	27,48
440,286	35,67
440,492	4,95
440,698	-44,2
440,903	47,96
441,109	117,59
441,314	-29,87
441,52	-13,48
441,726	60,24
441,931	70,48
442,137	76,63
442,342	47,96
442,548	27,48
442,753	86,87
442,959	-76,97
443,164	-33,96
443,37	60,24
443,575	13,14
443,781	86,87
443,986	113,49
444,192	-21,67
444,397	-29,87
444,602	-25,77
444,808	45,91
445,013	72,53
445,219	256,85
445,424	527,18
445,629	621,39
445,835	985,93
446,04	1278,79
446,245	1567,55
446,451	1919,8
446,656	2202,42
446,861	2640,69
447,066	3224,36
447,272	3396,39
447,477	3369,76
447,682	3058,47
447,887	2523,95
448,093	2220,85
448,298	1710,91
448,503	1096,52
448,708	674,64
448,913	379,73
449,118	314,19
449,324	281,43
449,529	133,97
449,734	74,58
449,939	-13,48
450,144	109,4
450,349	86,87
450,554	-15,53
450,759	31,57
450,964	56,15
451,169	27,48
451,374	70,48
451,579	-1,19
451,784	-15,53
451,989	43,86
452,194	68,44
452,399	76,63
452,604	17,24
452,809	15,19
453,014	-23,72
453,219	37,72
453,424	93,01
453,629	-44,2
453,833	-36,01
454,038	-36,01
454,243	11,09
454,448	43,86
454,653	37,72
454,858	-46,25
455,062	4,95
455,267	-21,67
455,472	80,72
455,677	11,09
455,882	-25,77
456,086	60,24
456,291	-29,87
456,496	-113,83
456,7	-5,29
456,905	2,9
457,11	60,24
457,314	-62,63
457,519	27,48
457,724	37,72
457,928	68,44
458,133	4,95
458,338	37,72
458,542	29,52
458,747	2,9
458,951	-33,96
459,156	60,24
459,36	-23,72
459,565	84,82
459,769	-27,82
459,974	35,67
460,178	-52,39
460,383	-38,06
460,587	54,1
460,792	103,25
460,996	-29,87
461,201	43,86
461,405	-11,43
461,61	-56,49
461,814	54,1
462,018	-21,67
462,223	17,24
462,427	-17,58
462,631	-5,29
462,836	29,52
463,04	72,53
463,244	127,83
463,449	-44,2
463,653	88,92
463,857	4,95
464,062	68,44
464,266	35,67
464,47	39,76
464,674	43,86
464,878	76,63
465,083	86,87
465,287	52,05
465,491	-13,48
465,695	39,76
465,899	-54,44
466,104	125,78
466,308	25,43
466,512	-60,59
466,716	-13,48
466,92	127,83
467,124	70,48
467,328	68,44
467,532	35,67
467,736	-27,82
467,94	47,96
468,144	76,63
468,348	54,1
468,552	88,92
468,756	29,52
468,96	-5,29
469,164	-85,16
469,368	78,68
469,572	35,67
469,776	224,08
469,98	275,28
470,184	273,23
470,388	432,97
470,591	518,99
470,795	629,58
470,999	625,48
471,203	734,03
471,407	760,65
471,611	779,08
471,814	701,26
472,018	652,11
472,222	576,33
472,426	576,33
472,63	383,82
472,833	306
473,037	244,56
473,241	185,17
473,444	109,4
473,648	496,46
473,852	-1,19
474,055	27,48
474,259	-46,25
474,463	68,44
474,666	78,68
474,87	-17,58
475,074	41,81
475,277	19,29
475,481	-5,29
475,684	-29,87
475,888	17,24
476,091	31,57
476,295	-97,45
476,498	-124,07
476,702	31,57
476,905	58,2
477,109	86,87
477,312	35,67
477,516	-29,87
477,719	70,48
477,923	35,67
478,126	47,96
478,329	54,1
478,533	23,38
478,736	27,48
478,94	39,76
479,143	-44,2
479,346	43,86
479,55	54,1
479,753	-44,2
479,956	-29,87
480,159	-29,87
480,363	47,96
480,566	60,24
480,769	31,57
480,972	-62,63
481,176	39,76
481,379	39,76
481,582	109,4
481,785	-52,39
481,988	-11,43
482,192	29,52
482,395	-62,63
482,598	35,67
482,801	-13,48
483,004	45,91
483,207	-119,98
483,41	88,92
483,613	68,44
483,817	2,9
484,02	-42,15
484,223	-25,77
484,426	43,86
484,629	-29,87
484,832	133,97
485,035	-21,67
485,238	119,64
485,441	15,19
485,644	-1,19
485,846	19,29
486,049	-42,15
486,252	21,33
486,455	-68,78
486,658	-13,48
486,861	119,64
487,064	82,77
487,267	-33,96
487,47	142,16
487,672	-13,48
487,875	-5,29
488,078	-36,01
488,281	52,05
488,484	31,57
488,686	-5,29
488,889	29,52
489,092	-89,26
489,295	17,24
489,497	-19,63
489,7	-5,29
489,903	29,52
490,105	-48,3
490,308	68,44
490,511	191,31
490,713	322,38
490,916	410,45
491,118	652,11
491,321	756,55
491,524	807,75
491,726	1022,79
491,929	1133,38
492,131	1379,14
492,334	1411,9
492,536	1428,29
492,739	1424,19
492,941	1309,51
493,144	1141,57
493,346	904,01
493,549	674,64
493,751	416,59
493,954	306
494,156	207,7
494,359	105,3
494,561	-11,43
494,763	7
494,966	43,86
495,168	9,05
495,37	-87,21
495,573	58,2
495,775	56,15
495,977	52,05
496,18	101,2
496,382	166,74
496,584	84,82
496,787	68,44
496,989	62,29
497,191	27,48
497,393	103,25
497,595	-25,77
497,798	13,14
498	68,44
498,202	29,52
498,404	27,48
498,606	52,05
498,808	95,06
499,011	80,72
499,213	80,72
499,415	-70,83
499,617	236,37
499,819	473,93
500,021	856,9
500,223	1299,27
500,425	1674,04
500,627	2169,65
500,829	2798,38
501,031	3353,38
501,233	3771,16
501,435	4541,2
501,637	4756,24
501,839	4827,92
502,041	4836,11
502,243	4508,43
502,445	3932,95
502,647	3271,46
502,848	2347,83
503,05	1839,93
503,252	1348,42
503,454	983,88
503,656	584,52
503,858	402,26
504,059	355,15
504,261	269,14
504,463	379,73
504,665	260,95
504,867	273,23
505,068	369,49
505,27	256,85
505,472	293,71
505,673	160,59
505,875	133,97
506,077	101,2
506,278	60,24
506,48	121,68
506,682	52,05
506,883	19,29
507,085	47,96
507,287	2,9
507,488	82,77
507,69	52,05
507,891	29,52
508,093	136,02
508,294	-79,02
508,496	-13,48
508,697	-27,82
508,899	-74,92
509,1	60,24
509,302	117,59
509,503	-31,91
509,705	29,52
509,906	52,05
510,108	-52,39
510,309	70,48
510,51	111,44
510,712	7
510,913	-46,25
511,114	15,19
511,316	-85,16
511,517	109,4
511,718	76,63
511,92	-46,25
512,121	-29,87
512,322	-48,3
512,524	66,39
512,725	-52,39
512,926	-11,43
513,127	47,96
513,329	54,1
513,53	-13,48
513,731	-13,48
513,932	-5,29
514,133	-62,63
514,334	-29,87
514,536	62,29
514,737	29,52
514,938	27,48
515,139	-44,2
515,34	-70,83
515,541	103,25
515,742	-13,48
515,943	43,86
516,144	76,63
516,345	-13,48
516,546	4,95
516,747	138,07
516,948	37,72
517,149	-9,39
517,35	-68,78
517,551	43,86
517,752	-13,48
517,953	78,68
518,154	33,62
518,355	78,68
518,556	78,68
518,756	-66,73
518,957	43,86
519,158	109,4
519,359	56,15
519,56	-52,39
519,761	-29,87
519,961	29,52
520,162	117,59
520,363	4,95
520,564	9,05
520,764	148,31
520,965	-5,29
521,166	52,05
521,366	23,38
521,567	56,15
521,768	47,96
521,968	76,63
522,169	-17,58
522,37	-62,63
522,57	31,57
522,771	7
522,972	-97,45
523,172	150,36
523,373	31,57
523,573	-27,82
523,774	35,67
523,974	84,82
524,175	93,01
524,375	9,05
524,576	19,29
524,776	64,34
524,977	15,19
525,177	86,87
525,378	35,67
525,578	80,72
525,778	43,86
525,979	101,2
526,179	35,67
526,38	-42,15
526,58	-29,87
526,78	-62,63
526,981	84,82
527,181	33,62
527,381	19,29
527,582	86,87
527,782	54,1
527,982	66,39
528,182	21,33
528,383	70,48
528,583	11,09
528,783	11,09
528,983	29,52
529,183	-11,43
529,384	11,09
529,584	172,88
529,784	211,79
529,984	97,11
530,184	13,14
530,384	-93,35
530,584	-23,72
530,784	19,29
530,984	-58,54
531,185	109,4
531,385	95,06
531,585	76,63
531,785	33,62
531,985	-76,97
532,185	-25,77
532,385	-36,01
532,585	52,05
532,785	50
532,984	25,43
533,184	27,48
533,384	2,9
533,584	-17,58
533,784	27,48
533,984	78,68
534,184	-79,02
534,384	-52,39
534,583	76,63
534,783	-54,44
534,983	45,91
535,183	-58,54
535,383	-58,54
535,582	-1,19
535,782	84,82
535,982	68,44
536,182	19,29
536,381	11,09
536,581	-54,44
536,781	68,44
536,98	2,9
537,18	-3,24
537,38	31,57
537,579	-68,78
537,779	-1,19
537,979	43,86
538,178	-79,02
538,378	47,96
538,577	-5,29
538,777	-13,48
538,976	-42,15
539,176	70,48
539,376	60,24
539,575	11,09
539,774	93,01
539,974	-58,54
540,173	27,48
540,373	68,44
540,572	19,29
540,772	35,67
540,971	-54,44
541,171	64,34
541,37	41,81
541,569	76,63
541,769	-13,48
541,968	13,14
542,167	47,96
542,367	54,1
542,566	-29,87
542,765	-21,67
542,965	-5,29
543,164	72,53
543,363	9,05
543,562	7
543,761	37,72
543,961	-25,77
544,16	13,14
544,359	84,82
544,558	60,24
544,757	115,54
544,957	43,86
545,156	133,97
545,355	62,29
545,554	-62,63
545,753	-62,63
545,952	21,33
546,151	74,58
546,35	29,52
546,549	56,15
546,748	62,29
546,947	-21,67
547,146	-46,25
547,345	-29,87
547,544	-5,29
547,743	-13,48
547,942	-19,63
548,141	2,9
548,34	31,57
548,539	-5,29
548,738	4,95
548,937	68,44
549,135	60,24
549,334	54,1
549,533	27,48
549,732	19,29
549,931	68,44
550,13	19,29
550,328	-21,67
550,527	23,38
550,726	-1,19
550,925	13,14
551,123	80,72
551,322	27,48
551,521	84,82
551,72	7
551,918	-3,24
552,117	62,29
552,315	13,14
552,514	-76,97
552,713	-13,48
552,911	13,14
553,11	-107,69
553,309	60,24
553,507	-7,34
553,706	17,24
553,904	76,63
554,103	31,57
554,301	15,19
554,5	70,48
554,698	64,34
554,897	-9,39
555,095	58,2
555,294	-70,83
555,492	-29,87
555,69	101,2
555,889	-44,2
556,087	54,1
556,286	127,83
556,484	-19,63
556,682	19,29
556,881	-21,67
557,079	33,62
557,277	76,63
557,476	-13,48
557,674	88,92
557,872	160,59
558,07	-44,2
558,269	-23,72
558,467	107,35
558,665	62,29
558,863	19,29
559,062	54,1
559,26	97,11
559,458	-60,59
559,656	21,33
559,854	-58,54
560,052	-25,77
560,25	-5,29
560,449	346,96
560,647	37,72
560,845	41,81
561,043	68,44
561,241	191,31
561,439	45,91
561,637	76,63
561,835	105,3
562,033	52,05
562,231	76,63
562,429	11,09
562,627	27,48
562,825	27,48
563,023	95,06
563,221	-27,82
563,418	80,72
563,616	-3,24
563,814	117,59
564,012	-13,48
564,21	35,67
564,408	39,76
564,605	-9,39
564,803	7
565,001	232,27
565,199	4,95
565,397	58,2
565,594	133,97
565,792	68,44
565,99	11,09
566,188	88,92
566,385	31,57
566,583	52,05
566,781	60,24
566,978	72,53
567,176	101,2
567,373	127,83
567,571	43,86
567,769	64,34
567,966	2,9
568,164	86,87
568,361	-1,19
568,559	56,15
568,756	52,05
568,954	88,92
569,151	111,44
569,349	129,88
569,546	-3,24
569,744	117,59
569,941	62,29
570,139	33,62
570,336	-42,15
570,534	37,72
570,731	78,68
570,928	45,91
571,126	248,66
571,323	150,36
571,52	76,63
571,718	101,2
571,915	72,53
572,112	-21,67
572,31	97,11
572,507	121,68
572,704	52,05
572,901	97,11
573,099	68,44
573,296	105,3
573,493	15,19
573,69	-46,25
573,887	37,72
574,085	207,7
574,282	7
574,479	62,29
574,676	103,25
574,873	66,39
575,07	76,63
575,267	11,09
575,464	58,2
575,661	43,86
575,858	2,9
576,055	68,44
576,252	136,02
576,449	70,48
576,646	47,96
576,843	52,05
577,04	95,06
577,237	117,59
577,434	113,49
577,631	101,2
577,828	138,07
578,025	35,67
578,222	119,64
578,419	54,1
578,615	68,44
578,812	78,68
579,009	78,68
579,206	62,29
579,403	52,05
579,599	224,08
579,796	76,63
579,993	199,51
580,19	7
580,386	62,29
580,583	105,3
580,78	142,16
580,976	158,55
581,173	68,44
581,37	109,4
581,566	105,3
581,763	45,91
581,96	133,97
582,156	86,87
582,353	142,16
582,549	234,32
582,746	117,59
582,942	35,67
583,139	142,16
583,335	68,44
583,532	201,55
583,728	125,78
583,925	176,98
584,121	158,55
584,318	168,79
584,514	158,55
584,711	250,71
584,907	195,41
585,103	344,91
585,3	379,73
585,496	531,28
585,693	1092,42
585,889	3705,63
586,085	8223,45
586,281	14068,35
586,478	21305,87
586,674	28742,05
586,87	37988,63
587,067	45951,13
587,263	51505,22
587,459	54976,53
587,655	58423,26
587,851	58949,59
588,048	57905,12
588,244	54360,09
588,44	51685,44
588,636	45684,89
588,832	38957,31
589,028	32547,17
589,224	26585,54
589,42	20818,46
589,617	15008,37
589,813	9976,51
590,009	6048,51
590,205	3730,2
590,401	2290,48
590,597	1497,92
590,793	1051,46
590,989	750,41
591,185	609,1
591,38	543,57
591,576	406,35
591,772	306
591,968	262,99
592,164	357,2
592,36	244,56
592,556	179,03
592,752	187,22
592,948	207,7
593,143	60,24
593,339	133,97
593,535	68,44
593,731	144,21
593,926	172,88
594,122	50
594,318	148,31
594,514	138,07
594,709	-5,29
594,905	19,29
595,101	99,16
595,296	19,29
595,492	103,25
595,688	68,44
595,883	146,26
596,079	150,36
596,275	7
596,47	41,81
596,666	80,72
596,861	101,2
597,057	68,44
597,252	9,05
597,448	109,4
597,643	101,2
597,839	23,38
598,034	86,87
598,23	4,95
598,425	164,69
598,621	127,83
598,816	101,2
599,011	129,88
599,207	39,76
599,402	7
599,597	168,79
599,793	125,78
599,988	70,48
600,183	56,15
600,379	121,68
600,574	97,11
600,769	138,07
600,965	39,76
601,16	-9,39
601,355	4,95
601,55	146,26
601,745	-33,96
601,941	103,25
602,136	66,39
602,331	82,77
602,526	152,4
602,721	-19,63
602,916	43,86
603,111	0,85
603,307	35,67
603,502	90,96
603,697	43,86
603,892	117,59
604,087	35,67
604,282	160,59
604,477	27,48
604,672	15,19
604,867	19,29
605,062	-36,01
605,257	2,9
605,452	146,26
605,646	52,05
605,841	-27,82
606,036	4,95
606,231	-5,29
606,426	35,67
606,621	-66,73
606,816	60,24
607,01	140,12
607,205	19,29
607,4	17,24
607,595	111,44
607,79	86,87
607,984	70,48
608,179	43,86
608,374	21,33
608,569	13,14
608,763	2,9
608,958	-3,24
609,153	2,9
609,347	111,44
609,542	54,1
609,736	72,53
609,931	21,33
610,126	7
610,32	52,05
610,515	-60,59
610,709	215,89
610,904	97,11
611,098	-17,58
611,293	-25,77
611,487	37,72
611,682	78,68
611,876	52,05
612,071	37,72
612,265	52,05
612,46	-17,58
612,654	35,67
612,848	4,95
613,043	4,95
613,237	78,68
613,432	52,05
613,626	52,05
613,82	-46,25
614,014	125,78
614,209	125,78
614,403	-46,25
614,597	95,06
614,792	19,29
614,986	-3,24
615,18	154,45
615,374	117,59
615,568	31,57
615,763	13,14
615,957	-13,48
616,151	136,02
616,345	150,36
616,539	47,96
616,733	60,24
616,927	43,86
617,121	62,29
617,316	47,96
617,51	76,63
617,704	35,67
617,898	131,92
618,092	-36,01
618,286	76,63
618,48	-21,67
618,674	95,06
618,868	158,55
619,061	-9,39
619,255	121,68
619,449	76,63
619,643	2,9
619,837	140,12
620,031	72,53
620,225	109,4
620,419	35,67
620,612	209,75
620,806	76,63
621	125,78
621,194	35,67
621,388	-13,48
621,581	111,44
621,775	56,15
621,969	103,25
622,162	-21,67
622,356	56,15
622,55	43,86
622,743	-5,29
622,937	43,86
623,131	54,1
623,324	58,2
623,518	41,81
623,712	-31,91
623,905	-29,87
624,099	37,72
624,292	2,9
624,486	21,33
624,679	-11,43
624,873	31,57
625,066	93,01
625,26	70,48
625,453	-62,63
625,647	15,19
625,84	21,33
626,034	101,2
626,227	150,36
626,42	111,44
626,614	23,38
626,807	21,33
627	19,29
627,194	15,19
627,387	43,86
627,58	-48,3
627,774	97,11
627,967	37,72
628,16	86,87
628,353	60,24
628,547	84,82
628,74	136,02
628,933	-5,29
629,126	146,26
629,319	19,29
629,513	84,82
629,706	27,48
629,899	11,09
630,092	-48,3
630,285	31,57
630,478	29,52
630,671	27,48
630,864	76,63
631,057	64,34
631,25	84,82
631,443	15,19
631,636	11,09
631,829	117,59
632,022	113,49
632,215	15,19
632,408	76,63
632,601	156,5
632,794	76,63
632,987	29,52
633,18	56,15
633,373	19,29
633,566	-85,16
633,758	-58,54
633,951	35,67
634,144	84,82
634,337	31,57
634,53	27,48
634,722	37,72
634,915	43,86
635,108	35,67
635,301	152,4
635,493	90,96
635,686	224,08
635,879	97,11
636,071	-27,82
636,264	76,63
636,457	62,29
636,649	35,67
636,842	19,29
637,034	117,59
637,227	129,88
637,42	52,05
637,612	29,52
637,805	-44,2
637,997	84,82
638,19	4,95
638,382	-3,24
638,575	2,9
638,767	68,44
638,96	103,25
639,152	35,67
639,344	68,44
639,537	72,53
639,729	84,82
639,922	27,48
640,114	52,05
640,306	101,2
640,499	82,77
640,691	37,72
640,883	-21,67
641,075	82,77
641,268	131,92
641,46	56,15
641,652	27,48
641,844	35,67
642,037	15,19
642,229	72,53
642,421	70,48
642,613	17,24
642,805	11,09
642,998	4,95
643,19	76,63
643,382	117,59
643,574	117,59
643,766	33,62
643,958	45,91
644,15	133,97
644,342	142,16
644,534	86,87
644,726	21,33
644,918	64,34
645,11	27,48
645,302	80,72
645,494	70,48
645,686	2,9
645,878	-23,72
646,07	11,09
646,262	21,33
646,453	62,29
646,645	27,48
646,837	21,33
647,029	80,72
647,221	62,29
647,413	-60,59
647,604	54,1
647,796	93,01
647,988	125,78
648,18	101,2
648,371	62,29
648,563	-21,67
648,755	35,67
648,947	-25,77
649,138	-19,63
649,33	21,33
649,521	45,91
649,713	17,24
649,905	35,67
650,096	133,97
650,288	66,39
650,479	-5,29
650,671	7
650,863	31,57
651,054	11,09
651,246	88,92
651,437	25,43
651,629	150,36
651,82	4,95
652,011	29,52
652,203	70,48
652,394	7
652,586	52,05
652,777	-13,48
652,968	-5,29
653,16	2,9
653,351	136,02
653,542	60,24
653,734	111,44
653,925	9,05
654,116	56,15
654,308	88,92
654,499	88,92
654,69	76,63
654,881	2,9
655,073	95,06
655,264	50
655,455	27,48
655,646	64,34
655,837	166,74
656,028	76,63
656,219	19,29
656,411	29,52
656,602	27,48
656,793	39,76
656,984	78,68
657,175	93,01
657,366	29,52
657,557	146,26
657,748	80,72
657,939	50
658,13	29,52
658,321	95,06
658,512	62,29
658,703	56,15
658,894	84,82
659,084	-19,63
659,275	7
659,466	29,52
659,657	111,44
659,848	70,48
660,039	29,52
660,23	60,24
660,42	-58,54
660,611	-68,78
660,802	68,44
660,993	74,58
661,183	127,83
661,374	21,33
661,565	224,08
661,755	45,91
661,946	27,48
662,137	50
662,327	19,29
662,518	-46,25
662,709	4,95
662,899	50
663,09	64,34
663,28	23,38
663,471	76,63
663,662	150,36
663,852	101,2
664,043	-44,2
664,233	64,34
664,424	82,77
664,614	33,62
664,804	60,24
664,995	121,68
665,185	97,11
665,376	-13,48
665,566	150,36
665,756	23,38
665,947	142,16
666,137	267,09
666,328	922,44
666,518	2192,18
666,708	3779,36
666,898	5509,89
667,089	7463,65
667,279	9247,43
667,469	10648,24
667,659	11784,87
667,85	11807,39
668,04	12110,49
668,23	11661,99
668,42	11178,67
668,61	10353,34
668,8	9728,7
668,991	8696,53
669,181	7502,56
669,371	6304,5
669,561	5610,24
669,751	4682,51
669,941	3832,6
670,131	2886,44
670,321	2083,64
670,511	1438,53
670,701	940,87
670,891	596,81
671,081	379,73
671,271	271,19
671,461	191,31
671,651	254,8
671,841	174,93
672,03	142,16
672,22	19,29
672,41	97,11
672,6	144,21
672,79	76,63
672,98	-5,29
673,169	54,1
673,359	47,96
673,549	60,24
673,739	-76,97
673,928	-23,72
674,118	11,09
674,308	93,01
674,497	119,64
674,687	-42,15
674,877	76,63
675,066	2,9
675,256	-54,44
675,446	90,96
675,635	7
675,825	-27,82
676,014	-44,2
676,204	43,86
676,393	97,11
676,583	-19,63
676,772	37,72
676,962	45,91
677,151	78,68
677,341	-13,48
677,53	103,25
677,72	78,68
677,909	109,4
678,099	-19,63
678,288	23,38
678,477	41,81
678,667	121,68
678,856	158,55
679,045	93,01
679,235	21,33
679,424	127,83
679,613	117,59
679,802	21,33
679,992	21,33
680,181	-7,34
680,37	62,29
680,559	101,2
680,748	60,24
680,938	109,4
681,127	86,87
681,316	29,52
681,505	19,29
681,694	-42,15
681,883	-29,87
682,072	47,96
682,261	31,57
682,45	-52,39
682,639	47,96
682,828	109,4
683,017	144,21
683,206	68,44
683,395	43,86
683,584	121,68
683,773	82,77
683,962	-29,87
684,151	2,9
684,34	60,24
684,529	-54,44
684,718	-58,54
684,907	21,33
685,095	109,4
685,284	103,25
685,473	37,72
685,662	4,95
685,851	113,49
686,039	93,01
686,228	39,76
686,417	-21,67
686,606	76,63
686,794	68,44
686,983	-21,67
687,172	70,48
687,36	76,63
687,549	-60,59
687,738	11,09
687,926	-52,39
688,115	-9,39
688,303	19,29
688,492	90,96
688,68	-60,59
688,869	-33,96
689,057	-3,24
689,246	27,48
689,434	25,43
689,623	-58,54
689,811	84,82
690	4,95
690,188	39,76
690,377	-13,48
690,565	117,59
690,753	95,06
690,942	95,06
691,13	88,92
691,318	45,91
691,507	21,33
691,695	43,86
691,883	-21,67
692,072	19,29
692,26	82,77
692,448	62,29
692,636	19,29
692,824	-44,2
693,013	121,68
693,201	17,24
693,389	-70,83
693,577	-17,58
693,765	78,68
693,953	4,95
694,141	43,86
694,329	21,33
694,518	-11,43
694,706	95,06
694,894	-19,63
695,082	41,81
695,27	15,19
695,458	125,78
695,646	60,24
695,834	168,79
696,022	76,63
696,209	64,34
696,397	138,07
696,585	88,92
696,773	15,19
696,961	54,1
697,149	52,05
697,337	66,39
697,525	80,72
697,712	68,44
697,9	86,87
698,088	58,2
698,276	105,3
698,463	93,01
698,651	70,48
698,839	43,86
699,027	43,86
699,214	142,16
699,402	-64,68
699,59	35,67
699,777	11,09
699,965	70,48
700,152	-29,87
700,34	2,9
700,528	117,59
700,715	-15,53
700,903	-1,19
701,09	62,29
701,278	117,59
701,465	84,82
701,653	27,48
701,84	-33,96
702,028	160,59
702,215	101,2
702,402	93,01
702,59	107,35
702,777	129,88
702,965	54,1
703,152	105,3
703,339	19,29
703,527	45,91
703,714	78,68
703,901	95,06
704,088	99,16
704,276	144,21
704,463	176,98
704,65	226,13
704,837	324,43
705,025	873,29
705,212	2702,12
705,399	6003,45
705,586	9128,65
705,773	13005,45
705,96	16532,06
706,147	19305,01
706,335	21420,56
706,522	22409,73
706,709	22395,39
706,896	21635,6
707,083	20584,99
707,27	19587,63
707,457	17500,75
707,644	16149,09
707,831	14133,89
708,018	12169,88
708,205	10517,17
708,392	8999,63
708,578	7811,81
708,765	6400,76
708,952	5305,09
709,139	3883,8
709,326	2650,92
709,513	1944,38
709,7	1344,32
709,886	871,24
710,073	600,91
710,26	510,8
710,447	232,27
710,633	189,27
710,82	183,12
711,007	228,18
711,193	111,44
711,38	121,68
711,567	176,98
711,753	78,68
711,94	47,96
712,127	97,11
712,313	88,92
712,5	-38,06
712,686	191,31
712,873	-27,82
713,059	33,62
713,246	27,48
713,432	37,72
713,619	31,57
713,805	35,67
713,992	142,16
714,178	-23,72
714,365	25,43
714,551	2,9
714,737	35,67
714,924	-66,73
715,11	11,09
715,297	43,86
715,483	95,06
715,669	11,09
715,855	-1,19
716,042	43,86
716,228	-27,82
716,414	176,98
716,6	43,86
716,787	68,44
716,973	88,92
717,159	13,14
717,345	80,72
717,531	-1,19
717,718	4,95
717,904	97,11
718,09	45,91
718,276	68,44
718,462	62,29
718,648	11,09
718,834	-11,43
719,02	64,34
719,206	9,05
719,392	-7,34
719,578	11,09
719,764	-29,87
719,95	-38,06
720,136	103,25
720,322	29,52
720,508	64,34
720,694	43,86
720,879	-3,24
721,065	109,4
721,251	84,82
721,437	-54,44
721,623	123,73
721,809	31,57
721,994	37,72
722,18	-62,63
722,366	4,95
722,552	-19,63
722,737	-11,43
722,923	64,34
723,109	78,68
723,294	-19,63
723,48	35,67
723,666	119,64
723,851	84,82
724,037	11,09
724,222	140,12
724,408	76,63
724,593	80,72
724,779	-9,39
724,965	-5,29
725,15	39,76
725,336	142,16
725,521	97,11
725,706	-38,06
725,892	13,14
726,077	13,14
726,263	-42,15
726,448	123,73
726,634	80,72
726,819	318,29
727,004	492,37
727,19	830,28
727,375	1313,6
727,56	1545,02
727,745	1833,79
727,931	2063,16
728,116	2149,17
728,301	2376,5
728,486	2200,37
728,672	2077,49
728,857	2011,96
729,042	1735,48
729,227	1616,7
729,412	1413,95
729,597	1108,8
729,783	1018,69
729,968	906,06
730,153	838,47
730,338	686,92
730,523	531,28
730,708	432,97
730,893	334,67
731,078	256,85
731,263	172,88
731,448	95,06
731,633	119,64
731,818	52,05
732,003	-19,63
732,187	93,01
732,372	35,67
732,557	23,38
732,742	2,9
732,927	-93,35
733,112	76,63
733,297	-29,87
733,481	21,33
733,666	99,16
733,851	60,24
734,036	-33,96
734,22	13,14
734,405	144,21
734,59	-44,2
734,774	78,68
734,959	11,09
735,144	136,02
735,328	4,95
735,513	2,9
735,698	15,19
735,882	117,59
736,067	97,11
736,251	60,24
736,436	15,19
736,62	-21,67
736,805	-29,87
736,989	136,02
737,174	-29,87
737,358	2,9
737,543	56,15
737,727	37,72
737,911	86,87
738,096	35,67
738,28	43,86
738,465	37,72
738,649	0,85
738,833	47,96
739,018	43,86
739,202	39,76
739,386	54,1
739,57	76,63
739,755	80,72
739,939	78,68
740,123	-46,25
740,307	11,09
740,491	76,63
740,676	-17,58
740,86	2,9
741,044	27,48
741,228	35,67
741,412	-109,74
741,596	-19,63
741,78	-25,77
741,964	-11,43
742,148	-68,78
742,332	-44,2
742,516	-76,97
742,7	76,63
742,884	-50,35
743,068	19,29
743,252	-66,73
743,436	2,9
743,62	-64,68
743,804	168,79
743,988	84,82
744,172	-13,48
744,356	-17,58
744,539	-52,39
744,723	-115,88
744,907	-46,25
745,091	-3,24
745,275	-29,87
745,458	27,48
745,642	78,68
745,826	17,24
746,009	125,78
746,193	60,24
746,377	-1,19
746,56	52,05
746,744	56,15
746,928	-19,63
747,111	-21,67
747,295	2,9
747,478	-5,29
747,662	-21,67
747,846	50
748,029	52,05
748,213	-33,96
748,396	25,43
748,58	-3,24
748,763	-29,87
748,946	-97,45
749,13	35,67
749,313	-70,83
749,497	76,63
749,68	0,85
749,863	56,15
750,047	-3,24
750,23	-25,77
750,413	21,33
750,597	62,29
750,78	-11,43
750,963	84,82
751,146	-21,67
751,33	-70,83
751,513	74,58
751,696	47,96
751,879	27,48
752,062	-64,68
752,246	-27,82
752,429	21,33
752,612	-27,82
752,795	76,63
752,978	-87,21
753,161	-115,88
753,344	-27,82
753,527	43,86
753,71	-54,44
753,893	19,29
754,076	-31,91
754,259	39,76
754,442	-9,39
754,625	-19,63
754,808	95,06
754,991	37,72
755,174	-21,67
755,357	60,24
755,539	-54,44
755,722	129,88
755,905	35,67
756,088	-17,58
756,271	27,48
756,453	2,9
756,636	-68,78
756,819	37,72
757,002	-93,35
757,184	131,92
757,367	80,72
757,55	52,05
757,732	101,2
757,915	-25,77
758,098	11,09
758,28	27,48
758,463	45,91
758,645	-74,92
758,828	88,92
759,011	64,34
759,193	21,33
759,376	31,57
759,558	72,53
759,741	52,05
759,923	-111,78
760,105	-3,24
760,288	-3,24
760,47	-36,01
760,653	54,1
760,835	-27,82
761,017	-85,16
761,2	-36,01
761,382	35,67
761,564	-5,29
761,747	50
761,929	-29,87
762,111	27,48
762,294	7
762,476	111,44
762,658	68,44
762,84	152,4
763,022	74,58
763,205	84,82
763,387	86,87
763,569	17,24
763,751	-3,24
763,933	2,9
764,115	-50,35
764,297	64,34
764,479	52,05
764,661	-23,72
764,843	84,82
765,025	-38,06
765,207	-7,34
765,389	4,95
765,571	-3,24
765,753	-21,67
765,935	4,95
766,117	-46,25
766,299	103,25
766,481	138,07
766,663	-36,01
766,845	29,52
767,026	13,14
767,208	43,86
767,39	-36,01
767,572	-68,78
767,753	62,29
767,935	-36,01
768,117	19,29
768,299	72,53
768,48	7
768,662	86,87
768,844	-54,44
769,025	170,83
769,207	-25,77
769,389	-3,24
769,57	45,91
769,752	19,29
769,933	-9,39
770,115	33,62
770,296	35,67
770,478	103,25
770,659	-62,63
770,841	230,23
771,022	-38,06
771,204	93,01
771,385	-31,91
771,567	95,06
771,748	68,44
771,929	-60,59
772,111	11,09
772,292	72,53
772,473	-33,96
772,655	54,1
772,836	-38,06
773,017	56,15
773,199	86,87
773,38	86,87
773,561	39,76
773,742	60,24
773,923	35,67
774,105	109,4
774,286	21,33
774,467	-70,83
774,648	-29,87
774,829	101,2
775,01	-36,01
775,191	-42,15
775,372	4,95
775,553	13,14
775,734	15,19
775,915	82,77
776,096	-52,39
776,277	31,57
776,458	-70,83
776,639	52,05
776,82	29,52
777,001	58,2
777,182	-11,43
777,363	39,76
777,544	19,29
777,725	64,34
777,906	84,82
778,086	41,81
778,267	43,86
778,448	84,82
778,629	-68,78
778,809	45,91
778,99	-9,39
779,171	13,14
779,352	-13,48
779,532	-60,59
779,713	-17,58
779,894	-38,06
780,074	148,31
780,255	25,43
780,435	93,01
780,616	78,68
780,797	35,67
780,977	58,2
781,158	-44,2
781,338	68,44
781,519	-5,29
781,699	191,31
781,88	11,09
782,06	119,64
782,241	23,38
782,421	15,19
782,601	-3,24
782,782	47,96
782,962	35,67
783,142	-62,63
783,323	68,44
783,503	78,68
783,683	25,43
783,864	76,63
784,044	103,25
784,224	45,91
784,404	-3,24
784,585	82,77
784,765	2,9
784,945	68,44
785,125	-103,59
785,305	52,05
785,485	150,36
785,666	109,4
785,846	-17,58
786,026	23,38
786,206	19,29
786,386	66,39
786,566	37,72
786,746	19,29
786,926	-3,24
787,106	19,29
787,286	7
787,466	-31,91
787,646	43,86
787,826	11,09
788,006	144,21
788,185	4,95
788,365	-29,87
788,545	101,2
788,725	-17,58
788,905	84,82
789,085	-3,24
789,264	29,52
789,444	84,82
789,624	78,68
789,804	11,09
789,983	21,33
790,163	-38,06
790,343	129,88
790,522	7
790,702	-11,43
790,882	2,9
791,061	133,97
791,241	-9,39
791,42	70,48
791,6	68,44
791,78	88,92
791,959	-21,67
792,139	-21,67
792,318	19,29
792,498	41,81
792,677	7
792,856	-46,25
793,036	-25,77
793,215	-5,29
793,395	93,01
793,574	-33,96
793,753	117,59
793,933	74,58
794,112	-19,63
794,291	52,05
794,471	136,02
794,65	72,53
794,829	-52,39
795,008	19,29
795,188	93,01
795,367	103,25
795,546	93,01
795,725	-15,53
795,904	-9,39
796,084	23,38
796,263	93,01
796,442	152,4
796,621	97,11
796,8	29,52
796,979	72,53
797,158	-76,97
797,337	-46,25
797,516	68,44
797,695	125,78
797,874	72,53
798,053	-11,43
798,232	11,09
798,411	-21,67
798,59	-3,24
798,769	-60,59
798,947	35,67
799,126	-29,87
799,305	84,82
799,484	27,48
799,663	-50,35
799,842	37,72
800,02	62,29
800,199	11,09
800,378	45,91
800,557	13,14
800,735	-62,63
800,914	2,9
801,093	-3,24
801,271	58,2
801,45	52,05
801,628	13,14
801,807	43,86
801,986	140,12
802,164	-44,2
802,343	-46,25
802,521	-52,39
802,7	43,86
802,878	35,67
803,057	-9,39
803,235	-11,43
803,414	37,72
803,592	31,57
803,771	2,9
803,949	4,95
804,127	29,52
804,306	127,83
804,484	-38,06
804,662	-29,87
804,841	-56,49
805,019	56,15
805,197	13,14
805,375	27,48
805,554	9,05
805,732	84,82
805,91	23,38
806,088	27,48
806,266	-25,77
806,445	7
806,623	-5,29
806,801	0,85
806,979	103,25
807,157	43,86
807,335	-93,35
807,513	80,72
807,691	80,72
807,869	-85,16
808,047	9,05
808,225	-44,2
808,403	7
808,581	23,38
808,759	123,73
808,937	11,09
809,115	99,16
809,293	90,96
809,471	68,44
809,649	60,24
809,826	-25,77
810,004	4,95
810,182	54,1
810,36	7
810,538	-9,39
810,715	111,44
810,893	-46,25
811,071	-36,01
811,248	31,57
811,426	45,91
811,604	52,05
811,781	52,05
811,959	64,34
812,137	11,09
812,314	15,19
812,492	37,72
812,669	23,38
812,847	-111,78
813,024	43,86
813,202	107,35
813,379	-29,87
813,557	41,81
813,734	62,29
813,912	45,91
814,089	-19,63
814,267	84,82
814,444	19,29
814,621	88,92
814,799	-66,73
814,976	84,82
815,153	21,33
815,331	70,48
815,508	-62,63
815,685	-17,58
815,862	-31,91
816,04	9,05
816,217	-1,19
816,394	4,95
816,571	76,63
816,748	172,88
816,926	142,16
817,103	283,47
817,28	70,48
817,457	-11,43
817,634	138,07
817,811	-74,92
817,988	-5,29
818,165	-11,43
818,342	11,09
818,519	-50,35
818,696	7
818,873	-54,44
819,05	68,44
819,227	-23,72
819,404	43,86
819,581	-42,15
819,758	27,48
819,934	33,62
820,111	11,09
820,288	2,9
820,465	84,82
820,642	60,24
820,818	52,05
820,995	27,48
821,172	183,12
821,349	52,05
821,525	31,57
821,702	39,76
821,879	15,19
822,055	70,48
822,232	45,91
822,409	11,09
822,585	76,63
822,762	41,81
822,938	72,53
823,115	97,11
823,291	-29,87
823,468	127,83
823,644	-79,02
823,821	47,96
823,997	-44,2
824,174	-70,83
824,35	27,48
824,527	97,11
824,703	19,29
824,879	-85,16
825,056	9,05
825,232	64,34
825,408	35,67
825,585	-36,01
825,761	21,33
825,937	11,09
826,113	-21,67
826,29	68,44
826,466	-38,06
826,642	412,5
826,818	-42,15
826,994	-9,39
827,17	2,9
827,347	-62,63
827,523	-33,96
827,699	45,91
827,875	-13,48
828,051	68,44
828,227	19,29
828,403	86,87
828,579	117,59
828,755	52,05
828,931	19,29
829,107	62,29
829,283	142,16
829,459	-128,17
829,635	-3,24
829,811	27,48
829,986	2,9
830,162	-3,24
830,338	68,44
830,514	-83,11
830,69	35,67
830,865	103,25
831,041	52,05
831,217	13,14
831,393	2,9
831,568	19,29
831,744	-11,43
831,92	-52,39
832,095	-31,91
832,271	-23,72
832,447	2,9
832,622	93,01
832,798	-50,35
832,973	2,9
833,149	23,38
833,325	27,48
833,5	11,09
833,676	-60,59
833,851	29,52
834,027	-52,39
834,202	60,24
834,377	133,97
834,553	31,57
834,728	21,33
834,904	35,67
835,079	-3,24
835,254	-58,54
835,43	45,91
835,605	35,67
835,78	-25,77
835,955	15,19
836,131	-70,83
836,306	-29,87
836,481	-74,92
836,656	62,29
836,832	35,67
837,007	-136,36
837,182	-40,11
837,357	-1,19
837,532	-9,39
837,707	23,38
837,882	54,1
838,057	125,78
838,232	-3,24
838,407	62,29
838,582	80,72
838,757	29,52
838,932	47,96
839,107	15,19
839,282	-48,3
839,457	52,05
839,632	31,57
839,807	47,96
839,982	84,82
840,157	43,86
840,332	23,38
840,506	-5,29
840,681	-83,11
840,856	-7,34
841,031	-38,06
841,205	-40,11
841,38	-38,06
841,555	70,48
841,73	35,67
841,904	-50,35
842,079	37,72
842,254	-7,34
842,428	19,29
842,603	-3,24
842,777	-60,59
842,952	54,1
843,126	-60,59
843,301	119,64
843,476	-60,59
843,65	-29,87
843,825	35,67
843,999	45,91
844,173	-38,06
844,348	-5,29
844,522	60,24
844,697	23,38
844,871	-93,35
845,045	64,34
845,22	76,63
845,394	86,87
845,568	86,87
845,743	37,72
845,917	64,34
846,091	-70,83
846,265	25,43
846,44	-3,24
846,614	13,14
846,788	-66,73
846,962	9,05
847,136	43,86
847,31	-29,87
847,485	93,01
847,659	60,24
847,833	60,24
848,007	-21,67
848,181	19,29
848,355	-27,82
848,529	86,87
848,703	-11,43
848,877	-27,82
849,051	-23,72
849,225	47,96
849,399	35,67
849,573	27,48
849,746	-58,54
849,92	27,48
850,094	17,24
850,268	-5,29
850,442	80,72
850,616	-21,67
850,789	15,19
850,963	-52,39
851,137	-46,25
851,311	99,16
851,484	52,05
851,658	19,29
851,832	-85,16
852,005	58,2
852,179	-21,67
852,352	-42,15
852,526	-29,87
852,7	154,45
852,873	-46,25
853,047	88,92
853,22	23,38
853,394	39,76
853,567	-3,24
853,741	-25,77
853,914	-101,55
854,088	33,62
854,261	35,67
854,434	-111,78
854,608	-3,24
854,781	-36,01
854,955	-13,48
855,128	27,48
855,301	13,14
855,475	-3,24
855,648	11,09
855,821	60,24
855,994	109,4
856,168	37,72
856,341	103,25
856,514	13,14
856,687	-15,53
856,86	90,96
857,033	123,73
857,207	-23,72
857,38	-119,98
857,553	152,4
857,726	27,48
857,899	17,24
858,072	-101,55
858,245	-11,43
858,418	-5,29
858,591	-9,39
858,764	4,95
858,937	54,1
859,11	93,01
859,283	25,43
859,455	45,91
859,628	-15,53
859,801	93,01
859,974	111,44
860,147	-48,3
860,32	103,25
860,492	-29,87
860,665	-85,16
860,838	15,19
861,011	11,09
861,183	95,06
861,356	43,86
861,529	56,15
861,701	-11,43
861,874	-13,48
862,047	60,24
862,219	-1,19
862,392	86,87
862,564	19,29
862,737	47,96
862,909	76,63
863,082	-23,72
863,254	-17,58
863,427	47,96
863,599	162,64
863,772	27,48
863,944	62,29
864,117	97,11
864,289	62,29
864,461	2,9
864,634	183,12
864,806	-38,06
864,978	111,44
865,151	-29,87
865,323	88,92
865,495	142,16
865,667	-42,15
865,84	191,31
866,012	-54,44
866,184	76,63
866,356	-42,15
866,528	-29,87
866,7	-27,82
866,873	-5,29
867,045	35,67
867,217	-93,35
867,389	76,63
867,561	19,29
867,733	-48,3
867,905	-1,19
868,077	19,29
868,249	27,48
868,421	-11,43
868,593	-13,48
868,765	117,59
868,936	62,29
869,108	11,09
869,28	72,53
869,452	-58,54
869,624	-103,59
869,796	76,63
869,968	43,86
870,139	133,97
870,311	-23,72
870,483	97,11
870,654	43,86
870,826	43,86
870,998	60,24
871,17	54,1
871,341	-36,01
871,513	103,25
871,684	-29,87
871,856	31,57
872,028	117,59
872,199	-93,35
872,371	29,52
872,542	78,68
872,714	-29,87
872,885	129,88
873,057	35,67
873,228	19,29
873,4	13,14
873,571	133,97
873,742	15,19
873,914	56,15
874,085	-56,49
874,256	11,09
874,428	-21,67
874,599	2,9
874,77	29,52
874,942	27,48
875,113	41,81
875,284	-33,96
875,455	-87,21
875,626	-62,63
875,798	43,86
875,969	-1,19
876,14	119,64
876,311	54,1
876,482	101,2
876,653	68,44
876,824	176,98
876,995	52,05
877,166	68,44
877,337	84,82
877,508	2,9
877,679	-58,54
877,85	-46,25
878,021	-13,48
878,192	60,24
878,363	2,9
878,534	-9,39
878,705	41,81
878,876	7
879,047	56,15
879,217	68,44
879,388	82,77
879,559	19,29
879,73	84,82
879,9	-46,25
880,071	105,3
880,242	-9,39
880,413	-17,58
880,583	66,39
880,754	68,44
880,924	-58,54
881,095	-15,53
881,266	-138,41
881,436	41,81
881,607	70,48
881,777	78,68
881,948	41,81
882,118	21,33
882,289	-42,15
882,459	37,72
882,63	74,58
882,8	41,81
882,971	101,2
883,141	-11,43
883,311	-13,48
883,482	115,54
883,652	2,9
883,822	13,14
883,993	-19,63
884,163	43,86
884,333	43,86
884,504	45,91
884,674	11,09
884,844	52,05
885,014	-46,25
885,184	56,15
885,355	-23,72
885,525	-5,29
885,695	80,72
885,865	127,83
886,035	56,15
886,205	-1,19
886,375	33,62
886,545	72,53
886,715	-46,25
886,885	-27,82
887,055	-21,67
887,225	72,53
887,395	-11,43
887,565	152,4
887,735	-19,63
887,905	17,24
888,075	21,33
888,244	78,68
888,414	-3,24
888,584	78,68
888,754	-17,58
888,924	2,9
889,093	195,41
889,263	11,09
889,433	-11,43
889,603	50
889,772	2,9
889,942	111,44
890,111	60,24
890,281	115,54
890,451	11,09
890,62	-25,77
890,79	-5,29
890,959	35,67
891,129	7
891,298	21,33
891,468	43,86
891,637	52,05
891,807	-5,29
891,976	43,86
892,146	-38,06
892,315	64,34
892,485	45,91
892,654	-54,44
892,823	-21,67
892,993	2,9
893,162	-13,48
893,331	74,58
893,501	68,44
893,67	35,67
893,839	2,9
894,008	-3,24
894,177	54,1
894,347	19,29
894,516	95,06
894,685	-9,39
894,854	-29,87
895,023	27,48
895,192	-66,73
