Data from he_USB4F104161__27__11-53-38-040.txt Node

Date: Tue Apr 14 11:53:38 EDT 2026
User: LaboPhy
Spectrometer: USB4F10416
Trigger mode: 4
Integration Time (sec): 1,000000E-1
Scans to average: 1
Electric dark correction enabled: true
Nonlinearity correction enabled: false
Boxcar width: 0
XAxis mode: Wavelengths
Number of Pixels in Spectrum: 3648
>>>>>Begin Spectral Data<<<<<
177,847	-168,45
178,066	-168,45
178,284	-168,45
178,502	-152,06
178,72	-203,26
178,939	26,11
179,157	73,21
179,375	44,54
179,593	-47,62
179,812	36,35
180,03	15,87
180,248	-41,47
180,466	-47,62
180,685	22,02
180,903	-64
181,121	-86,53
181,339	69,12
181,557	46,59
181,775	-20,99
181,994	-53,76
182,212	-70,14
182,43	11,78
182,648	30,21
182,866	28,16
183,084	128,51
183,302	1,54
183,52	50,69
183,739	87,55
183,957	34,3
184,175	22,02
184,393	1,54
184,611	79,36
184,829	-31,23
185,047	-14,85
185,265	93,69
185,483	-47,62
185,701	62,98
185,919	34,3
186,137	40,45
186,355	7,68
186,573	60,93
186,791	52,74
187,009	79,36
187,227	58,88
187,445	24,06
187,663	17,92
187,881	52,74
188,098	-4,61
188,316	75,26
188,534	28,16
188,752	17,92
188,97	-16,9
189,188	-94,72
189,406	99,84
189,624	69,12
189,841	3,58
190,059	-29,18
190,277	-39,42
190,495	36,35
190,713	60,93
190,931	77,31
191,148	34,3
191,366	-14,85
191,584	-23,04
191,802	56,83
192,019	36,35
192,237	67,07
192,455	58,88
192,673	75,26
192,89	-23,04
193,108	-23,04
193,326	-39,42
193,543	69,12
193,761	60,93
193,979	34,3
194,196	-23,04
194,414	48,64
194,632	101,89
194,849	-20,99
195,067	-80,38
195,285	-14,85
195,502	-70,14
195,72	-12,8
195,937	19,97
196,155	34,3
196,373	-14,85
196,59	75,26
196,808	34,3
197,025	157,18
197,243	271,87
197,46	99,84
197,678	50,69
197,895	75,26
198,113	17,92
198,33	28,16
198,548	46,59
198,765	-23,04
198,983	-6,66
199,2	-41,47
199,418	71,17
199,635	-4,61
199,853	30,21
200,07	5,63
200,288	153,09
200,505	-39,42
200,722	46,59
200,94	50,69
201,157	15,87
201,375	110,08
201,592	38,4
201,809	134,65
202,027	134,65
202,244	32,26
202,461	-45,57
202,679	85,5
202,896	91,65
203,113	-37,38
203,331	65,02
203,548	71,17
203,765	67,07
203,982	67,07
204,2	-29,18
204,417	-6,66
204,634	183,81
204,851	153,09
205,069	19,97
205,286	3,58
205,503	28,16
205,72	69,12
205,937	116,22
206,155	-31,23
206,372	144,89
206,589	-117,25
206,806	26,11
207,023	-6,66
207,24	-0,51
207,458	-53,76
207,675	-20,99
207,892	50,69
208,109	-29,18
208,326	-10,75
208,543	75,26
208,76	62,98
208,977	181,76
209,194	69,12
209,411	36,35
209,628	-20,99
209,845	83,45
210,062	-0,51
210,279	-39,42
210,496	-2,56
210,713	-84,48
210,93	-12,8
211,147	116,22
211,364	34,3
211,581	54,78
211,798	95,74
212,015	-12,8
212,232	-64
212,449	-10,75
212,666	22,02
212,883	50,69
213,1	-53,76
213,317	40,45
213,533	-0,51
213,75	-39,42
213,967	22,02
214,184	-12,8
214,401	77,31
214,618	-119,29
214,835	97,79
215,051	58,88
215,268	114,17
215,485	26,11
215,702	9,73
215,919	-14,85
216,135	157,18
216,352	67,07
216,569	30,21
216,786	42,5
217,002	26,11
217,219	58,88
217,436	5,63
217,652	54,78
217,869	1,54
218,086	159,23
218,302	1,54
218,519	42,5
218,736	-20,99
218,952	-84,48
219,169	85,5
219,386	34,3
219,602	1,54
219,819	67,07
220,036	1,54
220,252	128,51
220,469	-6,66
220,685	32,26
220,902	-6,66
221,118	26,11
221,335	-100,86
221,552	7,68
221,768	60,93
221,985	9,73
222,201	-43,52
222,418	28,16
222,634	-23,04
222,851	28,16
223,067	19,97
223,284	26,11
223,5	9,73
223,716	58,88
223,933	17,92
224,149	-43,52
224,366	-2,56
224,582	-33,28
224,799	-31,23
225,015	-57,86
225,231	1,54
225,448	-14,85
225,664	22,02
225,88	-76,29
226,097	13,82
226,313	36,35
226,529	-14,85
226,746	79,36
226,962	-6,66
227,178	-4,61
227,395	7,68
227,611	52,74
227,827	19,97
228,044	44,54
228,26	17,92
228,476	50,69
228,692	167,42
228,909	85,5
229,125	34,3
229,341	13,82
229,557	-6,66
229,773	-61,95
229,99	87,55
230,206	44,54
230,422	26,11
230,638	-104,96
230,854	26,11
231,07	-92,67
231,286	44,54
231,503	46,59
231,719	-53,76
231,935	-23,04
232,151	-31,23
232,367	30,21
232,583	62,98
232,799	1,54
233,015	11,78
233,231	17,92
233,447	42,5
233,663	-31,23
233,879	83,45
234,095	-104,96
234,311	-14,85
234,527	38,4
234,743	136,7
234,959	54,78
235,175	75,26
235,391	-27,14
235,607	9,73
235,823	-2,56
236,039	9,73
236,255	-31,23
236,471	3,58
236,687	44,54
236,903	-4,61
237,118	-18,94
237,334	60,93
237,55	-18,94
237,766	-33,28
237,982	34,3
238,198	-39,42
238,413	58,88
238,629	56,83
238,845	11,78
239,061	-12,8
239,277	17,92
239,492	-31,23
239,708	17,92
239,924	-33,28
240,14	-53,76
240,355	89,6
240,571	75,26
240,787	15,87
241,003	142,85
241,218	-72,19
241,434	-12,8
241,65	9,73
241,865	9,73
242,081	87,55
242,297	-109,05
242,512	-4,61
242,728	50,69
242,944	30,21
243,159	-4,61
243,375	50,69
243,59	-68,09
243,806	99,84
244,022	-6,66
244,237	15,87
244,453	-23,04
244,668	50,69
244,884	62,98
245,099	-37,38
245,315	75,26
245,53	69,12
245,746	91,65
245,961	38,4
246,177	42,5
246,392	60,93
246,608	58,88
246,823	26,11
247,039	3,58
247,254	-14,85
247,47	95,74
247,685	-6,66
247,9	-35,33
248,116	17,92
248,331	-23,04
248,547	30,21
248,762	38,4
248,977	-18,94
249,193	60,93
249,408	-64
249,623	-8,7
249,839	-23,04
250,054	5,63
250,269	-6,66
250,485	52,74
250,7	30,21
250,915	9,73
251,13	75,26
251,346	67,07
251,561	-10,75
251,776	42,5
251,991	-57,86
252,207	108,03
252,422	-86,53
252,637	-27,14
252,852	-18,94
253,067	44,54
253,283	17,92
253,498	26,11
253,713	-59,9
253,928	-39,42
254,143	-18,94
254,358	-14,85
254,573	-20,99
254,788	-29,18
255,004	9,73
255,219	-39,42
255,434	58,88
255,649	36,35
255,864	42,5
256,079	-33,28
256,294	44,54
256,509	-20,99
256,724	17,92
256,939	-31,23
257,154	24,06
257,369	-12,8
257,584	46,59
257,799	-31,23
258,014	-14,85
258,229	79,36
258,444	-0,51
258,659	-53,76
258,874	58,88
259,089	54,78
259,304	52,74
259,518	-25,09
259,733	1,54
259,948	52,74
260,163	54,78
260,378	46,59
260,593	-6,66
260,808	17,92
261,022	-35,33
261,237	36,35
261,452	-49,66
261,667	38,4
261,882	52,74
262,096	9,73
262,311	105,98
262,526	-94,72
262,741	-55,81
262,955	-31,23
263,17	71,17
263,385	60,93
263,6	-84,48
263,814	-37,38
264,029	-51,71
264,244	118,27
264,458	-23,04
264,673	30,21
264,888	-4,61
265,102	-6,66
265,317	1,54
265,532	-29,18
265,746	54,78
265,961	67,07
266,175	40,45
266,39	-10,75
266,605	-35,33
266,819	28,16
267,034	22,02
267,248	-49,66
267,463	-31,23
267,677	-90,62
267,892	22,02
268,106	-27,14
268,321	56,83
268,535	116,22
268,75	42,5
268,964	-55,81
269,179	71,17
269,393	-33,28
269,608	19,97
269,822	17,92
270,036	-51,71
270,251	50,69
270,465	30,21
270,68	26,11
270,894	11,78
271,108	151,04
271,323	11,78
271,537	-43,52
271,752	28,16
271,966	-64
272,18	-64
272,394	-37,38
272,609	50,69
272,823	79,36
273,037	83,45
273,252	46,59
273,466	-43,52
273,68	99,84
273,894	52,74
274,109	-27,14
274,323	28,16
274,537	67,07
274,751	-37,38
274,966	103,93
275,18	-80,38
275,394	38,4
275,608	-121,34
275,822	-12,8
276,036	-68,09
276,25	54,78
276,465	-31,23
276,679	9,73
276,893	-29,18
277,107	71,17
277,321	-66,05
277,535	26,11
277,749	-20,99
277,963	52,74
278,177	-72,19
278,391	1,54
278,605	-31,23
278,819	-4,61
279,033	-31,23
279,247	-43,52
279,461	77,31
279,675	11,78
279,889	-6,66
280,103	-14,85
280,317	19,97
280,531	-31,23
280,745	-64
280,959	-64
281,173	67,07
281,387	91,65
281,601	24,06
281,815	124,41
282,029	-39,42
282,242	-70,14
282,456	-31,23
282,67	1,54
282,884	-27,14
283,098	11,78
283,312	60,93
283,525	3,58
283,739	67,07
283,953	9,73
284,167	22,02
284,381	19,97
284,594	-41,47
284,808	-6,66
285,022	40,45
285,235	-2,56
285,449	-37,38
285,663	13,82
285,877	-35,33
286,09	42,5
286,304	46,59
286,518	52,74
286,731	1,54
286,945	87,55
287,159	-72,19
287,372	13,82
287,586	65,02
287,799	11,78
288,013	-16,9
288,227	38,4
288,44	345,59
288,654	52,74
288,867	24,06
289,081	5,63
289,294	24,06
289,508	38,4
289,721	-14,85
289,935	34,3
290,148	-6,66
290,362	52,74
290,575	69,12
290,789	-31,23
291,002	7,68
291,216	85,5
291,429	26,11
291,643	89,6
291,856	-39,42
292,069	-27,14
292,283	-29,18
292,496	-39,42
292,71	11,78
292,923	-35,33
293,136	-6,66
293,35	-20,99
293,563	42,5
293,776	-0,51
293,99	-25,09
294,203	3,58
294,416	-6,66
294,63	17,92
294,843	-16,9
295,056	26,11
295,269	-4,61
295,483	-72,19
295,696	-4,61
295,909	-20,99
296,122	34,3
296,335	58,88
296,549	30,21
296,762	9,73
296,975	40,45
297,188	34,3
297,401	30,21
297,615	85,5
297,828	19,97
298,041	50,69
298,254	-64
298,467	11,78
298,68	-14,85
298,893	-31,23
299,106	-12,8
299,319	54,78
299,532	71,17
299,745	-61,95
299,958	1,54
300,171	-14,85
300,384	-6,66
300,598	-102,91
300,81	85,5
301,023	52,74
301,236	-76,29
301,449	58,88
301,662	-61,95
301,875	-29,18
302,088	9,73
302,301	50,69
302,514	1,54
302,727	36,35
302,94	-104,96
303,153	-14,85
303,366	44,54
303,579	-92,67
303,791	58,88
304,004	-64
304,217	34,3
304,43	83,45
304,643	42,5
304,855	-20,99
305,068	103,93
305,281	48,64
305,494	52,74
305,707	11,78
305,919	79,36
306,132	-4,61
306,345	79,36
306,558	34,3
306,77	-78,33
306,983	11,78
307,196	124,41
307,408	-90,62
307,621	-43,52
307,834	-6,66
308,046	-14,85
308,259	-104,96
308,472	42,5
308,684	93,69
308,897	-39,42
309,109	-49,66
309,322	-80,38
309,535	26,11
309,747	75,26
309,96	60,93
310,172	183,81
310,385	69,12
310,597	-88,57
310,81	9,73
311,022	-80,38
311,235	28,16
311,447	-96,77
311,66	65,02
311,872	120,32
312,085	19,97
312,297	-37,38
312,51	44,54
312,722	19,97
312,934	26,11
313,147	-113,15
313,359	26,11
313,572	-10,75
313,784	-8,7
313,996	19,97
314,209	79,36
314,421	-49,66
314,633	-72,19
314,846	24,06
315,058	44,54
315,27	50,69
315,483	-76,29
315,695	52,74
315,907	-39,42
316,119	-27,14
316,332	56,83
316,544	83,45
316,756	87,55
316,968	-16,9
317,181	58,88
317,393	97,79
317,605	19,97
317,817	132,61
318,029	83,45
318,241	83,45
318,454	110,08
318,666	148,99
318,878	52,74
319,09	11,78
319,302	218,62
319,514	60,93
319,726	73,21
319,938	118,27
320,15	91,65
320,362	44,54
320,574	-64
320,786	-61,95
320,999	-45,57
321,211	34,3
321,423	38,4
321,635	-57,86
321,847	17,92
322,058	32,26
322,27	36,35
322,482	28,16
322,694	132,61
322,906	65,02
323,118	30,21
323,33	110,08
323,542	-27,14
323,754	65,02
323,966	-111,1
324,178	42,5
324,389	3,58
324,601	75,26
324,813	-96,77
325,025	24,06
325,237	-14,85
325,449	87,55
325,66	9,73
325,872	26,11
326,084	3,58
326,296	-66,05
326,507	-4,61
326,719	-29,18
326,931	-31,23
327,143	54,78
327,354	128,51
327,566	-6,66
327,778	-14,85
327,989	-31,23
328,201	-6,66
328,413	26,11
328,624	91,65
328,836	-20,99
329,048	-68,09
329,259	5,63
329,471	1,54
329,682	7,68
329,894	-12,8
330,106	-31,23
330,317	17,92
330,529	22,02
330,74	-31,23
330,952	-16,9
331,163	-39,42
331,375	73,21
331,586	50,69
331,798	15,87
332,009	-6,66
332,221	46,59
332,432	42,5
332,644	-14,85
332,855	-86,53
333,067	-4,61
333,278	-6,66
333,489	89,6
333,701	-39,42
333,912	-2,56
334,124	-12,8
334,335	-119,29
334,546	-31,23
334,758	-2,56
334,969	116,22
335,18	36,35
335,392	67,07
335,603	99,84
335,814	50,69
336,025	-27,14
336,237	44,54
336,448	-80,38
336,659	-4,61
336,87	105,98
337,082	118,27
337,293	-0,51
337,504	5,63
337,715	17,92
337,926	-64
338,138	11,78
338,349	42,5
338,56	58,88
338,771	44,54
338,982	26,11
339,193	-80,38
339,404	79,36
339,616	-23,04
339,827	140,8
340,038	-31,23
340,249	54,78
340,46	-43,52
340,671	-10,75
340,882	93,69
341,093	73,21
341,304	-23,04
341,515	11,78
341,726	-64
341,937	-6,66
342,148	34,3
342,359	-49,66
342,57	-55,81
342,781	56,83
342,992	17,92
343,203	-2,56
343,414	62,98
343,624	-59,9
343,835	-6,66
344,046	-6,66
344,257	50,69
344,468	-25,09
344,679	9,73
344,89	5,63
345,1	-113,15
345,311	-37,38
345,522	50,69
345,733	24,06
345,944	44,54
346,154	79,36
346,365	142,85
346,576	-64
346,787	-10,75
346,997	67,07
347,208	38,4
347,419	-12,8
347,629	60,93
347,84	114,17
348,051	-53,76
348,261	17,92
348,472	-72,19
348,683	69,12
348,893	17,92
349,104	38,4
349,315	-59,9
349,525	-10,75
349,736	17,92
349,946	-4,61
350,157	67,07
350,368	77,31
350,578	-104,96
350,789	40,45
350,999	19,97
351,21	42,5
351,42	-23,04
351,631	3,58
351,841	-29,18
352,052	3,58
352,262	50,69
352,472	-43,52
352,683	-14,85
352,893	1,54
353,104	1,54
353,314	67,07
353,525	378,36
353,735	85,5
353,945	-53,76
354,156	-121,34
354,366	83,45
354,576	132,61
354,787	91,65
354,997	-88,57
355,207	-55,81
355,418	-45,57
355,628	26,11
355,838	75,26
356,048	36,35
356,259	101,89
356,469	-23,04
356,679	-53,76
356,889	67,07
357,1	-68,09
357,31	1,54
357,52	-16,9
357,73	-37,38
357,94	17,92
358,15	7,68
358,361	9,73
358,571	15,87
358,781	75,26
358,991	-31,23
359,201	-37,38
359,411	-8,7
359,621	-2,56
359,831	54,78
360,041	46,59
360,251	-10,75
360,461	91,65
360,672	-23,04
360,882	54,78
361,092	34,3
361,302	11,78
361,512	67,07
361,721	-70,14
361,931	26,11
362,141	60,93
362,351	7,68
362,561	71,17
362,771	-27,14
362,981	105,98
363,191	-53,76
363,401	95,74
363,611	-72,19
363,821	-55,81
364,03	-80,38
364,24	-18,94
364,45	67,07
364,66	239,1
364,87	67,07
365,08	22,02
365,289	-25,09
365,499	36,35
365,709	148,99
365,919	75,26
366,128	22,02
366,338	54,78
366,548	-80,38
366,758	69,12
366,967	36,35
367,177	9,73
367,387	13,82
367,596	22,02
367,806	50,69
368,016	-4,61
368,225	93,69
368,435	77,31
368,644	38,4
368,854	48,64
369,064	79,36
369,273	116,22
369,483	34,3
369,692	26,11
369,902	-104,96
370,111	30,21
370,321	67,07
370,53	1,54
370,74	-18,94
370,949	91,65
371,159	40,45
371,368	30,21
371,578	54,78
371,787	50,69
371,997	9,73
372,206	26,11
372,416	71,17
372,625	124,41
372,834	34,3
373,044	-23,04
373,253	50,69
373,462	171,52
373,672	62,98
373,881	42,5
374,09	17,92
374,3	83,45
374,509	1,54
374,718	-25,09
374,928	155,13
375,137	77,31
375,346	-6,66
375,555	110,08
375,765	-2,56
375,974	-6,66
376,183	-12,8
376,392	11,78
376,601	44,54
376,811	36,35
377,02	155,13
377,229	22,02
377,438	34,3
377,647	1,54
377,856	-20,99
378,065	-27,14
378,275	7,68
378,484	-59,9
378,693	-23,04
378,902	-14,85
379,111	52,74
379,32	11,78
379,529	9,73
379,738	79,36
379,947	-12,8
380,156	44,54
380,365	71,17
380,574	126,46
380,783	11,78
380,992	9,73
381,201	48,64
381,41	-23,04
381,619	11,78
381,828	95,74
382,037	46,59
382,245	187,9
382,454	108,03
382,663	101,89
382,872	75,26
383,081	60,93
383,29	58,88
383,499	58,88
383,707	38,4
383,916	42,5
384,125	132,61
384,334	-45,57
384,542	52,74
384,751	65,02
384,96	-41,47
385,169	7,68
385,377	36,35
385,586	7,68
385,795	181,76
386,004	79,36
386,212	38,4
386,421	48,64
386,63	349,69
386,838	749,04
387,047	1140,21
387,255	1975,78
387,464	2817,49
387,673	3796,42
387,881	4990,39
388,09	5858,73
388,298	6710,68
388,507	8086,92
388,715	9868,65
388,924	11181,4
389,133	10683,74
389,341	10343,78
389,55	8947,06
389,758	6690,2
389,967	4502,97
390,175	2909,65
390,383	2295,26
390,592	1766,89
390,8	1117,68
391,009	771,57
391,217	425,47
391,426	294,4
391,634	116,22
391,842	93,69
392,051	9,73
392,259	71,17
392,467	71,17
392,676	34,3
392,884	34,3
393,092	-55,81
393,301	-6,66
393,509	26,11
393,717	34,3
393,925	24,06
394,134	-88,57
394,342	99,84
394,55	24,06
394,758	46,59
394,967	87,55
395,175	36,35
395,383	67,07
395,591	75,26
395,799	189,95
396,007	124,41
396,216	310,78
396,424	157,18
396,632	132,61
396,84	183,81
397,048	118,27
397,256	161,28
397,464	69,12
397,672	116,22
397,88	7,68
398,088	22,02
398,296	103,93
398,504	34,3
398,712	50,69
398,92	67,07
399,128	-86,53
399,336	1,54
399,544	60,93
399,752	42,5
399,96	89,6
400,168	9,73
400,376	38,4
400,584	93,69
400,792	42,5
401	38,4
401,207	30,21
401,415	151,04
401,623	222,72
401,831	200,19
402,039	312,83
402,247	271,87
402,454	454,14
402,662	404,99
402,87	431,61
403,078	511,48
403,285	445,95
403,493	306,68
403,701	208,38
403,909	67,07
404,116	198,14
404,324	22,02
404,532	97,79
404,739	-27,14
404,947	52,74
405,155	42,5
405,362	28,16
405,57	-70,14
405,778	-27,14
405,985	-0,51
406,193	-68,09
406,4	-55,81
406,608	11,78
406,816	-33,28
407,023	42,5
407,231	-29,18
407,438	38,4
407,646	118,27
407,853	11,78
408,061	9,73
408,268	13,82
408,476	-25,09
408,683	52,74
408,89	38,4
409,098	42,5
409,305	73,21
409,513	87,55
409,72	-12,8
409,927	19,97
410,135	140,8
410,342	-12,8
410,55	116,22
410,757	58,88
410,964	44,54
411,172	79,36
411,379	9,73
411,586	112,13
411,793	42,5
412,001	-39,42
412,208	-35,33
412,415	83,45
412,622	93,69
412,83	87,55
413,037	65,02
413,244	3,58
413,451	69,12
413,658	93,69
413,866	52,74
414,073	67,07
414,28	122,37
414,487	-68,09
414,694	24,06
414,901	93,69
415,108	-23,04
415,315	28,16
415,522	95,74
415,73	9,73
415,937	-55,81
416,144	-14,85
416,351	22,02
416,558	5,63
416,765	9,73
416,972	-37,38
417,179	-82,43
417,386	71,17
417,593	56,83
417,8	15,87
418,006	-6,66
418,213	52,74
418,42	93,69
418,627	42,5
418,834	-18,94
419,041	-53,76
419,248	-14,85
419,455	108,03
419,661	36,35
419,868	9,73
420,075	24,06
420,282	-59,9
420,489	-31,23
420,696	-4,61
420,902	-64
421,109	71,17
421,316	3,58
421,523	36,35
421,729	5,63
421,936	-47,62
422,143	108,03
422,349	32,26
422,556	-72,19
422,763	91,65
422,969	-29,18
423,176	-127,49
423,383	36,35
423,589	296,44
423,796	34,3
424,002	-88,57
424,209	60,93
424,416	-23,04
424,622	-72,19
424,829	-43,52
425,035	-78,33
425,242	26,11
425,448	-61,95
425,655	32,26
425,861	91,65
426,068	-14,85
426,274	99,84
426,481	71,17
426,687	19,97
426,894	36,35
427,1	-14,85
427,306	36,35
427,513	-55,81
427,719	-14,85
427,926	50,69
428,132	17,92
428,338	26,11
428,545	-72,19
428,751	-2,56
428,957	46,59
429,163	9,73
429,37	126,46
429,576	34,3
429,782	44,54
429,989	-39,42
430,195	11,78
430,401	22,02
430,607	28,16
430,813	-25,09
431,02	34,3
431,226	91,65
431,432	3,58
431,638	38,4
431,844	-53,76
432,05	9,73
432,257	13,82
432,463	42,5
432,669	38,4
432,875	-14,85
433,081	-70,14
433,287	-8,7
433,493	-70,14
433,699	93,69
433,905	-20,99
434,111	-72,19
434,317	-12,8
434,523	163,33
434,729	19,97
434,935	-23,04
435,141	132,61
435,347	17,92
435,553	-27,14
435,759	-31,23
435,965	34,3
436,171	-2,56
436,377	52,74
436,582	36,35
436,788	-55,81
436,994	58,88
437,2	9,73
437,406	108,03
437,612	69,12
437,818	124,41
438,023	28,16
438,229	202,24
438,435	118,27
438,641	62,98
438,846	134,65
439,052	159,23
439,258	167,42
439,464	108,03
439,669	83,45
439,875	177,66
440,081	32,26
440,286	-23,04
440,492	9,73
440,698	58,88
440,903	-16,9
441,109	87,55
441,314	-111,1
441,52	-51,71
441,726	9,73
441,931	9,73
442,137	58,88
442,342	19,97
442,548	163,33
442,753	120,32
442,959	1,54
443,164	5,63
443,37	30,21
443,575	-4,61
443,781	-45,57
443,986	83,45
444,192	28,16
444,397	112,13
444,602	-14,85
444,808	93,69
445,013	136,7
445,219	232,96
445,424	525,82
445,629	648,69
445,835	996,85
446,04	1279,47
446,245	1613,29
446,451	1838,56
446,656	2235,87
446,861	2559,45
447,066	3239,37
447,272	3470,8
447,477	3435,98
447,682	3151,31
447,887	2557,4
448,093	2371,04
448,298	1725,93
448,503	976,37
448,708	671,22
448,913	452,09
449,118	284,16
449,324	187,9
449,529	157,18
449,734	114,17
449,939	11,78
450,144	42,5
450,349	-6,66
450,554	42,5
450,759	87,55
450,964	69,12
451,169	77,31
451,374	-2,56
451,579	52,74
451,784	-25,09
451,989	9,73
452,194	5,63
452,399	-25,09
452,604	-8,7
452,809	-35,33
453,014	28,16
453,219	44,54
453,424	81,41
453,629	-4,61
453,833	-55,81
454,038	34,3
454,243	-61,95
454,448	101,89
454,653	77,31
454,858	30,21
455,062	-27,14
455,267	-16,9
455,472	40,45
455,677	34,3
455,882	-14,85
456,086	116,22
456,291	-6,66
456,496	-47,62
456,7	54,78
456,905	13,82
457,11	3,58
457,314	-45,57
457,519	-37,38
457,724	26,11
457,928	48,64
458,133	17,92
458,338	13,82
458,542	-23,04
458,747	36,35
458,951	34,3
459,156	58,88
459,36	-39,42
459,565	30,21
459,769	-55,81
459,974	34,3
460,178	5,63
460,383	-141,82
460,587	-61,95
460,792	114,17
460,996	-47,62
461,201	38,4
461,405	-39,42
461,61	-35,33
461,814	28,16
462,018	22,02
462,223	-55,81
462,427	-6,66
462,631	9,73
462,836	91,65
463,04	83,45
463,244	77,31
463,449	-55,81
463,653	89,6
463,857	1,54
464,062	69,12
464,266	-31,23
464,47	40,45
464,674	-31,23
464,878	19,97
465,083	79,36
465,287	67,07
465,491	-18,94
465,695	17,92
465,899	44,54
466,104	42,5
466,308	75,26
466,512	5,63
466,716	30,21
466,92	132,61
467,124	50,69
467,328	110,08
467,532	52,74
467,736	54,78
467,94	58,88
468,144	-18,94
468,348	91,65
468,552	110,08
468,756	83,45
468,96	30,21
469,164	11,78
469,368	116,22
469,572	44,54
469,776	284,16
469,98	280,06
470,184	370,17
470,388	464,38
470,591	544,25
470,795	550,39
470,999	669,17
471,203	697,85
471,407	783,86
471,611	669,17
471,814	738,8
472,018	554,49
472,222	558,58
472,426	515,58
472,63	341,5
472,833	345,59
473,037	337,4
473,241	108,03
473,444	198,14
473,648	445,95
473,852	75,26
474,055	5,63
474,259	60,93
474,463	28,16
474,666	67,07
474,87	44,54
475,074	-23,04
475,277	71,17
475,481	5,63
475,684	22,02
475,888	30,21
476,091	-41,47
476,295	-14,85
476,498	-74,24
476,702	13,82
476,905	116,22
477,109	77,31
477,312	1,54
477,516	-121,34
477,719	75,26
477,923	17,92
478,126	-23,04
478,329	-35,33
478,533	-37,38
478,736	34,3
478,94	26,11
479,143	11,78
479,346	30,21
479,55	83,45
479,753	36,35
479,956	-43,52
480,159	42,5
480,363	108,03
480,566	58,88
480,769	-29,18
480,972	-64
481,176	46,59
481,379	75,26
481,582	116,22
481,785	3,58
481,988	101,89
482,192	85,5
482,395	9,73
482,598	-10,75
482,801	22,02
483,004	126,46
483,207	-68,09
483,41	9,73
483,613	151,04
483,817	75,26
484,02	26,11
484,223	-104,96
484,426	-33,28
484,629	-14,85
484,832	60,93
485,035	-23,04
485,238	13,82
485,441	50,69
485,644	13,82
485,846	120,32
486,049	-20,99
486,252	-59,9
486,455	-37,38
486,658	62,98
486,861	83,45
487,064	58,88
487,267	-45,57
487,47	30,21
487,672	69,12
487,875	19,97
488,078	52,74
488,281	138,75
488,484	32,26
488,686	-20,99
488,889	36,35
489,092	-37,38
489,295	22,02
489,497	22,02
489,7	-31,23
489,903	5,63
490,105	-41,47
490,308	34,3
490,511	140,8
490,713	206,33
490,916	331,26
491,118	550,39
491,321	697,85
491,524	869,87
491,726	1002,99
491,929	1099,25
492,131	1258,99
492,334	1488,36
492,536	1443,31
492,739	1363,44
492,941	1322,48
493,144	1082,86
493,346	777,72
493,549	640,5
493,751	509,43
493,954	259,58
494,156	210,43
494,359	189,95
494,561	19,97
494,763	73,21
494,966	148,99
495,168	101,89
495,37	-39,42
495,573	3,58
495,775	9,73
495,977	69,12
496,18	44,54
496,382	124,41
496,584	24,06
496,787	132,61
496,989	36,35
497,191	42,5
497,393	48,64
497,595	15,87
497,798	-18,94
498	28,16
498,202	13,82
498,404	-47,62
498,606	-6,66
498,808	132,61
499,011	32,26
499,213	11,78
499,415	-14,85
499,617	314,88
499,819	480,76
500,021	804,34
500,223	1236,46
500,425	1619,43
500,627	2188,77
500,829	2794,97
501,031	3435,98
501,233	3950,02
501,435	4543,93
501,637	5039,54
501,839	5017,01
502,041	4990,39
502,243	4478,4
502,445	3984,84
502,647	3255,76
502,848	2344,41
503,05	1904,1
503,252	1388,01
503,454	986,61
503,656	685,56
503,858	435,71
504,059	331,26
504,261	288,25
504,463	355,83
504,665	294,4
504,867	185,85
505,068	222,72
505,27	292,35
505,472	339,45
505,673	175,61
505,875	120,32
506,077	140,8
506,278	44,54
506,48	77,31
506,682	9,73
506,883	-14,85
507,085	50,69
507,287	-86,53
507,488	22,02
507,69	91,65
507,891	34,3
508,093	163,33
508,294	-80,38
508,496	-12,8
508,697	50,69
508,899	1,54
509,1	17,92
509,302	11,78
509,503	-29,18
509,705	97,79
509,906	-14,85
510,108	-6,66
510,309	-10,75
510,51	-61,95
510,712	-61,95
510,913	-18,94
511,114	-31,23
511,316	-86,53
511,517	77,31
511,718	-16,9
511,92	-70,14
512,121	13,82
512,322	38,4
512,524	52,74
512,725	11,78
512,926	81,41
513,127	-37,38
513,329	101,89
513,53	-84,48
513,731	108,03
513,932	42,5
514,133	42,5
514,334	-31,23
514,536	95,74
514,737	81,41
514,938	93,69
515,139	-31,23
515,34	-25,09
515,541	87,55
515,742	-94,72
515,943	83,45
516,144	17,92
516,345	58,88
516,546	42,5
516,747	52,74
516,948	-6,66
517,149	-125,44
517,35	-55,81
517,551	-4,61
517,752	69,12
517,953	-61,95
518,154	24,06
518,355	26,11
518,556	40,45
518,756	-72,19
518,957	26,11
519,158	99,84
519,359	58,88
519,56	17,92
519,761	75,26
519,961	124,41
520,162	110,08
520,363	-47,62
520,564	-55,81
520,764	128,51
520,965	-39,42
521,166	46,59
521,366	62,98
521,567	83,45
521,768	-4,61
521,968	3,58
522,169	-10,75
522,37	-47,62
522,57	-47,62
522,771	15,87
522,972	-14,85
523,172	118,27
523,373	22,02
523,573	17,92
523,774	15,87
523,974	75,26
524,175	17,92
524,375	5,63
524,576	-35,33
524,776	3,58
524,977	-53,76
525,177	108,03
525,378	-104,96
525,578	177,66
525,778	-12,8
525,979	77,31
526,179	50,69
526,38	-47,62
526,58	-10,75
526,78	-2,56
526,981	124,41
527,181	93,69
527,381	48,64
527,582	77,31
527,782	79,36
527,982	110,08
528,182	26,11
528,383	-20,99
528,583	-64
528,783	60,93
528,983	26,11
529,183	34,3
529,384	44,54
529,584	101,89
529,784	110,08
529,984	50,69
530,184	-23,04
530,384	28,16
530,584	-29,18
530,784	81,41
530,984	-0,51
531,185	62,98
531,385	58,88
531,585	93,69
531,785	52,74
531,985	-18,94
532,185	9,73
532,385	1,54
532,585	81,41
532,785	42,5
532,984	22,02
533,184	77,31
533,384	-0,51
533,584	-64
533,784	93,69
533,984	19,97
534,184	58,88
534,384	-35,33
534,583	44,54
534,783	-6,66
534,983	-18,94
535,183	-88,57
535,383	-88,57
535,582	-18,94
535,782	62,98
535,982	48,64
536,182	-12,8
536,381	52,74
536,581	34,3
536,781	28,16
536,98	34,3
537,18	-57,86
537,38	50,69
537,579	-14,85
537,779	-109,05
537,979	42,5
538,178	26,11
538,378	36,35
538,577	-23,04
538,777	67,07
538,976	50,69
539,176	9,73
539,376	-23,04
539,575	-64
539,774	136,7
539,974	-49,66
540,173	75,26
540,373	28,16
540,572	-8,7
540,772	30,21
540,971	-55,81
541,171	42,5
541,37	28,16
541,569	17,92
541,769	1,54
541,968	-6,66
542,167	26,11
542,367	36,35
542,566	-23,04
542,765	-2,56
542,965	-23,04
543,164	40,45
543,363	62,98
543,562	-43,52
543,761	-4,61
543,961	95,74
544,16	-41,47
544,359	60,93
544,558	120,32
544,757	-45,57
544,957	-14,85
545,156	148,99
545,355	34,3
545,554	3,58
545,753	-59,9
545,952	-6,66
546,151	89,6
546,35	30,21
546,549	-12,8
546,748	108,03
546,947	9,73
547,146	-51,71
547,345	26,11
547,544	-53,76
547,743	-57,86
547,942	9,73
548,141	85,5
548,34	69,12
548,539	26,11
548,738	9,73
548,937	11,78
549,135	-2,56
549,334	40,45
549,533	87,55
549,732	91,65
549,931	42,5
550,13	-23,04
550,328	-23,04
550,527	-4,61
550,726	50,69
550,925	-86,53
551,123	58,88
551,322	-6,66
551,521	1,54
551,72	11,78
551,918	60,93
552,117	67,07
552,315	26,11
552,514	5,63
552,713	9,73
552,911	-51,71
553,11	-78,33
553,309	54,78
553,507	3,58
553,706	118,27
553,904	50,69
554,103	67,07
554,301	52,74
554,5	-47,62
554,698	19,97
554,897	40,45
555,095	-43,52
555,294	-102,91
555,492	30,21
555,69	22,02
555,889	-47,62
556,087	11,78
556,286	108,03
556,484	-14,85
556,682	40,45
556,881	-4,61
557,079	-12,8
557,277	110,08
557,476	11,78
557,674	-16,9
557,872	71,17
558,07	54,78
558,269	11,78
558,467	42,5
558,665	71,17
558,863	1,54
559,062	28,16
559,26	22,02
559,458	-100,86
559,656	93,69
559,854	26,11
560,052	5,63
560,25	28,16
560,449	314,88
560,647	40,45
560,845	9,73
561,043	99,84
561,241	185,85
561,439	148,99
561,637	5,63
561,835	58,88
562,033	75,26
562,231	15,87
562,429	132,61
562,627	5,63
562,825	22,02
563,023	126,46
563,221	-45,57
563,418	3,58
563,616	42,5
563,814	200,19
564,012	3,58
564,21	79,36
564,408	34,3
564,605	44,54
564,803	-45,57
565,001	271,87
565,199	42,5
565,397	-20,99
565,594	120,32
565,792	116,22
565,99	-4,61
566,188	30,21
566,385	116,22
566,583	75,26
566,781	120,32
566,978	87,55
567,176	103,93
567,373	34,3
567,571	75,26
567,769	54,78
567,966	-31,23
568,164	22,02
568,361	26,11
568,559	93,69
568,756	85,5
568,954	65,02
569,151	60,93
569,349	151,04
569,546	7,68
569,744	50,69
569,941	132,61
570,139	91,65
570,336	17,92
570,534	85,5
570,731	-23,04
570,928	-6,66
571,126	194,05
571,323	103,93
571,52	71,17
571,718	85,5
571,915	52,74
572,112	-37,38
572,31	42,5
572,507	116,22
572,704	50,69
572,901	7,68
573,099	58,88
573,296	134,65
573,493	22,02
573,69	54,78
573,887	85,5
574,085	161,28
574,282	26,11
574,479	116,22
574,676	157,18
574,873	79,36
575,07	99,84
575,267	60,93
575,464	93,69
575,661	71,17
575,858	69,12
576,055	22,02
576,252	99,84
576,449	81,41
576,646	50,69
576,843	83,45
577,04	83,45
577,237	77,31
577,434	134,65
577,631	73,21
577,828	218,62
578,025	67,07
578,222	95,74
578,419	50,69
578,615	11,78
578,812	83,45
579,009	22,02
579,206	38,4
579,403	144,89
579,599	208,38
579,796	65,02
579,993	243,2
580,19	62,98
580,386	101,89
580,583	132,61
580,78	13,82
580,976	124,41
581,173	83,45
581,37	120,32
581,566	173,57
581,763	101,89
581,96	56,83
582,156	81,41
582,353	167,42
582,549	218,62
582,746	77,31
582,942	99,84
583,139	85,5
583,335	95,74
583,532	214,52
583,728	67,07
583,925	99,84
584,121	284,16
584,318	177,66
584,514	181,76
584,711	288,25
584,907	232,96
585,103	275,96
585,3	402,94
585,496	566,78
585,693	1064,43
585,889	3728,84
586,085	8398,21
586,281	14396,71
586,478	21677,24
586,674	29230,15
586,87	38151,1
587,067	46932,79
587,263	52333,28
587,459	55524,02
587,655	59118,2
587,851	59824,75
588,048	58780,29
588,244	55622,32
588,44	52173,54
588,636	45876,04
588,832	39488,42
589,028	33207,3
589,224	26975,33
589,42	21007,55
589,617	15510,8
589,813	9973,1
590,009	6327,71
590,205	3900,87
590,401	2307,55
590,597	1469,93
590,793	1101,3
590,989	775,67
591,185	679,41
591,38	419,32
591,576	368,12
591,772	312,83
591,968	337,4
592,164	353,79
592,36	224,76
592,556	148,99
592,752	251,39
592,948	95,74
593,143	79,36
593,339	75,26
593,535	44,54
593,731	83,45
593,926	153,09
594,122	165,37
594,318	148,99
594,514	189,95
594,709	93,69
594,905	148,99
595,101	62,98
595,296	67,07
595,492	118,27
595,688	42,5
595,883	91,65
596,079	11,78
596,275	159,23
596,47	91,65
596,666	19,97
596,861	34,3
597,057	69,12
597,252	-20,99
597,448	13,82
597,643	134,65
597,839	116,22
598,034	75,26
598,23	34,3
598,425	136,7
598,621	60,93
598,816	99,84
599,011	103,93
599,207	75,26
599,402	71,17
599,597	192
599,793	34,3
599,988	-14,85
600,183	44,54
600,379	3,58
600,574	-25,09
600,769	83,45
600,965	46,59
601,16	9,73
601,355	3,58
601,55	50,69
601,745	67,07
601,941	116,22
602,136	58,88
602,331	75,26
602,526	7,68
602,721	42,5
602,916	1,54
603,111	9,73
603,307	95,74
603,502	83,45
603,697	19,97
603,892	69,12
604,087	30,21
604,282	189,95
604,477	91,65
604,672	44,54
604,867	-2,56
605,062	-4,61
605,257	85,5
605,452	114,17
605,646	116,22
605,841	26,11
606,036	-23,04
606,231	-31,23
606,426	3,58
606,621	-31,23
606,816	67,07
607,01	214,52
607,205	99,84
607,4	46,59
607,595	69,12
607,79	5,63
607,984	83,45
608,179	77,31
608,374	-6,66
608,569	15,87
608,763	30,21
608,958	-53,76
609,153	73,21
609,347	128,51
609,542	108,03
609,736	151,04
609,931	34,3
610,126	42,5
610,32	60,93
610,515	-14,85
610,709	253,44
610,904	93,69
611,098	-10,75
611,293	5,63
611,487	-6,66
611,682	-4,61
611,876	-6,66
612,071	93,69
612,265	83,45
612,46	26,11
612,654	52,74
612,848	-2,56
613,043	26,11
613,237	48,64
613,432	44,54
613,626	-39,42
613,82	26,11
614,014	159,23
614,209	91,65
614,403	9,73
614,597	30,21
614,792	77,31
614,986	34,3
615,18	36,35
615,374	-23,04
615,568	62,98
615,763	34,3
615,957	24,06
616,151	142,85
616,345	-2,56
616,539	42,5
616,733	91,65
616,927	17,92
617,121	142,85
617,316	124,41
617,51	167,42
617,704	48,64
617,898	87,55
618,092	-14,85
618,286	52,74
618,48	13,82
618,674	144,89
618,868	54,78
619,061	77,31
619,255	38,4
619,449	42,5
619,643	58,88
619,837	128,51
620,031	26,11
620,225	120,32
620,419	-35,33
620,612	116,22
620,806	165,37
621	177,66
621,194	36,35
621,388	-37,38
621,581	136,7
621,775	124,41
621,969	87,55
622,162	9,73
622,356	19,97
622,55	69,12
622,743	30,21
622,937	17,92
623,131	5,63
623,324	157,18
623,518	83,45
623,712	17,92
623,905	95,74
624,099	112,13
624,292	114,17
624,486	-12,8
624,679	91,65
624,873	-39,42
625,066	128,51
625,26	62,98
625,453	-37,38
625,647	-39,42
625,84	1,54
626,034	105,98
626,227	103,93
626,42	91,65
626,614	62,98
626,807	116,22
627	-16,9
627,194	36,35
627,387	71,17
627,58	-37,38
627,774	34,3
627,967	67,07
628,16	120,32
628,353	75,26
628,547	118,27
628,74	91,65
628,933	-29,18
629,126	26,11
629,319	-18,94
629,513	26,11
629,706	-29,18
629,899	97,79
630,092	-31,23
630,285	-119,29
630,478	-10,75
630,671	28,16
630,864	26,11
631,057	114,17
631,25	91,65
631,443	-55,81
631,636	71,17
631,829	42,5
632,022	142,85
632,215	34,3
632,408	46,59
632,601	116,22
632,794	77,31
632,987	11,78
633,18	-39,42
633,373	28,16
633,566	42,5
633,758	65,02
633,951	3,58
634,144	40,45
634,337	-4,61
634,53	30,21
634,722	124,41
634,915	-6,66
635,108	-14,85
635,301	120,32
635,493	140,8
635,686	181,76
635,879	-14,85
636,071	-39,42
636,264	17,92
636,457	101,89
636,649	46,59
636,842	-4,61
637,034	71,17
637,227	83,45
637,42	34,3
637,612	-53,76
637,805	-14,85
637,997	124,41
638,19	22,02
638,382	38,4
638,575	50,69
638,767	26,11
638,96	101,89
639,152	77,31
639,344	181,76
639,537	-2,56
639,729	-20,99
639,922	28,16
640,114	60,93
640,306	101,89
640,499	62,98
640,691	-14,85
640,883	17,92
641,075	46,59
641,268	132,61
641,46	13,82
641,652	36,35
641,844	-51,71
642,037	-59,9
642,229	44,54
642,421	24,06
642,613	9,73
642,805	-20,99
642,998	22,02
643,19	42,5
643,382	132,61
643,574	75,26
643,766	-31,23
643,958	34,3
644,15	128,51
644,342	116,22
644,534	93,69
644,726	40,45
644,918	42,5
645,11	-31,23
645,302	26,11
645,494	11,78
645,686	34,3
645,878	42,5
646,07	50,69
646,262	-18,94
646,453	11,78
646,645	75,26
646,837	46,59
647,029	83,45
647,221	3,58
647,413	-23,04
647,604	46,59
647,796	105,98
647,988	95,74
648,18	5,63
648,371	-2,56
648,563	-4,61
648,755	28,16
648,947	-43,52
649,138	-47,62
649,33	13,82
649,521	19,97
649,713	1,54
649,905	-6,66
650,096	83,45
650,288	-6,66
650,479	-10,75
650,671	71,17
650,863	-49,66
651,054	36,35
651,246	132,61
651,437	36,35
651,629	130,56
651,82	151,04
652,011	99,84
652,203	56,83
652,394	54,78
652,586	42,5
652,777	75,26
652,968	1,54
653,16	1,54
653,351	108,03
653,542	148,99
653,734	26,11
653,925	-47,62
654,116	-16,9
654,308	128,51
654,499	-43,52
654,69	30,21
654,881	42,5
655,073	-4,61
655,264	93,69
655,455	50,69
655,646	30,21
655,837	50,69
656,028	91,65
656,219	26,11
656,411	108,03
656,602	-0,51
656,793	50,69
656,984	67,07
657,175	11,78
657,366	9,73
657,557	103,93
657,748	38,4
657,939	34,3
658,13	36,35
658,321	52,74
658,512	42,5
658,703	46,59
658,894	99,84
659,084	126,46
659,275	105,98
659,466	89,6
659,657	130,56
659,848	118,27
660,039	77,31
660,23	19,97
660,42	34,3
660,611	-10,75
660,802	26,11
660,993	71,17
661,183	28,16
661,374	58,88
661,565	181,76
661,755	24,06
661,946	-6,66
662,137	83,45
662,327	1,54
662,518	7,68
662,709	-23,04
662,899	26,11
663,09	3,58
663,28	34,3
663,471	36,35
663,662	126,46
663,852	148,99
664,043	-23,04
664,233	56,83
664,424	44,54
664,614	91,65
664,804	-12,8
664,995	71,17
665,185	103,93
665,376	91,65
665,566	167,42
665,756	124,41
665,947	95,74
666,137	263,68
666,328	976,37
666,518	2162,14
666,708	3796,42
666,898	5459,37
667,089	7710,09
667,279	9450,86
667,469	10851,67
667,659	11775,31
667,85	12086,6
668,04	12217,67
668,23	11937,1
668,42	11232,6
668,61	10413,41
668,8	9735,53
668,991	8721,79
669,181	7482,77
669,371	6604,19
669,561	5707,18
669,751	4744,63
669,941	3843,53
670,131	3126,74
670,321	2012,64
670,511	1426,92
670,701	910,83
670,891	595,45
671,081	550,39
671,271	206,33
671,461	212,48
671,651	151,04
671,841	103,93
672,03	144,89
672,22	50,69
672,41	142,85
672,6	118,27
672,79	112,13
672,98	9,73
673,169	108,03
673,359	50,69
673,549	-2,56
673,739	-39,42
673,928	-37,38
674,118	83,45
674,308	1,54
674,497	101,89
674,687	60,93
674,877	54,78
675,066	28,16
675,256	17,92
675,446	69,12
675,635	22,02
675,825	50,69
676,014	26,11
676,204	-43,52
676,393	46,59
676,583	-18,94
676,772	40,45
676,962	77,31
677,151	54,78
677,341	15,87
677,53	67,07
677,72	52,74
677,909	62,98
678,099	-2,56
678,288	-10,75
678,477	15,87
678,667	-10,75
678,856	151,04
679,045	26,11
679,235	34,3
679,424	91,65
679,613	110,08
679,802	34,3
679,992	-64
680,181	26,11
680,37	128,51
680,559	85,5
680,748	50,69
680,938	50,69
681,127	19,97
681,316	132,61
681,505	34,3
681,694	48,64
681,883	67,07
682,072	-31,23
682,261	1,54
682,45	19,97
682,639	71,17
682,828	67,07
683,017	120,32
683,206	5,63
683,395	-29,18
683,584	52,74
683,773	26,11
683,962	1,54
684,151	-39,42
684,34	108,03
684,529	77,31
684,718	54,78
684,907	36,35
685,095	28,16
685,284	42,5
685,473	62,98
685,662	-18,94
685,851	95,74
686,039	-6,66
686,228	79,36
686,417	-16,9
686,606	91,65
686,794	-10,75
686,983	3,58
687,172	65,02
687,36	60,93
687,549	79,36
687,738	54,78
687,926	15,87
688,115	-23,04
688,303	-23,04
688,492	69,12
688,68	-31,23
688,869	26,11
689,057	-43,52
689,246	-35,33
689,434	9,73
689,623	34,3
689,811	105,98
690	-6,66
690,188	67,07
690,377	-23,04
690,565	108,03
690,753	38,4
690,942	-31,23
691,13	99,84
691,318	-16,9
691,507	-6,66
691,695	112,13
691,883	58,88
692,072	9,73
692,26	101,89
692,448	142,85
692,636	3,58
692,824	3,58
693,013	83,45
693,201	79,36
693,389	-88,57
693,577	1,54
693,765	112,13
693,953	83,45
694,141	1,54
694,329	3,58
694,518	50,69
694,706	54,78
694,894	60,93
695,082	-51,71
695,27	-31,23
695,458	34,3
695,646	79,36
695,834	99,84
696,022	50,69
696,209	146,94
696,397	112,13
696,585	3,58
696,773	54,78
696,961	50,69
697,149	58,88
697,337	75,26
697,525	42,5
697,712	17,92
697,9	110,08
698,088	44,54
698,276	126,46
698,463	58,88
698,651	77,31
698,839	34,3
699,027	116,22
699,214	116,22
699,402	-23,04
699,59	44,54
699,777	34,3
699,965	126,46
700,152	42,5
700,34	30,21
700,528	19,97
700,715	91,65
700,903	91,65
701,09	112,13
701,278	-59,9
701,465	26,11
701,653	-14,85
701,84	34,3
702,028	167,42
702,215	93,69
702,402	118,27
702,59	42,5
702,777	60,93
702,965	-4,61
703,152	140,8
703,339	120,32
703,527	75,26
703,714	50,69
703,901	67,07
704,088	148,99
704,276	181,76
704,463	157,18
704,65	218,62
704,837	333,31
705,025	894,45
705,212	2737,62
705,399	6018,47
705,586	9340,27
705,773	13129,02
705,96	16819,46
706,147	19645,65
706,335	21939,38
706,522	22803,62
706,709	23106,72
706,896	22242,48
707,083	20686,02
707,27	19803,35
707,457	17845,49
707,644	16364,81
707,831	14409
708,018	12252,49
708,205	10653,02
708,392	9143,67
708,578	7736,71
708,765	6333,86
708,952	5338,54
709,139	4015,55
709,326	2797,01
709,513	1881,57
709,7	1246,7
709,886	927,22
710,073	640,5
710,26	572,92
710,447	329,21
710,633	269,82
710,82	169,47
711,007	153,09
711,193	134,65
711,38	138,75
711,567	110,08
711,753	128,51
711,94	101,89
712,127	148,99
712,313	40,45
712,5	91,65
712,686	67,07
712,873	58,88
713,059	34,3
713,246	91,65
713,432	58,88
713,619	58,88
713,805	28,16
713,992	108,03
714,178	38,4
714,365	73,21
714,551	89,6
714,737	22,02
714,924	-4,61
715,11	1,54
715,297	34,3
715,483	38,4
715,669	42,5
715,855	110,08
716,042	75,26
716,228	-31,23
716,414	48,64
716,6	54,78
716,787	3,58
716,973	9,73
717,159	34,3
717,345	3,58
717,531	52,74
717,718	62,98
717,904	48,64
718,09	17,92
718,276	40,45
718,462	-35,33
718,648	54,78
718,834	3,58
719,02	142,85
719,206	44,54
719,392	-57,86
719,578	67,07
719,764	7,68
719,95	36,35
720,136	101,89
720,322	17,92
720,508	52,74
720,694	22,02
720,879	-41,47
721,065	155,13
721,251	50,69
721,437	26,11
721,623	167,42
721,809	95,74
721,994	44,54
722,18	50,69
722,366	-2,56
722,552	42,5
722,737	-31,23
722,923	116,22
723,109	75,26
723,294	-35,33
723,48	167,42
723,666	101,89
723,851	30,21
724,037	58,88
724,222	134,65
724,408	9,73
724,593	67,07
724,779	-47,62
724,965	22,02
725,15	60,93
725,336	58,88
725,521	124,41
725,706	17,92
725,892	79,36
726,077	3,58
726,263	44,54
726,448	177,66
726,634	157,18
726,819	323,07
727,004	519,67
727,19	820,72
727,375	1388,01
727,56	1592,81
727,745	1842,66
727,931	2000,35
728,116	2182,62
728,301	2274,78
728,486	2223,58
728,672	2074,08
728,857	2065,89
729,042	1705,45
729,227	1517,03
729,412	1461,74
729,597	1123,82
729,783	1082,86
729,968	968,18
730,153	812,53
730,338	597,49
730,523	531,96
730,708	437,75
730,893	345,59
731,078	255,48
731,263	200,19
731,448	28,16
731,633	71,17
731,818	-23,04
732,003	67,07
732,187	24,06
732,372	3,58
732,557	15,87
732,742	-18,94
732,927	-20,99
733,112	71,17
733,297	-10,75
733,481	-53,76
733,666	40,45
733,851	30,21
734,036	-20,99
734,22	13,82
734,405	173,57
734,59	50,69
734,774	22,02
734,959	26,11
735,144	108,03
735,328	-23,04
735,513	-31,23
735,698	26,11
735,882	87,55
736,067	75,26
736,251	42,5
736,436	42,5
736,62	24,06
736,805	-64
736,989	67,07
737,174	-31,23
737,358	-27,14
737,543	52,74
737,727	65,02
737,911	91,65
738,096	5,63
738,28	50,69
738,465	-12,8
738,649	67,07
738,833	52,74
739,018	42,5
739,202	28,16
739,386	-14,85
739,57	34,3
739,755	19,97
739,939	126,46
740,123	9,73
740,307	11,78
740,491	26,11
740,676	-64
740,86	28,16
741,044	26,11
741,228	62,98
741,412	-80,38
741,596	-154,11
741,78	1,54
741,964	7,68
742,148	-72,19
742,332	-53,76
742,516	-80,38
742,7	34,3
742,884	11,78
743,068	-14,85
743,252	26,11
743,436	50,69
743,62	-117,25
743,804	77,31
743,988	58,88
744,172	58,88
744,356	-4,61
744,539	22,02
744,723	-88,57
744,907	-23,04
745,091	-23,04
745,275	-20,99
745,458	7,68
745,642	13,82
745,826	71,17
746,009	77,31
746,193	-51,71
746,377	34,3
746,56	26,11
746,744	87,55
746,928	50,69
747,111	34,3
747,295	17,92
747,478	17,92
747,662	-47,62
747,846	38,4
748,029	17,92
748,213	58,88
748,396	-12,8
748,58	11,78
748,763	-49,66
748,946	-6,66
749,13	13,82
749,313	19,97
749,497	67,07
749,68	17,92
749,863	38,4
750,047	-31,23
750,23	-6,66
750,413	-25,09
750,597	75,26
750,78	-29,18
750,963	42,5
751,146	-111,1
751,33	77,31
751,513	136,7
751,696	-37,38
751,879	-0,51
752,062	-78,33
752,246	71,17
752,429	-6,66
752,612	56,83
752,795	26,11
752,978	19,97
753,161	-80,38
753,344	-96,77
753,527	34,3
753,71	-37,38
753,893	19,97
754,076	7,68
754,259	112,13
754,442	-31,23
754,625	-20,99
754,808	85,5
754,991	42,5
755,174	-78,33
755,357	-23,04
755,539	1,54
755,722	116,22
755,905	-45,57
756,088	71,17
756,271	22,02
756,453	-18,94
756,636	-100,86
756,819	34,3
757,002	-80,38
757,184	124,41
757,367	103,93
757,55	83,45
757,732	142,85
757,915	-84,48
758,098	1,54
758,28	-10,75
758,463	-64
758,645	26,11
758,828	42,5
759,011	75,26
759,193	-2,56
759,376	-59,9
759,558	-31,23
759,741	-23,04
759,923	-59,9
760,105	26,11
760,288	26,11
760,47	-64
760,653	48,64
760,835	1,54
761,017	-55,81
761,2	24,06
761,382	75,26
761,564	34,3
761,747	26,11
761,929	1,54
762,111	-14,85
762,294	60,93
762,476	120,32
762,658	140,8
762,84	67,07
763,022	77,31
763,205	46,59
763,387	101,89
763,569	44,54
763,751	-68,09
763,933	-12,8
764,115	-31,23
764,297	-6,66
764,479	58,88
764,661	-18,94
764,843	26,11
765,025	67,07
765,207	-2,56
765,389	-0,51
765,571	-80,38
765,753	85,5
765,935	-14,85
766,117	50,69
766,299	142,85
766,481	116,22
766,663	38,4
766,845	-27,14
767,026	-55,81
767,208	5,63
767,39	42,5
767,572	-55,81
767,753	34,3
767,935	50,69
768,117	50,69
768,299	99,84
768,48	-10,75
768,662	67,07
768,844	11,78
769,025	75,26
769,207	-18,94
769,389	-31,23
769,57	-16,9
769,752	105,98
769,933	15,87
770,115	144,89
770,296	67,07
770,478	110,08
770,659	-53,76
770,841	132,61
771,022	50,69
771,204	42,5
771,385	-6,66
771,567	85,5
771,748	67,07
771,929	-14,85
772,111	32,26
772,292	22,02
772,473	42,5
772,655	28,16
772,836	17,92
773,017	44,54
773,199	75,26
773,38	44,54
773,561	132,61
773,742	52,74
773,923	-35,33
774,105	81,41
774,286	48,64
774,467	22,02
774,648	-29,18
774,829	93,69
775,01	-18,94
775,191	-10,75
775,372	26,11
775,553	-14,85
775,734	-61,95
775,915	-6,66
776,096	50,69
776,277	44,54
776,458	1,54
776,639	52,74
776,82	91,65
777,001	-14,85
777,182	-72,19
777,363	-23,04
777,544	79,36
777,725	101,89
777,906	19,97
778,086	-14,85
778,267	77,31
778,448	42,5
778,629	46,59
778,809	38,4
778,99	-6,66
779,171	26,11
779,352	-47,62
779,532	11,78
779,713	-0,51
779,894	3,58
780,074	93,69
780,255	-10,75
780,435	120,32
780,616	50,69
780,797	38,4
780,977	1,54
781,158	5,63
781,338	52,74
781,519	17,92
781,699	138,75
781,88	54,78
782,06	87,55
782,241	13,82
782,421	1,54
782,601	54,78
782,782	34,3
782,962	52,74
783,142	-8,7
783,323	26,11
783,503	69,12
783,683	87,55
783,864	17,92
784,044	44,54
784,224	87,55
784,404	30,21
784,585	54,78
784,765	34,3
784,945	38,4
785,125	-39,42
785,305	112,13
785,485	103,93
785,666	34,3
785,846	-20,99
786,026	-2,56
786,206	-53,76
786,386	-39,42
786,566	42,5
786,746	71,17
786,926	65,02
787,106	5,63
787,286	17,92
787,466	7,68
787,646	75,26
787,826	5,63
788,006	67,07
788,185	87,55
788,365	-20,99
788,545	148,99
788,725	28,16
788,905	69,12
789,085	52,74
789,264	-14,85
789,444	91,65
789,624	79,36
789,804	15,87
789,983	71,17
790,163	1,54
790,343	42,5
790,522	165,37
790,702	3,58
790,882	-55,81
791,061	89,6
791,241	9,73
791,42	13,82
791,6	87,55
791,78	34,3
791,959	-51,71
792,139	-88,57
792,318	26,11
792,498	46,59
792,677	1,54
792,856	-4,61
793,036	-64
793,215	-12,8
793,395	38,4
793,574	17,92
793,753	54,78
793,933	103,93
794,112	13,82
794,291	-43,52
794,471	108,03
794,65	3,58
794,829	17,92
795,008	-8,7
795,188	58,88
795,367	124,41
795,546	-31,23
795,725	-0,51
795,904	-104,96
796,084	91,65
796,263	-23,04
796,442	118,27
796,621	-4,61
796,8	54,78
796,979	95,74
797,158	-29,18
797,337	36,35
797,516	60,93
797,695	34,3
797,874	77,31
798,053	34,3
798,232	-20,99
798,411	-88,57
798,59	38,4
798,769	-61,95
798,947	65,02
799,126	19,97
799,305	52,74
799,484	50,69
799,663	-74,24
799,842	-53,76
800,02	56,83
800,199	-35,33
800,378	11,78
800,557	-12,8
800,735	-29,18
800,914	26,11
801,093	5,63
801,271	-47,62
801,45	46,59
801,628	17,92
801,807	-31,23
801,986	-6,66
802,164	67,07
802,343	-72,19
802,521	-59,9
802,7	9,73
802,878	71,17
803,057	67,07
803,235	-27,14
803,414	-80,38
803,592	99,84
803,771	19,97
803,949	-2,56
804,127	36,35
804,306	140,8
804,484	28,16
804,662	38,4
804,841	-86,53
805,019	52,74
805,197	44,54
805,375	108,03
805,554	-23,04
805,732	-23,04
805,91	58,88
806,088	-125,44
806,266	-23,04
806,445	42,5
806,623	5,63
806,801	83,45
806,979	110,08
807,157	95,74
807,335	-57,86
807,513	-6,66
807,691	-25,09
807,869	22,02
808,047	-2,56
808,225	-31,23
808,403	19,97
808,581	22,02
808,759	132,61
808,937	58,88
809,115	95,74
809,293	91,65
809,471	-68,09
809,649	50,69
809,826	-4,61
810,004	120,32
810,182	-2,56
810,36	-16,9
810,538	52,74
810,715	9,73
810,893	3,58
811,071	-39,42
811,248	9,73
811,426	9,73
811,604	67,07
811,781	-12,8
811,959	17,92
812,137	13,82
812,314	26,11
812,492	-55,81
812,669	26,11
812,847	-10,75
813,024	1,54
813,202	87,55
813,379	-68,09
813,557	19,97
813,734	83,45
813,912	-6,66
814,089	-39,42
814,267	77,31
814,444	62,98
814,621	-14,85
814,799	-12,8
814,976	52,74
815,153	83,45
815,331	46,59
815,508	1,54
815,685	-39,42
815,862	87,55
816,04	-0,51
816,217	36,35
816,394	1,54
816,571	71,17
816,748	169,47
816,926	105,98
817,103	280,06
817,28	58,88
817,457	-27,14
817,634	144,89
817,811	-31,23
817,988	-23,04
818,165	-43,52
818,342	28,16
818,519	3,58
818,696	1,54
818,873	-31,23
819,05	173,57
819,227	-6,66
819,404	46,59
819,581	32,26
819,758	73,21
819,934	114,17
820,111	-72,19
820,288	-66,05
820,465	58,88
820,642	-2,56
820,818	83,45
820,995	-10,75
821,172	54,78
821,349	75,26
821,525	-31,23
821,702	91,65
821,879	-18,94
822,055	-16,9
822,232	-57,86
822,409	3,58
822,585	85,5
822,762	34,3
822,938	60,93
823,115	58,88
823,291	42,5
823,468	110,08
823,644	97,79
823,821	17,92
823,997	79,36
824,174	-18,94
824,35	-25,09
824,527	1,54
824,703	17,92
824,879	-35,33
825,056	-12,8
825,232	24,06
825,408	9,73
825,585	-20,99
825,761	19,97
825,937	-14,85
826,113	54,78
826,29	26,11
826,466	-78,33
826,642	298,49
826,818	19,97
826,994	-4,61
827,17	19,97
827,347	-86,53
827,523	-31,23
827,699	54,78
827,875	22,02
828,051	9,73
828,227	1,54
828,403	142,85
828,579	87,55
828,755	54,78
828,931	-51,71
829,107	-20,99
829,283	108,03
829,459	30,21
829,635	26,11
829,811	38,4
829,986	56,83
830,162	1,54
830,338	108,03
830,514	-29,18
830,69	7,68
830,865	-27,14
831,041	77,31
831,217	-104,96
831,393	9,73
831,568	-39,42
831,744	17,92
831,92	-31,23
832,095	-35,33
832,271	-0,51
832,447	5,63
832,622	116,22
832,798	77,31
832,973	87,55
833,149	3,58
833,325	-35,33
833,5	62,98
833,676	58,88
833,851	11,78
834,027	-18,94
834,202	26,11
834,377	50,69
834,553	34,3
834,728	91,65
834,904	9,73
835,079	3,58
835,254	-14,85
835,43	28,16
835,605	1,54
835,78	-35,33
835,955	-31,23
836,131	1,54
836,306	-6,66
836,481	-72,19
836,656	9,73
836,832	69,12
837,007	-20,99
837,182	-104,96
837,357	26,11
837,532	19,97
837,707	67,07
837,882	56,83
838,057	9,73
838,232	77,31
838,407	9,73
838,582	-47,62
838,757	34,3
838,932	-4,61
839,107	-68,09
839,282	-88,57
839,457	-6,66
839,632	9,73
839,807	-12,8
839,982	22,02
840,157	-64
840,332	26,11
840,506	-6,66
840,681	65,02
840,856	-39,42
841,031	-25,09
841,205	42,5
841,38	3,58
841,555	85,5
841,73	36,35
841,904	-39,42
842,079	-47,62
842,254	34,3
842,428	-49,66
842,603	9,73
842,777	-68,09
842,952	1,54
843,126	-18,94
843,301	89,6
843,476	19,97
843,65	26,11
843,825	54,78
843,999	75,26
844,173	17,92
844,348	-72,19
844,522	34,3
844,697	-20,99
844,871	-12,8
845,045	79,36
845,22	75,26
845,394	5,63
845,568	42,5
845,743	46,59
845,917	-18,94
846,091	42,5
846,265	13,82
846,44	110,08
846,614	62,98
846,788	-80,38
846,962	83,45
847,136	134,65
847,31	-51,71
847,485	157,18
847,659	-80,38
847,833	116,22
848,007	67,07
848,181	54,78
848,355	-80,38
848,529	34,3
848,703	148,99
848,877	-27,14
849,051	40,45
849,225	56,83
849,399	17,92
849,573	-8,7
849,746	-18,94
849,92	114,17
850,094	-10,75
850,268	38,4
850,442	91,65
850,616	-33,28
850,789	32,26
850,963	26,11
851,137	-6,66
851,311	124,41
851,484	67,07
851,658	140,8
851,832	-12,8
852,005	-27,14
852,179	3,58
852,352	-53,76
852,526	28,16
852,7	34,3
852,873	-23,04
853,047	38,4
853,22	75,26
853,394	77,31
853,567	1,54
853,741	22,02
853,914	22,02
854,088	58,88
854,261	-23,04
854,434	-37,38
854,608	-78,33
854,781	-20,99
854,955	60,93
855,128	75,26
855,301	3,58
855,475	50,69
855,648	-53,76
855,821	79,36
855,994	24,06
856,168	-18,94
856,341	62,98
856,514	1,54
856,687	22,02
856,86	42,5
857,033	9,73
857,207	65,02
857,38	32,26
857,553	165,37
857,726	9,73
857,899	71,17
858,072	11,78
858,245	-12,8
858,418	-20,99
858,591	-6,66
858,764	5,63
858,937	34,3
859,11	91,65
859,283	13,82
859,455	-35,33
859,628	-10,75
859,801	79,36
859,974	99,84
860,147	-80,38
860,32	83,45
860,492	42,5
860,665	-35,33
860,838	-25,09
861,011	5,63
861,183	38,4
861,356	22,02
861,529	52,74
861,701	13,82
861,874	40,45
862,047	124,41
862,219	48,64
862,392	9,73
862,564	5,63
862,737	17,92
862,909	30,21
863,082	-31,23
863,254	95,74
863,427	42,5
863,599	83,45
863,772	34,3
863,944	83,45
864,117	-14,85
864,289	26,11
864,461	-88,57
864,634	9,73
864,806	-49,66
864,978	54,78
865,151	-6,66
865,323	42,5
865,495	58,88
865,667	26,11
865,84	126,46
866,012	-6,66
866,184	142,85
866,356	9,73
866,528	9,73
866,7	17,92
866,873	-39,42
867,045	-12,8
867,217	-23,04
867,389	83,45
867,561	75,26
867,733	91,65
867,905	-29,18
868,077	-35,33
868,249	28,16
868,421	5,63
868,593	-43,52
868,765	46,59
868,936	-6,66
869,108	-18,94
869,28	99,84
869,452	-20,99
869,624	-14,85
869,796	71,17
869,968	75,26
870,139	83,45
870,311	-47,62
870,483	91,65
870,654	-14,85
870,826	83,45
870,998	30,21
871,17	9,73
871,341	-41,47
871,513	52,74
871,684	38,4
871,856	17,92
872,028	50,69
872,199	-14,85
872,371	22,02
872,542	38,4
872,714	1,54
872,885	196,09
873,057	-59,9
873,228	67,07
873,4	-47,62
873,571	105,98
873,742	1,54
873,914	13,82
874,085	-94,72
874,256	112,13
874,428	-55,81
874,599	-20,99
874,77	83,45
874,942	-39,42
875,113	-27,14
875,284	-6,66
875,455	-70,14
875,626	54,78
875,798	-6,66
875,969	13,82
876,14	-37,38
876,311	38,4
876,482	19,97
876,653	22,02
876,824	71,17
876,995	7,68
877,166	75,26
877,337	58,88
877,508	-102,91
877,679	-0,51
877,85	-47,62
878,021	42,5
878,192	101,89
878,363	11,78
878,534	11,78
878,705	11,78
878,876	-6,66
879,047	67,07
879,217	-53,76
879,388	26,11
879,559	32,26
879,73	85,5
879,9	-31,23
880,071	110,08
880,242	99,84
880,413	71,17
880,583	-6,66
880,754	93,69
880,924	-14,85
881,095	-96,77
881,266	-31,23
881,436	-6,66
881,607	159,23
881,777	-2,56
881,948	-55,81
882,118	56,83
882,289	-80,38
882,459	46,59
882,63	17,92
882,8	3,58
882,971	77,31
883,141	50,69
883,311	67,07
883,482	52,74
883,652	-14,85
883,822	28,16
883,993	-43,52
884,163	30,21
884,333	13,82
884,504	97,79
884,674	58,88
884,844	-31,23
885,014	-104,96
885,184	3,58
885,355	-31,23
885,525	1,54
885,695	3,58
885,865	110,08
886,035	30,21
886,205	-55,81
886,375	17,92
886,545	-12,8
886,715	-133,63
886,885	54,78
887,055	5,63
887,225	-23,04
887,395	42,5
887,565	114,17
887,735	42,5
887,905	52,74
888,075	-25,09
888,244	108,03
888,414	34,3
888,584	75,26
888,754	3,58
888,924	-31,23
889,093	146,94
889,263	-23,04
889,433	34,3
889,603	56,83
889,772	60,93
889,942	42,5
890,111	26,11
890,281	93,69
890,451	-45,57
890,62	58,88
890,79	38,4
890,959	-37,38
891,129	-29,18
891,298	-4,61
891,468	-102,91
891,637	-4,61
891,807	110,08
891,976	87,55
892,146	1,54
892,315	79,36
892,485	183,81
892,654	-20,99
892,823	34,3
892,993	7,68
893,162	83,45
893,331	17,92
893,501	-31,23
893,67	36,35
893,839	54,78
894,008	1,54
894,177	26,11
894,347	7,68
894,516	87,55
894,685	36,35
894,854	42,5
895,023	9,73
895,192	126,46
