Data from he_USB4F104161__16__11-53-37-006.txt Node

Date: Tue Apr 14 11:53:37 EDT 2026
User: LaboPhy
Spectrometer: USB4F10416
Trigger mode: 4
Integration Time (sec): 1,000000E-1
Scans to average: 1
Electric dark correction enabled: true
Nonlinearity correction enabled: false
Boxcar width: 0
XAxis mode: Wavelengths
Number of Pixels in Spectrum: 3648
>>>>>Begin Spectral Data<<<<<
177,847	-237,39
178,066	-237,39
178,284	-237,39
178,502	-198,48
178,72	-212,82
178,939	0,17
179,157	14,51
179,375	4,27
179,593	59,56
179,812	-3,93
180,03	65,71
180,248	4,27
180,466	-44,88
180,685	-44,88
180,903	-28,5
181,121	-10,07
181,339	-16,21
181,557	-59,22
181,775	-3,93
181,994	-69,46
182,212	-116,56
182,43	-83,8
182,648	-53,08
182,866	39,08
183,084	55,47
183,302	-18,26
183,52	14,51
183,739	-3,93
183,957	116,9
184,175	0,17
184,393	4,27
184,611	-53,08
184,829	30,89
185,047	45,23
185,265	-5,97
185,483	0,17
185,701	-1,88
185,919	39,08
186,137	-24,4
186,355	12,46
186,573	49,32
186,791	12,46
187,009	77,99
187,227	24,75
187,445	24,75
187,663	-14,17
187,881	-69,46
188,098	-12,12
188,316	67,75
188,534	67,75
188,752	12,46
188,97	-59,22
189,188	-69,46
189,406	98,47
189,624	-5,97
189,841	16,55
190,059	-161,62
190,277	49,32
190,495	-75,6
190,713	20,65
190,931	147,62
191,148	-32,6
191,366	-46,93
191,584	4,27
191,802	32,94
192,019	123,05
192,237	20,65
192,455	53,42
192,673	102,57
192,89	-36,69
193,108	6,31
193,326	-106,32
193,543	80,04
193,761	-69,46
193,979	-42,84
194,196	24,75
194,414	12,46
194,632	63,66
194,849	-145,24
195,067	-69,46
195,285	-20,31
195,502	-102,23
195,72	-46,93
195,937	-20,31
196,155	-14,17
196,373	69,8
196,59	22,7
196,808	-3,93
197,025	82,09
197,243	252,07
197,46	20,65
197,678	98,47
197,895	32,94
198,113	-94,04
198,33	-42,84
198,548	-12,12
198,765	16,55
198,983	-20,31
199,2	-102,23
199,418	53,42
199,635	14,51
199,853	30,89
200,07	-61,27
200,288	32,94
200,505	8,36
200,722	55,47
200,94	63,66
201,157	55,47
201,375	14,51
201,592	-53,08
201,809	77,99
202,027	86,19
202,244	45,23
202,461	-79,7
202,679	24,75
202,896	37,03
203,113	-14,17
203,331	8,36
203,548	4,27
203,765	-12,12
203,982	6,31
204,2	28,84
204,417	-63,32
204,634	166,06
204,851	73,9
205,069	45,23
205,286	30,89
205,503	-51,03
205,72	0,17
205,937	28,84
206,155	-24,4
206,372	8,36
206,589	-61,27
206,806	39,08
207,023	-36,69
207,24	-3,93
207,458	-51,03
207,675	6,31
207,892	45,23
208,109	14,51
208,326	47,27
208,543	-53,08
208,76	10,41
208,977	61,61
209,194	-36,69
209,411	-38,74
209,628	-16,21
209,845	-10,07
210,062	-24,4
210,279	-139,09
210,496	12,46
210,713	-42,84
210,93	-59,22
211,147	12,46
211,364	-28,5
211,581	-28,5
211,798	37,03
212,015	-34,64
212,232	-69,46
212,449	-20,31
212,666	-26,45
212,883	4,27
213,1	-28,5
213,317	-48,98
213,533	47,27
213,75	-79,7
213,967	-12,12
214,184	-100,18
214,401	34,99
214,618	-36,69
214,835	-24,4
215,051	14,51
215,268	14,51
215,485	-69,46
215,702	-67,41
215,919	-57,17
216,135	123,05
216,352	-36,69
216,569	-36,69
216,786	49,32
217,002	0,17
217,219	-1,88
217,436	12,46
217,652	-53,08
217,869	-10,07
218,086	61,61
218,302	30,89
218,519	-36,69
218,736	-28,5
218,952	-69,46
219,169	22,7
219,386	12,46
219,602	22,7
219,819	30,89
220,036	-59,22
220,252	75,95
220,469	-10,07
220,685	-3,93
220,902	-59,22
221,118	-69,46
221,335	10,41
221,552	-18,26
221,768	45,23
221,985	37,03
222,201	-24,4
222,418	110,76
222,634	-77,65
222,851	2,22
223,067	-14,17
223,284	43,18
223,5	41,13
223,716	-55,12
223,933	14,51
224,149	-12,12
224,366	37,03
224,582	-53,08
224,799	-32,6
225,015	-69,46
225,231	-51,03
225,448	-3,93
225,664	37,03
225,88	-16,21
226,097	53,42
226,313	-69,46
226,529	45,23
226,746	37,03
226,962	39,08
227,178	-1,88
227,395	-28,5
227,611	-51,03
227,827	-81,75
228,044	45,23
228,26	47,27
228,476	-16,21
228,692	127,14
228,909	34,99
229,125	-69,46
229,341	-10,07
229,557	-67,41
229,773	-69,46
229,99	-26,45
230,206	-108,37
230,422	20,65
230,638	-100,18
230,854	22,7
231,07	-114,52
231,286	24,75
231,503	12,46
231,719	-77,65
231,935	-3,93
232,151	-85,84
232,367	135,34
232,583	61,61
232,799	-73,56
233,015	49,32
233,231	-12,12
233,447	4,27
233,663	16,55
233,879	22,7
234,095	-18,26
234,311	-24,4
234,527	63,66
234,743	-26,45
234,959	49,32
235,175	8,36
235,391	-44,88
235,607	-69,46
235,823	37,03
236,039	47,27
236,255	-36,69
236,471	-28,5
236,687	8,36
236,903	-44,88
237,118	86,19
237,334	-26,45
237,55	30,89
237,766	-55,12
237,982	24,75
238,198	45,23
238,413	-12,12
238,629	4,27
238,845	59,56
239,061	-42,84
239,277	-16,21
239,492	-18,26
239,708	-53,08
239,924	-89,94
240,14	55,47
240,355	61,61
240,571	-48,98
240,787	-42,84
241,003	71,85
241,218	-67,41
241,434	-81,75
241,65	57,51
241,865	-91,99
242,081	-8,02
242,297	-75,6
242,512	-26,45
242,728	30,89
242,944	-96,08
243,159	57,51
243,375	-42,84
243,59	-16,21
243,806	39,08
244,022	-10,07
244,237	-18,26
244,453	12,46
244,668	12,46
244,884	110,76
245,099	-24,4
245,315	69,8
245,53	30,89
245,746	104,62
245,961	49,32
246,177	37,03
246,392	53,42
246,608	106,67
246,823	-28,5
247,039	-55,12
247,254	4,27
247,47	-20,31
247,685	-3,93
247,9	-67,41
248,116	-36,69
248,331	-20,31
248,547	-1,88
248,762	-8,02
248,977	2,22
249,193	-42,84
249,408	-12,12
249,623	-42,84
249,839	73,9
250,054	-69,46
250,269	41,13
250,485	-10,07
250,7	24,75
250,915	6,31
251,13	24,75
251,346	-108,37
251,561	63,66
251,776	69,8
251,991	-83,8
252,207	176,3
252,422	28,84
252,637	-10,07
252,852	12,46
253,067	-20,31
253,283	30,89
253,498	39,08
253,713	-18,26
253,928	4,27
254,143	-8,02
254,358	-34,64
254,573	-42,84
254,788	-75,6
255,004	20,65
255,219	-51,03
255,434	-28,5
255,649	-28,5
255,864	24,75
256,079	-83,8
256,294	41,13
256,509	6,31
256,724	20,65
256,939	-46,93
257,154	20,65
257,369	14,51
257,584	55,47
257,799	-1,88
258,014	-28,5
258,229	12,46
258,444	22,7
258,659	8,36
258,874	12,46
259,089	4,27
259,304	6,31
259,518	-165,71
259,733	-28,5
259,948	45,23
260,163	16,55
260,378	24,75
260,593	14,51
260,808	-36,69
261,022	-108,37
261,237	86,19
261,452	-40,79
261,667	4,27
261,882	45,23
262,096	53,42
262,311	69,8
262,526	-44,88
262,741	-28,5
262,955	4,27
263,17	51,37
263,385	-24,4
263,6	12,46
263,814	-91,99
264,029	-40,79
264,244	45,23
264,458	47,27
264,673	-44,88
264,888	45,23
265,102	30,89
265,317	26,79
265,532	28,84
265,746	-8,02
265,961	26,79
266,175	110,76
266,39	-53,08
266,605	32,94
266,819	12,46
267,034	24,75
267,248	-77,65
267,463	-22,36
267,677	-114,52
267,892	6,31
268,106	-85,84
268,321	-65,36
268,535	69,8
268,75	92,33
268,964	-18,26
269,179	63,66
269,393	-34,64
269,608	-28,5
269,822	-151,38
270,036	-44,88
270,251	-28,5
270,465	-61,27
270,68	28,84
270,894	-36,69
271,108	159,91
271,323	28,84
271,537	-48,98
271,752	28,84
271,966	-67,41
272,18	-94,04
272,394	-20,31
272,609	6,31
272,823	71,85
273,037	-24,4
273,252	-46,93
273,466	37,03
273,68	90,28
273,894	16,55
274,109	18,6
274,323	84,14
274,537	4,27
274,751	-1,88
274,966	-5,97
275,18	-91,99
275,394	-36,69
275,608	-44,88
275,822	-112,47
276,036	-53,08
276,25	59,56
276,465	6,31
276,679	-53,08
276,893	-1,88
277,107	-42,84
277,321	-67,41
277,535	73,9
277,749	49,32
277,963	-42,84
278,177	-167,76
278,391	-34,64
278,605	-100,18
278,819	65,71
279,033	-116,56
279,247	-12,12
279,461	28,84
279,675	-18,26
279,889	18,6
280,103	69,8
280,317	10,41
280,531	-61,27
280,745	18,6
280,959	-12,12
281,173	10,41
281,387	2,22
281,601	12,46
281,815	82,09
282,029	-20,31
282,242	-59,22
282,456	-42,84
282,67	71,85
282,884	2,22
283,098	-1,88
283,312	-1,88
283,525	-10,07
283,739	-26,45
283,953	-16,21
284,167	61,61
284,381	-40,79
284,594	-24,4
284,808	-36,69
285,022	-57,17
285,235	-36,69
285,449	24,75
285,663	14,51
285,877	-18,26
286,09	45,23
286,304	61,61
286,518	-94,04
286,731	-53,08
286,945	61,61
287,159	-53,08
287,372	71,85
287,586	20,65
287,799	-77,65
288,013	-12,12
288,227	-36,69
288,44	293,03
288,654	82,09
288,867	0,17
289,081	-20,31
289,294	-3,93
289,508	-10,07
289,721	-10,07
289,935	-1,88
290,148	82,09
290,362	88,23
290,575	-12,12
290,789	-135
291,002	-28,5
291,216	73,9
291,429	-91,99
291,643	-14,17
291,856	-53,08
292,069	65,71
292,283	-36,69
292,496	-5,97
292,71	37,03
292,923	18,6
293,136	22,7
293,35	6,31
293,563	-51,03
293,776	24,75
293,99	-20,31
294,203	-12,12
294,416	-51,03
294,63	-44,88
294,843	127,14
295,056	4,27
295,269	-30,55
295,483	-114,52
295,696	32,94
295,909	45,23
296,122	-36,69
296,335	-67,41
296,549	18,6
296,762	12,46
296,975	-36,69
297,188	-36,69
297,401	-12,12
297,615	14,51
297,828	-51,03
298,041	112,81
298,254	-36,69
298,467	-46,93
298,68	-69,46
298,893	-102,23
299,106	-65,36
299,319	32,94
299,532	-8,02
299,745	28,84
299,958	-48,98
300,171	-12,12
300,384	20,65
300,598	-44,88
300,81	127,14
301,023	-83,8
301,236	-94,04
301,449	22,7
301,662	-94,04
301,875	-85,84
302,088	-61,27
302,301	118,95
302,514	-32,6
302,727	104,62
302,94	53,42
303,153	-40,79
303,366	34,99
303,579	-53,08
303,791	6,31
304,004	12,46
304,217	37,03
304,43	-1,88
304,643	20,65
304,855	-118,61
305,068	20,65
305,281	37,03
305,494	37,03
305,707	-51,03
305,919	39,08
306,132	6,31
306,345	-20,31
306,558	-14,17
306,77	-57,17
306,983	-94,04
307,196	2,22
307,408	-118,61
307,621	20,65
307,834	8,36
308,046	4,27
308,259	-20,31
308,472	4,27
308,684	80,04
308,897	-57,17
309,109	-114,52
309,322	-81,75
309,535	-38,74
309,747	155,82
309,96	-12,12
310,172	57,51
310,385	39,08
310,597	-28,5
310,81	-3,93
311,022	-59,22
311,235	-32,6
311,447	-77,65
311,66	-26,45
311,872	102,57
312,085	-10,07
312,297	-36,69
312,51	-91,99
312,722	-79,7
312,934	121
313,147	-67,41
313,359	-42,84
313,572	-44,88
313,784	-20,31
313,996	-1,88
314,209	88,23
314,421	-61,27
314,633	12,46
314,846	-1,88
315,058	10,41
315,27	28,84
315,483	-3,93
315,695	20,65
315,907	-18,26
316,119	53,42
316,332	30,89
316,544	-1,88
316,756	20,65
316,968	8,36
317,181	12,46
317,393	-67,41
317,605	12,46
317,817	-24,4
318,029	184,49
318,241	86,19
318,454	65,71
318,666	145,58
318,878	4,27
319,09	-67,41
319,302	77,99
319,514	26,79
319,726	-42,84
319,938	67,75
320,15	20,65
320,362	39,08
320,574	8,36
320,786	-167,76
320,999	-61,27
321,211	69,8
321,423	-57,17
321,635	-26,45
321,847	30,89
322,058	-132,95
322,27	2,22
322,482	-3,93
322,694	32,94
322,906	18,6
323,118	-51,03
323,33	-1,88
323,542	-44,88
323,754	69,8
323,966	-100,18
324,178	49,32
324,389	6,31
324,601	151,72
324,813	-77,65
325,025	-3,93
325,237	-40,79
325,449	53,42
325,66	-12,12
325,872	-26,45
326,084	-48,98
326,296	-28,5
326,507	-1,88
326,719	8,36
326,931	-83,8
327,143	47,27
327,354	151,72
327,566	57,51
327,778	-20,31
327,989	26,79
328,201	-12,12
328,413	0,17
328,624	22,7
328,836	-8,02
329,048	-40,79
329,259	-8,02
329,471	22,7
329,682	14,51
329,894	-53,08
330,106	-71,51
330,317	-14,17
330,529	-1,88
330,74	-51,03
330,952	24,75
331,163	-10,07
331,375	-10,07
331,586	37,03
331,798	-44,88
332,009	-73,56
332,221	-53,08
332,432	41,13
332,644	22,7
332,855	-63,32
333,067	-22,36
333,278	2,22
333,489	61,61
333,701	-44,88
333,912	-100,18
334,124	-94,04
334,335	-67,41
334,546	-42,84
334,758	-26,45
334,969	90,28
335,18	32,94
335,392	-3,93
335,603	75,95
335,814	37,03
336,025	-77,65
336,237	96,43
336,448	-48,98
336,659	-51,03
336,87	28,84
337,082	28,84
337,293	-116,56
337,504	8,36
337,715	-12,12
337,926	-18,26
338,138	-28,5
338,349	-8,02
338,56	-12,12
338,771	2,22
338,982	-20,31
339,193	69,8
339,404	24,75
339,616	-16,21
339,827	-12,12
340,038	-3,93
340,249	12,46
340,46	-61,27
340,671	41,13
340,882	137,38
341,093	-22,36
341,304	-55,12
341,515	-63,32
341,726	2,22
341,937	-3,93
342,148	-42,84
342,359	0,17
342,57	-18,26
342,781	2,22
342,992	-51,03
343,203	-61,27
343,414	45,23
343,624	-65,36
343,835	-3,93
344,046	-48,98
344,257	8,36
344,468	-36,69
344,679	-5,97
344,89	-79,7
345,1	-91,99
345,311	-44,88
345,522	-32,6
345,733	-8,02
345,944	45,23
346,154	-3,93
346,365	37,03
346,576	-53,08
346,787	-32,6
346,997	-59,22
347,208	61,61
347,419	-151,38
347,629	28,84
347,84	39,08
348,051	-116,56
348,261	-51,03
348,472	-110,42
348,683	55,47
348,893	-98,13
349,104	22,7
349,315	-61,27
349,525	-59,22
349,736	69,8
349,946	-44,88
350,157	28,84
350,368	94,38
350,578	-81,75
350,789	53,42
350,999	-83,8
351,21	-36,69
351,42	-94,04
351,631	-51,03
351,841	-81,75
352,052	-55,12
352,262	28,84
352,472	-42,84
352,683	-53,08
352,893	-32,6
353,104	-69,46
353,314	94,38
353,525	434,34
353,735	-18,26
353,945	-10,07
354,156	-57,17
354,366	96,43
354,576	73,9
354,787	-8,02
354,997	4,27
355,207	-102,23
355,418	-38,74
355,628	-51,03
355,838	20,65
356,048	22,7
356,259	-1,88
356,469	-3,93
356,679	14,51
356,889	47,27
357,1	-69,46
357,31	49,32
357,52	-16,21
357,73	-106,32
357,94	-16,21
358,15	-81,75
358,361	-3,93
358,571	-42,84
358,781	18,6
358,991	-91,99
359,201	-44,88
359,411	-10,07
359,621	-61,27
359,831	139,43
360,041	-28,5
360,251	-20,31
360,461	-18,26
360,672	6,31
360,882	-1,88
361,092	-71,51
361,302	77,99
361,512	-34,64
361,721	-20,31
361,931	-18,26
362,141	-53,08
362,351	-44,88
362,561	61,61
362,771	-61,27
362,981	12,46
363,191	-42,84
363,401	-100,18
363,611	-20,31
363,821	-89,94
364,03	-100,18
364,24	26,79
364,45	37,03
364,66	155,82
364,87	-51,03
365,08	49,32
365,289	-98,13
365,499	-44,88
365,709	-16,21
365,919	-48,98
366,128	-79,7
366,338	20,65
366,548	-69,46
366,758	-24,4
366,967	-12,12
367,177	45,23
367,387	-69,46
367,596	-83,8
367,806	26,79
368,016	30,89
368,225	12,46
368,435	6,31
368,644	-85,84
368,854	20,65
369,064	-30,55
369,273	49,32
369,483	-28,5
369,692	-65,36
369,902	-61,27
370,111	24,75
370,321	-24,4
370,53	-143,19
370,74	-59,22
370,949	-26,45
371,159	61,61
371,368	110,76
371,578	20,65
371,787	49,32
371,997	-12,12
372,206	102,57
372,416	4,27
372,625	-77,65
372,834	4,27
373,044	-61,27
373,253	12,46
373,462	28,84
373,672	12,46
373,881	0,17
374,09	-38,74
374,3	-24,4
374,509	14,51
374,718	-73,56
374,928	30,89
375,137	-26,45
375,346	-53,08
375,555	49,32
375,765	-44,88
375,974	-94,04
376,183	-8,02
376,392	-69,46
376,601	53,42
376,811	-12,12
377,02	20,65
377,229	43,18
377,438	39,08
377,647	-26,45
377,856	-12,12
378,065	45,23
378,275	12,46
378,484	-32,6
378,693	59,56
378,902	-20,31
379,111	37,03
379,32	-61,27
379,529	-34,64
379,738	-36,69
379,947	6,31
380,156	-51,03
380,365	43,18
380,574	45,23
380,783	-36,69
380,992	14,51
381,201	30,89
381,41	28,84
381,619	-34,64
381,828	4,27
382,037	14,51
382,245	121
382,454	57,51
382,663	24,75
382,872	65,71
383,081	-51,03
383,29	59,56
383,499	-18,26
383,707	69,8
383,916	45,23
384,125	-10,07
384,334	-24,4
384,542	53,42
384,751	61,61
384,96	30,89
385,169	-42,84
385,377	12,46
385,586	-28,5
385,795	69,8
386,004	10,41
386,212	45,23
386,421	30,89
386,63	370,85
386,838	768,16
387,047	1208,47
387,255	1726,61
387,464	2592,9
387,673	3436,66
387,881	4694,12
388,09	5701,72
388,298	6344,78
388,507	8081,46
388,715	9560,09
388,924	10543,11
389,133	10311,69
389,341	9652,25
389,55	8611,88
389,758	6477,9
389,967	4223,08
390,175	2726,02
390,383	2203,79
390,592	1667,22
390,8	1071,26
391,009	692,38
391,217	438,44
391,426	333,99
391,634	26,79
391,842	-12,12
392,051	-26,45
392,259	20,65
392,467	14,51
392,676	-18,26
392,884	-44,88
393,092	-61,27
393,301	-3,93
393,509	10,41
393,717	98,47
393,925	-20,31
394,134	-75,6
394,342	20,65
394,55	129,19
394,758	102,57
394,967	12,46
395,175	-59,22
395,383	123,05
395,591	45,23
395,799	151,72
396,007	112,81
396,216	209,06
396,424	225,45
396,632	241,83
396,84	125,1
397,048	178,34
397,256	104,62
397,464	69,8
397,672	53,42
397,88	12,46
398,088	-126,8
398,296	69,8
398,504	22,7
398,712	-12,12
398,92	37,03
399,128	-75,6
399,336	47,27
399,544	30,89
399,752	-44,88
399,96	32,94
400,168	39,08
400,376	-18,26
400,584	26,79
400,792	30,89
401	26,79
401,207	49,32
401,415	110,76
401,623	121
401,831	252,07
402,039	278,69
402,247	348,33
402,454	372,9
402,662	415,91
402,87	381,09
403,078	491,68
403,285	473,25
403,493	290,98
403,701	151,72
403,909	168,1
404,116	49,32
404,324	14,51
404,532	37,03
404,739	-18,26
404,947	-3,93
405,155	39,08
405,362	-34,64
405,57	16,55
405,778	-157,52
405,985	-57,17
406,193	4,27
406,4	-89,94
406,608	26,79
406,816	-12,12
407,023	20,65
407,231	-38,74
407,438	61,61
407,646	61,61
407,853	41,13
408,061	-63,32
408,268	6,31
408,476	20,65
408,683	45,23
408,89	-12,12
409,098	53,42
409,305	37,03
409,513	69,8
409,72	-12,12
409,927	-26,45
410,135	80,04
410,342	-44,88
410,55	102,57
410,757	-1,88
410,964	-69,46
411,172	37,03
411,379	61,61
411,586	45,23
411,793	-28,5
412,001	-42,84
412,208	73,9
412,415	20,65
412,622	112,81
412,83	22,7
413,037	41,13
413,244	-36,69
413,451	153,77
413,658	14,51
413,866	69,8
414,073	-12,12
414,28	106,67
414,487	-77,65
414,694	6,31
414,901	77,99
415,108	88,23
415,315	49,32
415,522	121
415,73	-28,5
415,937	-20,31
416,144	-102,23
416,351	-91,99
416,558	-3,93
416,765	-3,93
416,972	4,27
417,179	45,23
417,386	-12,12
417,593	51,37
417,8	20,65
418,006	55,47
418,213	69,8
418,42	14,51
418,627	90,28
418,834	22,7
419,041	-24,4
419,248	-28,5
419,455	6,31
419,661	37,03
419,868	-51,03
420,075	-3,93
420,282	-77,65
420,489	-53,08
420,696	-69,46
420,902	-53,08
421,109	22,7
421,316	-61,27
421,523	-20,31
421,729	12,46
421,936	-44,88
422,143	71,85
422,349	-28,5
422,556	4,27
422,763	4,27
422,969	-5,97
423,176	-85,84
423,383	-3,93
423,589	254,12
423,796	-18,26
424,002	-36,69
424,209	4,27
424,416	12,46
424,622	-85,84
424,829	-1,88
425,035	-94,04
425,242	-10,07
425,448	0,17
425,655	41,13
425,861	-24,4
426,068	-16,21
426,274	41,13
426,481	24,75
426,687	57,51
426,894	-48,98
427,1	22,7
427,306	-94,04
427,513	-28,5
427,719	-3,93
427,926	14,51
428,132	-53,08
428,338	-69,46
428,545	-12,12
428,751	-12,12
428,957	-30,55
429,163	30,89
429,37	77,99
429,576	28,84
429,782	63,66
429,989	-91,99
430,195	-3,93
430,401	47,27
430,607	-135
430,813	-69,46
431,02	22,7
431,226	-12,12
431,432	24,75
431,638	6,31
431,844	-91,99
432,05	-85,84
432,257	-91,99
432,463	14,51
432,669	24,75
432,875	-51,03
433,081	-81,75
433,287	-48,98
433,493	-130,9
433,699	24,75
433,905	28,84
434,111	-79,7
434,317	-1,88
434,523	69,8
434,729	28,84
434,935	-51,03
435,141	69,8
435,347	12,46
435,553	-3,93
435,759	16,55
435,965	-16,21
436,171	16,55
436,377	86,19
436,582	61,61
436,788	-67,41
436,994	106,67
437,2	-16,21
437,406	-12,12
437,612	-24,4
437,818	20,65
438,023	-61,27
438,229	176,3
438,435	110,76
438,641	49,32
438,846	112,81
439,052	69,8
439,258	182,44
439,464	-20,31
439,669	61,61
439,875	53,42
440,081	71,85
440,286	-36,69
440,492	-3,93
440,698	59,56
440,903	-10,07
441,109	90,28
441,314	-67,41
441,52	-83,8
441,726	73,9
441,931	45,23
442,137	53,42
442,342	-67,41
442,548	12,46
442,753	127,14
442,959	-12,12
443,164	28,84
443,37	20,65
443,575	-34,64
443,781	-36,69
443,986	90,28
444,192	-118,61
444,397	16,55
444,602	-94,04
444,808	30,89
445,013	114,86
445,219	184,49
445,424	434,34
445,629	745,63
445,835	940,19
446,04	1251,48
446,245	1577,11
446,451	1964,17
446,656	2076,81
446,861	2510,98
447,066	3020,92
447,272	3170,43
447,477	3170,43
447,682	2846,85
447,887	2463,88
448,093	2187,4
448,298	1597,59
448,503	1015,96
448,708	710,82
448,913	325,8
449,118	311,46
449,324	127,14
449,529	127,14
449,734	34,99
449,939	-26,45
450,144	82,09
450,349	55,47
450,554	-36,69
450,759	51,37
450,964	47,27
451,169	47,27
451,374	-36,69
451,579	8,36
451,784	-10,07
451,989	-8,02
452,194	45,23
452,399	118,95
452,604	-46,93
452,809	16,55
453,014	-34,64
453,219	49,32
453,424	-3,93
453,629	-53,08
453,833	-112,47
454,038	28,84
454,243	-40,79
454,448	-10,07
454,653	110,76
454,858	12,46
455,062	-118,61
455,267	20,65
455,472	53,42
455,677	41,13
455,882	-12,12
456,086	131,24
456,291	20,65
456,496	-135
456,7	-53,08
456,905	-16,21
457,11	18,6
457,314	-48,98
457,519	-124,76
457,724	-57,17
457,928	-30,55
458,133	-36,69
458,338	96,43
458,542	-26,45
458,747	8,36
458,951	-85,84
459,156	30,89
459,36	-94,04
459,565	80,04
459,769	53,42
459,974	16,55
460,178	-36,69
460,383	-61,27
460,587	-61,27
460,792	24,75
460,996	-126,8
461,201	-18,26
461,405	-28,5
461,61	-128,85
461,814	-12,12
462,018	-59,22
462,223	-42,84
462,427	28,84
462,631	88,23
462,836	-10,07
463,04	51,37
463,244	86,19
463,449	-59,22
463,653	65,71
463,857	-5,97
464,062	102,57
464,266	-18,26
464,47	-12,12
464,674	-26,45
464,878	16,55
465,083	12,46
465,287	75,95
465,491	-44,88
465,695	28,84
465,899	-36,69
466,104	34,99
466,308	6,31
466,512	102,57
466,716	94,38
466,92	20,65
467,124	45,23
467,328	-1,88
467,532	39,08
467,736	-1,88
467,94	22,7
468,144	-24,4
468,348	-61,27
468,552	176,3
468,756	20,65
468,96	-40,79
469,164	-67,41
469,368	12,46
469,572	39,08
469,776	139,43
469,98	266,41
470,184	331,94
470,388	389,28
470,591	434,34
470,795	512,16
470,999	538,79
471,203	759,97
471,407	764,06
471,611	766,11
471,814	741,54
472,018	626,85
472,222	538,79
472,426	536,74
472,63	323,75
472,833	260,26
473,037	129,19
473,241	121
473,444	92,33
473,648	475,3
473,852	-18,26
474,055	-18,26
474,259	28,84
474,463	41,13
474,666	-12,12
474,87	-20,31
475,074	53,42
475,277	12,46
475,481	71,85
475,684	-34,64
475,888	106,67
476,091	-48,98
476,295	-20,31
476,498	-44,88
476,702	-12,12
476,905	39,08
477,109	102,57
477,312	-59,22
477,516	-51,03
477,719	-12,12
477,923	24,75
478,126	-59,22
478,329	-118,61
478,533	-36,69
478,736	34,99
478,94	20,65
479,143	-8,02
479,346	-61,27
479,55	14,51
479,753	-16,21
479,956	-69,46
480,159	-124,76
480,363	55,47
480,566	-94,04
480,769	-73,56
480,972	-53,08
481,176	55,47
481,379	-77,65
481,582	53,42
481,785	-114,52
481,988	14,51
482,192	86,19
482,395	45,23
482,598	32,94
482,801	41,13
483,004	47,27
483,207	-124,76
483,41	43,18
483,613	12,46
483,817	28,84
484,02	-132,95
484,223	-57,17
484,426	43,18
484,629	12,46
484,832	51,37
485,035	-10,07
485,238	28,84
485,441	-28,5
485,644	47,27
485,846	-75,6
486,049	-44,88
486,252	0,17
486,455	-77,65
486,658	80,04
486,861	123,05
487,064	32,94
487,267	-65,36
487,47	159,91
487,672	28,84
487,875	32,94
488,078	20,65
488,281	161,96
488,484	-69,46
488,686	-48,98
488,889	-3,93
489,092	-108,37
489,295	47,27
489,497	98,47
489,7	12,46
489,903	77,99
490,105	-28,5
490,308	-10,07
490,511	133,29
490,713	276,65
490,916	448,68
491,118	516,26
491,321	749,73
491,524	721,06
491,726	995,48
491,929	1177,75
492,131	1253,53
492,334	1372,31
492,536	1355,93
492,739	1284,25
492,941	1243,29
493,144	1052,83
493,346	843,93
493,549	479,4
493,751	385,19
493,954	364,71
494,156	155,82
494,359	164,01
494,561	-20,31
494,763	80,04
494,966	-3,93
495,168	37,03
495,37	-36,69
495,573	-14,17
495,775	37,03
495,977	84,14
496,18	16,55
496,382	102,57
496,584	0,17
496,787	98,47
496,989	-16,21
497,191	-118,61
497,393	20,65
497,595	-53,08
497,798	-53,08
498	12,46
498,202	-24,4
498,404	-61,27
498,606	-20,31
498,808	55,47
499,011	49,32
499,213	71,85
499,415	18,6
499,617	274,6
499,819	491,68
500,021	792,73
500,223	1179,8
500,425	1562,77
500,627	2136,2
500,829	2734,21
501,031	3248,25
501,233	3719,28
501,435	4165,74
501,637	4692,07
501,839	4862,05
502,041	4718,69
502,243	4214,89
502,445	3825,78
502,647	3078,27
502,848	2326,66
503,05	1712,27
503,252	1294,49
503,454	942,24
503,656	602,27
503,858	424,1
504,059	307,37
504,261	301,22
504,463	372,9
504,665	213,16
504,867	227,5
505,068	227,5
505,27	254,12
505,472	278,69
505,673	194,73
505,875	69,8
506,077	32,94
506,278	102,57
506,48	30,89
506,682	71,85
506,883	80,04
507,085	-28,5
507,287	-75,6
507,488	45,23
507,69	71,85
507,891	-106,32
508,093	112,81
508,294	-32,6
508,496	30,89
508,697	-126,8
508,899	-59,22
509,1	30,89
509,302	37,03
509,503	24,75
509,705	-20,31
509,906	45,23
510,108	-12,12
510,309	-3,93
510,51	-10,07
510,712	0,17
510,913	-8,02
511,114	37,03
511,316	-143,19
511,517	55,47
511,718	77,99
511,92	-8,02
512,121	28,84
512,322	55,47
512,524	45,23
512,725	37,03
512,926	-3,93
513,127	-20,31
513,329	45,23
513,53	-12,12
513,731	34,99
513,932	-20,31
514,133	12,46
514,334	-108,37
514,536	77,99
514,737	88,23
514,938	-12,12
515,139	-28,5
515,34	-67,41
515,541	88,23
515,742	-147,28
515,943	-1,88
516,144	-36,69
516,345	8,36
516,546	-20,31
516,747	-14,17
516,948	-55,12
517,149	-36,69
517,35	-32,6
517,551	18,6
517,752	39,08
517,953	-18,26
518,154	-40,79
518,355	61,61
518,556	8,36
518,756	-38,74
518,957	-8,02
519,158	39,08
519,359	98,47
519,56	39,08
519,761	51,37
519,961	57,51
520,162	39,08
520,363	-91,99
520,564	-40,79
520,764	63,66
520,965	-61,27
521,166	77,99
521,366	8,36
521,567	45,23
521,768	-12,12
521,968	-53,08
522,169	-81,75
522,37	-73,56
522,57	-53,08
522,771	28,84
522,972	-61,27
523,172	20,65
523,373	77,99
523,573	20,65
523,774	-18,26
523,974	77,99
524,175	30,89
524,375	18,6
524,576	-102,23
524,776	6,31
524,977	-42,84
525,177	53,42
525,378	49,32
525,578	14,51
525,778	53,42
525,979	-3,93
526,179	-53,08
526,38	4,27
526,58	-83,8
526,78	28,84
526,981	86,19
527,181	39,08
527,381	4,27
527,582	57,51
527,782	127,14
527,982	32,94
528,182	-59,22
528,383	8,36
528,583	-44,88
528,783	45,23
528,983	73,9
529,183	-40,79
529,384	28,84
529,584	51,37
529,784	86,19
529,984	61,61
530,184	53,42
530,384	-14,17
530,584	-110,42
530,784	-10,07
530,984	-28,5
531,185	108,71
531,385	75,95
531,585	63,66
531,785	-1,88
531,985	-89,94
532,185	-40,79
532,385	14,51
532,585	-32,6
532,785	2,22
532,984	4,27
533,184	47,27
533,384	-12,12
533,584	-69,46
533,784	-12,12
533,984	69,8
534,184	-110,42
534,384	-147,28
534,583	77,99
534,783	-5,97
534,983	12,46
535,183	-44,88
535,383	-75,6
535,582	10,41
535,782	-3,93
535,982	127,14
536,182	2,22
536,381	-10,07
536,581	12,46
536,781	-28,5
536,98	-12,12
537,18	61,61
537,38	22,7
537,579	-10,07
537,779	-53,08
537,979	-73,56
538,178	-32,6
538,378	63,66
538,577	-26,45
538,777	-36,69
538,976	-10,07
539,176	-28,5
539,376	-42,84
539,575	-22,36
539,774	28,84
539,974	-69,46
540,173	94,38
540,373	63,66
540,572	12,46
540,772	8,36
540,971	-3,93
541,171	-8,02
541,37	-12,12
541,569	-1,88
541,769	61,61
541,968	22,7
542,167	12,46
542,367	28,84
542,566	-77,65
542,765	-59,22
542,965	-28,5
543,164	69,8
543,363	-20,31
543,562	-110,42
543,761	-26,45
543,961	86,19
544,16	-91,99
544,359	151,72
544,558	32,94
544,757	-69,46
544,957	45,23
545,156	100,52
545,355	49,32
545,554	32,94
545,753	-57,17
545,952	53,42
546,151	53,42
546,35	20,65
546,549	-26,45
546,748	-12,12
546,947	-22,36
547,146	-55,12
547,345	-3,93
547,544	-67,41
547,743	-44,88
547,942	37,03
548,141	0,17
548,34	65,71
548,539	47,27
548,738	-24,4
548,937	82,09
549,135	24,75
549,334	-57,17
549,533	4,27
549,732	-8,02
549,931	-3,93
550,13	26,79
550,328	-55,12
550,527	-44,88
550,726	-28,5
550,925	-44,88
551,123	90,28
551,322	16,55
551,521	82,09
551,72	16,55
551,918	39,08
552,117	77,99
552,315	-38,74
552,514	-3,93
552,713	-24,4
552,911	6,31
553,11	-44,88
553,309	0,17
553,507	-42,84
553,706	6,31
553,904	45,23
554,103	20,65
554,301	53,42
554,5	12,46
554,698	26,79
554,897	-20,31
555,095	-85,84
555,294	-48,98
555,492	-1,88
555,69	82,09
555,889	-85,84
556,087	22,7
556,286	49,32
556,484	14,51
556,682	-1,88
556,881	45,23
557,079	16,55
557,277	-20,31
557,476	24,75
557,674	51,37
557,872	14,51
558,07	14,51
558,269	-85,84
558,467	88,23
558,665	86,19
558,863	-44,88
559,062	8,36
559,26	-36,69
559,458	-51,03
559,656	30,89
559,854	98,47
560,052	39,08
560,25	6,31
560,449	217,26
560,647	98,47
560,845	6,31
561,043	-53,08
561,241	137,38
561,439	94,38
561,637	6,31
561,835	65,71
562,033	90,28
562,231	-48,98
562,429	-3,93
562,627	-32,6
562,825	-77,65
563,023	180,39
563,221	71,85
563,418	8,36
563,616	28,84
563,814	84,14
564,012	-26,45
564,21	28,84
564,408	20,65
564,605	57,51
564,803	-48,98
565,001	241,83
565,199	-57,17
565,397	71,85
565,594	18,6
565,792	110,76
565,99	12,46
566,188	30,89
566,385	53,42
566,583	-36,69
566,781	26,79
566,978	86,19
567,176	123,05
567,373	88,23
567,571	-8,02
567,769	94,38
567,966	-69,46
568,164	12,46
568,361	-10,07
568,559	28,84
568,756	53,42
568,954	155,82
569,151	18,6
569,349	145,58
569,546	-36,69
569,744	84,14
569,941	104,62
570,139	4,27
570,336	4,27
570,534	71,85
570,731	-94,04
570,928	24,75
571,126	143,53
571,323	61,61
571,52	41,13
571,718	65,71
571,915	57,51
572,112	28,84
572,31	-12,12
572,507	47,27
572,704	-26,45
572,901	69,8
573,099	102,57
573,296	131,24
573,493	37,03
573,69	-38,74
573,887	-36,69
574,085	92,33
574,282	86,19
574,479	61,61
574,676	16,55
574,873	37,03
575,07	86,19
575,267	57,51
575,464	112,81
575,661	100,52
575,858	28,84
576,055	32,94
576,252	77,99
576,449	137,38
576,646	28,84
576,843	-3,93
577,04	90,28
577,237	37,03
577,434	100,52
577,631	16,55
577,828	161,96
578,025	26,79
578,222	129,19
578,419	39,08
578,615	63,66
578,812	82,09
579,009	4,27
579,206	45,23
579,403	118,95
579,599	131,24
579,796	53,42
579,993	217,26
580,19	20,65
580,386	6,31
580,583	94,38
580,78	129,19
580,976	102,57
581,173	137,38
581,37	135,34
581,566	28,84
581,763	75,95
581,96	55,47
582,156	88,23
582,353	98,47
582,549	225,45
582,746	88,23
582,942	57,51
583,139	143,53
583,335	112,81
583,532	147,62
583,728	65,71
583,925	131,24
584,121	184,49
584,318	237,74
584,514	108,71
584,711	211,11
584,907	213,16
585,103	209,06
585,3	381,09
585,496	471,2
585,693	1024,16
585,889	3608,69
586,085	7569,46
586,281	13418,46
586,478	20522,87
586,674	27764,48
586,87	36314,75
587,067	44113,42
587,263	49489,34
587,459	52884,87
587,655	56646,99
587,851	56984,9
588,048	55805,27
588,244	52475,27
588,44	49210,81
588,636	43793,93
588,832	36996,73
589,028	31092,43
589,224	25012,01
589,42	19844,99
589,617	14544,84
589,813	9650,2
590,009	5748,82
590,205	3649,65
590,401	2201,74
590,597	1409,17
590,793	1040,54
590,989	680,1
591,185	553,12
591,38	491,68
591,576	372,9
591,772	225,45
591,968	307,37
592,164	217,26
592,36	227,5
592,556	202,92
592,752	219,3
592,948	73,9
593,143	-59,22
593,339	65,71
593,535	59,56
593,731	51,37
593,926	151,72
594,122	65,71
594,318	127,14
594,514	217,26
594,709	57,51
594,905	110,76
595,101	77,99
595,296	88,23
595,492	77,99
595,688	-12,12
595,883	176,3
596,079	65,71
596,275	69,8
596,47	116,9
596,666	-5,97
596,861	-1,88
597,057	16,55
597,252	12,46
597,448	16,55
597,643	86,19
597,839	102,57
598,034	37,03
598,23	8,36
598,425	96,43
598,621	102,57
598,816	73,9
599,011	8,36
599,207	-53,08
599,402	41,13
599,597	135,34
599,793	43,18
599,988	-28,5
600,183	49,32
600,379	-16,21
600,574	14,51
600,769	59,56
600,965	-3,93
601,16	4,27
601,355	-20,31
601,55	14,51
601,745	-10,07
601,941	143,53
602,136	135,34
602,331	47,27
602,526	-30,55
602,721	28,84
602,916	4,27
603,111	-36,69
603,307	-8,02
603,502	14,51
603,697	-85,84
603,892	69,8
604,087	-28,5
604,282	151,72
604,477	145,58
604,672	-5,97
604,867	22,7
605,062	8,36
605,257	4,27
605,452	164,01
605,646	39,08
605,841	61,61
606,036	-8,02
606,231	-8,02
606,426	39,08
606,621	-1,88
606,816	92,33
607,01	88,23
607,205	30,89
607,4	-42,84
607,595	-5,97
607,79	-20,31
607,984	53,42
608,179	92,33
608,374	39,08
608,569	18,6
608,763	-141,14
608,958	-12,12
609,153	20,65
609,347	30,89
609,542	63,66
609,736	86,19
609,931	-28,5
610,126	63,66
610,32	37,03
610,515	-59,22
610,709	266,41
610,904	69,8
611,098	-79,7
611,293	-77,65
611,487	-20,31
611,682	-38,74
611,876	-12,12
612,071	-18,26
612,265	71,85
612,46	-30,55
612,654	18,6
612,848	-24,4
613,043	-3,93
613,237	20,65
613,432	-22,36
613,626	51,37
613,82	32,94
614,014	90,28
614,209	80,04
614,403	-28,5
614,597	65,71
614,792	28,84
614,986	-12,12
615,18	32,94
615,374	112,81
615,568	14,51
615,763	53,42
615,957	94,38
616,151	112,81
616,345	82,09
616,539	-20,31
616,733	12,46
616,927	-28,5
617,121	22,7
617,316	86,19
617,51	153,77
617,704	37,03
617,898	-10,07
618,092	34,99
618,286	82,09
618,48	-20,31
618,674	161,96
618,868	28,84
619,061	0,17
619,255	37,03
619,449	94,38
619,643	20,65
619,837	90,28
620,031	8,36
620,225	145,58
620,419	12,46
620,612	127,14
620,806	88,23
621	123,05
621,194	49,32
621,388	0,17
621,581	63,66
621,775	57,51
621,969	28,84
622,162	2,22
622,356	-3,93
622,55	47,27
622,743	4,27
622,937	-36,69
623,131	61,61
623,324	108,71
623,518	82,09
623,712	-26,45
623,905	-1,88
624,099	71,85
624,292	14,51
624,486	16,55
624,679	-26,45
624,873	0,17
625,066	61,61
625,26	-42,84
625,453	49,32
625,647	12,46
625,84	53,42
626,034	6,31
626,227	84,14
626,42	-32,6
626,614	16,55
626,807	77,99
627	-20,31
627,194	-14,17
627,387	16,55
627,58	-51,03
627,774	-32,6
627,967	28,84
628,16	12,46
628,353	69,8
628,547	4,27
628,74	45,23
628,933	39,08
629,126	39,08
629,319	-26,45
629,513	26,79
629,706	18,6
629,899	86,19
630,092	20,65
630,285	-24,4
630,478	-20,31
630,671	39,08
630,864	20,65
631,057	-59,22
631,25	147,62
631,443	-53,08
631,636	45,23
631,829	39,08
632,022	86,19
632,215	10,41
632,408	22,7
632,601	88,23
632,794	71,85
632,987	-18,26
633,18	37,03
633,373	-44,88
633,566	-48,98
633,758	39,08
633,951	30,89
634,144	65,71
634,337	-77,65
634,53	20,65
634,722	37,03
634,915	-89,94
635,108	-73,56
635,301	37,03
635,493	43,18
635,686	143,53
635,879	-48,98
636,071	-48,98
636,264	94,38
636,457	84,14
636,649	-69,46
636,842	73,9
637,034	47,27
637,227	104,62
637,42	-1,88
637,612	30,89
637,805	-8,02
637,997	45,23
638,19	94,38
638,382	61,61
638,575	-38,74
638,767	-18,26
638,96	63,66
639,152	28,84
639,344	180,39
639,537	-42,84
639,729	22,7
639,922	0,17
640,114	-44,88
640,306	63,66
640,499	-18,26
640,691	6,31
640,883	-83,8
641,075	47,27
641,268	71,85
641,46	-1,88
641,652	-26,45
641,844	-42,84
642,037	-10,07
642,229	-3,93
642,421	110,76
642,613	22,7
642,805	-8,02
642,998	47,27
643,19	98,47
643,382	118,95
643,574	34,99
643,766	-12,12
643,958	-24,4
644,15	61,61
644,342	137,38
644,534	-5,97
644,726	-32,6
644,918	73,9
645,11	-61,27
645,302	20,65
645,494	51,37
645,686	-53,08
645,878	-18,26
646,07	24,75
646,262	20,65
646,453	-28,5
646,645	-1,88
646,837	106,67
647,029	32,94
647,221	-3,93
647,413	-1,88
647,604	-28,5
647,796	69,8
647,988	-3,93
648,18	28,84
648,371	51,37
648,563	-1,88
648,755	45,23
648,947	-87,89
649,138	-26,45
649,33	86,19
649,521	6,31
649,713	20,65
649,905	-83,8
650,096	100,52
650,288	-28,5
650,479	-1,88
650,671	30,89
650,863	-20,31
651,054	-3,93
651,246	61,61
651,437	8,36
651,629	125,1
651,82	67,75
652,011	20,65
652,203	73,9
652,394	22,7
652,586	37,03
652,777	22,7
652,968	6,31
653,16	-61,27
653,351	-18,26
653,542	182,44
653,734	4,27
653,925	-71,51
654,116	143,53
654,308	20,65
654,499	8,36
654,69	-69,46
654,881	18,6
655,073	37,03
655,264	53,42
655,455	77,99
655,646	-16,21
655,837	71,85
656,028	37,03
656,219	-77,65
656,411	61,61
656,602	61,61
656,793	121
656,984	45,23
657,175	-57,17
657,366	69,8
657,557	12,46
657,748	63,66
657,939	-51,03
658,13	-20,31
658,321	49,32
658,512	90,28
658,703	106,67
658,894	104,62
659,084	24,75
659,275	94,38
659,466	73,9
659,657	133,29
659,848	82,09
660,039	69,8
660,23	-28,5
660,42	-8,02
660,611	-18,26
660,802	16,55
660,993	41,13
661,183	37,03
661,374	-12,12
661,565	188,58
661,755	12,46
661,946	20,65
662,137	12,46
662,327	-57,17
662,518	-8,02
662,709	22,7
662,899	-124,76
663,09	67,75
663,28	-1,88
663,471	-46,93
663,662	106,67
663,852	104,62
664,043	-14,17
664,233	-34,64
664,424	-20,31
664,614	53,42
664,804	14,51
664,995	41,13
665,185	102,57
665,376	-81,75
665,566	127,14
665,756	57,51
665,947	151,72
666,137	295,08
666,328	1069,21
666,518	2021,52
666,708	3588,21
666,898	4954,21
667,089	7143,49
667,279	8742,95
667,469	10399,76
667,659	10862,6
667,85	11335,68
668,04	11472,89
668,23	11270,14
668,42	10737,67
668,61	9818,13
668,8	9197,6
668,991	8179,76
669,181	7178,3
669,371	6205,52
669,561	5324,89
669,751	4550,76
669,941	3706,99
670,131	2648,19
670,321	1962,12
670,511	1274,01
670,701	911,52
670,891	667,81
671,081	383,14
671,271	219,3
671,461	118,95
671,651	166,06
671,841	121
672,03	112,81
672,22	-8,02
672,41	121
672,6	82,09
672,79	88,23
672,98	4,27
673,169	-20,31
673,359	-3,93
673,549	110,76
673,739	-16,21
673,928	-67,41
674,118	57,51
674,308	-14,17
674,497	4,27
674,687	12,46
674,877	39,08
675,066	-36,69
675,256	-100,18
675,446	88,23
675,635	6,31
675,825	45,23
676,014	118,95
676,204	6,31
676,393	-10,07
676,583	-16,21
676,772	20,65
676,962	45,23
677,151	-55,12
677,341	-32,6
677,53	16,55
677,72	61,61
677,909	51,37
678,099	-59,22
678,288	-12,12
678,477	55,47
678,667	65,71
678,856	57,51
679,045	37,03
679,235	155,82
679,424	88,23
679,613	69,8
679,802	-8,02
679,992	-12,12
680,181	71,85
680,37	-16,21
680,559	55,47
680,748	90,28
680,938	20,65
681,127	-51,03
681,316	6,31
681,505	32,94
681,694	-28,5
681,883	-20,31
682,072	24,75
682,261	45,23
682,45	-110,42
682,639	53,42
682,828	-16,21
683,017	118,95
683,206	-30,55
683,395	-55,12
683,584	47,27
683,773	149,67
683,962	-100,18
684,151	-71,51
684,34	63,66
684,529	10,41
684,718	4,27
684,907	-51,03
685,095	53,42
685,284	49,32
685,473	82,09
685,662	-40,79
685,851	49,32
686,039	-28,5
686,228	16,55
686,417	-1,88
686,606	184,49
686,794	55,47
686,983	-91,99
687,172	65,71
687,36	-36,69
687,549	-51,03
687,738	-10,07
687,926	-12,12
688,115	-20,31
688,303	49,32
688,492	41,13
688,68	-18,26
688,869	-42,84
689,057	-12,12
689,246	37,03
689,434	49,32
689,623	-18,26
689,811	26,79
690	-61,27
690,188	8,36
690,377	-42,84
690,565	90,28
690,753	61,61
690,942	30,89
691,13	145,58
691,318	-30,55
691,507	20,65
691,695	53,42
691,883	69,8
692,072	39,08
692,26	100,52
692,448	16,55
692,636	45,23
692,824	-167,76
693,013	53,42
693,201	24,75
693,389	-48,98
693,577	37,03
693,765	30,89
693,953	24,75
694,141	32,94
694,329	-53,08
694,518	28,84
694,706	14,51
694,894	53,42
695,082	-77,65
695,27	53,42
695,458	-1,88
695,646	30,89
695,834	45,23
696,022	-1,88
696,209	106,67
696,397	53,42
696,585	-30,55
696,773	-24,4
696,961	30,89
697,149	-53,08
697,337	-12,12
697,525	61,61
697,712	-69,46
697,9	41,13
698,088	-34,64
698,276	28,84
698,463	53,42
698,651	16,55
698,839	28,84
699,027	47,27
699,214	164,01
699,402	61,61
699,59	-8,02
699,777	45,23
699,965	-20,31
700,152	18,6
700,34	-12,12
700,528	-16,21
700,715	65,71
700,903	28,84
701,09	102,57
701,278	-91,99
701,465	12,46
701,653	88,23
701,84	-8,02
702,028	102,57
702,215	110,76
702,402	80,04
702,59	37,03
702,777	100,52
702,965	71,85
703,152	88,23
703,339	88,23
703,527	45,23
703,714	41,13
703,901	145,58
704,088	155,82
704,276	106,67
704,463	88,23
704,65	143,53
704,837	250,02
705,025	805,02
705,212	2564,23
705,399	5650,52
705,586	8532,01
705,773	12351,47
705,96	15835,07
706,147	18837,39
706,335	20490,1
706,522	21737,31
706,709	21790,56
706,896	20881,26
707,083	19574,66
707,27	18489,23
707,457	16836,52
707,644	15581,12
707,831	13402,08
708,018	11790,33
708,205	10227,73
708,392	8499,24
708,578	7299,13
708,765	6101,07
708,952	4886,62
709,139	3772,53
709,326	2611,33
709,513	1814,67
709,7	1218,71
709,886	921,76
710,073	573,6
710,26	489,64
710,447	245,93
710,633	229,54
710,82	143,53
711,007	184,49
711,193	77,99
711,38	151,72
711,567	135,34
711,753	86,19
711,94	135,34
712,127	45,23
712,313	53,42
712,5	-51,03
712,686	116,9
712,873	28,84
713,059	-26,45
713,246	22,7
713,432	-14,17
713,619	-12,12
713,805	45,23
713,992	86,19
714,178	110,76
714,365	28,84
714,551	106,67
714,737	82,09
714,924	-18,26
715,11	127,14
715,297	63,66
715,483	2,22
715,669	-20,31
715,855	-24,4
716,042	123,05
716,228	-12,12
716,414	135,34
716,6	28,84
716,787	-12,12
716,973	12,46
717,159	2,22
717,345	43,18
717,531	-10,07
717,718	53,42
717,904	77,99
718,09	-65,36
718,276	88,23
718,462	63,66
718,648	88,23
718,834	-61,27
719,02	96,43
719,206	80,04
719,392	-53,08
719,578	-34,64
719,764	-61,27
719,95	8,36
720,136	86,19
720,322	12,46
720,508	77,99
720,694	73,9
720,879	-28,5
721,065	61,61
721,251	-73,56
721,437	-53,08
721,623	12,46
721,809	-12,12
721,994	26,79
722,18	-110,42
722,366	32,94
722,552	4,27
722,737	-38,74
722,923	61,61
723,109	53,42
723,294	-42,84
723,48	102,57
723,666	135,34
723,851	-42,84
724,037	20,65
724,222	53,42
724,408	12,46
724,593	143,53
724,779	28,84
724,965	49,32
725,15	-53,08
725,336	63,66
725,521	88,23
725,706	-18,26
725,892	6,31
726,077	-67,41
726,263	37,03
726,448	155,82
726,634	86,19
726,819	235,69
727,004	542,88
727,19	800,93
727,375	1235,1
727,56	1521,81
727,745	1699,98
727,931	2080,91
728,116	2111,63
728,301	2158,73
728,486	2181,26
728,672	1917,07
728,857	1835,15
729,042	1708,18
729,227	1562,77
729,412	1331,35
729,597	1122,46
729,783	954,52
729,968	891,04
730,153	751,78
730,338	626,85
730,523	610,47
730,708	360,61
730,893	372,9
731,078	258,21
731,263	161,96
731,448	55,47
731,633	12,46
731,818	-75,6
732,003	12,46
732,187	-42,84
732,372	-32,6
732,557	-8,02
732,742	12,46
732,927	-104,28
733,112	102,57
733,297	4,27
733,481	20,65
733,666	22,7
733,851	4,27
734,036	2,22
734,22	-20,31
734,405	116,9
734,59	-69,46
734,774	-36,69
734,959	-32,6
735,144	77,99
735,328	30,89
735,513	-85,84
735,698	-28,5
735,882	77,99
736,067	92,33
736,251	-26,45
736,436	-61,27
736,62	-40,79
736,805	-114,52
736,989	51,37
737,174	-36,69
737,358	-61,27
737,543	-3,93
737,727	-12,12
737,911	28,84
738,096	20,65
738,28	47,27
738,465	80,04
738,649	-8,02
738,833	-1,88
739,018	-1,88
739,202	-53,08
739,386	-85,84
739,57	-42,84
739,755	47,27
739,939	45,23
740,123	-59,22
740,307	53,42
740,491	14,51
740,676	0,17
740,86	84,14
741,044	0,17
741,228	-59,22
741,412	-106,32
741,596	-3,93
741,78	-57,17
741,964	63,66
742,148	-77,65
742,332	-44,88
742,516	-3,93
742,7	112,81
742,884	-59,22
743,068	12,46
743,252	-12,12
743,436	-22,36
743,62	-48,98
743,804	108,71
743,988	94,38
744,172	-55,12
744,356	-34,64
744,539	-65,36
744,723	-14,17
744,907	-75,6
745,091	-53,08
745,275	-10,07
745,458	4,27
745,642	-61,27
745,826	-28,5
746,009	37,03
746,193	20,65
746,377	28,84
746,56	-57,17
746,744	118,95
746,928	-69,46
747,111	65,71
747,295	18,6
747,478	-69,46
747,662	-3,93
747,846	104,62
748,029	28,84
748,213	20,65
748,396	-10,07
748,58	20,65
748,763	-34,64
748,946	-20,31
749,13	-85,84
749,313	-40,79
749,497	16,55
749,68	-18,26
749,863	-1,88
750,047	-28,5
750,23	-53,08
750,413	-28,5
750,597	90,28
750,78	-53,08
750,963	22,7
751,146	-10,07
751,33	6,31
751,513	8,36
751,696	4,27
751,879	57,51
752,062	-51,03
752,246	4,27
752,429	22,7
752,612	8,36
752,795	-61,27
752,978	-44,88
753,161	-26,45
753,344	0,17
753,527	49,32
753,71	-69,46
753,893	14,51
754,076	-108,37
754,259	53,42
754,442	-40,79
754,625	-94,04
754,808	139,43
754,991	-28,5
755,174	-85,84
755,357	-53,08
755,539	-67,41
755,722	47,27
755,905	20,65
756,088	-61,27
756,271	-77,65
756,453	0,17
756,636	-110,42
756,819	-3,93
757,002	-42,84
757,184	67,75
757,367	55,47
757,55	65,71
757,732	53,42
757,915	0,17
758,098	-139,09
758,28	53,42
758,463	-36,69
758,645	-12,12
758,828	69,8
759,011	-65,36
759,193	4,27
759,376	45,23
759,558	-36,69
759,741	-26,45
759,923	-69,46
760,105	61,61
760,288	20,65
760,47	-126,8
760,653	-12,12
760,835	-1,88
761,017	-85,84
761,2	28,84
761,382	69,8
761,564	-48,98
761,747	63,66
761,929	-20,31
762,111	-28,5
762,294	80,04
762,476	149,67
762,658	37,03
762,84	49,32
763,022	-1,88
763,205	-12,12
763,387	127,14
763,569	-8,02
763,751	-71,51
763,933	-26,45
764,115	-32,6
764,297	53,42
764,479	92,33
764,661	-12,12
764,843	118,95
765,025	20,65
765,207	-42,84
765,389	-53,08
765,571	-59,22
765,753	-3,93
765,935	24,75
766,117	-36,69
766,299	104,62
766,481	98,47
766,663	-24,4
766,845	-108,37
767,026	-22,36
767,208	94,38
767,39	30,89
767,572	-57,17
767,753	71,85
767,935	-51,03
768,117	6,31
768,299	71,85
768,48	-10,07
768,662	65,71
768,844	-16,21
769,025	80,04
769,207	-44,88
769,389	-28,5
769,57	-42,84
769,752	30,89
769,933	-12,12
770,115	69,8
770,296	-32,6
770,478	65,71
770,659	-126,8
770,841	141,48
771,022	-44,88
771,204	82,09
771,385	-16,21
771,567	96,43
771,748	80,04
771,929	-116,56
772,111	-3,93
772,292	57,51
772,473	75,95
772,655	30,89
772,836	-75,6
773,017	75,95
773,199	6,31
773,38	22,7
773,561	-1,88
773,742	-24,4
773,923	2,22
774,105	20,65
774,286	53,42
774,467	32,94
774,648	-102,23
774,829	-59,22
775,01	-73,56
775,191	-61,27
775,372	-73,56
775,553	16,55
775,734	-83,8
775,915	-59,22
776,096	-18,26
776,277	39,08
776,458	-10,07
776,639	63,66
776,82	108,71
777,001	-83,8
777,182	-24,4
777,363	6,31
777,544	0,17
777,725	112,81
777,906	104,62
778,086	-12,12
778,267	69,8
778,448	37,03
778,629	-36,69
778,809	47,27
778,99	-44,88
779,171	-87,89
779,352	14,51
779,532	-69,46
779,713	-91,99
779,894	-61,27
780,074	118,95
780,255	45,23
780,435	96,43
780,616	37,03
780,797	102,57
780,977	4,27
781,158	2,22
781,338	24,75
781,519	61,61
781,699	137,38
781,88	-1,88
782,06	-20,31
782,241	24,75
782,421	-102,23
782,601	-94,04
782,782	41,13
782,962	4,27
783,142	-51,03
783,323	69,8
783,503	16,55
783,683	16,55
783,864	37,03
784,044	94,38
784,224	-8,02
784,404	6,31
784,585	24,75
784,765	0,17
784,945	37,03
785,125	-51,03
785,305	16,55
785,485	77,99
785,666	118,95
785,846	-32,6
786,026	-3,93
786,206	-69,46
786,386	20,65
786,566	55,47
786,746	-30,55
786,926	-8,02
787,106	0,17
787,286	-28,5
787,466	39,08
787,646	-1,88
787,826	-8,02
788,006	20,65
788,185	45,23
788,365	-32,6
788,545	86,19
788,725	8,36
788,905	49,32
789,085	-22,36
789,264	-83,8
789,444	37,03
789,624	28,84
789,804	-71,51
789,983	-42,84
790,163	4,27
790,343	-12,12
790,522	49,32
790,702	37,03
790,882	6,31
791,061	45,23
791,241	-94,04
791,42	-67,41
791,6	88,23
791,78	20,65
791,959	-34,64
792,139	45,23
792,318	73,9
792,498	49,32
792,677	-12,12
792,856	47,27
793,036	-73,56
793,215	28,84
793,395	6,31
793,574	-81,75
793,753	22,7
793,933	151,72
794,112	112,81
794,291	-28,5
794,471	53,42
794,65	20,65
794,829	-28,5
795,008	8,36
795,188	37,03
795,367	102,57
795,546	37,03
795,725	-8,02
795,904	-67,41
796,084	-10,07
796,263	39,08
796,442	-1,88
796,621	30,89
796,8	88,23
796,979	-81,75
797,158	-94,04
797,337	-18,26
797,516	-44,88
797,695	53,42
797,874	-1,88
798,053	153,77
798,232	28,84
798,411	14,51
798,59	-118,61
798,769	-36,69
798,947	-106,32
799,126	30,89
799,305	65,71
799,484	12,46
799,663	-36,69
799,842	-24,4
800,02	94,38
800,199	-79,7
800,378	82,09
800,557	-51,03
800,735	-87,89
800,914	-40,79
801,093	20,65
801,271	-10,07
801,45	18,6
801,628	49,32
801,807	30,89
801,986	20,65
802,164	-20,31
802,343	-110,42
802,521	-14,17
802,7	30,89
802,878	47,27
803,057	53,42
803,235	-57,17
803,414	61,61
803,592	39,08
803,771	-73,56
803,949	45,23
804,127	4,27
804,306	32,94
804,484	30,89
804,662	22,7
804,841	-81,75
805,019	-10,07
805,197	20,65
805,375	16,55
805,554	6,31
805,732	28,84
805,91	-42,84
806,088	-1,88
806,266	0,17
806,445	-81,75
806,623	-40,79
806,801	49,32
806,979	94,38
807,157	-3,93
807,335	-34,64
807,513	14,51
807,691	-69,46
807,869	-77,65
808,047	-61,27
808,225	-69,46
808,403	12,46
808,581	16,55
808,759	127,14
808,937	-40,79
809,115	55,47
809,293	0,17
809,471	-20,31
809,649	37,03
809,826	53,42
810,004	20,65
810,182	-118,61
810,36	10,41
810,538	-20,31
810,715	-24,4
810,893	-75,6
811,071	30,89
811,248	14,51
811,426	-36,69
811,604	112,81
811,781	123,05
811,959	45,23
812,137	-24,4
812,314	-48,98
812,492	98,47
812,669	4,27
812,847	-44,88
813,024	-87,89
813,202	32,94
813,379	-22,36
813,557	53,42
813,734	147,62
813,912	-5,97
814,089	-36,69
814,267	8,36
814,444	-20,31
814,621	86,19
814,799	-69,46
814,976	61,61
815,153	30,89
815,331	-53,08
815,508	-3,93
815,685	-59,22
815,862	14,51
816,04	-51,03
816,217	-61,27
816,394	-16,21
816,571	22,7
816,748	145,58
816,926	71,85
817,103	270,5
817,28	12,46
817,457	-67,41
817,634	61,61
817,811	-44,88
817,988	-89,94
818,165	-10,07
818,342	0,17
818,519	16,55
818,696	-42,84
818,873	-57,17
819,05	14,51
819,227	-57,17
819,404	-69,46
819,581	39,08
819,758	-10,07
819,934	57,51
820,111	-32,6
820,288	-38,74
820,465	-10,07
820,642	0,17
820,818	22,7
820,995	28,84
821,172	28,84
821,349	67,75
821,525	22,7
821,702	77,99
821,879	-61,27
822,055	-12,12
822,232	12,46
822,409	-51,03
822,585	65,71
822,762	-16,21
822,938	-12,12
823,115	4,27
823,291	-20,31
823,468	88,23
823,644	67,75
823,821	16,55
823,997	-44,88
824,174	-20,31
824,35	61,61
824,527	34,99
824,703	-10,07
824,879	-42,84
825,056	-3,93
825,232	110,76
825,408	4,27
825,585	37,03
825,761	-124,76
825,937	-118,61
826,113	4,27
826,29	-10,07
826,466	-102,23
826,642	377
826,818	20,65
826,994	37,03
827,17	-91,99
827,347	-85,84
827,523	-73,56
827,699	18,6
827,875	-12,12
828,051	28,84
828,227	-55,12
828,403	47,27
828,579	63,66
828,755	26,79
828,931	-5,97
829,107	-57,17
829,283	47,27
829,459	-91,99
829,635	14,51
829,811	30,89
829,986	-36,69
830,162	-46,93
830,338	77,99
830,514	-71,51
830,69	-3,93
830,865	6,31
831,041	-51,03
831,217	-14,17
831,393	-12,12
831,568	-40,79
831,744	47,27
831,92	-59,22
832,095	6,31
832,271	20,65
832,447	53,42
832,622	102,57
832,798	30,89
832,973	-61,27
833,149	94,38
833,325	-28,5
833,5	-32,6
833,676	-12,12
833,851	-16,21
834,027	-48,98
834,202	39,08
834,377	69,8
834,553	6,31
834,728	-48,98
834,904	57,51
835,079	-73,56
835,254	-44,88
835,43	-32,6
835,605	4,27
835,78	-12,12
835,955	30,89
836,131	20,65
836,306	-40,79
836,481	49,32
836,656	-42,84
836,832	80,04
837,007	6,31
837,182	-61,27
837,357	-18,26
837,532	-12,12
837,707	-1,88
837,882	14,51
838,057	22,7
838,232	63,66
838,407	-1,88
838,582	-69,46
838,757	-77,65
838,932	84,14
839,107	-8,02
839,282	-51,03
839,457	127,14
839,632	47,27
839,807	14,51
839,982	-14,17
840,157	-18,26
840,332	-20,31
840,506	12,46
840,681	-16,21
840,856	61,61
841,031	-61,27
841,205	-42,84
841,38	22,7
841,555	55,47
841,73	-91,99
841,904	-114,52
842,079	45,23
842,254	12,46
842,428	34,99
842,603	-61,27
842,777	-118,61
842,952	-69,46
843,126	-40,79
843,301	8,36
843,476	-69,46
843,65	8,36
843,825	61,61
843,999	-69,46
844,173	-24,4
844,348	-28,5
844,522	86,19
844,697	-51,03
844,871	8,36
845,045	6,31
845,22	55,47
845,394	77,99
845,568	-3,93
845,743	65,71
845,917	-42,84
846,091	-77,65
846,265	-40,79
846,44	20,65
846,614	-75,6
846,788	-48,98
846,962	-20,31
847,136	53,42
847,31	-59,22
847,485	110,76
847,659	-65,36
847,833	45,23
848,007	28,84
848,181	-51,03
848,355	-106,32
848,529	57,51
848,703	67,75
848,877	-59,22
849,051	135,34
849,225	20,65
849,399	-73,56
849,573	-10,07
849,746	-42,84
849,92	-57,17
850,094	37,03
850,268	-10,07
850,442	39,08
850,616	-8,02
850,789	10,41
850,963	-28,5
851,137	-20,31
851,311	80,04
851,484	75,95
851,658	28,84
851,832	-124,76
852,005	-20,31
852,179	-83,8
852,352	-42,84
852,526	-22,36
852,7	86,19
852,873	-34,64
853,047	-10,07
853,22	-24,4
853,394	6,31
853,567	-18,26
853,741	-10,07
853,914	0,17
854,088	-44,88
854,261	28,84
854,434	-12,12
854,608	-18,26
854,781	-61,27
854,955	-36,69
855,128	102,57
855,301	-53,08
855,475	-69,46
855,648	-73,56
855,821	-40,79
855,994	82,09
856,168	51,37
856,341	94,38
856,514	-40,79
856,687	-34,64
856,86	77,99
857,033	32,94
857,207	-51,03
857,38	-16,21
857,553	71,85
857,726	-8,02
857,899	114,86
858,072	-77,65
858,245	-10,07
858,418	20,65
858,591	-16,21
858,764	-48,98
858,937	57,51
859,11	8,36
859,283	32,94
859,455	-73,56
859,628	6,31
859,801	106,67
859,974	-10,07
860,147	-61,27
860,32	88,23
860,492	37,03
860,665	-69,46
860,838	12,46
861,011	20,65
861,183	51,37
861,356	118,95
861,529	-10,07
861,701	8,36
861,874	49,32
862,047	57,51
862,219	28,84
862,392	51,37
862,564	20,65
862,737	-3,93
862,909	32,94
863,082	-48,98
863,254	98,47
863,427	73,9
863,599	98,47
863,772	-36,69
863,944	4,27
864,117	-34,64
864,289	-48,98
864,461	-83,8
864,634	-44,88
864,806	-81,75
864,978	18,6
865,151	-59,22
865,323	20,65
865,495	77,99
865,667	0,17
865,84	129,19
866,012	-65,36
866,184	32,94
866,356	-53,08
866,528	30,89
866,7	-79,7
866,873	12,46
867,045	-16,21
867,217	-106,32
867,389	24,75
867,561	-57,17
867,733	-28,5
867,905	-85,84
868,077	69,8
868,249	51,37
868,421	41,13
868,593	53,42
868,765	47,27
868,936	-81,75
869,108	-20,31
869,28	121
869,452	-44,88
869,624	-46,93
869,796	127,14
869,968	12,46
870,139	65,71
870,311	-55,12
870,483	77,99
870,654	-116,56
870,826	-81,75
870,998	-51,03
871,17	12,46
871,341	-24,4
871,513	0,17
871,684	-18,26
871,856	49,32
872,028	-1,88
872,199	-67,41
872,371	-112,47
872,542	22,7
872,714	-36,69
872,885	151,72
873,057	-16,21
873,228	-69,46
873,4	53,42
873,571	63,66
873,742	-75,6
873,914	16,55
874,085	-94,04
874,256	-18,26
874,428	-102,23
874,599	-77,65
874,77	73,9
874,942	-69,46
875,113	-28,5
875,284	-51,03
875,455	-61,27
875,626	41,13
875,798	-28,5
875,969	37,03
876,14	69,8
876,311	8,36
876,482	37,03
876,653	24,75
876,824	20,65
876,995	77,99
877,166	-59,22
877,337	-44,88
877,508	-100,18
877,679	4,27
877,85	-36,69
878,021	-18,26
878,192	6,31
878,363	41,13
878,534	-36,69
878,705	-57,17
878,876	-12,12
879,047	41,13
879,217	-46,93
879,388	-10,07
879,559	28,84
879,73	14,51
879,9	20,65
880,071	55,47
880,242	4,27
880,413	-36,69
880,583	37,03
880,754	110,76
880,924	6,31
881,095	-61,27
881,266	-53,08
881,436	-42,84
881,607	77,99
881,777	20,65
881,948	-77,65
882,118	-51,03
882,289	-12,12
882,459	-26,45
882,63	-40,79
882,8	-53,08
882,971	73,9
883,141	28,84
883,311	-32,6
883,482	94,38
883,652	-28,5
883,822	-61,27
883,993	-53,08
884,163	71,85
884,333	-18,26
884,504	49,32
884,674	20,65
884,844	45,23
885,014	14,51
885,184	-24,4
885,355	-69,46
885,525	-94,04
885,695	20,65
885,865	77,99
886,035	-1,88
886,205	-20,31
886,375	65,71
886,545	59,56
886,715	-163,67
886,885	2,22
887,055	-67,41
887,225	8,36
887,395	-53,08
887,565	49,32
887,735	14,51
887,905	96,43
888,075	4,27
888,244	34,99
888,414	22,7
888,584	22,7
888,754	-26,45
888,924	-16,21
889,093	168,1
889,263	-48,98
889,433	28,84
889,603	57,51
889,772	30,89
889,942	61,61
890,111	53,42
890,281	45,23
890,451	-26,45
890,62	-20,31
890,79	-42,84
890,959	65,71
891,129	-3,93
891,298	57,51
891,468	-3,93
891,637	4,27
891,807	-102,23
891,976	43,18
892,146	-3,93
892,315	61,61
892,485	2,22
892,654	14,51
892,823	-94,04
892,993	47,27
893,162	37,03
893,331	28,84
893,501	-40,79
893,67	-20,31
893,839	-73,56
894,008	-32,6
894,177	6,31
894,347	16,55
894,516	129,19
894,685	-3,93
894,854	24,75
895,023	28,84
895,192	-108,37
