Data from he_USB4F104161__14__11-53-36-709.txt Node

Date: Tue Apr 14 11:53:36 EDT 2026
User: LaboPhy
Spectrometer: USB4F10416
Trigger mode: 4
Integration Time (sec): 1,000000E-1
Scans to average: 1
Electric dark correction enabled: true
Nonlinearity correction enabled: false
Boxcar width: 0
XAxis mode: Wavelengths
Number of Pixels in Spectrum: 3648
>>>>>Begin Spectral Data<<<<<
177,847	-140,8
178,066	-140,8
178,284	-140,8
178,502	-214,52
178,72	-198,14
178,939	23,04
179,157	8,7
179,375	-40,45
179,593	74,24
179,812	-13,82
180,03	2,56
180,248	-1,54
180,466	-56,83
180,685	25,09
180,903	6,66
181,121	-99,84
181,339	72,19
181,557	-34,3
181,775	-83,45
181,994	27,14
182,212	-5,63
182,43	-42,5
182,648	-34,3
182,866	104,96
183,084	72,19
183,302	-85,5
183,52	27,14
183,739	-30,21
183,957	-5,63
184,175	55,81
184,393	39,42
184,611	43,52
184,829	82,43
185,047	2,56
185,265	43,52
185,483	0,51
185,701	90,62
185,919	-1,54
186,137	6,66
186,355	6,66
186,573	76,29
186,791	129,53
187,009	61,95
187,227	37,38
187,445	-7,68
187,663	59,9
187,881	-15,87
188,098	14,85
188,316	23,04
188,534	96,77
188,752	41,47
188,97	-13,82
189,188	18,94
189,406	39,42
189,624	10,75
189,841	41,47
190,059	-79,36
190,277	4,61
190,495	6,66
190,713	72,19
190,931	84,48
191,148	41,47
191,366	0,51
191,584	6,66
191,802	20,99
192,019	-5,63
192,237	-9,73
192,455	61,95
192,673	59,9
192,89	31,23
193,108	-1,54
193,326	27,14
193,543	10,75
193,761	18,94
193,979	-54,78
194,196	10,75
194,414	51,71
194,632	113,15
194,849	-9,73
195,067	-40,45
195,285	23,04
195,502	-73,21
195,72	-11,78
195,937	-40,45
196,155	-5,63
196,373	2,56
196,59	14,85
196,808	10,75
197,025	18,94
197,243	301,56
197,46	64
197,678	23,04
197,895	47,62
198,113	39,42
198,33	-15,87
198,548	18,94
198,765	-17,92
198,983	33,28
199,2	-67,07
199,418	82,43
199,635	10,75
199,853	47,62
200,07	18,94
200,288	-7,68
200,505	-48,64
200,722	55,81
200,94	-38,4
201,157	14,85
201,375	88,57
201,592	-24,06
201,809	64
202,027	178,69
202,244	39,42
202,461	-1,54
202,679	23,04
202,896	39,42
203,113	23,04
203,331	57,86
203,548	61,95
203,765	66,05
203,982	47,62
204,2	-91,65
204,417	-13,82
204,634	219,64
204,851	-17,92
205,069	8,7
205,286	64
205,503	47,62
205,72	96,77
205,937	-13,82
206,155	0,51
206,372	121,34
206,589	-89,6
206,806	39,42
207,023	-24,06
207,24	33,28
207,458	-34,3
207,675	-26,11
207,892	96,77
208,109	-9,73
208,326	-7,68
208,543	16,9
208,76	-26,11
208,977	88,57
209,194	47,62
209,411	23,04
209,628	-9,73
209,845	-9,73
210,062	-48,64
210,279	-3,58
210,496	18,94
210,713	-91,65
210,93	-50,69
211,147	72,19
211,364	-69,12
211,581	47,62
211,798	27,14
212,015	-24,06
212,232	-9,73
212,449	8,7
212,666	100,86
212,883	-67,07
213,1	33,28
213,317	-7,68
213,533	-9,73
213,75	31,23
213,967	31,23
214,184	-26,11
214,401	18,94
214,618	-7,68
214,835	27,14
215,051	35,33
215,268	76,29
215,485	72,19
215,702	-42,5
215,919	-1,54
216,135	162,3
216,352	-1,54
216,569	51,71
216,786	53,76
217,002	74,24
217,219	29,18
217,436	4,61
217,652	-62,98
217,869	23,04
218,086	104,96
218,302	10,75
218,519	43,52
218,736	-1,54
218,952	-40,45
219,169	14,85
219,386	-34,3
219,602	2,56
219,819	-32,26
220,036	66,05
220,252	37,38
220,469	23,04
220,685	23,04
220,902	14,85
221,118	-17,92
221,335	-58,88
221,552	-40,45
221,768	20,99
221,985	-15,87
222,201	-9,73
222,418	14,85
222,634	-65,02
222,851	6,66
223,067	-7,68
223,284	-17,92
223,5	29,18
223,716	68,09
223,933	72,19
224,149	-13,82
224,366	78,33
224,582	-36,35
224,799	14,85
225,015	4,61
225,231	6,66
225,448	25,09
225,664	-38,4
225,88	-1,54
226,097	29,18
226,313	-52,74
226,529	80,38
226,746	104,96
226,962	-15,87
227,178	-5,63
227,395	14,85
227,611	35,33
227,827	-42,5
228,044	141,82
228,26	4,61
228,476	-17,92
228,692	102,91
228,909	90,62
229,125	14,85
229,341	-15,87
229,557	-3,58
229,773	-46,59
229,99	-1,54
230,206	-67,07
230,422	-1,54
230,638	14,85
230,854	-62,98
231,07	-91,65
231,286	88,57
231,503	16,9
231,719	-71,17
231,935	53,76
232,151	66,05
232,367	113,15
232,583	64
232,799	18,94
233,015	55,81
233,231	-42,5
233,447	-42,5
233,663	-58,88
233,879	-32,26
234,095	-99,84
234,311	0,51
234,527	-13,82
234,743	49,66
234,959	31,23
235,175	-22,02
235,391	-81,41
235,607	-34,3
235,823	80,38
236,039	53,76
236,255	-62,98
236,471	47,62
236,687	80,38
236,903	-26,11
237,118	80,38
237,334	-42,5
237,55	39,42
237,766	-116,22
237,982	72,19
238,198	47,62
238,413	-50,69
238,629	25,09
238,845	0,51
239,061	-3,58
239,277	2,56
239,492	-26,11
239,708	49,66
239,924	-7,68
240,14	-9,73
240,355	80,38
240,571	-11,78
240,787	-15,87
241,003	72,19
241,218	-9,73
241,434	-7,68
241,65	92,67
241,865	-81,41
242,081	76,29
242,297	-54,78
242,512	-42,5
242,728	14,85
242,944	23,04
243,159	39,42
243,375	16,9
243,59	-75,26
243,806	-65,02
244,022	39,42
244,237	33,28
244,453	-17,92
244,668	10,75
244,884	107,01
245,099	-17,92
245,315	80,38
245,53	72,19
245,746	82,43
245,961	109,05
246,177	57,86
246,392	57,86
246,608	164,35
246,823	-42,5
247,039	-24,06
247,254	-22,02
247,47	100,86
247,685	-24,06
247,9	8,7
248,116	-42,5
248,331	-44,54
248,547	68,09
248,762	-65,02
248,977	27,14
249,193	23,04
249,408	64
249,623	16,9
249,839	-9,73
250,054	-97,79
250,269	-38,4
250,485	-17,92
250,7	8,7
250,915	-5,63
251,13	47,62
251,346	43,52
251,561	35,33
251,776	37,38
251,991	-95,74
252,207	90,62
252,422	-7,68
252,637	70,14
252,852	-42,5
253,067	43,52
253,283	-3,58
253,498	-30,21
253,713	-34,3
253,928	33,28
254,143	-22,02
254,358	20,99
254,573	-7,68
254,788	-9,73
255,004	14,85
255,219	-60,93
255,434	-22,02
255,649	-17,92
255,864	43,52
256,079	39,42
256,294	-1,54
256,509	33,28
256,724	-15,87
256,939	-28,16
257,154	53,76
257,369	33,28
257,584	74,24
257,799	-1,54
258,014	-40,45
258,229	98,81
258,444	2,56
258,659	82,43
258,874	55,81
259,089	96,77
259,304	12,8
259,518	-1,54
259,733	88,57
259,948	14,85
260,163	141,82
260,378	84,48
260,593	47,62
260,808	-38,4
261,022	-75,26
261,237	47,62
261,452	-50,69
261,667	18,94
261,882	113,15
262,096	18,94
262,311	96,77
262,526	-60,93
262,741	-9,73
262,955	6,66
263,17	64
263,385	0,51
263,6	-30,21
263,814	23,04
264,029	-32,26
264,244	2,56
264,458	27,14
264,673	23,04
264,888	90,62
265,102	51,71
265,317	-26,11
265,532	64
265,746	8,7
265,961	72,19
266,175	16,9
266,39	4,61
266,605	-52,74
266,819	-19,97
267,034	25,09
267,248	-30,21
267,463	31,23
267,677	10,75
267,892	49,66
268,106	-108,03
268,321	-42,5
268,535	57,86
268,75	145,92
268,964	-44,54
269,179	31,23
269,393	-7,68
269,608	59,9
269,822	-50,69
270,036	-13,82
270,251	-58,88
270,465	72,19
270,68	31,23
270,894	-5,63
271,108	133,63
271,323	8,7
271,537	72,19
271,752	125,44
271,966	-34,3
272,18	-83,45
272,394	84,48
272,609	55,81
272,823	-50,69
273,037	37,38
273,252	-15,87
273,466	-26,11
273,68	72,19
273,894	-11,78
274,109	-22,02
274,323	14,85
274,537	8,7
274,751	0,51
274,966	33,28
275,18	12,8
275,394	-30,21
275,608	20,99
275,822	-9,73
276,036	-40,45
276,25	14,85
276,465	25,09
276,679	-1,54
276,893	-34,3
277,107	14,85
277,321	-42,5
277,535	123,39
277,749	25,09
277,963	-15,87
278,177	-97,79
278,391	33,28
278,605	-9,73
278,819	82,43
279,033	-112,13
279,247	-65,02
279,461	41,47
279,675	-26,11
279,889	47,62
280,103	55,81
280,317	129,53
280,531	-153,09
280,745	23,04
280,959	16,9
281,173	49,66
281,387	74,24
281,601	51,71
281,815	145,92
282,029	-32,26
282,242	-50,69
282,456	25,09
282,67	23,04
282,884	-77,31
283,098	47,62
283,312	-9,73
283,525	49,66
283,739	43,52
283,953	64
284,167	10,75
284,381	-30,21
284,594	4,61
284,808	-17,92
285,022	-32,26
285,235	-38,4
285,449	14,85
285,663	23,04
285,877	-54,78
286,09	53,76
286,304	98,81
286,518	-9,73
286,731	-30,21
286,945	8,7
287,159	-38,4
287,372	31,23
287,586	10,75
287,799	23,04
288,013	-50,69
288,227	-46,59
288,44	285,18
288,654	47,62
288,867	6,66
289,081	6,66
289,294	76,29
289,508	23,04
289,721	-34,3
289,935	-24,06
290,148	27,14
290,362	2,56
290,575	80,38
290,789	16,9
291,002	-32,26
291,216	57,86
291,429	41,47
291,643	41,47
291,856	37,38
292,069	-15,87
292,283	-50,69
292,496	88,57
292,71	-26,11
292,923	-40,45
293,136	-19,97
293,35	2,56
293,563	-28,16
293,776	23,04
293,99	123,39
294,203	-9,73
294,416	84,48
294,63	-22,02
294,843	6,66
295,056	59,9
295,269	-22,02
295,483	-124,41
295,696	47,62
295,909	-24,06
296,122	70,14
296,335	96,77
296,549	18,94
296,762	31,23
296,975	-24,06
297,188	-26,11
297,401	68,09
297,615	96,77
297,828	-50,69
298,041	121,34
298,254	-148,99
298,467	-17,92
298,68	43,52
298,893	10,75
299,106	-36,35
299,319	55,81
299,532	27,14
299,745	55,81
299,958	-44,54
300,171	-42,5
300,384	16,9
300,598	-42,5
300,81	27,14
301,023	-99,84
301,236	-48,64
301,449	-26,11
301,662	-40,45
301,875	-1,54
302,088	-9,73
302,301	-24,06
302,514	0,51
302,727	104,96
302,94	16,9
303,153	14,85
303,366	96,77
303,579	-38,4
303,791	12,8
304,004	-28,16
304,217	88,57
304,43	-7,68
304,643	4,61
304,855	-52,74
305,068	64
305,281	51,71
305,494	23,04
305,707	-40,45
305,919	117,25
306,132	33,28
306,345	-3,58
306,558	115,2
306,77	-1,54
306,983	-44,54
307,196	49,66
307,408	-42,5
307,621	39,42
307,834	-56,83
308,046	51,71
308,259	-56,83
308,472	-17,92
308,684	113,15
308,897	-19,97
309,109	-75,26
309,322	-42,5
309,535	41,47
309,747	76,29
309,96	49,66
310,172	80,38
310,385	102,91
310,597	-11,78
310,81	8,7
311,022	-42,5
311,235	-30,21
311,447	76,29
311,66	80,38
311,872	33,28
312,085	-11,78
312,297	-62,98
312,51	-56,83
312,722	-38,4
312,934	6,66
313,147	-62,98
313,359	35,33
313,572	-15,87
313,784	39,42
313,996	25,09
314,209	-1,54
314,421	-67,07
314,633	-3,58
314,846	-30,21
315,058	39,42
315,27	-30,21
315,483	-19,97
315,695	25,09
315,907	-42,5
316,119	-17,92
316,332	6,66
316,544	107,01
316,756	16,9
316,968	10,75
317,181	16,9
317,393	31,23
317,605	61,95
317,817	53,76
318,029	129,53
318,241	33,28
318,454	88,57
318,666	178,69
318,878	-34,3
319,09	27,14
319,302	131,58
319,514	59,9
319,726	23,04
319,938	113,15
320,15	47,62
320,362	2,56
320,574	-93,69
320,786	-83,45
320,999	-28,16
321,211	39,42
321,423	31,23
321,635	-32,26
321,847	6,66
322,058	-5,63
322,27	6,66
322,482	47,62
322,694	74,24
322,906	8,7
323,118	10,75
323,33	107,01
323,542	20,99
323,754	12,8
323,966	-99,84
324,178	41,47
324,389	61,95
324,601	6,66
324,813	-15,87
325,025	41,47
325,237	-15,87
325,449	27,14
325,66	-62,98
325,872	-7,68
326,084	-1,54
326,296	-58,88
326,507	39,42
326,719	18,94
326,931	-67,07
327,143	59,9
327,354	82,43
327,566	-5,63
327,778	2,56
327,989	47,62
328,201	-1,54
328,413	29,18
328,624	49,66
328,836	8,7
329,048	-42,5
329,259	66,05
329,471	-30,21
329,682	10,75
329,894	-40,45
330,106	-7,68
330,317	23,04
330,529	-26,11
330,74	-50,69
330,952	72,19
331,163	14,85
331,375	47,62
331,586	18,94
331,798	-67,07
332,009	-11,78
332,221	-15,87
332,432	-17,92
332,644	-9,73
332,855	14,85
333,067	18,94
333,278	2,56
333,489	88,57
333,701	-79,36
333,912	-62,98
334,124	-97,79
334,335	-5,63
334,546	-73,21
334,758	-13,82
334,969	176,64
335,18	39,42
335,392	14,85
335,603	80,38
335,814	72,19
336,025	-52,74
336,237	-34,3
336,448	8,7
336,659	8,7
336,87	47,62
337,082	72,19
337,293	-11,78
337,504	-48,64
337,715	16,9
337,926	6,66
338,138	-19,97
338,349	-7,68
338,56	39,42
338,771	-58,88
338,982	100,86
339,193	-101,89
339,404	61,95
339,616	47,62
339,827	35,33
340,038	-3,58
340,249	39,42
340,46	6,66
340,671	-9,73
340,882	137,73
341,093	-38,4
341,304	-54,78
341,515	16,9
341,726	-32,26
341,937	-56,83
342,148	-46,59
342,359	-42,5
342,57	-99,84
342,781	35,33
342,992	25,09
343,203	-50,69
343,414	109,05
343,624	-30,21
343,835	18,94
344,046	29,18
344,257	23,04
344,468	-26,11
344,679	-79,36
344,89	-24,06
345,1	-48,64
345,311	-15,87
345,522	-46,59
345,733	14,85
345,944	6,66
346,154	39,42
346,365	80,38
346,576	-97,79
346,787	-7,68
346,997	-1,54
347,208	68,09
347,419	-34,3
347,629	31,23
347,84	82,43
348,051	43,52
348,261	10,75
348,472	-46,59
348,683	66,05
348,893	-83,45
349,104	-38,4
349,315	-122,37
349,525	72,19
349,736	-42,5
349,946	6,66
350,157	74,24
350,368	-32,26
350,578	-32,26
350,789	66,05
350,999	-32,26
351,21	31,23
351,42	-77,31
351,631	-36,35
351,841	-42,5
352,052	12,8
352,262	31,23
352,472	57,86
352,683	-48,64
352,893	43,52
353,104	-50,69
353,314	55,81
353,525	399,87
353,735	-1,54
353,945	-81,41
354,156	6,66
354,366	18,94
354,576	72,19
354,787	8,7
354,997	-7,68
355,207	-26,11
355,418	-36,35
355,628	-73,21
355,838	-22,02
356,048	82,43
356,259	39,42
356,469	6,66
356,679	80,38
356,889	-22,02
357,1	16,9
357,31	-7,68
357,52	8,7
357,73	-26,11
357,94	27,14
358,15	10,75
358,361	57,86
358,571	-38,4
358,781	31,23
358,991	-105,98
359,201	-71,17
359,411	-73,21
359,621	23,04
359,831	33,28
360,041	61,95
360,251	-44,54
360,461	14,85
360,672	-7,68
360,882	-46,59
361,092	25,09
361,302	-13,82
361,512	80,38
361,721	-15,87
361,931	8,7
362,141	-48,64
362,351	31,23
362,561	90,62
362,771	6,66
362,981	66,05
363,191	25,09
363,401	-17,92
363,611	-52,74
363,821	-32,26
364,03	-42,5
364,24	64
364,45	84,48
364,66	236,03
364,87	-5,63
365,08	10,75
365,289	-34,3
365,499	23,04
365,709	143,87
365,919	-15,87
366,128	-58,88
366,338	2,56
366,548	4,61
366,758	-24,06
366,967	-54,78
367,177	66,05
367,387	47,62
367,596	-17,92
367,806	14,85
368,016	33,28
368,225	33,28
368,435	64
368,644	-26,11
368,854	-7,68
369,064	92,67
369,273	51,71
369,483	35,33
369,692	-99,84
369,902	10,75
370,111	49,66
370,321	-67,07
370,53	-75,26
370,74	33,28
370,949	27,14
371,159	68,09
371,368	92,67
371,578	64
371,787	14,85
371,997	-54,78
372,206	14,85
372,416	14,85
372,625	47,62
372,834	-1,54
373,044	-17,92
373,253	33,28
373,462	76,29
373,672	113,15
373,881	-56,83
374,09	6,66
374,3	-5,63
374,509	74,24
374,718	-7,68
374,928	68,09
375,137	35,33
375,346	-7,68
375,555	64
375,765	14,85
375,974	-42,5
376,183	90,62
376,392	-17,92
376,601	98,81
376,811	72,19
377,02	156,16
377,229	6,66
377,438	80,38
377,647	51,71
377,856	-30,21
378,065	27,14
378,275	47,62
378,484	6,66
378,693	-34,3
378,902	2,56
379,111	41,47
379,32	-26,11
379,529	-81,41
379,738	33,28
379,947	39,42
380,156	2,56
380,365	-99,84
380,574	100,86
380,783	-24,06
380,992	-48,64
381,201	6,66
381,41	47,62
381,619	80,38
381,828	23,04
382,037	41,47
382,245	92,67
382,454	113,15
382,663	121,34
382,872	6,66
383,081	23,04
383,29	57,86
383,499	-17,92
383,707	96,77
383,916	104,96
384,125	115,2
384,334	104,96
384,542	172,54
384,751	104,96
384,96	23,04
385,169	-32,26
385,377	20,99
385,586	2,56
385,795	92,67
386,004	156,16
386,212	-24,06
386,421	143,87
386,63	358,91
386,838	899,57
387,047	1325,55
387,255	2136,54
387,464	3006,93
387,673	4047,3
387,881	5290,42
388,09	6390,17
388,298	7387,54
388,507	8862,07
388,715	10910,04
388,924	11911,5
389,133	11616,59
389,341	11112,79
389,55	9718,12
389,758	7133,59
389,967	4737,46
390,175	3004,88
390,383	2562,52
390,592	1890,79
390,8	1180,14
391,009	819,7
391,217	481,78
391,426	260,6
391,634	43,52
391,842	47,62
392,051	107,01
392,259	49,66
392,467	-3,58
392,676	12,8
392,884	64
393,092	-56,83
393,301	23,04
393,509	-1,54
393,717	66,05
393,925	-11,78
394,134	23,04
394,342	100,86
394,55	150,01
394,758	47,62
394,967	125,44
395,175	47,62
395,383	96,77
395,591	74,24
395,799	164,35
396,007	2,56
396,216	305,66
396,424	180,73
396,632	244,22
396,84	186,88
397,048	180,73
397,256	195,07
397,464	59,9
397,672	70,14
397,88	6,66
398,088	-17,92
398,296	49,66
398,504	27,14
398,712	18,94
398,92	25,09
399,128	-32,26
399,336	23,04
399,544	-30,21
399,752	-26,11
399,96	80,38
400,168	6,66
400,376	-9,73
400,584	125,44
400,792	43,52
401	68,09
401,207	82,43
401,415	88,57
401,623	268,8
401,831	190,97
402,039	369,15
402,247	301,56
402,454	465,4
402,662	348,67
402,87	385,53
403,078	449,02
403,285	416,25
403,493	270,84
403,701	199,16
403,909	104,96
404,116	199,16
404,324	109,05
404,532	-1,54
404,739	88,57
404,947	51,71
405,155	55,81
405,362	96,77
405,57	41,47
405,778	-30,21
405,985	8,7
406,193	-1,54
406,4	-15,87
406,608	23,04
406,816	41,47
407,023	39,42
407,231	-34,3
407,438	23,04
407,646	47,62
407,853	-9,73
408,061	-58,88
408,268	47,62
408,476	-26,11
408,683	2,56
408,89	109,05
409,098	14,85
409,305	-40,45
409,513	25,09
409,72	-1,54
409,927	8,7
410,135	76,29
410,342	16,9
410,55	131,58
410,757	43,52
410,964	2,56
411,172	61,95
411,379	55,81
411,586	72,19
411,793	-26,11
412,001	51,71
412,208	14,85
412,415	74,24
412,622	86,53
412,83	51,71
413,037	82,43
413,244	-1,54
413,451	74,24
413,658	90,62
413,866	68,09
414,073	18,94
414,28	121,34
414,487	-22,02
414,694	14,85
414,901	39,42
415,108	-1,54
415,315	49,66
415,522	96,77
415,73	-40,45
415,937	-32,26
416,144	23,04
416,351	-42,5
416,558	-26,11
416,765	-75,26
416,972	-54,78
417,179	66,05
417,386	43,52
417,593	-17,92
417,8	-71,17
418,006	80,38
418,213	49,66
418,42	47,62
418,627	49,66
418,834	-50,69
419,041	-48,64
419,248	-1,54
419,455	64
419,661	74,24
419,868	31,23
420,075	-48,64
420,282	-95,74
420,489	-46,59
420,696	-17,92
420,902	-1,54
421,109	47,62
421,316	23,04
421,523	47,62
421,729	-13,82
421,936	31,23
422,143	70,14
422,349	2,56
422,556	-9,73
422,763	-42,5
422,969	8,7
423,176	-40,45
423,383	39,42
423,589	211,45
423,796	14,85
424,002	-7,68
424,209	-11,78
424,416	-26,11
424,622	-36,35
424,829	-108,03
425,035	-7,68
425,242	35,33
425,448	-34,3
425,655	90,62
425,861	16,9
426,068	-58,88
426,274	53,76
426,481	31,23
426,687	27,14
426,894	-56,83
427,1	-15,87
427,306	33,28
427,513	0,51
427,719	-15,87
427,926	29,18
428,132	47,62
428,338	10,75
428,545	10,75
428,751	-87,55
428,957	-17,92
429,163	-101,89
429,37	66,05
429,576	23,04
429,782	31,23
429,989	4,61
430,195	10,75
430,401	8,7
430,607	12,8
430,813	-46,59
431,02	88,57
431,226	80,38
431,432	25,09
431,638	53,76
431,844	-50,69
432,05	-9,73
432,257	6,66
432,463	59,9
432,669	18,94
432,875	6,66
433,081	31,23
433,287	-17,92
433,493	-26,11
433,699	55,81
433,905	-1,54
434,111	2,56
434,317	-30,21
434,523	121,34
434,729	10,75
434,935	-46,59
435,141	72,19
435,347	6,66
435,553	-36,35
435,759	27,14
435,965	107,01
436,171	35,33
436,377	107,01
436,582	-9,73
436,788	-7,68
436,994	107,01
437,2	76,29
437,406	66,05
437,612	92,67
437,818	129,53
438,023	2,56
438,229	180,73
438,435	70,14
438,641	129,53
438,846	139,77
439,052	180,73
439,258	129,53
439,464	117,25
439,669	131,58
439,875	193,02
440,081	10,75
440,286	-34,3
440,492	-38,4
440,698	-40,45
440,903	12,8
441,109	131,58
441,314	37,38
441,52	6,66
441,726	49,66
441,931	6,66
442,137	-17,92
442,342	41,47
442,548	8,7
442,753	109,05
442,959	16,9
443,164	8,7
443,37	31,23
443,575	64
443,781	2,56
443,986	152,06
444,192	-7,68
444,397	-26,11
444,602	49,66
444,808	31,23
445,013	123,39
445,219	227,84
445,424	530,94
445,629	670,2
445,835	1128,94
446,04	1364,46
446,245	1798,63
446,451	2064,86
446,656	2351,58
446,861	3029,46
447,066	3449,29
447,272	3774,92
447,477	3779,01
447,682	3324,37
447,887	2714,07
448,093	2499,03
448,298	1786,34
448,503	1212,91
448,708	788,98
448,913	434,68
449,118	279,04
449,324	229,88
449,529	135,68
449,734	14,85
449,939	-26,11
450,144	68,09
450,349	47,62
450,554	8,7
450,759	-7,68
450,964	80,38
451,169	76,29
451,374	51,71
451,579	-5,63
451,784	23,04
451,989	23,04
452,194	74,24
452,399	-17,92
452,604	-5,63
452,809	39,42
453,014	-50,69
453,219	129,53
453,424	6,66
453,629	27,14
453,833	6,66
454,038	23,04
454,243	-26,11
454,448	-46,59
454,653	125,44
454,858	4,61
455,062	-40,45
455,267	-1,54
455,472	84,48
455,677	31,23
455,882	-97,79
456,086	57,86
456,291	55,81
456,496	-34,3
456,7	41,47
456,905	27,14
457,11	-32,26
457,314	-9,73
457,519	-46,59
457,724	-1,54
457,928	-24,06
458,133	-138,75
458,338	55,81
458,542	14,85
458,747	-56,83
458,951	53,76
459,156	98,81
459,36	-95,74
459,565	80,38
459,769	-26,11
459,974	55,81
460,178	-15,87
460,383	-58,88
460,587	-34,3
460,792	31,23
460,996	61,95
461,201	57,86
461,405	-1,54
461,61	6,66
461,814	92,67
462,018	-91,65
462,223	43,52
462,427	-13,82
462,631	64
462,836	33,28
463,04	-1,54
463,244	145,92
463,449	-24,06
463,653	104,96
463,857	27,14
464,062	109,05
464,266	-50,69
464,47	39,42
464,674	23,04
464,878	39,42
465,083	0,51
465,287	129,53
465,491	25,09
465,695	-22,02
465,899	18,94
466,104	100,86
466,308	-17,92
466,512	57,86
466,716	55,81
466,92	-24,06
467,124	92,67
467,328	4,61
467,532	121,34
467,736	45,57
467,94	92,67
468,144	70,14
468,348	90,62
468,552	90,62
468,756	64
468,96	-1,54
469,164	-1,54
469,368	41,47
469,572	14,85
469,776	244,22
469,98	174,59
470,184	326,14
470,388	535,03
470,591	498,17
470,795	631,29
470,999	709,11
471,203	770,55
471,407	840,18
471,611	858,61
471,814	725,49
472,018	563,7
472,222	561,66
472,426	580,09
472,63	266,75
472,833	305,66
473,037	160,25
473,241	80,38
473,444	107,01
473,648	422,39
473,852	31,23
474,055	-9,73
474,259	14,85
474,463	98,81
474,666	84,48
474,87	10,75
475,074	86,53
475,277	27,14
475,481	107,01
475,684	-26,11
475,888	18,94
476,091	-34,3
476,295	-77,31
476,498	-9,73
476,702	6,66
476,905	8,7
477,109	166,4
477,312	47,62
477,516	14,85
477,719	-30,21
477,923	-15,87
478,126	80,38
478,329	14,85
478,533	16,9
478,736	76,29
478,94	25,09
479,143	53,76
479,346	-9,73
479,55	113,15
479,753	2,56
479,956	-97,79
480,159	-42,5
480,363	100,86
480,566	57,86
480,769	23,04
480,972	-38,4
481,176	33,28
481,379	84,48
481,582	64
481,785	23,04
481,988	47,62
482,192	121,34
482,395	64
482,598	-9,73
482,801	123,39
483,004	16,9
483,207	-73,21
483,41	23,04
483,613	66,05
483,817	31,23
484,02	-34,3
484,223	14,85
484,426	-9,73
484,629	-30,21
484,832	64
485,035	39,42
485,238	37,38
485,441	-7,68
485,644	27,14
485,846	-1,54
486,049	-32,26
486,252	23,04
486,455	-87,55
486,658	8,7
486,861	133,63
487,064	64
487,267	-30,21
487,47	84,48
487,672	78,33
487,875	-15,87
488,078	66,05
488,281	90,62
488,484	-7,68
488,686	88,57
488,889	-26,11
489,092	-42,5
489,295	18,94
489,497	43,52
489,7	-17,92
489,903	41,47
490,105	-48,64
490,308	82,43
490,511	221,69
490,713	367,1
490,916	401,91
491,118	524,79
491,321	778,74
491,524	877,04
491,726	1141,23
491,929	1139,18
492,131	1505,77
492,334	1530,34
492,536	1423,85
492,739	1466,86
492,941	1425,9
493,144	1106,42
493,346	907,76
493,549	680,44
493,751	451,07
493,954	317,95
494,156	244,22
494,359	129,53
494,561	14,85
494,763	88,57
494,966	72,19
495,168	74,24
495,37	-36,35
495,573	90,62
495,775	84,48
495,977	64
496,18	-5,63
496,382	80,38
496,584	39,42
496,787	39,42
496,989	-13,82
497,191	-58,88
497,393	107,01
497,595	-56,83
497,798	10,75
498	64
498,202	-26,11
498,404	-7,68
498,606	33,28
498,808	162,3
499,011	51,71
499,213	121,34
499,415	121,34
499,617	225,79
499,819	524,79
500,021	883,19
500,223	1280,49
500,425	1833,44
500,627	2480,6
500,829	3043,79
501,031	3697,1
501,233	4325,82
501,435	4874,68
501,637	5317,04
501,839	5241,26
502,041	5358
502,243	4850,1
502,445	4131,26
502,647	3523,02
502,848	2718,17
503,05	1987,04
503,252	1432,04
503,454	983,54
503,656	621,05
503,858	408,06
504,059	324,09
504,261	279,04
504,463	330,23
504,665	238,08
504,867	268,8
505,068	252,41
505,27	268,8
505,472	281,08
505,673	260,6
505,875	100,86
506,077	203,26
506,278	53,76
506,48	121,34
506,682	43,52
506,883	31,23
507,085	59,9
507,287	-7,68
507,488	-26,11
507,69	33,28
507,891	-30,21
508,093	88,57
508,294	-17,92
508,496	-79,36
508,697	23,04
508,899	-73,21
509,1	-11,78
509,302	14,85
509,503	-1,54
509,705	55,81
509,906	27,14
510,108	-40,45
510,309	-9,73
510,51	2,56
510,712	-15,87
510,913	-11,78
511,114	33,28
511,316	-42,5
511,517	6,66
511,718	-89,6
511,92	6,66
512,121	16,9
512,322	14,85
512,524	51,71
512,725	-26,11
512,926	51,71
513,127	-5,63
513,329	18,94
513,53	12,8
513,731	29,18
513,932	-13,82
514,133	-9,73
514,334	-26,11
514,536	86,53
514,737	113,15
514,938	-7,68
515,139	-67,07
515,34	-17,92
515,541	121,34
515,742	-36,35
515,943	68,09
516,144	31,23
516,345	47,62
516,546	25,09
516,747	47,62
516,948	-22,02
517,149	-34,3
517,35	31,23
517,551	-89,6
517,752	23,04
517,953	35,33
518,154	-9,73
518,355	84,48
518,556	27,14
518,756	-17,92
518,957	82,43
519,158	18,94
519,359	102,91
519,56	-9,73
519,761	55,81
519,961	41,47
520,162	64
520,363	-89,6
520,564	18,94
520,764	92,67
520,965	-28,16
521,166	100,86
521,366	31,23
521,567	-17,92
521,768	33,28
521,968	-32,26
522,169	2,56
522,37	25,09
522,57	-71,17
522,771	20,99
522,972	-101,89
523,172	150,01
523,373	-34,3
523,573	-34,3
523,774	6,66
523,974	-52,74
524,175	27,14
524,375	29,18
524,576	-7,68
524,776	-81,41
524,977	-26,11
525,177	150,01
525,378	31,23
525,578	117,25
525,778	8,7
525,979	6,66
526,179	-30,21
526,38	10,75
526,58	-15,87
526,78	-65,02
526,981	49,66
527,181	59,9
527,381	-75,26
527,582	35,33
527,782	64
527,982	0,51
528,182	64
528,383	-40,45
528,583	-26,11
528,783	6,66
528,983	80,38
529,183	-50,69
529,384	39,42
529,584	164,35
529,784	168,45
529,984	51,71
530,184	-26,11
530,384	31,23
530,584	6,66
530,784	76,29
530,984	33,28
531,185	64
531,385	6,66
531,585	115,2
531,785	70,14
531,985	-38,4
532,185	-5,63
532,385	47,62
532,585	74,24
532,785	41,47
532,984	53,76
533,184	76,29
533,384	2,56
533,584	-105,98
533,784	88,57
533,984	68,09
534,184	-50,69
534,384	14,85
534,583	55,81
534,783	-42,5
534,983	2,56
535,183	-17,92
535,383	-65,02
535,582	4,61
535,782	14,85
535,982	64
536,182	64
536,381	74,24
536,581	39,42
536,781	47,62
536,98	-9,73
537,18	39,42
537,38	8,7
537,579	-11,78
537,779	39,42
537,979	-1,54
538,178	-26,11
538,378	14,85
538,577	-50,69
538,777	-7,68
538,976	47,62
539,176	51,71
539,376	31,23
539,575	-69,12
539,774	80,38
539,974	-1,54
540,173	6,66
540,373	-34,3
540,572	20,99
540,772	31,23
540,971	-54,78
541,171	84,48
541,37	23,04
541,569	64
541,769	20,99
541,968	18,94
542,167	39,42
542,367	57,86
542,566	-17,92
542,765	-34,3
542,965	-30,21
543,164	23,04
543,363	31,23
543,562	-15,87
543,761	43,52
543,961	68,09
544,16	-73,21
544,359	127,49
544,558	47,62
544,757	-11,78
544,957	78,33
545,156	111,1
545,355	-26,11
545,554	88,57
545,753	-99,84
545,952	18,94
546,151	104,96
546,35	6,66
546,549	-13,82
546,748	57,86
546,947	6,66
547,146	-75,26
547,345	115,2
547,544	-54,78
547,743	-50,69
547,942	76,29
548,141	0,51
548,34	76,29
548,539	45,57
548,738	-34,3
548,937	80,38
549,135	121,34
549,334	31,23
549,533	72,19
549,732	23,04
549,931	117,25
550,13	-58,88
550,328	-15,87
550,527	-58,88
550,726	47,62
550,925	-9,73
551,123	18,94
551,322	-9,73
551,521	104,96
551,72	-13,82
551,918	43,52
552,117	23,04
552,315	2,56
552,514	0,51
552,713	-19,97
552,911	90,62
553,11	-15,87
553,309	14,85
553,507	10,75
553,706	23,04
553,904	49,66
554,103	25,09
554,301	70,14
554,5	12,8
554,698	47,62
554,897	6,66
555,095	-73,21
555,294	-34,3
555,492	64
555,69	16,9
555,889	-65,02
556,087	-26,11
556,286	117,25
556,484	102,91
556,682	-5,63
556,881	-1,54
557,079	6,66
557,277	100,86
557,476	66,05
557,674	72,19
557,872	125,44
558,07	6,66
558,269	31,23
558,467	64
558,665	27,14
558,863	41,47
559,062	55,81
559,26	39,42
559,458	-11,78
559,656	41,47
559,854	0,51
560,052	-9,73
560,25	41,47
560,449	297,47
560,647	35,33
560,845	20,99
561,043	123,39
561,241	90,62
561,439	121,34
561,637	14,85
561,835	88,57
562,033	61,95
562,231	2,56
562,429	37,38
562,627	51,71
562,825	2,56
563,023	80,38
563,221	-38,4
563,418	104,96
563,616	96,77
563,814	104,96
564,012	16,9
564,21	74,24
564,408	68,09
564,605	10,75
564,803	-1,54
565,001	289,28
565,199	-30,21
565,397	57,86
565,594	88,57
565,792	55,81
565,99	31,23
566,188	76,29
566,385	18,94
566,583	23,04
566,781	84,48
566,978	-22,02
567,176	121,34
567,373	92,67
567,571	47,62
567,769	107,01
567,966	18,94
568,164	70,14
568,361	43,52
568,559	121,34
568,756	-32,26
568,954	113,15
569,151	88,57
569,349	139,77
569,546	74,24
569,744	39,42
569,941	131,58
570,139	80,38
570,336	39,42
570,534	57,86
570,731	55,81
570,928	29,18
571,126	156,16
571,323	115,2
571,52	-17,92
571,718	47,62
571,915	156,16
572,112	-56,83
572,31	115,2
572,507	133,63
572,704	39,42
572,901	80,38
573,099	33,28
573,296	104,96
573,493	-13,82
573,69	12,8
573,887	68,09
574,085	119,29
574,282	39,42
574,479	47,62
574,676	49,66
574,873	115,2
575,07	195,07
575,267	-22,02
575,464	51,71
575,661	137,73
575,858	74,24
576,055	-11,78
576,252	133,63
576,449	12,8
576,646	-7,68
576,843	12,8
577,04	117,25
577,237	137,73
577,434	0,51
577,631	-38,4
577,828	178,69
578,025	55,81
578,222	-7,68
578,419	129,53
578,615	27,14
578,812	8,7
579,009	-7,68
579,206	55,81
579,403	121,34
579,599	115,2
579,796	39,42
579,993	211,45
580,19	51,71
580,386	18,94
580,583	137,73
580,78	45,57
580,976	64
581,173	57,86
581,37	127,49
581,566	80,38
581,763	78,33
581,96	84,48
582,156	86,53
582,353	137,73
582,549	203,26
582,746	98,81
582,942	139,77
583,139	158,21
583,335	166,4
583,532	276,99
583,728	139,77
583,925	178,69
584,121	227,84
584,318	305,66
584,514	197,12
584,711	272,89
584,907	268,8
585,103	242,17
585,3	340,47
585,496	510,46
585,693	1210,86
585,889	4172,22
586,085	8890,74
586,281	15798,54
586,478	23711,89
586,674	31963,16
586,87	41688,96
587,067	50380,54
587,263	55951,02
587,459	59842,16
587,655	63409,72
587,851	63917,62
588,048	63663,67
588,244	60343,91
588,44	56635,04
588,636	50255,62
588,832	42923,89
589,028	36091,87
589,224	29278,27
589,42	23093,41
589,617	16544
589,813	11127,13
590,009	6551,96
590,205	4243,9
590,401	2417,12
590,597	1597,93
590,793	1085,94
590,989	795,12
591,185	631,29
591,38	588,28
591,576	416,25
591,772	375,29
591,968	287,23
592,164	209,4
592,36	213,5
592,556	186,88
592,752	190,97
592,948	121,34
593,143	129,53
593,339	61,95
593,535	115,2
593,731	133,63
593,926	115,2
594,122	129,53
594,318	125,44
594,514	111,1
594,709	64
594,905	74,24
595,101	39,42
595,296	14,85
595,492	92,67
595,688	23,04
595,883	145,92
596,079	145,92
596,275	47,62
596,47	94,72
596,666	68,09
596,861	96,77
597,057	23,04
597,252	57,86
597,448	76,29
597,643	96,77
597,839	82,43
598,034	90,62
598,23	129,53
598,425	76,29
598,621	139,77
598,816	96,77
599,011	-36,35
599,207	135,68
599,402	41,47
599,597	59,9
599,793	88,57
599,988	25,09
600,183	104,96
600,379	94,72
600,574	47,62
600,769	107,01
600,965	119,29
601,16	64
601,355	-40,45
601,55	113,15
601,745	133,63
601,941	45,57
602,136	107,01
602,331	10,75
602,526	6,66
602,721	88,57
602,916	-17,92
603,111	80,38
603,307	47,62
603,502	94,72
603,697	49,66
603,892	64
604,087	23,04
604,282	111,1
604,477	94,72
604,672	113,15
604,867	12,8
605,062	33,28
605,257	57,86
605,452	80,38
605,646	107,01
605,841	-44,54
606,036	35,33
606,231	59,9
606,426	23,04
606,621	-34,3
606,816	18,94
607,01	195,07
607,205	70,14
607,4	14,85
607,595	127,49
607,79	33,28
607,984	31,23
608,179	55,81
608,374	74,24
608,569	33,28
608,763	-5,63
608,958	-48,64
609,153	137,73
609,347	121,34
609,542	35,33
609,736	61,95
609,931	18,94
610,126	-1,54
610,32	66,05
610,515	-30,21
610,709	317,95
610,904	80,38
611,098	31,23
611,293	-5,63
611,487	80,38
611,682	23,04
611,876	64
612,071	31,23
612,265	59,9
612,46	31,23
612,654	31,23
612,848	31,23
613,043	55,81
613,237	-9,73
613,432	-1,54
613,626	-7,68
613,82	55,81
614,014	143,87
614,209	82,43
614,403	18,94
614,597	39,42
614,792	59,9
614,986	39,42
615,18	113,15
615,374	41,47
615,568	23,04
615,763	104,96
615,957	61,95
616,151	109,05
616,345	59,9
616,539	23,04
616,733	86,53
616,927	74,24
617,121	82,43
617,316	100,86
617,51	113,15
617,704	-15,87
617,898	113,15
618,092	27,14
618,286	-13,82
618,48	-1,54
618,674	147,97
618,868	-1,54
619,061	-77,31
619,255	100,86
619,449	49,66
619,643	8,7
619,837	129,53
620,031	55,81
620,225	121,34
620,419	-5,63
620,612	88,57
620,806	64
621	66,05
621,194	-71,17
621,388	10,75
621,581	80,38
621,775	64
621,969	47,62
622,162	55,81
622,356	10,75
622,55	35,33
622,743	74,24
622,937	41,47
623,131	64
623,324	231,93
623,518	-32,26
623,712	-34,3
623,905	-3,58
624,099	135,68
624,292	68,09
624,486	72,19
624,679	-1,54
624,873	8,7
625,066	25,09
625,26	12,8
625,453	6,66
625,647	100,86
625,84	76,29
626,034	31,23
626,227	25,09
626,42	66,05
626,614	47,62
626,807	74,24
627	66,05
627,194	25,09
627,387	4,61
627,58	6,66
627,774	55,81
627,967	88,57
628,16	66,05
628,353	98,81
628,547	-9,73
628,74	150,01
628,933	-3,58
629,126	129,53
629,319	33,28
629,513	66,05
629,706	8,7
629,899	68,09
630,092	-32,26
630,285	41,47
630,478	57,86
630,671	-5,63
630,864	68,09
631,057	27,14
631,25	90,62
631,443	-1,54
631,636	0,51
631,829	205,31
632,022	115,2
632,215	76,29
632,408	72,19
632,601	90,62
632,794	39,42
632,987	41,47
633,18	-58,88
633,373	131,58
633,566	-7,68
633,758	-103,93
633,951	55,81
634,144	-42,5
634,337	-24,06
634,53	39,42
634,722	74,24
634,915	33,28
635,108	23,04
635,301	41,47
635,493	72,19
635,686	170,49
635,879	39,42
636,071	-75,26
636,264	57,86
636,457	123,39
636,649	-85,5
636,842	55,81
637,034	166,4
637,227	86,53
637,42	104,96
637,612	-15,87
637,805	33,28
637,997	96,77
638,19	-1,54
638,382	14,85
638,575	-50,69
638,767	88,57
638,96	96,77
639,152	10,75
639,344	137,73
639,537	0,51
639,729	-9,73
639,922	80,38
640,114	31,23
640,306	45,57
640,499	96,77
640,691	27,14
640,883	6,66
641,075	59,9
641,268	115,2
641,46	-1,54
641,652	25,09
641,844	-9,73
642,037	-13,82
642,229	98,81
642,421	96,77
642,613	51,71
642,805	39,42
642,998	25,09
643,19	33,28
643,382	76,29
643,574	172,54
643,766	-32,26
643,958	39,42
644,15	66,05
644,342	57,86
644,534	86,53
644,726	-5,63
644,918	53,76
645,11	-42,5
645,302	-17,92
645,494	39,42
645,686	31,23
645,878	-75,26
646,07	80,38
646,262	-50,69
646,453	33,28
646,645	23,04
646,837	70,14
647,029	64
647,221	76,29
647,413	41,47
647,604	47,62
647,796	12,8
647,988	90,62
648,18	14,85
648,371	59,9
648,563	27,14
648,755	109,05
648,947	14,85
649,138	-15,87
649,33	72,19
649,521	-5,63
649,713	59,9
649,905	27,14
650,096	82,43
650,288	96,77
650,479	6,66
650,671	82,43
650,863	66,05
651,054	74,24
651,246	88,57
651,437	33,28
651,629	92,67
651,82	88,57
652,011	55,81
652,203	76,29
652,394	80,38
652,586	-17,92
652,777	31,23
652,968	-46,59
653,16	-24,06
653,351	-3,58
653,542	162,3
653,734	47,62
653,925	-97,79
654,116	92,67
654,308	51,71
654,499	16,9
654,69	-26,11
654,881	113,15
655,073	-50,69
655,264	147,97
655,455	49,66
655,646	-9,73
655,837	100,86
656,028	123,39
656,219	31,23
656,411	57,86
656,602	-26,11
656,793	23,04
656,984	18,94
657,175	43,52
657,366	78,33
657,557	94,72
657,748	57,86
657,939	51,71
658,13	47,62
658,321	98,81
658,512	-17,92
658,703	137,73
658,894	96,77
659,084	14,85
659,275	47,62
659,466	195,07
659,657	145,92
659,848	86,53
660,039	41,47
660,23	18,94
660,42	-24,06
660,611	35,33
660,802	-5,63
660,993	49,66
661,183	-48,64
661,374	-85,5
661,565	197,12
661,755	59,9
661,946	57,86
662,137	113,15
662,327	33,28
662,518	37,38
662,709	8,7
662,899	16,9
663,09	55,81
663,28	74,24
663,471	-9,73
663,662	94,72
663,852	49,66
664,043	-1,54
664,233	33,28
664,424	43,52
664,614	-52,74
664,804	14,85
664,995	49,66
665,185	127,49
665,376	121,34
665,566	129,53
665,756	64
665,947	109,05
666,137	203,26
666,328	1081,84
666,518	2347,48
666,708	4080,07
666,898	5913
667,089	8149,38
667,279	9976,17
667,469	11762
667,659	12783,93
667,85	12978,49
668,04	13074,74
668,23	12839,23
668,42	12368,2
668,61	11624,78
668,8	10615,13
668,991	9400,69
669,181	8159,62
669,371	7010,71
669,561	6134,18
669,751	5233,07
669,941	4110,79
670,131	3236,3
670,321	2243,04
670,511	1532,39
670,701	989,68
670,891	590,33
671,081	397,82
671,271	350,71
671,461	172,54
671,651	147,97
671,841	172,54
672,03	123,39
672,22	125,44
672,41	137,73
672,6	205,31
672,79	96,77
672,98	-9,73
673,169	76,29
673,359	-17,92
673,549	55,81
673,739	-34,3
673,928	53,76
674,118	55,81
674,308	-42,5
674,497	113,15
674,687	2,56
674,877	-5,63
675,066	-7,68
675,256	68,09
675,446	-1,54
675,635	82,43
675,825	18,94
676,014	25,09
676,204	84,48
676,393	162,3
676,583	-5,63
676,772	121,34
676,962	-50,69
677,151	80,38
677,341	23,04
677,53	-13,82
677,72	45,57
677,909	39,42
678,099	-34,3
678,288	-19,97
678,477	14,85
678,667	90,62
678,856	113,15
679,045	96,77
679,235	154,11
679,424	55,81
679,613	137,73
679,802	-9,73
679,992	31,23
680,181	-17,92
680,37	121,34
680,559	51,71
680,748	90,62
680,938	107,01
681,127	43,52
681,316	23,04
681,505	8,7
681,694	-28,16
681,883	55,81
682,072	-26,11
682,261	23,04
682,45	-26,11
682,639	-7,68
682,828	90,62
683,017	80,38
683,206	80,38
683,395	39,42
683,584	47,62
683,773	66,05
683,962	-30,21
684,151	-60,93
684,34	123,39
684,529	23,04
684,718	80,38
684,907	-24,06
685,095	55,81
685,284	61,95
685,473	14,85
685,662	31,23
685,851	121,34
686,039	66,05
686,228	55,81
686,417	-42,5
686,606	172,54
686,794	72,19
686,983	-46,59
687,172	-13,82
687,36	4,61
687,549	-38,4
687,738	23,04
687,926	6,66
688,115	12,8
688,303	6,66
688,492	131,58
688,68	-26,11
688,869	-83,45
689,057	-26,11
689,246	6,66
689,434	64
689,623	-13,82
689,811	59,9
690	-1,54
690,188	20,99
690,377	-30,21
690,565	98,81
690,753	51,71
690,942	33,28
691,13	47,62
691,318	88,57
691,507	-1,54
691,695	2,56
691,883	-32,26
692,072	-11,78
692,26	141,82
692,448	125,44
692,636	14,85
692,824	-69,12
693,013	68,09
693,201	80,38
693,389	-7,68
693,577	43,52
693,765	82,43
693,953	57,86
694,141	4,61
694,329	51,71
694,518	16,9
694,706	-1,54
694,894	41,47
695,082	68,09
695,27	16,9
695,458	25,09
695,646	16,9
695,834	107,01
696,022	49,66
696,209	57,86
696,397	74,24
696,585	41,47
696,773	74,24
696,961	57,86
697,149	-30,21
697,337	33,28
697,525	0,51
697,712	20,99
697,9	49,66
698,088	39,42
698,276	111,1
698,463	64
698,651	55,81
698,839	-7,68
699,027	-17,92
699,214	66,05
699,402	14,85
699,59	64
699,777	96,77
699,965	72,19
700,152	-22,02
700,34	-5,63
700,528	2,56
700,715	8,7
700,903	-42,5
701,09	49,66
701,278	41,47
701,465	66,05
701,653	37,38
701,84	-30,21
702,028	109,05
702,215	57,86
702,402	76,29
702,59	92,67
702,777	94,72
702,965	92,67
703,152	70,14
703,339	141,82
703,527	109,05
703,714	129,53
703,901	96,77
704,088	154,11
704,276	158,21
704,463	168,45
704,65	162,3
704,837	317,95
705,025	946,67
705,212	3019,22
705,399	6508,96
705,586	9834,86
705,773	14061,87
705,96	18016,49
706,147	21358,78
706,335	23736,47
706,522	24496,27
706,709	24606,86
706,896	24062,1
707,083	22804,64
707,27	21551,29
707,457	19499,22
707,644	17651,95
707,831	15624,47
708,018	13474,1
708,205	11444,56
708,392	9951,59
708,578	8380,8
708,765	7004,57
708,952	5788,07
709,139	4432,32
709,326	2955,73
709,513	2224,61
709,7	1403,37
709,886	940,53
710,073	596,47
710,26	514,55
710,447	350,71
710,633	293,37
710,82	256,51
711,007	70,14
711,193	129,53
711,38	145,92
711,567	102,91
711,753	35,33
711,94	113,15
712,127	117,25
712,313	109,05
712,5	6,66
712,686	82,43
712,873	90,62
713,059	-7,68
713,246	55,81
713,432	92,67
713,619	-7,68
713,805	80,38
713,992	121,34
714,178	-24,06
714,365	27,14
714,551	129,53
714,737	76,29
714,924	-44,54
715,11	72,19
715,297	33,28
715,483	0,51
715,669	-13,82
715,855	64
716,042	111,1
716,228	-9,73
716,414	78,33
716,6	37,38
716,787	8,7
716,973	-40,45
717,159	61,95
717,345	47,62
717,531	-50,69
717,718	72,19
717,904	2,56
718,09	-24,06
718,276	0,51
718,462	64
718,648	-32,26
718,834	18,94
719,02	76,29
719,206	35,33
719,392	-26,11
719,578	-40,45
719,764	31,23
719,95	2,56
720,136	158,21
720,322	39,42
720,508	39,42
720,694	55,81
720,879	-32,26
721,065	86,53
721,251	45,57
721,437	0,51
721,623	39,42
721,809	107,01
721,994	-56,83
722,18	-24,06
722,366	27,14
722,552	-13,82
722,737	-32,26
722,923	41,47
723,109	51,71
723,294	8,7
723,48	51,71
723,666	133,63
723,851	-34,3
724,037	164,35
724,222	84,48
724,408	72,19
724,593	76,29
724,779	-71,17
724,965	47,62
725,15	-7,68
725,336	-32,26
725,521	39,42
725,706	6,66
725,892	55,81
726,077	23,04
726,263	10,75
726,448	129,53
726,634	125,44
726,819	301,56
727,004	520,7
727,19	850,42
727,375	1407,47
727,56	1630,7
727,745	1894,88
727,931	2304,48
728,116	2396,64
728,301	2496,99
728,486	2312,67
728,672	2218,46
728,857	2068,96
729,042	1884,64
729,227	1792,48
729,412	1534,44
729,597	1260,01
729,783	1092,08
729,968	969,2
730,153	846,32
730,338	647,67
730,523	508,41
730,708	471,54
730,893	393,72
731,078	238,08
731,263	180,73
731,448	72,19
731,633	84,48
731,818	0,51
732,003	47,62
732,187	14,85
732,372	10,75
732,557	49,66
732,742	-15,87
732,927	-40,45
733,112	72,19
733,297	8,7
733,481	6,66
733,666	107,01
733,851	39,42
734,036	8,7
734,22	-65,02
734,405	141,82
734,59	27,14
734,774	10,75
734,959	35,33
735,144	14,85
735,328	-1,54
735,513	-79,36
735,698	31,23
735,882	74,24
736,067	55,81
736,251	25,09
736,436	-17,92
736,62	-13,82
736,805	-17,92
736,989	84,48
737,174	-124,41
737,358	-30,21
737,543	-9,73
737,727	-26,11
737,911	90,62
738,096	0,51
738,28	154,11
738,465	29,18
738,649	29,18
738,833	47,62
739,018	6,66
739,202	-73,21
739,386	-26,11
739,57	-42,5
739,755	-26,11
739,939	18,94
740,123	-38,4
740,307	100,86
740,491	31,23
740,676	-13,82
740,86	51,71
741,044	68,09
741,228	-17,92
741,412	-40,45
741,596	-30,21
741,78	-38,4
741,964	64
742,148	-62,98
742,332	-36,35
742,516	-120,32
742,7	0,51
742,884	-32,26
743,068	72,19
743,252	64
743,436	18,94
743,62	-71,17
743,804	178,69
743,988	53,76
744,172	59,9
744,356	-3,58
744,539	-5,63
744,723	-50,69
744,907	-17,92
745,091	0,51
745,275	39,42
745,458	-1,54
745,642	-54,78
745,826	-5,63
746,009	150,01
746,193	80,38
746,377	39,42
746,56	39,42
746,744	121,34
746,928	6,66
747,111	-9,73
747,295	68,09
747,478	43,52
747,662	2,56
747,846	-9,73
748,029	59,9
748,213	41,47
748,396	51,71
748,58	49,66
748,763	-75,26
748,946	-62,98
749,13	8,7
749,313	-5,63
749,497	117,25
749,68	39,42
749,863	84,48
750,047	-34,3
750,23	31,23
750,413	96,77
750,597	25,09
750,78	-34,3
750,963	92,67
751,146	-17,92
751,33	59,9
751,513	29,18
751,696	-24,06
751,879	96,77
752,062	14,85
752,246	-58,88
752,429	80,38
752,612	-13,82
752,795	55,81
752,978	-1,54
753,161	-50,69
753,344	14,85
753,527	0,51
753,71	4,61
753,893	53,76
754,076	-36,35
754,259	-1,54
754,442	53,76
754,625	-42,5
754,808	129,53
754,991	25,09
755,174	-13,82
755,357	16,9
755,539	41,47
755,722	55,81
755,905	-58,88
756,088	80,38
756,271	-42,5
756,453	107,01
756,636	-65,02
756,819	31,23
757,002	-17,92
757,184	27,14
757,367	80,38
757,55	25,09
757,732	125,44
757,915	-34,3
758,098	-30,21
758,28	41,47
758,463	25,09
758,645	-65,02
758,828	150,01
759,011	-5,63
759,193	57,86
759,376	25,09
759,558	-32,26
759,741	-9,73
759,923	-24,06
760,105	31,23
760,288	-7,68
760,47	-67,07
760,653	-54,78
760,835	-24,06
761,017	-30,21
761,2	-99,84
761,382	66,05
761,564	23,04
761,747	76,29
761,929	-5,63
762,111	45,57
762,294	2,56
762,476	109,05
762,658	66,05
762,84	115,2
763,022	59,9
763,205	-24,06
763,387	139,77
763,569	14,85
763,751	-130,56
763,933	-56,83
764,115	-22,02
764,297	84,48
764,479	33,28
764,661	-99,84
764,843	76,29
765,025	72,19
765,207	88,57
765,389	90,62
765,571	-56,83
765,753	53,76
765,935	-56,83
766,117	6,66
766,299	117,25
766,481	150,01
766,663	-42,5
766,845	23,04
767,026	57,86
767,208	111,1
767,39	-15,87
767,572	-69,12
767,753	94,72
767,935	-9,73
768,117	6,66
768,299	64
768,48	0,51
768,662	-40,45
768,844	-22,02
769,025	139,77
769,207	-5,63
769,389	-62,98
769,57	80,38
769,752	41,47
769,933	-44,54
770,115	43,52
770,296	-38,4
770,478	137,73
770,659	-44,54
770,841	152,06
771,022	113,15
771,204	104,96
771,385	14,85
771,567	121,34
771,748	137,73
771,929	10,75
772,111	6,66
772,292	145,92
772,473	6,66
772,655	35,33
772,836	35,33
773,017	96,77
773,199	-9,73
773,38	10,75
773,561	39,42
773,742	57,86
773,923	18,94
774,105	64
774,286	66,05
774,467	-42,5
774,648	4,61
774,829	31,23
775,01	-40,45
775,191	-38,4
775,372	16,9
775,553	-42,5
775,734	-40,45
775,915	31,23
776,096	0,51
776,277	8,7
776,458	18,94
776,639	39,42
776,82	88,57
777,001	0,51
777,182	-73,21
777,363	6,66
777,544	72,19
777,725	88,57
777,906	8,7
778,086	72,19
778,267	55,81
778,448	-13,82
778,629	-17,92
778,809	33,28
778,99	14,85
779,171	2,56
779,352	2,56
779,532	-58,88
779,713	59,9
779,894	-50,69
780,074	139,77
780,255	61,95
780,435	25,09
780,616	72,19
780,797	92,67
780,977	-24,06
781,158	-22,02
781,338	-7,68
781,519	55,81
781,699	94,72
781,88	-34,3
782,06	18,94
782,241	-71,17
782,421	-97,79
782,601	6,66
782,782	31,23
782,962	64
783,142	-56,83
783,323	-15,87
783,503	66,05
783,683	72,19
783,864	-9,73
784,044	10,75
784,224	90,62
784,404	-7,68
784,585	113,15
784,765	-34,3
784,945	57,86
785,125	39,42
785,305	127,49
785,485	170,49
785,666	47,62
785,846	18,94
786,026	6,66
786,206	-140,8
786,386	31,23
786,566	-32,26
786,746	-40,45
786,926	68,09
787,106	-75,26
787,286	-62,98
787,466	31,23
787,646	59,9
787,826	57,86
788,006	143,87
788,185	14,85
788,365	-71,17
788,545	84,48
788,725	10,75
788,905	8,7
789,085	-34,3
789,264	-24,06
789,444	35,33
789,624	-32,26
789,804	23,04
789,983	76,29
790,163	-46,59
790,343	-38,4
790,522	-26,11
790,702	-50,69
790,882	-24,06
791,061	182,78
791,241	-17,92
791,42	49,66
791,6	115,2
791,78	23,04
791,959	-58,88
792,139	-91,65
792,318	-1,54
792,498	111,1
792,677	68,09
792,856	-22,02
793,036	-46,59
793,215	-9,73
793,395	6,66
793,574	-9,73
793,753	-34,3
793,933	147,97
794,112	64
794,291	-7,68
794,471	199,16
794,65	-15,87
794,829	0,51
795,008	41,47
795,188	88,57
795,367	96,77
795,546	84,48
795,725	-11,78
795,904	33,28
796,084	23,04
796,263	107,01
796,442	25,09
796,621	-1,54
796,8	121,34
796,979	119,29
797,158	-67,07
797,337	-9,73
797,516	-15,87
797,695	72,19
797,874	82,43
798,053	90,62
798,232	-58,88
798,411	-65,02
798,59	-19,97
798,769	-40,45
798,947	10,75
799,126	8,7
799,305	74,24
799,484	104,96
799,663	29,18
799,842	-48,64
800,02	53,76
800,199	-73,21
800,378	55,81
800,557	0,51
800,735	-13,82
800,914	-42,5
801,093	-13,82
801,271	31,23
801,45	70,14
801,628	115,2
801,807	-62,98
801,986	27,14
802,164	33,28
802,343	-50,69
802,521	-22,02
802,7	72,19
802,878	49,66
803,057	39,42
803,235	-9,73
803,414	82,43
803,592	-28,16
803,771	25,09
803,949	39,42
804,127	14,85
804,306	14,85
804,484	-32,26
804,662	-67,07
804,841	-79,36
805,019	-19,97
805,197	59,9
805,375	10,75
805,554	-34,3
805,732	16,9
805,91	12,8
806,088	-73,21
806,266	-17,92
806,445	6,66
806,623	47,62
806,801	10,75
806,979	64
807,157	64
807,335	-50,69
807,513	135,68
807,691	-13,82
807,869	-69,12
808,047	-1,54
808,225	-83,45
808,403	-24,06
808,581	-99,84
808,759	137,73
808,937	49,66
809,115	104,96
809,293	51,71
809,471	-15,87
809,649	82,43
809,826	39,42
810,004	-75,26
810,182	-38,4
810,36	-17,92
810,538	27,14
810,715	31,23
810,893	-50,69
811,071	43,52
811,248	64
811,426	57,86
811,604	64
811,781	90,62
811,959	39,42
812,137	10,75
812,314	-26,11
812,492	-15,87
812,669	23,04
812,847	-54,78
813,024	29,18
813,202	84,48
813,379	23,04
813,557	-7,68
813,734	96,77
813,912	72,19
814,089	18,94
814,267	104,96
814,444	2,56
814,621	27,14
814,799	-130,56
814,976	82,43
815,153	90,62
815,331	-48,64
815,508	57,86
815,685	-26,11
815,862	47,62
816,04	-56,83
816,217	-67,07
816,394	6,66
816,571	37,38
816,748	154,11
816,926	129,53
817,103	260,6
817,28	-9,73
817,457	43,52
817,634	113,15
817,811	23,04
817,988	-24,06
818,165	25,09
818,342	27,14
818,519	35,33
818,696	8,7
818,873	-26,11
819,05	33,28
819,227	-9,73
819,404	14,85
819,581	31,23
819,758	-9,73
819,934	47,62
820,111	-17,92
820,288	14,85
820,465	137,73
820,642	68,09
820,818	35,33
820,995	-118,27
821,172	100,86
821,349	14,85
821,525	-42,5
821,702	23,04
821,879	-34,3
822,055	55,81
822,232	-3,58
822,409	80,38
822,585	135,68
822,762	8,7
822,938	18,94
823,115	43,52
823,291	59,9
823,468	84,48
823,644	66,05
823,821	0,51
823,997	-17,92
824,174	-52,74
824,35	-1,54
824,527	41,47
824,703	16,9
824,879	0,51
825,056	31,23
825,232	107,01
825,408	4,61
825,585	-50,69
825,761	-56,83
825,937	-42,5
826,113	47,62
826,29	121,34
826,466	-75,26
826,642	391,67
826,818	-9,73
826,994	6,66
827,17	-24,06
827,347	-9,73
827,523	-69,12
827,699	-44,54
827,875	82,43
828,051	39,42
828,227	23,04
828,403	16,9
828,579	88,57
828,755	8,7
828,931	-56,83
829,107	64
829,283	64
829,459	-13,82
829,635	-91,65
829,811	53,76
829,986	31,23
830,162	-24,06
830,338	64
830,514	6,66
830,69	2,56
830,865	29,18
831,041	-17,92
831,217	-34,3
831,393	-32,26
831,568	25,09
831,744	-22,02
831,92	-34,3
832,095	-48,64
832,271	-26,11
832,447	-48,64
832,622	152,06
832,798	23,04
832,973	6,66
833,149	-15,87
833,325	27,14
833,5	57,86
833,676	-9,73
833,851	4,61
834,027	-65,02
834,202	66,05
834,377	43,52
834,553	2,56
834,728	-5,63
834,904	39,42
835,079	-50,69
835,254	-32,26
835,43	-26,11
835,605	72,19
835,78	-62,98
835,955	-1,54
836,131	-36,35
836,306	-28,16
836,481	-22,02
836,656	47,62
836,832	14,85
837,007	-87,55
837,182	-46,59
837,357	47,62
837,532	-48,64
837,707	0,51
837,882	-42,5
838,057	8,7
838,232	96,77
838,407	41,47
838,582	-17,92
838,757	76,29
838,932	64
839,107	0,51
839,282	-75,26
839,457	72,19
839,632	39,42
839,807	39,42
839,982	-17,92
840,157	-26,11
840,332	20,99
840,506	31,23
840,681	35,33
840,856	2,56
841,031	29,18
841,205	-17,92
841,38	-5,63
841,555	111,1
841,73	-17,92
841,904	-28,16
842,079	10,75
842,254	8,7
842,428	61,95
842,603	-42,5
842,777	-65,02
842,952	61,95
843,126	-32,26
843,301	107,01
843,476	29,18
843,65	80,38
843,825	82,43
843,999	76,29
844,173	-58,88
844,348	8,7
844,522	76,29
844,697	47,62
844,871	-13,82
845,045	72,19
845,22	-34,3
845,394	64
845,568	39,42
845,743	86,53
845,917	-42,5
846,091	18,94
846,265	25,09
846,44	47,62
846,614	-5,63
846,788	0,51
846,962	-56,83
847,136	33,28
847,31	-22,02
847,485	76,29
847,659	2,56
847,833	16,9
848,007	53,76
848,181	37,38
848,355	6,66
848,529	70,14
848,703	78,33
848,877	-42,5
849,051	55,81
849,225	6,66
849,399	-26,11
849,573	-26,11
849,746	6,66
849,92	-17,92
850,094	55,81
850,268	-44,54
850,442	117,25
850,616	-7,68
850,789	-50,69
850,963	8,7
851,137	-118,27
851,311	125,44
851,484	6,66
851,658	39,42
851,832	55,81
852,005	-50,69
852,179	-15,87
852,352	-62,98
852,526	66,05
852,7	25,09
852,873	-58,88
853,047	96,77
853,22	14,85
853,394	41,47
853,567	68,09
853,741	-48,64
853,914	33,28
854,088	-15,87
854,261	59,9
854,434	-38,4
854,608	23,04
854,781	-34,3
854,955	-58,88
855,128	57,86
855,301	-17,92
855,475	35,33
855,648	-89,6
855,821	39,42
855,994	82,43
856,168	41,47
856,341	66,05
856,514	-9,73
856,687	51,71
856,86	39,42
857,033	-26,11
857,207	-7,68
857,38	-24,06
857,553	47,62
857,726	27,14
857,899	41,47
858,072	-26,11
858,245	-56,83
858,418	27,14
858,591	-19,97
858,764	33,28
858,937	70,14
859,11	2,56
859,283	-13,82
859,455	33,28
859,628	-17,92
859,801	18,94
859,974	145,92
860,147	-15,87
860,32	98,81
860,492	41,47
860,665	-75,26
860,838	53,76
861,011	10,75
861,183	74,24
861,356	41,47
861,529	115,2
861,701	41,47
861,874	-42,5
862,047	137,73
862,219	-17,92
862,392	57,86
862,564	18,94
862,737	80,38
862,909	90,62
863,082	-7,68
863,254	41,47
863,427	6,66
863,599	68,09
863,772	-40,45
863,944	33,28
864,117	-46,59
864,289	66,05
864,461	-9,73
864,634	61,95
864,806	-89,6
864,978	55,81
865,151	6,66
865,323	96,77
865,495	80,38
865,667	-17,92
865,84	96,77
866,012	-9,73
866,184	141,82
866,356	-56,83
866,528	-73,21
866,7	61,95
866,873	-67,07
867,045	-38,4
867,217	-75,26
867,389	37,38
867,561	35,33
867,733	-1,54
867,905	-17,92
868,077	90,62
868,249	-42,5
868,421	49,66
868,593	-52,74
868,765	137,73
868,936	-5,63
869,108	25,09
869,28	59,9
869,452	-15,87
869,624	-89,6
869,796	53,76
869,968	35,33
870,139	100,86
870,311	-13,82
870,483	96,77
870,654	-34,3
870,826	66,05
870,998	-3,58
871,17	-26,11
871,341	-1,54
871,513	23,04
871,684	-17,92
871,856	37,38
872,028	41,47
872,199	-48,64
872,371	47,62
872,542	8,7
872,714	-56,83
872,885	133,63
873,057	-40,45
873,228	-65,02
873,4	8,7
873,571	55,81
873,742	-75,26
873,914	29,18
874,085	-42,5
874,256	-1,54
874,428	-75,26
874,599	-58,88
874,77	39,42
874,942	16,9
875,113	39,42
875,284	-56,83
875,455	-91,65
875,626	39,42
875,798	39,42
875,969	-9,73
876,14	14,85
876,311	39,42
876,482	-5,63
876,653	80,38
876,824	57,86
876,995	74,24
877,166	8,7
877,337	76,29
877,508	66,05
877,679	39,42
877,85	8,7
878,021	33,28
878,192	115,2
878,363	-34,3
878,534	-26,11
878,705	-75,26
878,876	-34,3
879,047	-17,92
879,217	-50,69
879,388	45,57
879,559	23,04
879,73	68,09
879,9	27,14
880,071	14,85
880,242	80,38
880,413	39,42
880,583	23,04
880,754	109,05
880,924	23,04
881,095	-62,98
881,266	2,56
881,436	41,47
881,607	121,34
881,777	82,43
881,948	-91,65
882,118	-1,54
882,289	-24,06
882,459	-32,26
882,63	6,66
882,8	47,62
882,971	76,29
883,141	55,81
883,311	78,33
883,482	57,86
883,652	57,86
883,822	14,85
883,993	-38,4
884,163	47,62
884,333	31,23
884,504	25,09
884,674	-15,87
884,844	31,23
885,014	-22,02
885,184	-13,82
885,355	-5,63
885,525	-44,54
885,695	109,05
885,865	137,73
886,035	8,7
886,205	-50,69
886,375	74,24
886,545	61,95
886,715	-91,65
886,885	18,94
887,055	59,9
887,225	-5,63
887,395	-24,06
887,565	80,38
887,735	74,24
887,905	-5,63
888,075	-58,88
888,244	41,47
888,414	-13,82
888,584	-1,54
888,754	-9,73
888,924	57,86
889,093	203,26
889,263	66,05
889,433	-58,88
889,603	37,38
889,772	57,86
889,942	49,66
890,111	127,49
890,281	-3,58
890,451	-9,73
890,62	57,86
890,79	-50,69
890,959	37,38
891,129	-42,5
891,298	-38,4
891,468	-73,21
891,637	23,04
891,807	-83,45
891,976	104,96
892,146	14,85
892,315	78,33
892,485	64
892,654	47,62
892,823	31,23
892,993	-34,3
893,162	31,23
893,331	10,75
893,501	88,57
893,67	23,04
893,839	-58,88
894,008	6,66
894,177	-1,54
894,347	23,04
894,516	145,92
894,685	64
894,854	-15,87
895,023	55,81
895,192	-7,68
