Data from he_USB4F104161__36__11-53-38-864.txt Node

Date: Tue Apr 14 11:53:38 EDT 2026
User: LaboPhy
Spectrometer: USB4F10416
Trigger mode: 4
Integration Time (sec): 1,000000E-1
Scans to average: 1
Electric dark correction enabled: true
Nonlinearity correction enabled: false
Boxcar width: 0
XAxis mode: Wavelengths
Number of Pixels in Spectrum: 3648
>>>>>Begin Spectral Data<<<<<
177,847	-196,78
178,066	-196,78
178,284	-196,78
178,502	-137,38
178,72	-137,38
178,939	42,84
179,157	-0,17
179,375	-30,89
179,593	55,12
179,812	46,93
180,03	46,93
180,248	16,21
180,466	-41,13
180,685	24,4
180,903	-82,09
181,121	-59,56
181,339	-18,6
181,557	24,4
181,775	34,64
181,994	-39,08
182,212	65,36
182,43	38,74
182,648	16,21
182,866	24,4
183,084	85,84
183,302	-16,55
183,52	-0,17
183,739	81,75
183,957	57,17
184,175	-41,13
184,393	-26,79
184,611	48,98
184,829	81,75
185,047	-6,31
185,265	143,19
185,483	-88,23
185,701	28,5
185,919	34,64
186,137	53,08
186,355	65,36
186,573	22,36
186,791	167,76
187,009	73,56
187,227	77,65
187,445	77,65
187,663	24,4
187,881	-12,46
188,098	98,13
188,316	40,79
188,534	116,56
188,752	79,7
188,97	-28,84
189,188	-0,17
189,406	61,27
189,624	91,99
189,841	40,79
190,059	-45,23
190,277	-14,51
190,495	8,02
190,713	132,95
190,931	89,94
191,148	65,36
191,366	-16,55
191,584	65,36
191,802	24,4
192,019	130,9
192,237	110,42
192,455	59,22
192,673	110,42
192,89	16,21
193,108	12,12
193,326	24,4
193,543	81,75
193,761	-49,32
193,979	46,93
194,196	-0,17
194,414	46,93
194,632	110,42
194,849	-14,51
195,067	-22,7
195,285	-0,17
195,502	-51,37
195,72	1,88
195,937	65,36
196,155	-0,17
196,373	-37,03
196,59	-20,65
196,808	8,02
197,025	83,8
197,243	206,67
197,46	83,8
197,678	98,13
197,895	-14,51
198,113	16,21
198,33	-57,51
198,548	18,26
198,765	24,4
198,983	106,32
199,2	26,45
199,418	73,56
199,635	61,27
199,853	-14,51
200,07	16,21
200,288	48,98
200,505	-12,46
200,722	114,52
200,94	42,84
201,157	83,8
201,375	110,42
201,592	-71,85
201,809	48,98
202,027	102,23
202,244	40,79
202,461	44,88
202,679	122,71
202,896	61,27
203,113	-49,32
203,331	73,56
203,548	14,17
203,765	-22,7
203,982	65,36
204,2	3,93
204,417	-20,65
204,634	247,63
204,851	65,36
205,069	57,17
205,286	63,32
205,503	77,65
205,72	-98,47
205,937	122,71
206,155	10,07
206,372	141,14
206,589	-39,08
206,806	26,45
207,023	67,41
207,24	51,03
207,458	-32,94
207,675	-14,51
207,892	61,27
208,109	-30,89
208,326	-16,55
208,543	32,6
208,76	51,03
208,977	91,99
209,194	51,03
209,411	53,08
209,628	-39,08
209,845	73,56
210,062	108,37
210,279	-49,32
210,496	-55,47
210,713	-39,08
210,93	24,4
211,147	130,9
211,364	22,36
211,581	36,69
211,798	75,6
212,015	-0,17
212,232	8,02
212,449	89,94
212,666	69,46
212,883	-45,23
213,1	32,6
213,317	34,64
213,533	61,27
213,75	8,02
213,967	5,97
214,184	-12,46
214,401	-8,36
214,618	12,12
214,835	-0,17
215,051	28,5
215,268	40,79
215,485	36,69
215,702	-8,36
215,919	10,07
216,135	159,57
216,352	16,21
216,569	28,5
216,786	100,18
217,002	20,31
217,219	67,41
217,436	-34,99
217,652	-14,51
217,869	8,02
218,086	124,76
218,302	22,36
218,519	59,22
218,736	61,27
218,952	12,12
219,169	-61,61
219,386	32,6
219,602	-8,36
219,819	18,26
220,036	-41,13
220,252	26,45
220,469	-98,47
220,685	-0,17
220,902	42,84
221,118	-39,08
221,335	12,12
221,552	8,02
221,768	12,12
221,985	20,31
222,201	34,64
222,418	120,66
222,634	-6,31
222,851	51,03
223,067	32,6
223,284	-0,17
223,5	100,18
223,716	32,6
223,933	130,9
224,149	-0,17
224,366	10,07
224,582	40,79
224,799	-22,7
225,015	55,12
225,231	22,36
225,448	5,97
225,664	83,8
225,88	20,31
226,097	65,36
226,313	-55,47
226,529	57,17
226,746	57,17
226,962	94,04
227,178	26,45
227,395	-30,89
227,611	24,4
227,827	-16,55
228,044	98,13
228,26	81,75
228,476	44,88
228,692	75,6
228,909	34,64
229,125	61,27
229,341	40,79
229,557	44,88
229,773	-16,55
229,99	36,69
230,206	-8,36
230,422	24,4
230,638	-139,43
230,854	69,46
231,07	-88,23
231,286	147,28
231,503	57,17
231,719	-0,17
231,935	81,75
232,151	-14,51
232,367	106,32
232,583	36,69
232,799	34,64
233,015	73,56
233,231	28,5
233,447	-22,7
233,663	-20,65
233,879	65,36
234,095	24,4
234,311	77,65
234,527	16,21
234,743	48,98
234,959	143,19
235,175	12,12
235,391	8,02
235,607	48,98
235,823	116,56
236,039	16,21
236,255	75,6
236,471	10,07
236,687	40,79
236,903	10,07
237,118	53,08
237,334	26,45
237,55	57,17
237,766	61,27
237,982	132,95
238,198	48,98
238,413	10,07
238,629	118,61
238,845	59,22
239,061	-28,84
239,277	73,56
239,492	32,6
239,708	3,93
239,924	16,21
240,14	116,56
240,355	155,47
240,571	40,79
240,787	34,64
241,003	65,36
241,218	-63,66
241,434	42,84
241,65	98,13
241,865	-53,42
242,081	155,47
242,297	-88,23
242,512	67,41
242,728	-24,75
242,944	-71,85
243,159	77,65
243,375	-20,65
243,59	-16,55
243,806	67,41
244,022	67,41
244,237	-94,38
244,453	53,08
244,668	139,09
244,884	65,36
245,099	-6,31
245,315	130,9
245,53	83,8
245,746	124,76
245,961	85,84
246,177	-39,08
246,392	147,28
246,608	89,94
246,823	32,6
247,039	-90,28
247,254	-32,94
247,47	122,71
247,685	-8,36
247,9	46,93
248,116	16,21
248,331	12,12
248,547	61,27
248,762	-47,27
248,977	-32,94
249,193	20,31
249,408	114,52
249,623	40,79
249,839	40,79
250,054	-45,23
250,269	3,93
250,485	75,6
250,7	1,88
250,915	34,64
251,13	83,8
251,346	10,07
251,561	120,66
251,776	106,32
251,991	-104,62
252,207	159,57
252,422	36,69
252,637	10,07
252,852	-4,27
253,067	26,45
253,283	1,88
253,498	8,02
253,713	24,4
253,928	40,79
254,143	20,31
254,358	-57,51
254,573	-65,71
254,788	-0,17
255,004	73,56
255,219	-24,75
255,434	85,84
255,649	-55,47
255,864	59,22
256,079	67,41
256,294	18,26
256,509	10,07
256,724	53,08
256,939	-34,99
257,154	1,88
257,369	-4,27
257,584	124,76
257,799	18,26
258,014	8,02
258,229	-32,94
258,444	3,93
258,659	51,03
258,874	149,33
259,089	28,5
259,304	24,4
259,518	36,69
259,733	24,4
259,948	40,79
260,163	114,52
260,378	98,13
260,593	-41,13
260,808	65,36
261,022	-96,43
261,237	48,98
261,452	28,5
261,667	85,84
261,882	71,51
262,096	75,6
262,311	132,95
262,526	40,79
262,741	-12,46
262,955	-73,9
263,17	96,08
263,385	46,93
263,6	-24,75
263,814	-8,36
264,029	-32,94
264,244	-24,75
264,458	-4,27
264,673	48,98
264,888	61,27
265,102	57,17
265,317	-39,08
265,532	12,12
265,746	12,12
265,961	34,64
266,175	65,36
266,39	-6,31
266,605	16,21
266,819	-20,65
267,034	57,17
267,248	-65,71
267,463	-0,17
267,677	18,26
267,892	16,21
268,106	-34,99
268,321	-0,17
268,535	85,84
268,75	81,75
268,964	-57,51
269,179	16,21
269,393	51,03
269,608	57,17
269,822	-71,85
270,036	-73,9
270,251	-37,03
270,465	81,75
270,68	8,02
270,894	36,69
271,108	163,67
271,323	32,6
271,537	-0,17
271,752	34,64
271,966	51,03
272,18	-90,28
272,394	-39,08
272,609	10,07
272,823	53,08
273,037	65,36
273,252	16,21
273,466	73,56
273,68	75,6
273,894	79,7
274,109	-8,36
274,323	44,88
274,537	85,84
274,751	-16,55
274,966	87,89
275,18	20,31
275,394	-6,31
275,608	-65,71
275,822	-43,18
276,036	-41,13
276,25	114,52
276,465	40,79
276,679	-39,08
276,893	-14,51
277,107	24,4
277,321	26,45
277,535	124,76
277,749	85,84
277,963	18,26
278,177	-47,27
278,391	108,37
278,605	18,26
278,819	96,08
279,033	-14,51
279,247	48,98
279,461	75,6
279,675	26,45
279,889	40,79
280,103	36,69
280,317	108,37
280,531	-28,84
280,745	77,65
280,959	10,07
281,173	36,69
281,387	63,32
281,601	12,12
281,815	57,17
282,029	-32,94
282,242	55,12
282,456	-14,51
282,67	98,13
282,884	3,93
283,098	8,02
283,312	-73,9
283,525	75,6
283,739	18,26
283,953	-24,75
284,167	28,5
284,381	44,88
284,594	-6,31
284,808	73,56
285,022	-45,23
285,235	18,26
285,449	44,88
285,663	-14,51
285,877	-20,65
286,09	42,84
286,304	163,67
286,518	24,4
286,731	-73,9
286,945	118,61
287,159	-8,36
287,372	-49,32
287,586	18,26
287,799	65,36
288,013	-6,31
288,227	73,56
288,44	200,53
288,654	124,76
288,867	-0,17
289,081	-26,79
289,294	83,8
289,508	36,69
289,721	28,5
289,935	94,04
290,148	48,98
290,362	53,08
290,575	85,84
290,789	-0,17
291,002	-51,37
291,216	106,32
291,429	16,21
291,643	10,07
291,856	12,12
292,069	46,93
292,283	-32,94
292,496	-16,55
292,71	36,69
292,923	-20,65
293,136	3,93
293,35	-8,36
293,563	-18,6
293,776	32,6
293,99	57,17
294,203	57,17
294,416	22,36
294,63	-28,84
294,843	-8,36
295,056	32,6
295,269	1,88
295,483	-49,32
295,696	32,6
295,909	34,64
296,122	53,08
296,335	26,45
296,549	44,88
296,762	40,79
296,975	22,36
297,188	18,26
297,401	69,46
297,615	-0,17
297,828	-28,84
298,041	61,27
298,254	-73,9
298,467	34,64
298,68	-4,27
298,893	8,02
299,106	26,45
299,319	30,55
299,532	44,88
299,745	16,21
299,958	-22,7
300,171	-12,46
300,384	104,28
300,598	-39,08
300,81	112,47
301,023	-32,94
301,236	-6,31
301,449	32,6
301,662	-16,55
301,875	-16,55
302,088	48,98
302,301	108,37
302,514	48,98
302,727	18,26
302,94	3,93
303,153	-43,18
303,366	87,89
303,579	-16,55
303,791	91,99
304,004	-41,13
304,217	89,94
304,43	16,21
304,643	102,23
304,855	-28,84
305,068	139,09
305,281	53,08
305,494	75,6
305,707	8,02
305,919	149,33
306,132	65,36
306,345	40,79
306,558	59,22
306,77	12,12
306,983	59,22
307,196	16,21
307,408	-22,7
307,621	73,56
307,834	-12,46
308,046	36,69
308,259	-8,36
308,472	-8,36
308,684	124,76
308,897	-8,36
309,109	-14,51
309,322	-41,13
309,535	8,02
309,747	98,13
309,96	124,76
310,172	108,37
310,385	77,65
310,597	-6,31
310,81	48,98
311,022	10,07
311,235	-32,94
311,447	-24,75
311,66	24,4
311,872	73,56
312,085	71,51
312,297	-14,51
312,51	-88,23
312,722	-57,51
312,934	153,43
313,147	-45,23
313,359	-24,75
313,572	16,21
313,784	-65,71
313,996	51,03
314,209	81,75
314,421	-32,94
314,633	-63,66
314,846	-82,09
315,058	16,21
315,27	57,17
315,483	-16,55
315,695	28,5
315,907	-26,79
316,119	-71,85
316,332	18,26
316,544	108,37
316,756	130,9
316,968	26,45
317,181	32,6
317,393	46,93
317,605	28,5
317,817	59,22
318,029	126,8
318,241	122,71
318,454	122,71
318,666	143,19
318,878	59,22
319,09	57,17
319,302	157,52
319,514	34,64
319,726	24,4
319,938	147,28
320,15	89,94
320,362	30,55
320,574	-65,71
320,786	-30,89
320,999	-47,27
321,211	48,98
321,423	98,13
321,635	1,88
321,847	118,61
322,058	-61,61
322,27	139,09
322,482	128,85
322,694	75,6
322,906	28,5
323,118	65,36
323,33	89,94
323,542	73,56
323,754	36,69
323,966	-84,14
324,178	98,13
324,389	34,64
324,601	83,8
324,813	-90,28
325,025	55,12
325,237	73,56
325,449	22,36
325,66	55,12
325,872	34,64
326,084	12,12
326,296	-8,36
326,507	-14,51
326,719	42,84
326,931	8,02
327,143	106,32
327,354	167,76
327,566	94,04
327,778	106,32
327,989	67,41
328,201	34,64
328,413	32,6
328,624	155,47
328,836	16,21
329,048	-14,51
329,259	18,26
329,471	8,02
329,682	-30,89
329,894	61,27
330,106	-49,32
330,317	34,64
330,529	42,84
330,74	-16,55
330,952	102,23
331,163	40,79
331,375	30,55
331,586	16,21
331,798	-110,76
332,009	28,5
332,221	46,93
332,432	89,94
332,644	22,36
332,855	-61,61
333,067	-16,55
333,278	-8,36
333,489	12,12
333,701	-24,75
333,912	-71,85
334,124	24,4
334,335	-43,18
334,546	-49,32
334,758	51,03
334,969	163,67
335,18	77,65
335,392	-6,31
335,603	48,98
335,814	122,71
336,025	44,88
336,237	22,36
336,448	-16,55
336,659	-8,36
336,87	44,88
337,082	196,43
337,293	51,03
337,504	-0,17
337,715	-0,17
337,926	24,4
338,138	-41,13
338,349	42,84
338,56	89,94
338,771	-6,31
338,982	48,98
339,193	46,93
339,404	59,22
339,616	10,07
339,827	81,75
340,038	-53,42
340,249	28,5
340,46	1,88
340,671	40,79
340,882	114,52
341,093	77,65
341,304	-57,51
341,515	-22,7
341,726	-57,51
341,937	1,88
342,148	81,75
342,359	16,21
342,57	16,21
342,781	114,52
342,992	-32,94
343,203	16,21
343,414	98,13
343,624	57,17
343,835	3,93
344,046	32,6
344,257	83,8
344,468	-108,71
344,679	48,98
344,89	16,21
345,1	44,88
345,311	38,74
345,522	-6,31
345,733	40,79
345,944	20,31
346,154	26,45
346,365	190,29
346,576	-18,6
346,787	55,12
346,997	51,03
347,208	81,75
347,419	-69,8
347,629	48,98
347,84	110,42
348,051	71,51
348,261	42,84
348,472	-82,09
348,683	-41,13
348,893	32,6
349,104	12,12
349,315	12,12
349,525	-16,55
349,736	-12,46
349,946	40,79
350,157	55,12
350,368	16,21
350,578	40,79
350,789	8,02
350,999	67,41
351,21	141,14
351,42	-49,32
351,631	-53,42
351,841	-47,27
352,052	34,64
352,262	57,17
352,472	30,55
352,683	-24,75
352,893	102,23
353,104	-41,13
353,314	147,28
353,525	438,09
353,735	94,04
353,945	40,79
354,156	24,4
354,366	24,4
354,576	114,52
354,787	-8,36
354,997	42,84
355,207	20,31
355,418	20,31
355,628	-4,27
355,838	40,79
356,048	75,6
356,259	89,94
356,469	171,86
356,679	20,31
356,889	57,17
357,1	-61,61
357,31	-65,71
357,52	10,07
357,73	-24,75
357,94	73,56
358,15	16,21
358,361	1,88
358,571	75,6
358,781	102,23
358,991	-24,75
359,201	-39,08
359,411	-32,94
359,621	28,5
359,831	48,98
360,041	16,21
360,251	57,17
360,461	42,84
360,672	51,03
360,882	34,64
361,092	40,79
361,302	102,23
361,512	102,23
361,721	32,6
361,931	28,5
362,141	63,32
362,351	28,5
362,561	118,61
362,771	48,98
362,981	102,23
363,191	-16,55
363,401	59,22
363,611	-16,55
363,821	-22,7
364,03	1,88
364,24	57,17
364,45	73,56
364,66	282,45
364,87	-14,51
365,08	53,08
365,289	-47,27
365,499	36,69
365,709	132,95
365,919	40,79
366,128	48,98
366,338	59,22
366,548	-39,08
366,758	5,97
366,967	12,12
367,177	67,41
367,387	8,02
367,596	30,55
367,806	26,45
368,016	59,22
368,225	65,36
368,435	110,42
368,644	-65,71
368,854	5,97
369,064	44,88
369,273	32,6
369,483	55,12
369,692	-57,51
369,902	-20,65
370,111	77,65
370,321	3,93
370,53	-14,51
370,74	-12,46
370,949	81,75
371,159	118,61
371,368	-32,94
371,578	-22,7
371,787	51,03
371,997	10,07
372,206	18,26
372,416	36,69
372,625	87,89
372,834	26,45
373,044	-65,71
373,253	122,71
373,462	98,13
373,672	32,6
373,881	28,5
374,09	16,21
374,3	18,26
374,509	40,79
374,718	-47,27
374,928	173,91
375,137	-0,17
375,346	32,6
375,555	180,05
375,765	-55,47
375,974	24,4
376,183	1,88
376,392	-28,84
376,601	98,13
376,811	155,47
377,02	118,61
377,229	98,13
377,438	130,9
377,647	57,17
377,856	20,31
378,065	-22,7
378,275	-16,55
378,484	12,12
378,693	20,31
378,902	-16,55
379,111	12,12
379,32	-32,94
379,529	-41,13
379,738	-18,6
379,947	116,56
380,156	18,26
380,365	28,5
380,574	149,33
380,783	-4,27
380,992	55,12
381,201	8,02
381,41	65,36
381,619	-8,36
381,828	118,61
382,037	116,56
382,245	249,68
382,454	155,47
382,663	75,6
382,872	40,79
383,081	18,26
383,29	122,71
383,499	24,4
383,707	24,4
383,916	91,99
384,125	106,32
384,334	81,75
384,542	132,95
384,751	57,17
384,96	-4,27
385,169	-102,57
385,377	10,07
385,586	51,03
385,795	122,71
386,004	147,28
386,212	-16,55
386,421	85,84
386,63	360,27
386,838	804,68
387,047	1146,69
387,255	2033,46
387,464	2840,36
387,673	3655,45
387,881	4998,92
388,09	5934,84
388,298	6676,21
388,507	8300,25
388,715	9975,49
388,924	11091,63
389,133	10522,29
389,341	10284,73
389,55	8963,79
389,758	6741,74
389,967	4429,59
390,175	2920,23
390,383	2211,64
390,592	1797,95
390,8	1189,7
391,009	804,68
391,217	491,34
391,426	386,9
391,634	192,34
391,842	135
392,051	24,4
392,259	110,42
392,467	81,75
392,676	-88,23
392,884	-32,94
393,092	48,98
393,301	26,45
393,509	20,31
393,717	102,23
393,925	34,64
394,134	10,07
394,342	214,87
394,55	114,52
394,758	130,9
394,967	59,22
395,175	8,02
395,383	212,82
395,591	40,79
395,799	186,19
396,007	108,37
396,216	278,35
396,424	171,86
396,632	216,91
396,84	212,82
397,048	163,67
397,256	157,52
397,464	67,41
397,672	87,89
397,88	65,36
398,088	1,88
398,296	22,36
398,504	51,03
398,712	10,07
398,92	61,27
399,128	1,88
399,336	36,69
399,544	-6,31
399,752	-16,55
399,96	51,03
400,168	81,75
400,376	59,22
400,584	57,17
400,792	-6,31
401	24,4
401,207	91,99
401,415	200,53
401,623	218,96
401,831	292,69
402,039	251,73
402,247	339,79
402,454	501,58
402,662	542,54
402,87	393,04
403,078	511,82
403,285	468,81
403,493	317,26
403,701	173,91
403,909	184,15
404,116	192,34
404,324	98,13
404,532	98,13
404,739	-14,51
404,947	81,75
405,155	91,99
405,362	87,89
405,57	34,64
405,778	-8,36
405,985	89,94
406,193	-10,41
406,4	-30,89
406,608	59,22
406,816	98,13
407,023	73,56
407,231	12,12
407,438	16,21
407,646	81,75
407,853	12,12
408,061	-6,31
408,268	-24,75
408,476	8,02
408,683	141,14
408,89	57,17
409,098	24,4
409,305	22,36
409,513	98,13
409,72	51,03
409,927	-22,7
410,135	91,99
410,342	24,4
410,55	73,56
410,757	53,08
410,964	-65,71
411,172	96,08
411,379	149,33
411,586	10,07
411,793	108,37
412,001	-6,31
412,208	126,8
412,415	112,47
412,622	104,28
412,83	91,99
413,037	48,98
413,244	-20,65
413,451	48,98
413,658	139,09
413,866	44,88
414,073	24,4
414,28	149,33
414,487	61,27
414,694	108,37
414,901	32,6
415,108	10,07
415,315	102,23
415,522	139,09
415,73	24,4
415,937	-39,08
416,144	-0,17
416,351	77,65
416,558	14,17
416,765	36,69
416,972	-39,08
417,179	40,79
417,386	124,76
417,593	-41,13
417,8	16,21
418,006	1,88
418,213	122,71
418,42	28,5
418,627	3,93
418,834	16,21
419,041	18,26
419,248	48,98
419,455	40,79
419,661	65,36
419,868	-30,89
420,075	-0,17
420,282	-86,19
420,489	-14,51
420,696	8,02
420,902	114,52
421,109	116,56
421,316	-55,47
421,523	46,93
421,729	79,7
421,936	34,64
422,143	114,52
422,349	28,5
422,556	-41,13
422,763	130,9
422,969	-49,32
423,176	-73,9
423,383	51,03
423,589	264,02
423,796	51,03
424,002	-12,46
424,209	1,88
424,416	85,84
424,622	-73,9
424,829	-55,47
425,035	-80,04
425,242	16,21
425,448	40,79
425,655	57,17
425,861	30,55
426,068	8,02
426,274	196,43
426,481	12,12
426,687	137,04
426,894	38,74
427,1	1,88
427,306	48,98
427,513	-10,41
427,719	-0,17
427,926	124,76
428,132	16,21
428,338	-41,13
428,545	61,27
428,751	5,97
428,957	169,81
429,163	-59,56
429,37	112,47
429,576	5,97
429,782	94,04
429,989	51,03
430,195	-0,17
430,401	51,03
430,607	24,4
430,813	-98,47
431,02	102,23
431,226	10,07
431,432	57,17
431,638	1,88
431,844	32,6
432,05	-30,89
432,257	32,6
432,463	79,7
432,669	8,02
432,875	-22,7
433,081	-49,32
433,287	-12,46
433,493	-88,23
433,699	98,13
433,905	-30,89
434,111	-73,9
434,317	57,17
434,523	77,65
434,729	-16,55
434,935	8,02
435,141	16,21
435,347	18,26
435,553	36,69
435,759	28,5
435,965	-0,17
436,171	40,79
436,377	40,79
436,582	94,04
436,788	-24,75
436,994	48,98
437,2	83,8
437,406	18,26
437,612	128,85
437,818	48,98
438,023	-4,27
438,229	237,39
438,435	114,52
438,641	98,13
438,846	122,71
439,052	159,57
439,258	135
439,464	63,32
439,669	106,32
439,875	223,06
440,081	51,03
440,286	-6,31
440,492	32,6
440,698	16,21
440,903	-8,36
441,109	89,94
441,314	-12,46
441,52	5,97
441,726	8,02
441,931	130,9
442,137	46,93
442,342	16,21
442,548	32,6
442,753	149,33
442,959	-22,7
443,164	20,31
443,37	155,47
443,575	8,02
443,781	40,79
443,986	151,38
444,192	108,37
444,397	48,98
444,602	-22,7
444,808	16,21
445,013	116,56
445,219	180,05
445,424	438,09
445,629	667,47
445,835	984,9
446,04	1089,35
446,245	1589,05
446,451	1918,78
446,656	2164,53
446,861	2627,37
447,066	3102,5
447,272	3391,27
447,477	3489,57
447,682	3262,24
447,887	2680,62
448,093	2328,37
448,298	1679,16
448,503	1032,01
448,708	665,42
448,913	417,61
449,118	413,52
449,324	175,95
449,529	161,62
449,734	48,98
449,939	-24,75
450,144	118,61
450,349	122,71
450,554	-4,27
450,759	73,56
450,964	61,27
451,169	-30,89
451,374	-41,13
451,579	-28,84
451,784	12,12
451,989	171,86
452,194	65,36
452,399	57,17
452,604	65,36
452,809	8,02
453,014	-30,89
453,219	48,98
453,424	-8,36
453,629	-41,13
453,833	-30,89
454,038	59,22
454,243	8,02
454,448	16,21
454,653	40,79
454,858	-4,27
455,062	16,21
455,267	-8,36
455,472	8,02
455,677	-4,27
455,882	42,84
456,086	116,56
456,291	73,56
456,496	-73,9
456,7	32,6
456,905	5,97
457,11	83,8
457,314	-57,51
457,519	65,36
457,724	57,17
457,928	61,27
458,133	44,88
458,338	48,98
458,542	48,98
458,747	36,69
458,951	20,31
459,156	16,21
459,36	20,31
459,565	75,6
459,769	-6,31
459,974	94,04
460,178	14,17
460,383	-49,32
460,587	26,45
460,792	40,79
460,996	-16,55
461,201	34,64
461,405	-41,13
461,61	-8,36
461,814	65,36
462,018	-20,65
462,223	-14,51
462,427	48,98
462,631	155,47
462,836	128,85
463,04	24,4
463,244	100,18
463,449	-34,99
463,653	192,34
463,857	-45,23
464,062	110,42
464,266	18,26
464,47	69,46
464,674	63,32
464,878	114,52
465,083	63,32
465,287	51,03
465,491	16,21
465,695	34,64
465,899	69,46
466,104	65,36
466,308	28,5
466,512	51,03
466,716	20,31
466,92	77,65
467,124	159,57
467,328	24,4
467,532	98,13
467,736	55,12
467,94	8,02
468,144	18,26
468,348	110,42
468,552	83,8
468,756	-16,55
468,96	57,17
469,164	-18,6
469,368	147,28
469,572	96,08
469,776	196,43
469,98	319,31
470,184	294,74
470,388	446,29
470,591	499,53
470,795	597,84
470,999	671,56
471,203	814,92
471,407	831,3
471,611	837,45
471,814	749,39
472,018	626,51
472,222	694,09
472,426	544,59
472,63	319,31
472,833	380,75
473,037	159,57
473,241	130,9
473,444	130,9
473,648	499,53
473,852	71,51
474,055	20,31
474,259	61,27
474,463	77,65
474,666	96,08
474,87	34,64
475,074	89,94
475,277	-0,17
475,481	98,13
475,684	57,17
475,888	40,79
476,091	-20,65
476,295	-4,27
476,498	-88,23
476,702	32,6
476,905	83,8
477,109	163,67
477,312	-34,99
477,516	-106,67
477,719	36,69
477,923	-41,13
478,126	69,46
478,329	12,12
478,533	32,6
478,736	53,08
478,94	40,79
479,143	63,32
479,346	106,32
479,55	42,84
479,753	38,74
479,956	-55,47
480,159	-39,08
480,363	98,13
480,566	-28,84
480,769	67,41
480,972	5,97
481,176	20,31
481,379	40,79
481,582	116,56
481,785	-24,75
481,988	5,97
482,192	118,61
482,395	-69,8
482,598	26,45
482,801	-4,27
483,004	73,56
483,207	57,17
483,41	12,12
483,613	81,75
483,817	53,08
484,02	-39,08
484,223	32,6
484,426	55,12
484,629	-37,03
484,832	91,99
485,035	53,08
485,238	59,22
485,441	-14,51
485,644	18,26
485,846	122,71
486,049	-45,23
486,252	-24,75
486,455	-0,17
486,658	-41,13
486,861	106,32
487,064	122,71
487,267	-8,36
487,47	65,36
487,672	73,56
487,875	8,02
488,078	114,52
488,281	57,17
488,484	-4,27
488,686	79,7
488,889	16,21
489,092	-12,46
489,295	36,69
489,497	139,09
489,7	-41,13
489,903	24,4
490,105	16,21
490,308	130,9
490,511	212,82
490,713	280,4
490,916	335,7
491,118	585,55
491,321	765,77
491,524	823,11
491,726	1124,16
491,929	1167,17
492,131	1353,54
492,334	1486,65
492,536	1425,22
492,739	1367,87
492,941	1308,48
493,144	1228,61
493,346	925,51
493,549	796,49
493,751	474,96
493,954	384,85
494,156	216,91
494,359	216,91
494,561	73,56
494,763	116,56
494,966	-4,27
495,168	147,28
495,37	-20,65
495,573	57,17
495,775	65,36
495,977	-6,31
496,18	10,07
496,382	110,42
496,584	14,17
496,787	98,13
496,989	32,6
497,191	-32,94
497,393	77,65
497,595	-24,75
497,798	77,65
498	-39,08
498,202	83,8
498,404	57,17
498,606	120,66
498,808	151,38
499,011	94,04
499,213	98,13
499,415	73,56
499,617	311,12
499,819	544,59
500,021	884,55
500,223	1259,33
500,425	1754,94
500,627	2162,48
500,829	2866,99
501,031	3477,28
501,233	3880,73
501,435	4441,87
501,637	5033,74
501,839	4888,33
502,041	4921,1
502,243	4482,83
502,445	3841,82
502,647	3424,03
502,848	2514,73
503,05	1894,2
503,252	1517,37
503,454	1052,49
503,656	737,1
503,858	474,96
504,059	247,63
504,261	255,83
504,463	386,9
504,665	204,63
504,867	204,63
505,068	327,5
505,27	331,6
505,472	237,39
505,673	145,24
505,875	147,28
506,077	128,85
506,278	141,14
506,48	89,94
506,682	-26,79
506,883	106,32
507,085	40,79
507,287	-6,31
507,488	75,6
507,69	40,79
507,891	-14,51
508,093	91,99
508,294	-37,03
508,496	53,08
508,697	-80,04
508,899	-16,55
509,1	12,12
509,302	34,64
509,503	-24,75
509,705	114,52
509,906	67,41
510,108	44,88
510,309	3,93
510,51	30,55
510,712	48,98
510,913	73,56
511,114	-0,17
511,316	-49,32
511,517	59,22
511,718	48,98
511,92	34,64
512,121	51,03
512,322	26,45
512,524	167,76
512,725	67,41
512,926	42,84
513,127	-39,08
513,329	106,32
513,53	-30,89
513,731	40,79
513,932	32,6
514,133	51,03
514,334	-2,22
514,536	75,6
514,737	67,41
514,938	77,65
515,139	16,21
515,34	-32,94
515,541	116,56
515,742	-32,94
515,943	42,84
516,144	-16,55
516,345	130,9
516,546	85,84
516,747	122,71
516,948	1,88
517,149	73,56
517,35	-8,36
517,551	8,02
517,752	-22,7
517,953	-8,36
518,154	20,31
518,355	106,32
518,556	-37,03
518,756	20,31
518,957	-6,31
519,158	8,02
519,359	65,36
519,56	-8,36
519,761	34,64
519,961	40,79
520,162	157,52
520,363	8,02
520,564	57,17
520,764	208,72
520,965	34,64
521,166	135
521,366	-34,99
521,567	67,41
521,768	42,84
521,968	-0,17
522,169	10,07
522,37	40,79
522,57	-4,27
522,771	-30,89
522,972	-65,71
523,172	114,52
523,373	89,94
523,573	57,17
523,774	114,52
523,974	89,94
524,175	85,84
524,375	46,93
524,576	34,64
524,776	-30,89
524,977	-20,65
525,177	69,46
525,378	10,07
525,578	83,8
525,778	143,19
525,979	157,52
526,179	61,27
526,38	8,02
526,58	-24,75
526,78	-34,99
526,981	89,94
527,181	67,41
527,381	124,76
527,582	81,75
527,782	24,4
527,982	130,9
528,182	77,65
528,383	89,94
528,583	34,64
528,783	10,07
528,983	42,84
529,183	16,21
529,384	75,6
529,584	130,9
529,784	143,19
529,984	79,7
530,184	85,84
530,384	-0,17
530,584	-73,9
530,784	79,7
530,984	-22,7
531,185	48,98
531,385	83,8
531,585	79,7
531,785	139,09
531,985	-4,27
532,185	-6,31
532,385	-14,51
532,585	135
532,785	22,36
532,984	10,07
533,184	94,04
533,384	48,98
533,584	-63,66
533,784	98,13
533,984	42,84
534,184	40,79
534,384	32,6
534,583	57,17
534,783	24,4
534,983	83,8
535,183	18,26
535,383	-8,36
535,582	40,79
535,782	-22,7
535,982	106,32
536,182	96,08
536,381	24,4
536,581	24,4
536,781	32,6
536,98	57,17
537,18	51,03
537,38	108,37
537,579	-14,51
537,779	-41,13
537,979	28,5
538,178	-14,51
538,378	79,7
538,577	-73,9
538,777	34,64
538,976	10,07
539,176	24,4
539,376	-22,7
539,575	28,5
539,774	110,42
539,974	-0,17
540,173	44,88
540,373	-22,7
540,572	73,56
540,772	16,21
540,971	-8,36
541,171	22,36
541,37	114,52
541,569	71,51
541,769	-8,36
541,968	51,03
542,167	22,36
542,367	85,84
542,566	-6,31
542,765	16,21
542,965	91,99
543,164	65,36
543,363	51,03
543,562	1,88
543,761	32,6
543,961	91,99
544,16	-69,8
544,359	143,19
544,558	91,99
544,757	65,36
544,957	116,56
545,156	149,33
545,355	-49,32
545,554	24,4
545,753	-28,84
545,952	-2,22
546,151	69,46
546,35	16,21
546,549	32,6
546,748	77,65
546,947	114,52
547,146	-65,71
547,345	-6,31
547,544	-63,66
547,743	-10,41
547,942	8,02
548,141	71,51
548,34	-10,41
548,539	59,22
548,738	-63,66
548,937	65,36
549,135	108,37
549,334	63,32
549,533	67,41
549,732	36,69
549,931	81,75
550,13	22,36
550,328	-45,23
550,527	44,88
550,726	22,36
550,925	-8,36
551,123	102,23
551,322	-65,71
551,521	53,08
551,72	-24,75
551,918	94,04
552,117	67,41
552,315	77,65
552,514	32,6
552,713	48,98
552,911	-73,9
553,11	-37,03
553,309	57,17
553,507	57,17
553,706	42,84
553,904	12,12
554,103	-0,17
554,301	26,45
554,5	-8,36
554,698	32,6
554,897	81,75
555,095	128,85
555,294	-57,51
555,492	40,79
555,69	67,41
555,889	-20,65
556,087	108,37
556,286	96,08
556,484	46,93
556,682	116,56
556,881	104,28
557,079	40,79
557,277	10,07
557,476	40,79
557,674	102,23
557,872	53,08
558,07	3,93
558,269	1,88
558,467	110,42
558,665	87,89
558,863	63,32
559,062	106,32
559,26	67,41
559,458	-14,51
559,656	69,46
559,854	69,46
560,052	32,6
560,25	73,56
560,449	276,31
560,647	102,23
560,845	65,36
561,043	83,8
561,241	106,32
561,439	178
561,637	40,79
561,835	147,28
562,033	163,67
562,231	14,17
562,429	38,74
562,627	102,23
562,825	36,69
563,023	46,93
563,221	57,17
563,418	26,45
563,616	46,93
563,814	126,8
564,012	89,94
564,21	83,8
564,408	48,98
564,605	22,36
564,803	-80,04
565,001	282,45
565,199	55,12
565,397	44,88
565,594	126,8
565,792	71,51
565,99	85,84
566,188	98,13
566,385	16,21
566,583	141,14
566,781	147,28
566,978	57,17
567,176	130,9
567,373	28,5
567,571	100,18
567,769	57,17
567,966	-0,17
568,164	1,88
568,361	-22,7
568,559	53,08
568,756	94,04
568,954	24,4
569,151	102,23
569,349	114,52
569,546	32,6
569,744	190,29
569,941	75,6
570,139	108,37
570,336	53,08
570,534	87,89
570,731	48,98
570,928	40,79
571,126	159,57
571,323	53,08
571,52	57,17
571,718	110,42
571,915	98,13
572,112	48,98
572,31	57,17
572,507	159,57
572,704	44,88
572,901	106,32
573,099	118,61
573,296	171,86
573,493	36,69
573,69	59,22
573,887	-14,51
574,085	67,41
574,282	81,75
574,479	85,84
574,676	143,19
574,873	98,13
575,07	96,08
575,267	44,88
575,464	130,9
575,661	12,12
575,858	24,4
576,055	16,21
576,252	114,52
576,449	94,04
576,646	163,67
576,843	96,08
577,04	155,47
577,237	85,84
577,434	128,85
577,631	79,7
577,828	77,65
578,025	114,52
578,222	120,66
578,419	102,23
578,615	73,56
578,812	163,67
579,009	51,03
579,206	122,71
579,403	81,75
579,599	208,72
579,796	48,98
579,993	155,47
580,19	102,23
580,386	120,66
580,583	114,52
580,78	51,03
580,976	182,1
581,173	89,94
581,37	126,8
581,566	118,61
581,763	165,71
581,96	184,15
582,156	75,6
582,353	151,38
582,549	292,69
582,746	143,19
582,942	155,47
583,139	188,24
583,335	200,53
583,532	231,25
583,728	147,28
583,925	98,13
584,121	145,24
584,318	233,3
584,514	237,39
584,711	243,54
584,907	278,35
585,103	343,89
585,3	337,74
585,496	565,07
585,693	1075,01
585,889	3843,87
586,085	8191,7
586,281	14323,32
586,478	21984,77
586,674	29578,64
586,87	38046,99
587,067	46777,48
587,263	52130,87
587,459	55489,54
587,655	59114,45
587,851	59687,88
588,048	58438,62
588,244	55049,23
588,44	51979,32
588,636	45909,14
588,832	39535,87
589,028	32890,21
589,224	26840,51
589,42	21061,14
589,617	15476,33
589,813	10077,88
590,009	6110,97
590,205	3915,55
590,401	2357,04
590,597	1498,94
590,793	1075,01
590,989	823,11
591,185	597,84
591,38	464,72
591,576	393,04
591,772	304,98
591,968	323,41
592,164	331,6
592,36	237,39
592,556	261,97
592,752	196,43
592,948	128,85
593,143	116,56
593,339	18,26
593,535	132,95
593,731	32,6
593,926	173,91
594,122	73,56
594,318	57,17
594,514	184,15
594,709	73,56
594,905	65,36
595,101	98,13
595,296	20,31
595,492	104,28
595,688	130,9
595,883	221,01
596,079	98,13
596,275	114,52
596,47	137,04
596,666	218,96
596,861	130,9
597,057	48,98
597,252	48,98
597,448	48,98
597,643	130,9
597,839	94,04
598,034	81,75
598,23	100,18
598,425	106,32
598,621	98,13
598,816	100,18
599,011	34,64
599,207	51,03
599,402	24,4
599,597	141,14
599,793	139,09
599,988	-61,61
600,183	77,65
600,379	65,36
600,574	130,9
600,769	89,94
600,965	81,75
601,16	18,26
601,355	65,36
601,55	126,8
601,745	124,76
601,941	102,23
602,136	89,94
602,331	69,46
602,526	48,98
602,721	89,94
602,916	34,64
603,111	65,36
603,307	-6,31
603,502	40,79
603,697	34,64
603,892	65,36
604,087	89,94
604,282	69,46
604,477	116,56
604,672	75,6
604,867	65,36
605,062	10,07
605,257	65,36
605,452	155,47
605,646	132,95
605,841	126,8
606,036	-14,51
606,231	-14,51
606,426	1,88
606,621	-43,18
606,816	51,03
607,01	151,38
607,205	130,9
607,4	26,45
607,595	114,52
607,79	116,56
607,984	81,75
608,179	20,31
608,374	48,98
608,569	-14,51
608,763	32,6
608,958	59,22
609,153	139,09
609,347	59,22
609,542	36,69
609,736	114,52
609,931	118,61
610,126	57,17
610,32	141,14
610,515	32,6
610,709	311,12
610,904	51,03
611,098	40,79
611,293	-12,46
611,487	69,46
611,682	-12,46
611,876	3,93
612,071	28,5
612,265	77,65
612,46	40,79
612,654	159,57
612,848	59,22
613,043	32,6
613,237	16,21
613,432	16,21
613,626	16,21
613,82	69,46
614,014	102,23
614,209	147,28
614,403	-0,17
614,597	132,95
614,792	65,36
614,986	-0,17
615,18	94,04
615,374	57,17
615,568	114,52
615,763	32,6
615,957	73,56
616,151	91,99
616,345	30,55
616,539	44,88
616,733	42,84
616,927	57,17
617,121	42,84
617,316	65,36
617,51	42,84
617,704	85,84
617,898	79,7
618,092	16,21
618,286	26,45
618,48	28,5
618,674	132,95
618,868	149,33
619,061	26,45
619,255	73,56
619,449	44,88
619,643	18,26
619,837	167,76
620,031	24,4
620,225	163,67
620,419	57,17
620,612	55,12
620,806	-32,94
621	155,47
621,194	57,17
621,388	-24,75
621,581	83,8
621,775	40,79
621,969	51,03
622,162	44,88
622,356	75,6
622,55	16,21
622,743	10,07
622,937	102,23
623,131	-6,31
623,324	94,04
623,518	-4,27
623,712	65,36
623,905	24,4
624,099	42,84
624,292	130,9
624,486	163,67
624,679	12,12
624,873	32,6
625,066	98,13
625,26	48,98
625,453	89,94
625,647	1,88
625,84	75,6
626,034	114,52
626,227	89,94
626,42	59,22
626,614	67,41
626,807	106,32
627	65,36
627,194	73,56
627,387	48,98
627,58	28,5
627,774	83,8
627,967	59,22
628,16	98,13
628,353	65,36
628,547	75,6
628,74	143,19
628,933	-77,99
629,126	157,52
629,319	108,37
629,513	124,76
629,706	-26,79
629,899	102,23
630,092	-39,08
630,285	-49,32
630,478	40,79
630,671	18,26
630,864	63,32
631,057	59,22
631,25	94,04
631,443	116,56
631,636	61,27
631,829	91,99
632,022	118,61
632,215	-30,89
632,408	16,21
632,601	124,76
632,794	102,23
632,987	32,6
633,18	65,36
633,373	10,07
633,566	-65,71
633,758	-63,66
633,951	59,22
634,144	73,56
634,337	36,69
634,53	48,98
634,722	85,84
634,915	24,4
635,108	-16,55
635,301	108,37
635,493	108,37
635,686	212,82
635,879	48,98
636,071	-65,71
636,264	102,23
636,457	53,08
636,649	81,75
636,842	16,21
637,034	132,95
637,227	87,89
637,42	91,99
637,612	-4,27
637,805	-22,7
637,997	91,99
638,19	16,21
638,382	-16,55
638,575	32,6
638,767	67,41
638,96	75,6
639,152	110,42
639,344	98,13
639,537	51,03
639,729	69,46
639,922	20,31
640,114	100,18
640,306	61,27
640,499	118,61
640,691	34,64
640,883	18,26
641,075	69,46
641,268	155,47
641,46	40,79
641,652	24,4
641,844	-6,31
642,037	91,99
642,229	-14,51
642,421	91,99
642,613	57,17
642,805	12,12
642,998	10,07
643,19	132,95
643,382	149,33
643,574	32,6
643,766	89,94
643,958	89,94
644,15	24,4
644,342	155,47
644,534	106,32
644,726	8,02
644,918	79,7
645,11	-0,17
645,302	83,8
645,494	108,37
645,686	16,21
645,878	18,26
646,07	100,18
646,262	16,21
646,453	-24,75
646,645	-0,17
646,837	124,76
647,029	100,18
647,221	20,31
647,413	-6,31
647,604	67,41
647,796	102,23
647,988	98,13
648,18	8,02
648,371	61,27
648,563	48,98
648,755	34,64
648,947	20,31
649,138	53,08
649,33	-16,55
649,521	73,56
649,713	75,6
649,905	67,41
650,096	106,32
650,288	81,75
650,479	-30,89
650,671	53,08
650,863	55,12
651,054	26,45
651,246	157,52
651,437	65,36
651,629	98,13
651,82	102,23
652,011	118,61
652,203	120,66
652,394	67,41
652,586	-26,79
652,777	8,02
652,968	102,23
653,16	16,21
653,351	106,32
653,542	163,67
653,734	61,27
653,925	-20,65
654,116	77,65
654,308	59,22
654,499	-49,32
654,69	73,56
654,881	-0,17
655,073	98,13
655,264	44,88
655,455	20,31
655,646	10,07
655,837	106,32
656,028	42,84
656,219	28,5
656,411	-0,17
656,602	91,99
656,793	67,41
656,984	106,32
657,175	81,75
657,366	65,36
657,557	28,5
657,748	10,07
657,939	69,46
658,13	48,98
658,321	83,8
658,512	89,94
658,703	102,23
658,894	81,75
659,084	40,79
659,275	73,56
659,466	116,56
659,657	141,14
659,848	59,22
660,039	57,17
660,23	98,13
660,42	-16,55
660,611	32,6
660,802	89,94
660,993	53,08
661,183	106,32
661,374	108,37
661,565	126,8
661,755	83,8
661,946	122,71
662,137	110,42
662,327	32,6
662,518	61,27
662,709	5,97
662,899	69,46
663,09	184,15
663,28	57,17
663,471	-49,32
663,662	145,24
663,852	114,52
664,043	-32,94
664,233	44,88
664,424	155,47
664,614	141,14
664,804	122,71
664,995	132,95
665,185	124,76
665,376	73,56
665,566	147,28
665,756	8,02
665,947	208,72
666,137	286,54
666,328	999,24
666,518	2301,75
666,708	3897,11
666,898	5414,66
667,089	7368,42
667,279	9264,84
667,469	10895,02
667,659	11794,08
667,85	12078,75
668,04	12168,86
668,23	11853,47
668,42	11443,88
668,61	10444,47
668,8	9518,79
668,991	8685,26
669,181	7601,89
669,371	6477,55
669,561	5660,41
669,751	4697,87
669,941	3852,06
670,131	2905,9
670,321	2121,52
670,511	1453,89
670,701	1072,96
670,891	556,88
671,081	401,23
671,271	233,3
671,461	204,63
671,651	204,63
671,841	61,27
672,03	155,47
672,22	67,41
672,41	130,9
672,6	106,32
672,79	184,15
672,98	89,94
673,169	73,56
673,359	65,36
673,549	116,56
673,739	-45,23
673,928	73,56
674,118	32,6
674,308	110,42
674,497	89,94
674,687	10,07
674,877	46,93
675,066	-14,51
675,256	73,56
675,446	147,28
675,635	32,6
675,825	53,08
676,014	14,17
676,204	24,4
676,393	108,37
676,583	122,71
676,772	108,37
676,962	32,6
677,151	26,45
677,341	-47,27
677,53	32,6
677,72	8,02
677,909	73,56
678,099	10,07
678,288	-16,55
678,477	81,75
678,667	122,71
678,856	71,51
679,045	124,76
679,235	98,13
679,424	122,71
679,613	155,47
679,802	55,12
679,992	40,79
680,181	48,98
680,37	100,18
680,559	67,41
680,748	51,03
680,938	89,94
681,127	-34,99
681,316	132,95
681,505	28,5
681,694	-61,61
681,883	24,4
682,072	81,75
682,261	110,42
682,45	-96,43
682,639	-26,79
682,828	106,32
683,017	89,94
683,206	51,03
683,395	36,69
683,584	108,37
683,773	65,36
683,962	53,08
684,151	-14,51
684,34	96,08
684,529	69,46
684,718	-26,79
684,907	48,98
685,095	130,9
685,284	116,56
685,473	-16,55
685,662	48,98
685,851	122,71
686,039	24,4
686,228	24,4
686,417	40,79
686,606	147,28
686,794	51,03
686,983	-16,55
687,172	65,36
687,36	16,21
687,549	10,07
687,738	114,52
687,926	-0,17
688,115	-16,55
688,303	98,13
688,492	122,71
688,68	-8,36
688,869	-22,7
689,057	-61,61
689,246	-41,13
689,434	91,99
689,623	26,45
689,811	57,17
690	57,17
690,188	51,03
690,377	57,17
690,565	122,71
690,753	151,38
690,942	42,84
691,13	100,18
691,318	130,9
691,507	8,02
691,695	65,36
691,883	53,08
692,072	34,64
692,26	122,71
692,448	91,99
692,636	57,17
692,824	-0,17
693,013	67,41
693,201	71,51
693,389	-16,55
693,577	48,98
693,765	130,9
693,953	44,88
694,141	-0,17
694,329	-8,36
694,518	98,13
694,706	102,23
694,894	98,13
695,082	40,79
695,27	46,93
695,458	75,6
695,646	12,12
695,834	81,75
696,022	67,41
696,209	110,42
696,397	40,79
696,585	-28,84
696,773	65,36
696,961	61,27
697,149	-45,23
697,337	14,17
697,525	149,33
697,712	59,22
697,9	116,56
698,088	83,8
698,276	141,14
698,463	36,69
698,651	91,99
698,839	28,5
699,027	44,88
699,214	159,57
699,402	-12,46
699,59	53,08
699,777	28,5
699,965	155,47
700,152	34,64
700,34	38,74
700,528	16,21
700,715	102,23
700,903	98,13
701,09	89,94
701,278	-0,17
701,465	100,18
701,653	89,94
701,84	10,07
702,028	190,29
702,215	102,23
702,402	65,36
702,59	116,56
702,777	100,18
702,965	42,84
703,152	112,47
703,339	188,24
703,527	114,52
703,714	81,75
703,901	81,75
704,088	122,71
704,276	163,67
704,463	214,87
704,65	98,13
704,837	294,74
705,025	954,18
705,212	2871,08
705,399	6008,57
705,586	9184,97
705,773	13012,62
705,96	16502,36
706,147	19779,11
706,335	21675,53
706,522	22511,1
706,709	22337,02
706,896	22083,08
707,083	20721,18
707,27	19787,3
707,457	17835,59
707,644	16655,96
707,831	14276,22
708,018	12492,44
708,205	10895,02
708,392	8955,6
708,578	7896,8
708,765	6260,47
708,952	5216,01
709,139	3933,98
709,326	2768,68
709,513	1937,21
709,7	1353,54
709,886	900,94
710,073	687,95
710,26	462,67
710,447	294,74
710,633	198,48
710,82	180,05
711,007	169,81
711,193	135
711,38	188,24
711,567	200,53
711,753	61,27
711,94	114,52
712,127	81,75
712,313	61,27
712,5	26,45
712,686	89,94
712,873	94,04
713,059	36,69
713,246	110,42
713,432	81,75
713,619	-6,31
713,805	-4,27
713,992	155,47
714,178	-16,55
714,365	85,84
714,551	112,47
714,737	53,08
714,924	-39,08
715,11	100,18
715,297	77,65
715,483	24,4
715,669	42,84
715,855	16,21
716,042	-6,31
716,228	57,17
716,414	149,33
716,6	110,42
716,787	26,45
716,973	16,21
717,159	130,9
717,345	-12,46
717,531	143,19
717,718	51,03
717,904	63,32
718,09	-32,94
718,276	18,26
718,462	24,4
718,648	28,5
718,834	1,88
719,02	89,94
719,206	135
719,392	-10,41
719,578	-0,17
719,764	51,03
719,95	40,79
720,136	147,28
720,322	141,14
720,508	55,12
720,694	40,79
720,879	-30,89
721,065	130,9
721,251	16,21
721,437	32,6
721,623	143,19
721,809	108,37
721,994	71,51
722,18	-2,22
722,366	40,79
722,552	18,26
722,737	28,5
722,923	24,4
723,109	114,52
723,294	73,56
723,48	77,65
723,666	132,95
723,851	10,07
724,037	118,61
724,222	212,82
724,408	135
724,593	114,52
724,779	24,4
724,965	89,94
725,15	48,98
725,336	81,75
725,521	98,13
725,706	51,03
725,892	36,69
726,077	18,26
726,263	34,64
726,448	128,85
726,634	61,27
726,819	388,94
727,004	679,75
727,19	923,46
727,375	1310,53
727,56	1535,81
727,745	2015,03
727,931	2185,01
728,116	2314,03
728,301	2248,5
728,486	2330,42
728,672	1994,55
728,857	1918,78
729,042	1883,96
729,227	1576,77
729,412	1396,54
729,597	1238,85
729,783	993,09
729,968	900,94
730,153	804,68
730,338	630,6
730,523	517,97
730,708	442,19
730,893	417,61
731,078	249,68
731,263	141,14
731,448	89,94
731,633	223,06
731,818	-30,89
732,003	32,6
732,187	-65,71
732,372	-32,94
732,557	36,69
732,742	-96,43
732,927	-22,7
733,112	116,56
733,297	-45,23
733,481	-30,89
733,666	100,18
733,851	46,93
734,036	48,98
734,22	-0,17
734,405	163,67
734,59	51,03
734,774	8,02
734,959	-6,31
735,144	57,17
735,328	40,79
735,513	-41,13
735,698	24,4
735,882	26,45
736,067	73,56
736,251	108,37
736,436	65,36
736,62	1,88
736,805	16,21
736,989	98,13
737,174	69,46
737,358	16,21
737,543	89,94
737,727	48,98
737,911	112,47
738,096	48,98
738,28	75,6
738,465	40,79
738,649	18,26
738,833	3,93
739,018	18,26
739,202	-4,27
739,386	-41,13
739,57	36,69
739,755	106,32
739,939	14,17
740,123	-24,75
740,307	53,08
740,491	-47,27
740,676	85,84
740,86	61,27
741,044	8,02
741,228	32,6
741,412	-20,65
741,596	-59,56
741,78	-8,36
741,964	22,36
742,148	89,94
742,332	12,12
742,516	-57,51
742,7	24,4
742,884	65,36
743,068	65,36
743,252	40,79
743,436	18,26
743,62	12,12
743,804	130,9
743,988	102,23
744,172	65,36
744,356	94,04
744,539	3,93
744,723	-129,19
744,907	-22,7
745,091	-30,89
745,275	22,36
745,458	42,84
745,642	89,94
745,826	8,02
746,009	132,95
746,193	24,4
746,377	24,4
746,56	30,55
746,744	12,12
746,928	22,36
747,111	-32,94
747,295	-0,17
747,478	28,5
747,662	16,21
747,846	124,76
748,029	40,79
748,213	-49,32
748,396	61,27
748,58	57,17
748,763	32,6
748,946	16,21
749,13	75,6
749,313	3,93
749,497	147,28
749,68	40,79
749,863	42,84
750,047	-8,36
750,23	73,56
750,413	40,79
750,597	8,02
750,78	-0,17
750,963	81,75
751,146	91,99
751,33	48,98
751,513	34,64
751,696	26,45
751,879	81,75
752,062	-88,23
752,246	98,13
752,429	85,84
752,612	44,88
752,795	-47,27
752,978	-32,94
753,161	-73,9
753,344	30,55
753,527	18,26
753,71	-28,84
753,893	32,6
754,076	-2,22
754,259	63,32
754,442	-24,75
754,625	-55,47
754,808	67,41
754,991	42,84
755,174	46,93
755,357	-6,31
755,539	57,17
755,722	79,7
755,905	48,98
756,088	34,64
756,271	-41,13
756,453	10,07
756,636	-32,94
756,819	81,75
757,002	67,41
757,184	237,39
757,367	106,32
757,55	85,84
757,732	100,18
757,915	-4,27
758,098	-22,7
758,28	65,36
758,463	65,36
758,645	75,6
758,828	59,22
759,011	100,18
759,193	24,4
759,376	96,08
759,558	-106,67
759,741	8,02
759,923	-41,13
760,105	51,03
760,288	-0,17
760,47	-139,43
760,653	-41,13
760,835	-4,27
761,017	-65,71
761,2	65,36
761,382	65,36
761,564	-24,75
761,747	141,14
761,929	-82,09
762,111	128,85
762,294	-4,27
762,476	167,76
762,658	34,64
762,84	145,24
763,022	-0,17
763,205	130,9
763,387	106,32
763,569	3,93
763,751	-55,47
763,933	22,36
764,115	10,07
764,297	79,7
764,479	73,56
764,661	-8,36
764,843	192,34
765,025	65,36
765,207	91,99
765,389	1,88
765,571	-8,36
765,753	65,36
765,935	26,45
766,117	24,4
766,299	139,09
766,481	106,32
766,663	-12,46
766,845	-14,51
767,026	-8,36
767,208	-16,55
767,39	42,84
767,572	-16,55
767,753	130,9
767,935	24,4
768,117	114,52
768,299	102,23
768,48	34,64
768,662	65,36
768,844	75,6
769,025	141,14
769,207	44,88
769,389	59,22
769,57	63,32
769,752	51,03
769,933	44,88
770,115	51,03
770,296	-53,42
770,478	73,56
770,659	-45,23
770,841	221,01
771,022	67,41
771,204	57,17
771,385	51,03
771,567	67,41
771,748	110,42
771,929	40,79
772,111	-2,22
772,292	51,03
772,473	61,27
772,655	61,27
772,836	20,31
773,017	32,6
773,199	44,88
773,38	-6,31
773,561	114,52
773,742	81,75
773,923	26,45
774,105	110,42
774,286	85,84
774,467	44,88
774,648	-47,27
774,829	1,88
775,01	5,97
775,191	-8,36
775,372	-16,55
775,553	48,98
775,734	-20,65
775,915	26,45
776,096	-24,75
776,277	75,6
776,458	-39,08
776,639	48,98
776,82	141,14
777,001	16,21
777,182	65,36
777,363	5,97
777,544	-41,13
777,725	94,04
777,906	26,45
778,086	32,6
778,267	171,86
778,448	12,12
778,629	102,23
778,809	102,23
778,99	-20,65
779,171	-57,51
779,352	-0,17
779,532	20,31
779,713	57,17
779,894	10,07
780,074	85,84
780,255	-49,32
780,435	106,32
780,616	98,13
780,797	20,31
780,977	-39,08
781,158	3,93
781,338	94,04
781,519	-24,75
781,699	171,86
781,88	118,61
782,06	40,79
782,241	-39,08
782,421	-20,65
782,601	24,4
782,782	141,14
782,962	100,18
783,142	-8,36
783,323	96,08
783,503	100,18
783,683	18,26
783,864	-18,6
784,044	48,98
784,224	48,98
784,404	48,98
784,585	57,17
784,765	55,12
784,945	91,99
785,125	40,79
785,305	65,36
785,485	122,71
785,666	16,21
785,846	-8,36
786,026	40,79
786,206	-22,7
786,386	-0,17
786,566	94,04
786,746	12,12
786,926	24,4
787,106	-12,46
787,286	12,12
787,466	34,64
787,646	81,75
787,826	71,51
788,006	89,94
788,185	89,94
788,365	-39,08
788,545	12,12
788,725	65,36
788,905	57,17
789,085	69,46
789,264	-47,27
789,444	81,75
789,624	114,52
789,804	89,94
789,983	77,65
790,163	-55,47
790,343	10,07
790,522	24,4
790,702	55,12
790,882	16,21
791,061	139,09
791,241	8,02
791,42	16,21
791,6	98,13
791,78	77,65
791,959	24,4
792,139	-6,31
792,318	-45,23
792,498	55,12
792,677	73,56
792,856	14,17
793,036	-2,22
793,215	-4,27
793,395	91,99
793,574	-8,36
793,753	61,27
793,933	169,81
794,112	32,6
794,291	-16,55
794,471	130,9
794,65	-6,31
794,829	3,93
795,008	24,4
795,188	20,31
795,367	171,86
795,546	10,07
795,725	48,98
795,904	59,22
796,084	48,98
796,263	83,8
796,442	89,94
796,621	59,22
796,8	81,75
796,979	98,13
797,158	-30,89
797,337	59,22
797,516	81,75
797,695	44,88
797,874	28,5
798,053	26,45
798,232	57,17
798,411	40,79
798,59	1,88
798,769	-32,94
798,947	89,94
799,126	36,69
799,305	-41,13
799,484	18,26
799,663	57,17
799,842	55,12
800,02	73,56
800,199	87,89
800,378	102,23
800,557	-61,61
800,735	-63,66
800,914	-10,41
801,093	-24,75
801,271	-45,23
801,45	65,36
801,628	89,94
801,807	53,08
801,986	155,47
802,164	57,17
802,343	3,93
802,521	18,26
802,7	-4,27
802,878	51,03
803,057	42,84
803,235	51,03
803,414	-8,36
803,592	75,6
803,771	57,17
803,949	51,03
804,127	20,31
804,306	180,05
804,484	18,26
804,662	-16,55
804,841	-12,46
805,019	12,12
805,197	85,84
805,375	116,56
805,554	-30,89
805,732	10,07
805,91	48,98
806,088	81,75
806,266	32,6
806,445	24,4
806,623	42,84
806,801	57,17
806,979	106,32
807,157	51,03
807,335	81,75
807,513	44,88
807,691	63,32
807,869	-22,7
808,047	10,07
808,225	-65,71
808,403	67,41
808,581	40,79
808,759	182,1
808,937	77,65
809,115	89,94
809,293	122,71
809,471	61,27
809,649	100,18
809,826	132,95
810,004	104,28
810,182	-24,75
810,36	-14,51
810,538	124,76
810,715	28,5
810,893	51,03
811,071	65,36
811,248	77,65
811,426	24,4
811,604	73,56
811,781	42,84
811,959	53,08
812,137	118,61
812,314	-10,41
812,492	48,98
812,669	89,94
812,847	18,26
813,024	-61,61
813,202	42,84
813,379	12,12
813,557	-28,84
813,734	5,97
813,912	8,02
814,089	8,02
814,267	157,52
814,444	81,75
814,621	8,02
814,799	-77,99
814,976	106,32
815,153	69,46
815,331	69,46
815,508	8,02
815,685	-32,94
815,862	67,41
816,04	-4,27
816,217	-47,27
816,394	57,17
816,571	48,98
816,748	239,44
816,926	149,33
817,103	296,78
817,28	32,6
817,457	-10,41
817,634	89,94
817,811	-65,71
817,988	77,65
818,165	-8,36
818,342	126,8
818,519	57,17
818,696	-24,75
818,873	73,56
819,05	83,8
819,227	16,21
819,404	100,18
819,581	8,02
819,758	-49,32
819,934	57,17
820,111	22,36
820,288	24,4
820,465	124,76
820,642	44,88
820,818	-14,51
820,995	24,4
821,172	173,91
821,349	-0,17
821,525	32,6
821,702	91,99
821,879	16,21
822,055	-41,13
822,232	24,4
822,409	-14,51
822,585	75,6
822,762	59,22
822,938	67,41
823,115	75,6
823,291	32,6
823,468	229,2
823,644	-41,13
823,821	5,97
823,997	3,93
824,174	16,21
824,35	94,04
824,527	79,7
824,703	34,64
824,879	55,12
825,056	24,4
825,232	61,27
825,408	61,27
825,585	28,5
825,761	-55,47
825,937	1,88
826,113	1,88
826,29	8,02
826,466	-12,46
826,642	409,42
826,818	81,75
826,994	1,88
827,17	-28,84
827,347	40,79
827,523	-39,08
827,699	24,4
827,875	-28,84
828,051	57,17
828,227	59,22
828,403	44,88
828,579	106,32
828,755	89,94
828,931	-30,89
829,107	122,71
829,283	61,27
829,459	-14,51
829,635	40,79
829,811	34,64
829,986	73,56
830,162	10,07
830,338	16,21
830,514	-30,89
830,69	48,98
830,865	98,13
831,041	102,23
831,217	-32,94
831,393	36,69
831,568	5,97
831,744	14,17
831,92	18,26
832,095	65,36
832,271	-20,65
832,447	-20,65
832,622	149,33
832,798	40,79
832,973	16,21
833,149	89,94
833,325	18,26
833,5	77,65
833,676	55,12
833,851	87,89
834,027	-28,84
834,202	139,09
834,377	57,17
834,553	75,6
834,728	40,79
834,904	91,99
835,079	55,12
835,254	57,17
835,43	48,98
835,605	-32,94
835,78	-71,85
835,955	32,6
836,131	-16,55
836,306	-49,32
836,481	-30,89
836,656	8,02
836,832	155,47
837,007	-24,75
837,182	-14,51
837,357	-47,27
837,532	8,02
837,707	-8,36
837,882	173,91
838,057	57,17
838,232	98,13
838,407	-8,36
838,582	-0,17
838,757	20,31
838,932	124,76
839,107	42,84
839,282	-24,75
839,457	1,88
839,632	65,36
839,807	98,13
839,982	-8,36
840,157	-45,23
840,332	42,84
840,506	61,27
840,681	-16,55
840,856	16,21
841,031	-24,75
841,205	51,03
841,38	67,41
841,555	108,37
841,73	69,46
841,904	28,5
842,079	-6,31
842,254	8,02
842,428	75,6
842,603	3,93
842,777	-26,79
842,952	22,36
843,126	-41,13
843,301	42,84
843,476	-22,7
843,65	147,28
843,825	124,76
843,999	16,21
844,173	16,21
844,348	-37,03
844,522	73,56
844,697	65,36
844,871	73,56
845,045	114,52
845,22	48,98
845,394	83,8
845,568	-2,22
845,743	-8,36
845,917	28,5
846,091	-24,75
846,265	34,64
846,44	10,07
846,614	24,4
846,788	16,21
846,962	108,37
847,136	-34,99
847,31	32,6
847,485	163,67
847,659	-57,51
847,833	28,5
848,007	-6,31
848,181	51,03
848,355	8,02
848,529	159,57
848,703	26,45
848,877	-80,04
849,051	81,75
849,225	16,21
849,399	-18,6
849,573	-49,32
849,746	-75,95
849,92	48,98
850,094	32,6
850,268	40,79
850,442	122,71
850,616	3,93
850,789	48,98
850,963	-65,71
851,137	-71,85
851,311	100,18
851,484	89,94
851,658	85,84
851,832	-47,27
852,005	24,4
852,179	-14,51
852,352	10,07
852,526	16,21
852,7	26,45
852,873	57,17
853,047	65,36
853,22	55,12
853,394	61,27
853,567	40,79
853,741	24,4
853,914	-32,94
854,088	18,26
854,261	8,02
854,434	73,56
854,608	-16,55
854,781	-80,04
854,955	16,21
855,128	65,36
855,301	-32,94
855,475	139,09
855,648	-16,55
855,821	3,93
855,994	102,23
856,168	57,17
856,341	122,71
856,514	-12,46
856,687	57,17
856,86	83,8
857,033	24,4
857,207	-28,84
857,38	26,45
857,553	108,37
857,726	34,64
857,899	81,75
858,072	20,31
858,245	26,45
858,418	48,98
858,591	-73,9
858,764	46,93
858,937	81,75
859,11	24,4
859,283	53,08
859,455	75,6
859,628	36,69
859,801	120,66
859,974	110,42
860,147	-65,71
860,32	26,45
860,492	26,45
860,665	-39,08
860,838	73,56
861,011	-6,31
861,183	114,52
861,356	106,32
861,529	77,65
861,701	-39,08
861,874	1,88
862,047	89,94
862,219	38,74
862,392	65,36
862,564	61,27
862,737	40,79
862,909	102,23
863,082	-10,41
863,254	65,36
863,427	18,26
863,599	124,76
863,772	-104,62
863,944	16,21
864,117	1,88
864,289	-4,27
864,461	-8,36
864,634	77,65
864,806	22,36
864,978	61,27
865,151	-12,46
865,323	112,47
865,495	81,75
865,667	-24,75
865,84	53,08
866,012	-30,89
866,184	91,99
866,356	-47,27
866,528	87,89
866,7	-4,27
866,873	34,64
867,045	8,02
867,217	-41,13
867,389	108,37
867,561	-6,31
867,733	61,27
867,905	42,84
868,077	26,45
868,249	48,98
868,421	-16,55
868,593	8,02
868,765	73,56
868,936	-4,27
869,108	24,4
869,28	73,56
869,452	65,36
869,624	-0,17
869,796	69,46
869,968	-12,46
870,139	48,98
870,311	22,36
870,483	48,98
870,654	-16,55
870,826	100,18
870,998	-37,03
871,17	36,69
871,341	-14,51
871,513	139,09
871,684	-32,94
871,856	24,4
872,028	59,22
872,199	18,26
872,371	-24,75
872,542	73,56
872,714	51,03
872,885	65,36
873,057	98,13
873,228	51,03
873,4	40,79
873,571	155,47
873,742	-0,17
873,914	96,08
874,085	-14,51
874,256	48,98
874,428	-100,52
874,599	-41,13
874,77	122,71
874,942	-59,56
875,113	-16,55
875,284	5,97
875,455	-0,17
875,626	28,5
875,798	42,84
875,969	-30,89
876,14	59,22
876,311	100,18
876,482	116,56
876,653	73,56
876,824	3,93
876,995	40,79
877,166	48,98
877,337	48,98
877,508	34,64
877,679	18,26
877,85	-32,94
878,021	34,64
878,192	67,41
878,363	-26,79
878,534	10,07
878,705	-37,03
878,876	3,93
879,047	61,27
879,217	-12,46
879,388	122,71
879,559	51,03
879,73	57,17
879,9	44,88
880,071	42,84
880,242	51,03
880,413	55,12
880,583	114,52
880,754	-0,17
880,924	-30,89
881,095	-82,09
881,266	16,21
881,436	24,4
881,607	141,14
881,777	81,75
881,948	-90,28
882,118	48,98
882,289	3,93
882,459	40,79
882,63	42,84
882,8	12,12
882,971	77,65
883,141	51,03
883,311	65,36
883,482	91,99
883,652	-47,27
883,822	-12,46
883,993	-106,67
884,163	130,9
884,333	16,21
884,504	79,7
884,674	100,18
884,844	-14,51
885,014	36,69
885,184	48,98
885,355	24,4
885,525	8,02
885,695	48,98
885,865	157,52
886,035	44,88
886,205	14,17
886,375	91,99
886,545	57,17
886,715	-53,42
886,885	10,07
887,055	-6,31
887,225	-41,13
887,395	8,02
887,565	116,56
887,735	48,98
887,905	51,03
888,075	40,79
888,244	98,13
888,414	106,32
888,584	116,56
888,754	16,21
888,924	118,61
889,093	200,53
889,263	10,07
889,433	18,26
889,603	48,98
889,772	57,17
889,942	48,98
890,111	67,41
890,281	59,22
890,451	16,21
890,62	10,07
890,79	-45,23
890,959	77,65
891,129	26,45
891,298	14,17
891,468	-8,36
891,637	75,6
891,807	-61,61
891,976	16,21
892,146	-32,94
892,315	51,03
892,485	57,17
892,654	48,98
892,823	-24,75
892,993	32,6
893,162	69,46
893,331	83,8
893,501	10,07
893,67	75,6
893,839	81,75
894,008	-14,51
894,177	18,26
894,347	48,98
894,516	65,36
894,685	-37,03
894,854	-24,75
895,023	65,36
895,192	5,97
