Data from he_USB4F104161__25__11-53-37-842.txt Node

Date: Tue Apr 14 11:53:37 EDT 2026
User: LaboPhy
Spectrometer: USB4F10416
Trigger mode: 4
Integration Time (sec): 1,000000E-1
Scans to average: 1
Electric dark correction enabled: true
Nonlinearity correction enabled: false
Boxcar width: 0
XAxis mode: Wavelengths
Number of Pixels in Spectrum: 3648
>>>>>Begin Spectral Data<<<<<
177,847	-162,64
178,066	-162,64
178,284	-162,64
178,502	-144,21
178,72	-148,31
178,939	-21,33
179,157	1,19
179,375	-62,29
179,593	42,15
179,812	19,63
180,03	3,24
180,248	21,67
180,466	1,19
180,685	21,67
180,903	52,39
181,121	-47,96
181,339	-31,57
181,557	5,29
181,775	9,39
181,994	29,87
182,212	21,67
182,43	23,72
182,648	-23,38
182,866	99,5
183,084	68,78
183,302	-80,72
183,52	-7
183,739	50,35
183,957	36,01
184,175	-11,09
184,393	95,4
184,611	103,59
184,829	113,83
185,047	29,87
185,265	66,73
185,483	-4,95
185,701	46,25
185,919	-7
186,137	-7
186,355	81,07
186,573	-19,29
186,791	44,2
187,009	36,01
187,227	66,73
187,445	9,39
187,663	72,87
187,881	-29,52
188,098	27,82
188,316	-2,9
188,534	52,39
188,752	25,77
188,97	-33,62
189,188	-39,76
189,406	29,87
189,624	107,69
189,841	1,19
190,059	-97,11
190,277	50,35
190,495	68,78
190,713	173,22
190,931	119,98
191,148	50,35
191,366	17,58
191,584	11,43
191,802	44,2
192,019	68,78
192,237	-56,15
192,455	-60,24
192,673	66,73
192,89	-39,76
193,108	29,87
193,326	-7
193,543	42,15
193,761	95,4
193,979	-7
194,196	-15,19
194,414	-15,19
194,632	128,17
194,849	-15,19
195,067	-15,19
195,285	58,54
195,502	-7
195,72	72,87
195,937	27,82
196,155	66,73
196,373	-29,52
196,59	-35,67
196,808	74,92
197,025	19,63
197,243	289,96
197,46	21,67
197,678	76,97
197,895	-27,48
198,113	60,59
198,33	9,39
198,548	87,21
198,765	-0,85
198,983	66,73
199,2	-2,9
199,418	19,63
199,635	3,24
199,853	-47,96
200,07	19,63
200,288	42,15
200,505	21,67
200,722	68,78
200,94	19,63
201,157	29,87
201,375	134,31
201,592	50,35
201,809	9,39
202,027	183,46
202,244	-35,67
202,461	-80,72
202,679	-2,9
202,896	74,92
203,113	-58,2
203,331	44,2
203,548	-39,76
203,765	58,54
203,982	33,96
204,2	-7
204,417	11,43
204,634	230,57
204,851	-4,95
205,069	25,77
205,286	87,21
205,503	42,15
205,72	13,48
205,937	115,88
206,155	-33,62
206,372	58,54
206,589	-62,29
206,806	52,39
207,023	25,77
207,24	79,02
207,458	-23,38
207,675	-39,76
207,892	-19,29
208,109	25,77
208,326	44,2
208,543	128,17
208,76	5,29
208,977	181,42
209,194	29,87
209,411	25,77
209,628	-2,9
209,845	50,35
210,062	-39,76
210,279	-101,2
210,496	-13,14
210,713	1,19
210,93	56,49
211,147	148,65
211,364	-23,38
211,581	91,31
211,798	177,32
212,015	-119,64
212,232	44,2
212,449	-2,9
212,666	-15,19
212,883	13,48
213,1	19,63
213,317	33,96
213,533	56,49
213,75	17,58
213,967	9,39
214,184	-60,24
214,401	-23,38
214,618	-105,3
214,835	1,19
215,051	68,78
215,268	31,91
215,485	52,39
215,702	-15,19
215,919	-105,3
216,135	181,42
216,352	44,2
216,569	54,44
216,786	66,73
217,002	-52,05
217,219	-13,14
217,436	-52,05
217,652	-15,19
217,869	68,78
218,086	115,88
218,302	23,72
218,519	103,59
218,736	1,19
218,952	-7
219,169	87,21
219,386	89,26
219,602	-2,9
219,819	-47,96
220,036	-62,29
220,252	3,24
220,469	1,19
220,685	99,5
220,902	38,06
221,118	17,58
221,335	29,87
221,552	-31,57
221,768	79,02
221,985	5,29
222,201	17,58
222,418	42,15
222,634	-21,33
222,851	36,01
223,067	42,15
223,284	17,58
223,5	-43,86
223,716	9,39
223,933	11,43
224,149	33,96
224,366	11,43
224,582	17,58
224,799	-54,1
225,015	42,15
225,231	-21,33
225,448	-54,1
225,664	54,44
225,88	-41,81
226,097	33,96
226,313	7,34
226,529	58,54
226,746	83,11
226,962	66,73
227,178	21,67
227,395	25,77
227,611	79,02
227,827	13,48
228,044	74,92
228,26	83,11
228,476	87,21
228,692	29,87
228,909	58,54
229,125	11,43
229,341	48,3
229,557	-21,33
229,773	-29,52
229,99	25,77
230,206	-15,19
230,422	111,78
230,638	-7
230,854	21,67
231,07	-119,64
231,286	132,26
231,503	103,59
231,719	-29,52
231,935	-27,48
232,151	25,77
232,367	85,16
232,583	81,07
232,799	60,59
233,015	9,39
233,231	-76,63
233,447	9,39
233,663	27,82
233,879	38,06
234,095	-37,72
234,311	134,31
234,527	52,39
234,743	87,21
234,959	-47,96
235,175	72,87
235,391	-101,2
235,607	38,06
235,823	-7
236,039	36,01
236,255	44,2
236,471	38,06
236,687	-23,38
236,903	60,59
237,118	66,73
237,334	-23,38
237,55	66,73
237,766	-7
237,982	148,65
238,198	66,73
238,413	29,87
238,629	44,2
238,845	-15,19
239,061	-7
239,277	33,96
239,492	31,91
239,708	-11,09
239,924	-111,44
240,14	25,77
240,355	208,04
240,571	38,06
240,787	-47,96
241,003	46,25
241,218	1,19
241,434	9,39
241,65	91,31
241,865	-31,57
242,081	99,5
242,297	1,19
242,512	58,54
242,728	-7
242,944	-7
243,159	23,72
243,375	44,2
243,59	11,43
243,806	83,11
244,022	11,43
244,237	17,58
244,453	-27,48
244,668	68,78
244,884	140,46
245,099	-64,34
245,315	128,17
245,53	95,4
245,746	1,19
245,961	48,3
246,177	-15,19
246,392	128,17
246,608	97,45
246,823	19,63
247,039	-23,38
247,254	-54,1
247,47	44,2
247,685	-56,15
247,9	17,58
248,116	-45,91
248,331	-2,9
248,547	11,43
248,762	-88,92
248,977	54,44
249,193	1,19
249,408	66,73
249,623	70,83
249,839	-52,05
250,054	-105,3
250,269	-76,63
250,485	66,73
250,7	9,39
250,915	68,78
251,13	60,59
251,346	33,96
251,561	66,73
251,776	1,19
251,991	-160,59
252,207	46,25
252,422	13,48
252,637	-43,86
252,852	-4,95
253,067	-29,52
253,283	33,96
253,498	-21,33
253,713	-29,52
253,928	33,96
254,143	-58,2
254,358	93,35
254,573	-35,67
254,788	9,39
255,004	-13,14
255,219	-23,38
255,434	-0,85
255,649	-0,85
255,864	21,67
256,079	-7
256,294	17,58
256,509	-39,76
256,724	-15,19
256,939	-101,2
257,154	-31,57
257,369	-7
257,584	132,26
257,799	-41,81
258,014	33,96
258,229	103,59
258,444	-45,91
258,659	33,96
258,874	50,35
259,089	101,55
259,304	9,39
259,518	-29,52
259,733	33,96
259,948	70,83
260,163	79,02
260,378	50,35
260,593	13,48
260,808	-2,9
261,022	-21,33
261,237	113,83
261,452	3,24
261,667	-15,19
261,882	76,97
262,096	52,39
262,311	99,5
262,526	-90,96
262,741	-15,19
262,955	-27,48
263,17	25,77
263,385	-2,9
263,6	33,96
263,814	21,67
264,029	-27,48
264,244	95,4
264,458	99,5
264,673	31,91
264,888	85,16
265,102	48,3
265,317	-31,57
265,532	9,39
265,746	66,73
265,961	25,77
266,175	-21,33
266,39	-2,9
266,605	-15,19
266,819	11,43
267,034	105,64
267,248	-52,05
267,463	93,35
267,677	-21,33
267,892	40,11
268,106	-119,64
268,321	17,58
268,535	107,69
268,75	140,46
268,964	-33,62
269,179	101,55
269,393	1,19
269,608	54,44
269,822	-23,38
270,036	-47,96
270,251	25,77
270,465	44,2
270,68	9,39
270,894	9,39
271,108	148,65
271,323	-105,3
271,537	-88,92
271,752	60,59
271,966	27,82
272,18	-13,14
272,394	-56,15
272,609	3,24
272,823	-21,33
273,037	36,01
273,252	5,29
273,466	-13,14
273,68	42,15
273,894	23,72
274,109	-7
274,323	70,83
274,537	-39,76
274,751	-25,43
274,966	36,01
275,18	13,48
275,394	-21,33
275,608	-64,34
275,822	-56,15
276,036	-9,05
276,25	21,67
276,465	-33,62
276,679	93,35
276,893	33,96
277,107	101,55
277,321	-56,15
277,535	52,39
277,749	79,02
277,963	46,25
278,177	-88,92
278,391	83,11
278,605	-29,52
278,819	50,35
279,033	-7
279,247	-78,68
279,461	62,63
279,675	3,24
279,889	117,93
280,103	7,34
280,317	138,41
280,531	-97,11
280,745	54,44
280,959	9,39
281,173	-15,19
281,387	11,43
281,601	109,74
281,815	83,11
282,029	-62,29
282,242	33,96
282,456	-13,14
282,67	-23,38
282,884	-47,96
283,098	19,63
283,312	42,15
283,525	68,78
283,739	21,67
283,953	115,88
284,167	23,72
284,381	83,11
284,594	11,43
284,808	52,39
285,022	-54,1
285,235	-80,72
285,449	79,02
285,663	42,15
285,877	-15,19
286,09	50,35
286,304	60,59
286,518	-2,9
286,731	-121,68
286,945	44,2
287,159	-97,11
287,372	3,24
287,586	33,96
287,799	-35,67
288,013	-97,11
288,227	-13,14
288,44	304,29
288,654	58,54
288,867	44,2
289,081	9,39
289,294	87,21
289,508	40,11
289,721	-54,1
289,935	7,34
290,148	9,39
290,362	87,21
290,575	1,19
290,789	33,96
291,002	-54,1
291,216	74,92
291,429	21,67
291,643	54,44
291,856	58,54
292,069	-39,76
292,283	11,43
292,496	-19,29
292,71	52,39
292,923	31,91
293,136	-21,33
293,35	5,29
293,563	-70,48
293,776	44,2
293,99	95,4
294,203	-56,15
294,416	25,77
294,63	-95,06
294,843	-47,96
295,056	58,54
295,269	-31,57
295,483	-60,24
295,696	76,97
295,909	-13,14
296,122	50,35
296,335	27,82
296,549	-15,19
296,762	21,67
296,975	33,96
297,188	17,58
297,401	17,58
297,615	50,35
297,828	-31,57
298,041	144,55
298,254	-68,44
298,467	11,43
298,68	-4,95
298,893	-56,15
299,106	-47,96
299,319	17,58
299,532	1,19
299,745	-72,53
299,958	-23,38
300,171	17,58
300,384	17,58
300,598	-84,82
300,81	156,84
301,023	-11,09
301,236	-97,11
301,449	38,06
301,662	-23,38
301,875	17,58
302,088	33,96
302,301	3,24
302,514	-23,38
302,727	42,15
302,94	-39,76
303,153	11,43
303,366	9,39
303,579	-47,96
303,791	50,35
304,004	-54,1
304,217	50,35
304,43	-7
304,643	56,49
304,855	-11,09
305,068	93,35
305,281	115,88
305,494	1,19
305,707	91,31
305,919	177,32
306,132	-2,9
306,345	17,58
306,558	91,31
306,77	-64,34
306,983	-39,76
307,196	107,69
307,408	-21,33
307,621	64,68
307,834	-23,38
308,046	33,96
308,259	-31,57
308,472	11,43
308,684	101,55
308,897	-78,68
309,109	-0,85
309,322	-64,34
309,535	1,19
309,747	103,59
309,96	52,39
310,172	95,4
310,385	177,32
310,597	-7
310,81	5,29
311,022	-29,52
311,235	-70,48
311,447	15,53
311,66	42,15
311,872	-47,96
312,085	1,19
312,297	-13,14
312,51	-76,63
312,722	70,83
312,934	107,69
313,147	-86,87
313,359	-78,68
313,572	-15,19
313,784	38,06
313,996	36,01
314,209	66,73
314,421	-19,29
314,633	1,19
314,846	-15,19
315,058	-4,95
315,27	-64,34
315,483	-15,19
315,695	-84,82
315,907	-47,96
316,119	-64,34
316,332	-43,86
316,544	23,72
316,756	70,83
316,968	66,73
317,181	99,5
317,393	66,73
317,605	25,77
317,817	111,78
318,029	124,07
318,241	140,46
318,454	115,88
318,666	107,69
318,878	-2,9
319,09	46,25
319,302	130,22
319,514	36,01
319,726	19,63
319,938	154,79
320,15	1,19
320,362	-62,29
320,574	-21,33
320,786	-19,29
320,999	-15,19
321,211	-2,9
321,423	3,24
321,635	-21,33
321,847	54,44
322,058	-121,68
322,27	27,82
322,482	7,34
322,694	76,97
322,906	-27,48
323,118	36,01
323,33	-4,95
323,542	54,44
323,754	9,39
323,966	-80,72
324,178	97,45
324,389	-78,68
324,601	50,35
324,813	-45,91
325,025	9,39
325,237	44,2
325,449	33,96
325,66	54,44
325,872	23,72
326,084	83,11
326,296	-43,86
326,507	17,58
326,719	-19,29
326,931	-54,1
327,143	-45,91
327,354	201,9
327,566	58,54
327,778	5,29
327,989	66,73
328,201	27,82
328,413	115,88
328,624	44,2
328,836	-2,9
329,048	-88,92
329,259	-2,9
329,471	-35,67
329,682	11,43
329,894	-80,72
330,106	-21,33
330,317	-11,09
330,529	56,49
330,74	-25,43
330,952	50,35
331,163	-31,57
331,375	42,15
331,586	-31,57
331,798	-15,19
332,009	87,21
332,221	70,83
332,432	101,55
332,644	11,43
332,855	-86,87
333,067	-13,14
333,278	-2,9
333,489	-15,19
333,701	-60,24
333,912	-113,49
334,124	29,87
334,335	-54,1
334,546	-47,96
334,758	-7
334,969	142,5
335,18	21,67
335,392	3,24
335,603	33,96
335,814	-13,14
336,025	-103,25
336,237	5,29
336,448	-50
336,659	17,58
336,87	117,93
337,082	83,11
337,293	17,58
337,504	36,01
337,715	-47,96
337,926	-54,1
338,138	-25,43
338,349	60,59
338,56	33,96
338,771	1,19
338,982	-2,9
339,193	7,34
339,404	109,74
339,616	9,39
339,827	19,63
340,038	-9,05
340,249	11,43
340,46	15,53
340,671	-19,29
340,882	99,5
341,093	50,35
341,304	-29,52
341,515	17,58
341,726	-86,87
341,937	-0,85
342,148	21,67
342,359	-15,19
342,57	-37,72
342,781	87,21
342,992	-15,19
343,203	-4,95
343,414	62,63
343,624	-60,24
343,835	3,24
344,046	-4,95
344,257	76,97
344,468	-72,53
344,679	-72,53
344,89	17,58
345,1	-23,38
345,311	-23,38
345,522	23,72
345,733	-29,52
345,944	3,24
346,154	95,4
346,365	62,63
346,576	-64,34
346,787	-15,19
346,997	68,78
347,208	152,74
347,419	-54,1
347,629	74,92
347,84	101,55
348,051	-27,48
348,261	-11,09
348,472	11,43
348,683	58,54
348,893	-29,52
349,104	-31,57
349,315	-9,05
349,525	-0,85
349,736	-43,86
349,946	-15,19
350,157	27,82
350,368	48,3
350,578	-15,19
350,789	87,21
350,999	13,48
351,21	50,35
351,42	-56,15
351,631	-47,96
351,841	-7
352,052	-29,52
352,262	13,48
352,472	-72,53
352,683	17,58
352,893	-27,48
353,104	-25,43
353,314	76,97
353,525	324,77
353,735	7,34
353,945	25,77
354,156	-70,48
354,366	101,55
354,576	144,55
354,787	42,15
354,997	-43,86
355,207	-64,34
355,418	-23,38
355,628	-60,24
355,838	13,48
356,048	3,24
356,259	64,68
356,469	-21,33
356,679	1,19
356,889	68,78
357,1	23,72
357,31	3,24
357,52	11,43
357,73	-7
357,94	-23,38
358,15	-43,86
358,361	79,02
358,571	50,35
358,781	25,77
358,991	-39,76
359,201	-72,53
359,411	-47,96
359,621	-54,1
359,831	83,11
360,041	-13,14
360,251	33,96
360,461	52,39
360,672	-39,76
360,882	-11,09
361,092	17,58
361,302	128,17
361,512	76,97
361,721	-15,19
361,931	42,15
362,141	1,19
362,351	-27,48
362,561	107,69
362,771	31,91
362,981	25,77
363,191	5,29
363,401	11,43
363,611	-25,43
363,821	-31,57
364,03	-7
364,24	33,96
364,45	-0,85
364,66	205,99
364,87	11,43
365,08	-4,95
365,289	46,25
365,499	29,87
365,709	29,87
365,919	3,24
366,128	-7
366,338	27,82
366,548	-37,72
366,758	17,58
366,967	21,67
367,177	50,35
367,387	27,82
367,596	17,58
367,806	50,35
368,016	72,87
368,225	58,54
368,435	132,26
368,644	1,19
368,854	-47,96
369,064	115,88
369,273	50,35
369,483	-39,76
369,692	44,2
369,902	54,44
370,111	76,97
370,321	-21,33
370,53	13,48
370,74	-15,19
370,949	44,2
371,159	107,69
371,368	36,01
371,578	44,2
371,787	66,73
371,997	25,77
372,206	36,01
372,416	115,88
372,625	-13,14
372,834	9,39
373,044	19,63
373,253	136,36
373,462	19,63
373,672	76,97
373,881	1,19
374,09	-21,33
374,3	44,2
374,509	-29,52
374,718	17,58
374,928	107,69
375,137	-13,14
375,346	19,63
375,555	105,64
375,765	-72,53
375,974	25,77
376,183	-7
376,392	3,24
376,601	124,07
376,811	29,87
377,02	165,03
377,229	81,07
377,438	21,67
377,647	74,92
377,856	5,29
378,065	13,48
378,275	-7
378,484	-39,76
378,693	52,39
378,902	23,72
379,111	13,48
379,32	-62,29
379,529	-45,91
379,738	-4,95
379,947	13,48
380,156	-15,19
380,365	119,98
380,574	74,92
380,783	-47,96
380,992	-4,95
381,201	9,39
381,41	11,43
381,619	46,25
381,828	173,22
382,037	-9,05
382,245	119,98
382,454	148,65
382,663	124,07
382,872	66,73
383,081	17,58
383,29	91,31
383,499	83,11
383,707	40,11
383,916	126,12
384,125	-4,95
384,334	21,67
384,542	74,92
384,751	50,35
384,96	60,59
385,169	17,58
385,377	58,54
385,586	83,11
385,795	70,83
386,004	140,46
386,212	91,31
386,421	42,15
386,63	414,88
386,838	795,81
387,047	1166,49
387,255	1870,99
387,464	2655,36
387,673	3753,07
387,881	4762,72
388,09	5620,82
388,298	6618,18
388,507	8184,88
388,715	9808,92
388,924	10691,59
389,133	10380,3
389,341	10302,48
389,55	8946,72
389,758	6659,14
389,967	4465,77
390,175	2868,35
390,383	2272,39
390,592	1758,35
390,8	1125,53
391,009	740,51
391,217	410,79
391,426	275,62
391,634	109,74
391,842	101,55
392,051	91,31
392,259	126,12
392,467	76,97
392,676	33,96
392,884	-7
393,092	-7
393,301	68,78
393,509	46,25
393,717	109,74
393,925	40,11
394,134	17,58
394,342	19,63
394,55	140,46
394,758	132,26
394,967	33,96
395,175	-31,57
395,383	50,35
395,591	134,31
395,799	132,26
396,007	-23,38
396,216	251,05
396,424	199,85
396,632	169,13
396,84	148,65
397,048	183,46
397,256	134,31
397,464	124,07
397,672	130,22
397,88	9,39
398,088	58,54
398,296	-0,85
398,504	25,77
398,712	27,82
398,92	50,35
399,128	91,31
399,336	-7
399,544	-2,9
399,752	-105,3
399,96	29,87
400,168	140,46
400,376	62,63
400,584	130,22
400,792	52,39
401	109,74
401,207	19,63
401,415	93,35
401,623	273,57
401,831	249
402,039	255,14
402,247	289,96
402,454	468,13
402,662	369,83
402,87	345,25
403,078	480,42
403,285	337,06
403,493	240,81
403,701	148,65
403,909	58,54
404,116	128,17
404,324	17,58
404,532	117,93
404,739	-21,33
404,947	-21,33
405,155	87,21
405,362	44,2
405,57	44,2
405,778	-39,76
405,985	13,48
406,193	62,63
406,4	-17,24
406,608	68,78
406,816	-39,76
407,023	11,43
407,231	50,35
407,438	50,35
407,646	52,39
407,853	1,19
408,061	-29,52
408,268	54,44
408,476	1,19
408,683	40,11
408,89	27,82
409,098	7,34
409,305	56,49
409,513	-4,95
409,72	23,72
409,927	25,77
410,135	66,73
410,342	1,19
410,55	42,15
410,757	33,96
410,964	-31,57
411,172	89,26
411,379	66,73
411,586	21,67
411,793	46,25
412,001	62,63
412,208	79,02
412,415	109,74
412,622	162,98
412,83	-60,24
413,037	124,07
413,244	-27,48
413,451	91,31
413,658	144,55
413,866	25,77
414,073	25,77
414,28	50,35
414,487	17,58
414,694	38,06
414,901	93,35
415,108	9,39
415,315	1,19
415,522	158,89
415,73	52,39
415,937	-23,38
416,144	17,58
416,351	-13,14
416,558	-47,96
416,765	36,01
416,972	-23,38
417,179	-11,09
417,386	83,11
417,593	9,39
417,8	3,24
418,006	31,91
418,213	72,87
418,42	44,2
418,627	25,77
418,834	23,72
419,041	-54,1
419,248	40,11
419,455	56,49
419,661	23,72
419,868	-13,14
420,075	25,77
420,282	-127,83
420,489	-11,09
420,696	58,54
420,902	-13,14
421,109	64,68
421,316	-80,72
421,523	42,15
421,729	83,11
421,936	29,87
422,143	17,58
422,349	3,24
422,556	54,44
422,763	27,82
422,969	44,2
423,176	-33,62
423,383	1,19
423,589	316,58
423,796	42,15
424,002	-2,9
424,209	54,44
424,416	136,36
424,622	-72,53
424,829	-21,33
425,035	-111,44
425,242	1,19
425,448	48,3
425,655	70,83
425,861	-0,85
426,068	-13,14
426,274	101,55
426,481	-95,06
426,687	-0,85
426,894	33,96
427,1	50,35
427,306	-39,76
427,513	9,39
427,719	-19,29
427,926	3,24
428,132	-23,38
428,338	-54,1
428,545	-15,19
428,751	21,67
428,957	60,59
429,163	25,77
429,37	58,54
429,576	15,53
429,782	62,63
429,989	-7
430,195	60,59
430,401	-50
430,607	-45,91
430,813	-60,24
431,02	87,21
431,226	25,77
431,432	11,43
431,638	-39,76
431,844	-95,06
432,05	46,25
432,257	17,58
432,463	46,25
432,669	-7
432,875	27,82
433,081	1,19
433,287	-35,67
433,493	-150,36
433,699	46,25
433,905	44,2
434,111	-86,87
434,317	-70,48
434,523	140,46
434,729	74,92
434,935	-37,72
435,141	160,94
435,347	25,77
435,553	48,3
435,759	-7
435,965	9,39
436,171	44,2
436,377	66,73
436,582	83,11
436,788	-47,96
436,994	87,21
437,2	66,73
437,406	33,96
437,612	85,16
437,818	148,65
438,023	21,67
438,229	187,56
438,435	109,74
438,641	66,73
438,846	70,83
439,052	128,17
439,258	208,04
439,464	76,97
439,669	95,4
439,875	220,33
440,081	68,78
440,286	-19,29
440,492	17,58
440,698	52,39
440,903	70,83
441,109	111,78
441,314	-15,19
441,52	-95,06
441,726	132,26
441,931	31,91
442,137	11,43
442,342	117,93
442,548	33,96
442,753	107,69
442,959	-70,48
443,164	36,01
443,37	70,83
443,575	21,67
443,781	17,58
443,986	58,54
444,192	66,73
444,397	33,96
444,602	-21,33
444,808	-7
445,013	33,96
445,219	230,57
445,424	472,23
445,629	681,12
445,835	1057,95
446,04	1258,65
446,245	1592,47
446,451	1836,17
446,656	2159,75
446,861	2542,72
447,066	3067
447,272	3294,33
447,477	3406,97
447,682	3140,73
447,887	2593,92
448,093	2204,81
448,298	1836,17
448,503	959,64
448,708	699,55
448,913	394,4
449,118	238,76
449,324	306,34
449,529	136,36
449,734	-25,43
449,939	-52,05
450,144	99,5
450,349	36,01
450,554	25,77
450,759	7,34
450,964	13,48
451,169	25,77
451,374	19,63
451,579	60,59
451,784	-23,38
451,989	54,44
452,194	-15,19
452,399	25,77
452,604	19,63
452,809	-23,38
453,014	-15,19
453,219	128,17
453,424	5,29
453,629	-47,96
453,833	-9,05
454,038	50,35
454,243	-13,14
454,448	99,5
454,653	29,87
454,858	46,25
455,062	-11,09
455,267	21,67
455,472	91,31
455,677	44,2
455,882	44,2
456,086	25,77
456,291	72,87
456,496	-15,19
456,7	-4,95
456,905	3,24
457,11	21,67
457,314	5,29
457,519	33,96
457,724	27,82
457,928	36,01
458,133	-31,57
458,338	60,59
458,542	-60,24
458,747	11,43
458,951	-47,96
459,156	58,54
459,36	-39,76
459,565	150,7
459,769	-62,29
459,974	46,25
460,178	21,67
460,383	-54,1
460,587	-0,85
460,792	-7
460,996	-68,44
461,201	-23,38
461,405	17,58
461,61	-4,95
461,814	1,19
462,018	-68,44
462,223	-133,97
462,427	-11,09
462,631	29,87
462,836	83,11
463,04	-43,86
463,244	68,78
463,449	11,43
463,653	126,12
463,857	50,35
464,062	148,65
464,266	9,39
464,47	64,68
464,674	-21,33
464,878	50,35
465,083	31,91
465,287	76,97
465,491	31,91
465,695	29,87
465,899	70,83
466,104	36,01
466,308	-4,95
466,512	50,35
466,716	-37,72
466,92	117,93
467,124	50,35
467,328	33,96
467,532	99,5
467,736	-9,05
467,94	21,67
468,144	31,91
468,348	68,78
468,552	158,89
468,756	13,48
468,96	36,01
469,164	-47,96
469,368	58,54
469,572	50,35
469,776	279,72
469,98	271,53
470,184	324,77
470,388	459,94
470,591	552,1
470,795	619,68
470,999	625,83
471,203	771,23
471,407	869,53
471,611	771,23
471,814	748,7
472,018	648,35
472,222	552,1
472,426	591,01
472,63	312,49
472,833	234,66
473,037	171,18
473,241	109,74
473,444	56,49
473,648	597,15
473,852	-23,38
474,055	27,82
474,259	25,77
474,463	38,06
474,666	99,5
474,87	25,77
475,074	-25,43
475,277	-4,95
475,481	101,55
475,684	-78,68
475,888	-7
476,091	-15,19
476,295	-72,53
476,498	-97,11
476,702	9,39
476,905	105,64
477,109	83,11
477,312	66,73
477,516	-29,52
477,719	-7
477,923	42,15
478,126	-23,38
478,329	-56,15
478,533	-93,01
478,736	52,39
478,94	79,02
479,143	13,48
479,346	-39,76
479,55	56,49
479,753	19,63
479,956	-2,9
480,159	-37,72
480,363	17,58
480,566	3,24
480,769	-62,29
480,972	-21,33
481,176	60,59
481,379	44,2
481,582	140,46
481,785	-111,44
481,988	66,73
482,192	93,35
482,395	-21,33
482,598	27,82
482,801	89,26
483,004	91,31
483,207	-56,15
483,41	38,06
483,613	36,01
483,817	-7
484,02	9,39
484,223	-64,34
484,426	1,19
484,629	-29,52
484,832	152,74
485,035	36,01
485,238	-13,14
485,441	29,87
485,644	50,35
485,846	-0,85
486,049	56,49
486,252	-15,19
486,455	7,34
486,658	7,34
486,861	-19,29
487,064	85,16
487,267	-62,29
487,47	132,26
487,672	1,19
487,875	74,92
488,078	-60,24
488,281	152,74
488,484	54,44
488,686	-23,38
488,889	60,59
489,092	-33,62
489,295	-37,72
489,497	128,17
489,7	-70,48
489,903	9,39
490,105	54,44
490,308	66,73
490,511	285,86
490,713	267,43
490,916	394,4
491,118	634,02
491,321	732,32
491,524	912,54
491,726	1023,13
491,929	1074,33
492,131	1262,74
492,334	1303,7
492,536	1367,19
492,739	1412,25
492,941	1295,51
493,144	1180,82
493,346	851,1
493,549	668,83
493,751	500,9
493,954	353,45
494,156	222,38
494,359	156,84
494,561	1,19
494,763	91,31
494,966	11,43
495,168	91,31
495,37	-23,38
495,573	9,39
495,775	42,15
495,977	42,15
496,18	50,35
496,382	117,93
496,584	7,34
496,787	107,69
496,989	25,77
497,191	-62,29
497,393	74,92
497,595	-23,38
497,798	17,58
498	38,06
498,202	66,73
498,404	17,58
498,606	27,82
498,808	103,59
499,011	91,31
499,213	162,98
499,415	48,3
499,617	257,19
499,819	568,48
500,021	804
500,223	1084,57
500,425	1721,49
500,627	2231,43
500,829	2884,73
501,031	3331,19
501,233	3851,38
501,435	4310,12
501,637	4858,98
501,839	4908,13
502,041	4760,67
502,243	4457,57
502,445	3935,34
502,647	3253,37
502,848	2356,36
503,05	1840,27
503,252	1436,82
503,454	890,01
503,656	582,82
503,858	386,21
504,059	287,91
504,261	337,06
504,463	292,01
504,665	203,94
504,867	289,96
505,068	230,57
505,27	246,95
505,472	314,53
505,673	160,94
505,875	173,22
506,077	136,36
506,278	140,46
506,48	50,35
506,682	27,82
506,883	-2,9
507,085	66,73
507,287	-62,29
507,488	29,87
507,69	-11,09
507,891	83,11
508,093	111,78
508,294	9,39
508,496	9,39
508,697	-72,53
508,899	-4,95
509,1	15,53
509,302	36,01
509,503	60,59
509,705	68,78
509,906	62,63
510,108	17,58
510,309	-33,62
510,51	33,96
510,712	-64,34
510,913	-23,38
511,114	-15,19
511,316	-60,24
511,517	36,01
511,718	-50
511,92	-33,62
512,121	66,73
512,322	-21,33
512,524	132,26
512,725	13,48
512,926	-31,57
513,127	-11,09
513,329	52,39
513,53	-45,91
513,731	25,77
513,932	13,48
514,133	-47,96
514,334	42,15
514,536	150,7
514,737	124,07
514,938	87,21
515,139	-13,14
515,34	-66,39
515,541	93,35
515,742	-31,57
515,943	33,96
516,144	-15,19
516,345	27,82
516,546	33,96
516,747	91,31
516,948	9,39
517,149	-52,05
517,35	-2,9
517,551	-23,38
517,752	44,2
517,953	1,19
518,154	-7
518,355	9,39
518,556	54,44
518,756	-13,14
518,957	-7
519,158	107,69
519,359	52,39
519,56	-64,34
519,761	9,39
519,961	62,63
520,162	99,5
520,363	-84,82
520,564	-68,44
520,764	199,85
520,965	-4,95
521,166	66,73
521,366	19,63
521,567	83,11
521,768	105,64
521,968	72,87
522,169	-70,48
522,37	-23,38
522,57	-70,48
522,771	17,58
522,972	-97,11
523,172	165,03
523,373	29,87
523,573	25,77
523,774	-21,33
523,974	111,78
524,175	54,44
524,375	1,19
524,576	-21,33
524,776	31,91
524,977	-47,96
525,177	91,31
525,378	25,77
525,578	107,69
525,778	46,25
525,979	54,44
526,179	68,78
526,38	-0,85
526,58	-21,33
526,78	19,63
526,981	74,92
527,181	-15,19
527,381	-7
527,582	70,83
527,782	11,43
527,982	54,44
528,182	83,11
528,383	17,58
528,583	13,48
528,783	101,55
528,983	58,54
529,183	-33,62
529,384	124,07
529,584	179,37
529,784	158,89
529,984	93,35
530,184	-43,86
530,384	15,53
530,584	-13,14
530,784	101,55
530,984	25,77
531,185	79,02
531,385	17,58
531,585	36,01
531,785	33,96
531,985	15,53
532,185	44,2
532,385	-37,72
532,585	93,35
532,785	117,93
532,984	60,59
533,184	36,01
533,384	17,58
533,584	-37,72
533,784	-9,05
533,984	-31,57
534,184	-111,44
534,384	-31,57
534,583	36,01
534,783	-97,11
534,983	91,31
535,183	-74,58
535,383	-70,48
535,582	126,12
535,782	42,15
535,982	66,73
536,182	17,58
536,381	1,19
536,581	-95,06
536,781	-23,38
536,98	-23,38
537,18	50,35
537,38	130,22
537,579	-2,9
537,779	42,15
537,979	74,92
538,178	-31,57
538,378	42,15
538,577	-15,19
538,777	-23,38
538,976	3,24
539,176	25,77
539,376	-13,14
539,575	-45,91
539,774	54,44
539,974	-31,57
540,173	33,96
540,373	36,01
540,572	-64,34
540,772	-21,33
540,971	-15,19
541,171	-4,95
541,37	42,15
541,569	66,73
541,769	60,59
541,968	3,24
542,167	-23,38
542,367	-15,19
542,566	9,39
542,765	11,43
542,965	27,82
543,164	-17,24
543,363	54,44
543,562	9,39
543,761	66,73
543,961	124,07
544,16	-35,67
544,359	160,94
544,558	33,96
544,757	33,96
544,957	42,15
545,156	60,59
545,355	-15,19
545,554	21,67
545,753	-27,48
545,952	87,21
546,151	25,77
546,35	46,25
546,549	33,96
546,748	128,17
546,947	13,48
547,146	-64,34
547,345	3,24
547,544	-19,29
547,743	-15,19
547,942	5,29
548,141	-60,24
548,34	-7
548,539	62,63
548,738	-56,15
548,937	74,92
549,135	5,29
549,334	-93,01
549,533	107,69
549,732	-31,57
549,931	46,25
550,13	25,77
550,328	36,01
550,527	-31,57
550,726	9,39
550,925	-80,72
551,123	89,26
551,322	-39,76
551,521	126,12
551,72	54,44
551,918	83,11
552,117	-7
552,315	19,63
552,514	-7
552,713	-76,63
552,911	-29,52
553,11	-47,96
553,309	50,35
553,507	60,59
553,706	-31,57
553,904	50,35
554,103	103,59
554,301	79,02
554,5	19,63
554,698	-72,53
554,897	-4,95
555,095	11,43
555,294	-31,57
555,492	-41,81
555,69	23,72
555,889	25,77
556,087	50,35
556,286	70,83
556,484	9,39
556,682	21,67
556,881	40,11
557,079	19,63
557,277	66,73
557,476	17,58
557,674	40,11
557,872	136,36
558,07	-21,33
558,269	58,54
558,467	58,54
558,665	48,3
558,863	87,21
559,062	60,59
559,26	21,67
559,458	-62,29
559,656	44,2
559,854	62,63
560,052	25,77
560,25	142,5
560,449	310,44
560,647	9,39
560,845	-4,95
561,043	95,4
561,241	85,16
561,439	93,35
561,637	-29,52
561,835	109,74
562,033	76,97
562,231	-31,57
562,429	-27,48
562,627	68,78
562,825	9,39
563,023	62,63
563,221	42,15
563,418	-31,57
563,616	40,11
563,814	156,84
564,012	9,39
564,21	140,46
564,408	27,82
564,605	-15,19
564,803	1,19
565,001	320,68
565,199	58,54
565,397	44,2
565,594	76,97
565,792	74,92
565,99	-4,95
566,188	132,26
566,385	99,5
566,583	13,48
566,781	91,31
566,978	101,55
567,176	181,42
567,373	83,11
567,571	33,96
567,769	66,73
567,966	21,67
568,164	36,01
568,361	42,15
568,559	111,78
568,756	-23,38
568,954	83,11
569,151	42,15
569,349	74,92
569,546	27,82
569,744	126,12
569,941	74,92
570,139	44,2
570,336	42,15
570,534	66,73
570,731	-2,9
570,928	79,02
571,126	165,03
571,323	134,31
571,52	91,31
571,718	101,55
571,915	109,74
572,112	-21,33
572,31	54,44
572,507	115,88
572,704	42,15
572,901	81,07
573,099	50,35
573,296	124,07
573,493	27,82
573,69	144,55
573,887	42,15
574,085	101,55
574,282	103,59
574,479	91,31
574,676	124,07
574,873	105,64
575,07	93,35
575,267	21,67
575,464	48,3
575,661	74,92
575,858	48,3
576,055	115,88
576,252	136,36
576,449	50,35
576,646	36,01
576,843	17,58
577,04	111,78
577,237	81,07
577,434	160,94
577,631	25,77
577,828	130,22
578,025	33,96
578,222	54,44
578,419	128,17
578,615	31,91
578,812	46,25
579,009	42,15
579,206	107,69
579,403	130,22
579,599	205,99
579,796	-15,19
579,993	222,38
580,19	74,92
580,386	87,21
580,583	165,03
580,78	60,59
580,976	181,42
581,173	36,01
581,37	124,07
581,566	111,78
581,763	109,74
581,96	111,78
582,156	76,97
582,353	136,36
582,549	283,81
582,746	87,21
582,942	52,39
583,139	189,61
583,335	152,74
583,532	165,03
583,728	76,97
583,925	214,18
584,121	177,32
584,318	226,47
584,514	238,76
584,711	169,13
584,907	287,91
585,103	281,77
585,3	410,79
585,496	494,76
585,693	1164,44
585,889	3673,2
586,085	8250,41
586,281	14021,59
586,478	21287,78
586,674	28705,52
586,87	37423,73
587,067	45851,12
587,263	51325,34
587,459	54710,63
587,655	57999,67
587,851	59164,96
588,048	58200,37
588,244	54382,96
588,44	50471,34
588,636	45439,48
588,832	38681,18
589,028	33039,03
589,224	26209,05
589,42	20867,95
589,617	14750,67
589,813	9939,99
590,009	6163,53
590,205	3834,99
590,401	2288,78
590,597	1434,77
590,793	1172,63
590,989	791,71
591,185	654,5
591,38	480,42
591,576	353,45
591,772	324,77
591,968	306,34
592,164	287,91
592,36	249
592,556	197,8
592,752	189,61
592,948	130,22
593,143	126,12
593,339	105,64
593,535	76,97
593,731	117,93
593,926	189,61
594,122	189,61
594,318	74,92
594,514	181,42
594,709	66,73
594,905	79,02
595,101	60,59
595,296	50,35
595,492	76,97
595,688	87,21
595,883	177,32
596,079	95,4
596,275	5,29
596,47	62,63
596,666	21,67
596,861	58,54
597,057	91,31
597,252	27,82
597,448	46,25
597,643	58,54
597,839	191,66
598,034	36,01
598,23	23,72
598,425	64,68
598,621	42,15
598,816	107,69
599,011	15,53
599,207	-4,95
599,402	62,63
599,597	142,5
599,793	140,46
599,988	9,39
600,183	19,63
600,379	101,55
600,574	44,2
600,769	40,11
600,965	50,35
601,16	29,87
601,355	58,54
601,55	101,55
601,745	54,44
601,941	83,11
602,136	38,06
602,331	29,87
602,526	70,83
602,721	83,11
602,916	25,77
603,111	111,78
603,307	74,92
603,502	117,93
603,697	-131,92
603,892	-7
604,087	117,93
604,282	117,93
604,477	79,02
604,672	56,49
604,867	19,63
605,062	58,54
605,257	17,58
605,452	99,5
605,646	99,5
605,841	44,2
606,036	60,59
606,231	54,44
606,426	115,88
606,621	-23,38
606,816	76,97
607,01	128,17
607,205	103,59
607,4	42,15
607,595	124,07
607,79	-27,48
607,984	70,83
608,179	56,49
608,374	-15,19
608,569	17,58
608,763	91,31
608,958	-113,49
609,153	-7
609,347	107,69
609,542	93,35
609,736	66,73
609,931	42,15
610,126	-35,67
610,32	115,88
610,515	-11,09
610,709	263,33
610,904	68,78
611,098	-13,14
611,293	29,87
611,487	99,5
611,682	-47,96
611,876	13,48
612,071	-47,96
612,265	11,43
612,46	66,73
612,654	60,59
612,848	-15,19
613,043	46,25
613,237	60,59
613,432	1,19
613,626	-31,57
613,82	-23,38
614,014	62,63
614,209	42,15
614,403	-11,09
614,597	17,58
614,792	122,02
614,986	-13,14
615,18	107,69
615,374	17,58
615,568	52,39
615,763	25,77
615,957	50,35
616,151	52,39
616,345	95,4
616,539	25,77
616,733	46,25
616,927	33,96
617,121	9,39
617,316	23,72
617,51	83,11
617,704	19,63
617,898	197,8
618,092	1,19
618,286	-0,85
618,48	27,82
618,674	126,12
618,868	93,35
619,061	-39,76
619,255	140,46
619,449	-33,62
619,643	-56,15
619,837	203,94
620,031	7,34
620,225	103,59
620,419	52,39
620,612	101,55
620,806	58,54
621	83,11
621,194	50,35
621,388	52,39
621,581	60,59
621,775	-43,86
621,969	66,73
622,162	36,01
622,356	-4,95
622,55	99,5
622,743	31,91
622,937	19,63
623,131	9,39
623,324	66,73
623,518	-23,38
623,712	-7
623,905	-13,14
624,099	85,16
624,292	50,35
624,486	19,63
624,679	-84,82
624,873	50,35
625,066	128,17
625,26	46,25
625,453	11,43
625,647	7,34
625,84	115,88
626,034	42,15
626,227	66,73
626,42	107,69
626,614	46,25
626,807	152,74
627	29,87
627,194	33,96
627,387	87,21
627,58	-43,86
627,774	-13,14
627,967	17,58
628,16	91,31
628,353	7,34
628,547	142,5
628,74	144,55
628,933	-23,38
629,126	83,11
629,319	66,73
629,513	85,16
629,706	36,01
629,899	42,15
630,092	27,82
630,285	-56,15
630,478	-47,96
630,671	44,2
630,864	58,54
631,057	9,39
631,25	83,11
631,443	-4,95
631,636	44,2
631,829	58,54
632,022	107,69
632,215	58,54
632,408	83,11
632,601	140,46
632,794	38,06
632,987	19,63
633,18	42,15
633,373	31,91
633,566	-11,09
633,758	-23,38
633,951	9,39
634,144	46,25
634,337	60,59
634,53	44,2
634,722	167,08
634,915	-80,72
635,108	17,58
635,301	13,48
635,493	50,35
635,686	156,84
635,879	25,77
636,071	-56,15
636,264	21,67
636,457	33,96
636,649	-37,72
636,842	91,31
637,034	62,63
637,227	132,26
637,42	50,35
637,612	-29,52
637,805	-7
637,997	85,16
638,19	-9,05
638,382	-64,34
638,575	-4,95
638,767	-56,15
638,96	132,26
639,152	66,73
639,344	107,69
639,537	-19,29
639,729	68,78
639,922	109,74
640,114	36,01
640,306	79,02
640,499	85,16
640,691	42,15
640,883	-21,33
641,075	126,12
641,268	83,11
641,46	126,12
641,652	165,03
641,844	-21,33
642,037	11,43
642,229	-21,33
642,421	91,31
642,613	11,43
642,805	89,26
642,998	1,19
643,19	111,78
643,382	87,21
643,574	70,83
643,766	-7
643,958	46,25
644,15	119,98
644,342	66,73
644,534	117,93
644,726	-68,44
644,918	91,31
645,11	-29,52
645,302	-23,38
645,494	31,91
645,686	21,67
645,878	17,58
646,07	52,39
646,262	5,29
646,453	27,82
646,645	1,19
646,837	62,63
647,029	29,87
647,221	-15,19
647,413	-39,76
647,604	9,39
647,796	132,26
647,988	54,44
648,18	27,82
648,371	-7
648,563	25,77
648,755	-43,86
648,947	42,15
649,138	50,35
649,33	60,59
649,521	62,63
649,713	9,39
649,905	27,82
650,096	62,63
650,288	-33,62
650,479	-47,96
650,671	36,01
650,863	33,96
651,054	-2,9
651,246	140,46
651,437	25,77
651,629	158,89
651,82	124,07
652,011	91,31
652,203	50,35
652,394	60,59
652,586	-9,05
652,777	-11,09
652,968	52,39
653,16	-13,14
653,351	79,02
653,542	169,13
653,734	42,15
653,925	-47,96
654,116	160,94
654,308	87,21
654,499	36,01
654,69	83,11
654,881	58,54
655,073	-13,14
655,264	-7
655,455	1,19
655,646	7,34
655,837	169,13
656,028	-0,85
656,219	36,01
656,411	66,73
656,602	46,25
656,793	103,59
656,984	128,17
657,175	50,35
657,366	15,53
657,557	136,36
657,748	50,35
657,939	19,63
658,13	66,73
658,321	60,59
658,512	115,88
658,703	99,5
658,894	74,92
659,084	-35,67
659,275	-0,85
659,466	-35,67
659,657	25,77
659,848	-29,52
660,039	97,45
660,23	64,68
660,42	36,01
660,611	25,77
660,802	58,54
660,993	91,31
661,183	25,77
661,374	40,11
661,565	150,7
661,755	17,58
661,946	46,25
662,137	58,54
662,327	21,67
662,518	21,67
662,709	83,11
662,899	-70,48
663,09	74,92
663,28	17,58
663,471	-21,33
663,662	158,89
663,852	109,74
664,043	21,67
664,233	-23,38
664,424	66,73
664,614	109,74
664,804	124,07
664,995	93,35
665,185	74,92
665,376	85,16
665,566	238,76
665,756	-15,19
665,947	152,74
666,137	279,72
666,328	1027,23
666,518	2118,79
666,708	3658,87
666,898	5323,87
667,089	7431,23
667,279	9106,46
667,469	10693,64
667,659	11510,78
667,85	11873,27
668,04	12213,23
668,23	11633,66
668,42	11084,8
668,61	10273,81
668,8	9536,54
668,991	8709,16
669,181	7392,31
669,371	6329,42
669,561	5467,22
669,751	4695,14
669,941	3890,29
670,131	2972,8
670,321	2133,13
670,511	1461,4
670,701	943,26
670,891	582,82
671,081	418,98
671,271	259,24
671,461	148,65
671,651	183,46
671,841	177,32
672,03	177,32
672,22	128,17
672,41	169,13
672,6	58,54
672,79	93,35
672,98	33,96
673,169	66,73
673,359	17,58
673,549	36,01
673,739	-66,39
673,928	33,96
674,118	27,82
674,308	19,63
674,497	124,07
674,687	48,3
674,877	9,39
675,066	29,87
675,256	58,54
675,446	85,16
675,635	50,35
675,825	46,25
676,014	19,63
676,204	-17,24
676,393	33,96
676,583	40,11
676,772	42,15
676,962	-23,38
677,151	40,11
677,341	-13,14
677,53	-7
677,72	29,87
677,909	46,25
678,099	5,29
678,288	33,96
678,477	81,07
678,667	27,82
678,856	50,35
679,045	50,35
679,235	58,54
679,424	33,96
679,613	167,08
679,802	5,29
679,992	58,54
680,181	56,49
680,37	99,5
680,559	33,96
680,748	99,5
680,938	91,31
681,127	29,87
681,316	58,54
681,505	9,39
681,694	1,19
681,883	99,5
682,072	19,63
682,261	9,39
682,45	-64,34
682,639	-72,53
682,828	58,54
683,017	173,22
683,206	44,2
683,395	38,06
683,584	93,35
683,773	25,77
683,962	11,43
684,151	5,29
684,34	83,11
684,529	115,88
684,718	38,06
684,907	9,39
685,095	103,59
685,284	93,35
685,473	105,64
685,662	-7
685,851	93,35
686,039	19,63
686,228	33,96
686,417	36,01
686,606	136,36
686,794	76,97
686,983	-111,44
687,172	42,15
687,36	38,06
687,549	-7
687,738	11,43
687,926	52,39
688,115	17,58
688,303	36,01
688,492	58,54
688,68	-39,76
688,869	25,77
689,057	-68,44
689,246	-4,95
689,434	91,31
689,623	62,63
689,811	76,97
690	-80,72
690,188	1,19
690,377	11,43
690,565	124,07
690,753	79,02
690,942	-23,38
691,13	130,22
691,318	13,48
691,507	36,01
691,695	52,39
691,883	83,11
692,072	-37,72
692,26	171,18
692,448	52,39
692,636	-15,19
692,824	1,19
693,013	38,06
693,201	111,78
693,389	38,06
693,577	58,54
693,765	79,02
693,953	-37,72
694,141	5,29
694,329	-84,82
694,518	50,35
694,706	76,97
694,894	54,44
695,082	-21,33
695,27	31,91
695,458	25,77
695,646	103,59
695,834	44,2
696,022	17,58
696,209	93,35
696,397	9,39
696,585	29,87
696,773	27,82
696,961	36,01
697,149	13,48
697,337	66,73
697,525	132,26
697,712	46,25
697,9	85,16
698,088	15,53
698,276	99,5
698,463	62,63
698,651	117,93
698,839	74,92
699,027	83,11
699,214	85,16
699,402	1,19
699,59	95,4
699,777	23,72
699,965	66,73
700,152	70,83
700,34	-105,3
700,528	66,73
700,715	-23,38
700,903	109,74
701,09	87,21
701,278	3,24
701,465	46,25
701,653	50,35
701,84	-27,48
702,028	50,35
702,215	99,5
702,402	48,3
702,59	181,42
702,777	76,97
702,965	44,2
703,152	107,69
703,339	181,42
703,527	87,21
703,714	111,78
703,901	107,69
704,088	103,59
704,276	148,65
704,463	181,42
704,65	91,31
704,837	298,15
705,025	824,48
705,212	2684,03
705,399	5755,99
705,586	9147,42
705,773	12774,38
705,96	16585,65
706,147	19538,82
706,335	21119,85
706,522	22291,29
706,709	22457,17
706,896	21941,08
707,083	20622,19
707,27	19313,54
707,457	17445,79
707,644	16094,13
707,831	14109,65
708,018	12311,53
708,205	10535,95
708,392	9016,35
708,578	7580,73
708,765	6458,44
708,952	5155,93
709,139	4039,79
709,326	2811,01
709,513	2012,3
709,7	1289,37
709,886	912,54
710,073	689,31
710,26	464,04
710,447	263,33
710,633	173,22
710,82	134,31
711,007	169,13
711,193	144,55
711,38	189,61
711,567	150,7
711,753	150,7
711,94	70,83
712,127	93,35
712,313	3,24
712,5	70,83
712,686	107,69
712,873	85,16
713,059	48,3
713,246	117,93
713,432	105,64
713,619	17,58
713,805	136,36
713,992	134,31
714,178	23,72
714,365	103,59
714,551	42,15
714,737	-35,67
714,924	-23,38
715,11	107,69
715,297	58,54
715,483	13,48
715,669	3,24
715,855	142,5
716,042	107,69
716,228	-4,95
716,414	89,26
716,6	64,68
716,787	11,43
716,973	27,82
717,159	54,44
717,345	27,82
717,531	-105,3
717,718	66,73
717,904	70,83
718,09	-39,76
718,276	7,34
718,462	42,15
718,648	25,77
718,834	-7
719,02	36,01
719,206	144,55
719,392	56,49
719,578	17,58
719,764	7,34
719,95	-23,38
720,136	126,12
720,322	50,35
720,508	58,54
720,694	83,11
720,879	-2,9
721,065	183,46
721,251	33,96
721,437	3,24
721,623	89,26
721,809	115,88
721,994	13,48
722,18	-52,05
722,366	-21,33
722,552	-35,67
722,737	13,48
722,923	81,07
723,109	72,87
723,294	11,43
723,48	95,4
723,666	115,88
723,851	-52,05
724,037	54,44
724,222	246,95
724,408	13,48
724,593	111,78
724,779	56,49
724,965	-35,67
725,15	23,72
725,336	31,91
725,521	115,88
725,706	17,58
725,892	64,68
726,077	36,01
726,263	93,35
726,448	109,74
726,634	62,63
726,819	242,85
727,004	591,01
727,19	816,29
727,375	1328,28
727,56	1541,27
727,745	1737,87
727,931	2239,62
728,116	2040,97
728,301	2167,95
728,486	2120,84
728,672	1993,87
728,857	1909,9
729,042	1787,02
729,227	1574,03
729,412	1399,96
729,597	1180,82
729,783	980,12
729,968	844,96
730,153	724,13
730,338	672,93
730,523	494,76
730,708	418,98
730,893	318,63
731,078	255,14
731,263	189,61
731,448	117,93
731,633	99,5
731,818	-86,87
732,003	25,77
732,187	1,19
732,372	15,53
732,557	93,35
732,742	-47,96
732,927	25,77
733,112	-11,09
733,297	-39,76
733,481	-11,09
733,666	27,82
733,851	66,73
734,036	58,54
734,22	1,19
734,405	140,46
734,59	-101,2
734,774	142,5
734,959	-43,86
735,144	76,97
735,328	60,59
735,513	-45,91
735,698	19,63
735,882	70,83
736,067	79,02
736,251	3,24
736,436	76,97
736,62	17,58
736,805	-7
736,989	74,92
737,174	74,92
737,358	9,39
737,543	62,63
737,727	48,3
737,911	99,5
738,096	-47,96
738,28	124,07
738,465	-11,09
738,649	29,87
738,833	3,24
739,018	27,82
739,202	-27,48
739,386	29,87
739,57	9,39
739,755	23,72
739,939	103,59
740,123	-70,48
740,307	60,59
740,491	46,25
740,676	13,48
740,86	-2,9
741,044	62,63
741,228	50,35
741,412	-47,96
741,596	-9,05
741,78	-13,14
741,964	1,19
742,148	5,29
742,332	1,19
742,516	-80,72
742,7	23,72
742,884	-13,14
743,068	-31,57
743,252	-19,29
743,436	46,25
743,62	-15,19
743,804	111,78
743,988	117,93
744,172	1,19
744,356	44,2
744,539	27,82
744,723	-86,87
744,907	33,96
745,091	9,39
745,275	-21,33
745,458	52,39
745,642	25,77
745,826	66,73
746,009	107,69
746,193	58,54
746,377	46,25
746,56	107,69
746,744	107,69
746,928	-7
747,111	74,92
747,295	50,35
747,478	1,19
747,662	25,77
747,846	66,73
748,029	-27,48
748,213	17,58
748,396	54,44
748,58	76,97
748,763	50,35
748,946	-80,72
749,13	-21,33
749,313	-45,91
749,497	99,5
749,68	-21,33
749,863	58,54
750,047	19,63
750,23	-39,76
750,413	23,72
750,597	124,07
750,78	-88,92
750,963	48,3
751,146	40,11
751,33	36,01
751,513	31,91
751,696	-25,43
751,879	3,24
752,062	-95,06
752,246	36,01
752,429	66,73
752,612	11,43
752,795	-4,95
752,978	-29,52
753,161	-47,96
753,344	-47,96
753,527	19,63
753,71	27,82
753,893	3,24
754,076	-66,39
754,259	31,91
754,442	-41,81
754,625	-66,39
754,808	115,88
754,991	58,54
755,174	-66,39
755,357	-13,14
755,539	50,35
755,722	101,55
755,905	68,78
756,088	-31,57
756,271	-29,52
756,453	44,2
756,636	9,39
756,819	76,97
757,002	-15,19
757,184	74,92
757,367	72,87
757,55	-15,19
757,732	87,21
757,915	-23,38
758,098	1,19
758,28	115,88
758,463	-7
758,645	38,06
758,828	107,69
759,011	9,39
759,193	29,87
759,376	87,21
759,558	-84,82
759,741	29,87
759,923	-7
760,105	42,15
760,288	42,15
760,47	-45,91
760,653	3,24
760,835	-54,1
761,017	-31,57
761,2	-4,95
761,382	189,61
761,564	38,06
761,747	50,35
761,929	-84,82
762,111	-62,29
762,294	1,19
762,476	201,9
762,658	11,43
762,84	93,35
763,022	66,73
763,205	72,87
763,387	46,25
763,569	46,25
763,751	-39,76
763,933	-2,9
764,115	-52,05
764,297	9,39
764,479	109,74
764,661	91,31
764,843	27,82
765,025	44,2
765,207	74,92
765,389	11,43
765,571	-84,82
765,753	17,58
765,935	42,15
766,117	-2,9
766,299	50,35
766,481	95,4
766,663	-50
766,845	-56,15
767,026	91,31
767,208	42,15
767,39	42,15
767,572	1,19
767,753	74,92
767,935	58,54
768,117	44,2
768,299	46,25
768,48	33,96
768,662	68,78
768,844	-47,96
769,025	152,74
769,207	42,15
769,389	-19,29
769,57	-23,38
769,752	85,16
769,933	-31,57
770,115	33,96
770,296	17,58
770,478	83,11
770,659	29,87
770,841	173,22
771,022	33,96
771,204	111,78
771,385	58,54
771,567	42,15
771,748	91,31
771,929	-21,33
772,111	17,58
772,292	124,07
772,473	11,43
772,655	9,39
772,836	3,24
773,017	117,93
773,199	101,55
773,38	-21,33
773,561	95,4
773,742	58,54
773,923	-11,09
774,105	79,02
774,286	91,31
774,467	-25,43
774,648	17,58
774,829	1,19
775,01	-31,57
775,191	-9,05
775,372	58,54
775,553	-21,33
775,734	-56,15
775,915	44,2
776,096	-47,96
776,277	76,97
776,458	-56,15
776,639	33,96
776,82	136,36
777,001	-17,24
777,182	11,43
777,363	60,59
777,544	91,31
777,725	124,07
777,906	33,96
778,086	13,48
778,267	124,07
778,448	-15,19
778,629	58,54
778,809	33,96
778,99	21,67
779,171	23,72
779,352	13,48
779,532	-15,19
779,713	-27,48
779,894	15,53
780,074	140,46
780,255	29,87
780,435	38,06
780,616	144,55
780,797	85,16
780,977	-45,91
781,158	-84,82
781,338	54,44
781,519	1,19
781,699	189,61
781,88	11,43
782,06	-15,19
782,241	-72,53
782,421	-21,33
782,601	99,5
782,782	50,35
782,962	36,01
783,142	-64,34
783,323	27,82
783,503	68,78
783,683	66,73
783,864	-29,52
784,044	107,69
784,224	85,16
784,404	27,82
784,585	42,15
784,765	27,82
784,945	105,64
785,125	-93,01
785,305	46,25
785,485	76,97
785,666	70,83
785,846	52,39
786,026	-23,38
786,206	-7
786,386	17,58
786,566	56,49
786,746	17,58
786,926	115,88
787,106	-37,72
787,286	-11,09
787,466	3,24
787,646	-2,9
787,826	-62,29
788,006	50,35
788,185	68,78
788,365	-27,48
788,545	23,72
788,725	-78,68
788,905	17,58
789,085	83,11
789,264	-80,72
789,444	1,19
789,624	17,58
789,804	-27,48
789,983	33,96
790,163	-2,9
790,343	66,73
790,522	113,83
790,702	50,35
790,882	1,19
791,061	81,07
791,241	-7
791,42	9,39
791,6	60,59
791,78	25,77
791,959	-17,24
792,139	-4,95
792,318	38,06
792,498	56,49
792,677	-15,19
792,856	3,24
793,036	-7
793,215	99,5
793,395	132,26
793,574	-54,1
793,753	42,15
793,933	146,6
794,112	66,73
794,291	48,3
794,471	144,55
794,65	13,48
794,829	-23,38
795,008	-35,67
795,188	117,93
795,367	107,69
795,546	-2,9
795,725	44,2
795,904	54,44
796,084	107,69
796,263	97,45
796,442	72,87
796,621	5,29
796,8	93,35
796,979	50,35
797,158	-4,95
797,337	-15,19
797,516	132,26
797,695	150,7
797,874	36,01
798,053	19,63
798,232	-90,96
798,411	-4,95
798,59	33,96
798,769	17,58
798,947	-13,14
799,126	-4,95
799,305	64,68
799,484	27,82
799,663	44,2
799,842	66,73
800,02	66,73
800,199	-47,96
800,378	87,21
800,557	-93,01
800,735	-21,33
800,914	-4,95
801,093	25,77
801,271	-31,57
801,45	27,82
801,628	5,29
801,807	-23,38
801,986	58,54
802,164	58,54
802,343	-50
802,521	-37,72
802,7	74,92
802,878	79,02
803,057	11,43
803,235	52,39
803,414	3,24
803,592	-7
803,771	9,39
803,949	36,01
804,127	-21,33
804,306	3,24
804,484	21,67
804,662	42,15
804,841	-78,68
805,019	60,59
805,197	124,07
805,375	52,39
805,554	-23,38
805,732	7,34
805,91	91,31
806,088	1,19
806,266	1,19
806,445	-39,76
806,623	-0,85
806,801	21,67
806,979	68,78
807,157	33,96
807,335	-62,29
807,513	3,24
807,691	-7
807,869	-35,67
808,047	11,43
808,225	-74,58
808,403	62,63
808,581	-9,05
808,759	109,74
808,937	9,39
809,115	165,03
809,293	40,11
809,471	-23,38
809,649	79,02
809,826	-17,24
810,004	44,2
810,182	-47,96
810,36	3,24
810,538	11,43
810,715	11,43
810,893	-29,52
811,071	9,39
811,248	40,11
811,426	19,63
811,604	62,63
811,781	74,92
811,959	83,11
812,137	-7
812,314	11,43
812,492	-7
812,669	-39,76
812,847	-76,63
813,024	9,39
813,202	128,17
813,379	-80,72
813,557	44,2
813,734	91,31
813,912	9,39
814,089	-23,38
814,267	76,97
814,444	25,77
814,621	17,58
814,799	46,25
814,976	70,83
815,153	3,24
815,331	9,39
815,508	-23,38
815,685	-52,05
815,862	44,2
816,04	-31,57
816,217	-25,43
816,394	19,63
816,571	60,59
816,748	89,26
816,926	117,93
817,103	312,49
817,28	-4,95
817,457	-21,33
817,634	150,7
817,811	-62,29
817,988	11,43
818,165	33,96
818,342	9,39
818,519	-9,05
818,696	-29,52
818,873	-39,76
819,05	60,59
819,227	-64,34
819,404	25,77
819,581	1,19
819,758	58,54
819,934	33,96
820,111	68,78
820,288	-23,38
820,465	19,63
820,642	23,72
820,818	25,77
820,995	25,77
821,172	42,15
821,349	17,58
821,525	68,78
821,702	-0,85
821,879	-31,57
822,055	-15,19
822,232	-37,72
822,409	46,25
822,585	17,58
822,762	72,87
822,938	50,35
823,115	25,77
823,291	40,11
823,468	173,22
823,644	50,35
823,821	54,44
823,997	19,63
824,174	9,39
824,35	-25,43
824,527	85,16
824,703	-2,9
824,879	50,35
825,056	-54,1
825,232	175,27
825,408	-23,38
825,585	29,87
825,761	-105,3
825,937	-19,29
826,113	-31,57
826,29	72,87
826,466	-39,76
826,642	371,88
826,818	38,06
826,994	66,73
827,17	1,19
827,347	3,24
827,523	-64,34
827,699	13,48
827,875	66,73
828,051	-21,33
828,227	15,53
828,403	21,67
828,579	93,35
828,755	64,68
828,931	17,58
829,107	101,55
829,283	42,15
829,459	-62,29
829,635	17,58
829,811	-19,29
829,986	11,43
830,162	-58,2
830,338	33,96
830,514	-37,72
830,69	-7
830,865	-52,05
831,041	1,19
831,217	-39,76
831,393	-84,82
831,568	-70,48
831,744	38,06
831,92	-64,34
832,095	17,58
832,271	25,77
832,447	81,07
832,622	27,82
832,798	9,39
832,973	7,34
833,149	-13,14
833,325	15,53
833,5	93,35
833,676	-23,38
833,851	-7
834,027	-37,72
834,202	11,43
834,377	54,44
834,553	58,54
834,728	83,11
834,904	97,45
835,079	-21,33
835,254	19,63
835,43	-15,19
835,605	-47,96
835,78	27,82
835,955	1,19
836,131	17,58
836,306	-23,38
836,481	-47,96
836,656	-47,96
836,832	111,78
837,007	-121,68
837,182	17,58
837,357	-31,57
837,532	-4,95
837,707	44,2
837,882	3,24
838,057	21,67
838,232	113,83
838,407	74,92
838,582	-11,09
838,757	-4,95
838,932	144,55
839,107	11,43
839,282	-129,88
839,457	29,87
839,632	-7
839,807	36,01
839,982	9,39
840,157	-15,19
840,332	66,73
840,506	9,39
840,681	60,59
840,856	27,82
841,031	-37,72
841,205	-39,76
841,38	54,44
841,555	99,5
841,73	-7
841,904	-103,25
842,079	19,63
842,254	-47,96
842,428	-4,95
842,603	-29,52
842,777	-80,72
842,952	1,19
843,126	-37,72
843,301	33,96
843,476	-25,43
843,65	93,35
843,825	33,96
843,999	17,58
844,173	-37,72
844,348	91,31
844,522	5,29
844,697	-31,57
844,871	-84,82
845,045	11,43
845,22	91,31
845,394	126,12
845,568	-31,57
845,743	109,74
845,917	-15,19
846,091	-72,53
846,265	-15,19
846,44	70,83
846,614	-23,38
846,788	9,39
846,962	42,15
847,136	-21,33
847,31	25,77
847,485	128,17
847,659	27,82
847,833	117,93
848,007	-23,38
848,181	1,19
848,355	-21,33
848,529	17,58
848,703	-19,29
848,877	-29,52
849,051	91,31
849,225	11,43
849,399	-2,9
849,573	-80,72
849,746	-86,87
849,92	-27,48
850,094	25,77
850,268	1,19
850,442	93,35
850,616	25,77
850,789	-13,14
850,963	-11,09
851,137	-86,87
851,311	119,98
851,484	97,45
851,658	56,49
851,832	5,29
852,005	-7
852,179	50,35
852,352	-17,24
852,526	-7
852,7	70,83
852,873	-23,38
853,047	-31,57
853,22	19,63
853,394	52,39
853,567	70,83
853,741	-56,15
853,914	-60,24
854,088	23,72
854,261	-0,85
854,434	33,96
854,608	-7
854,781	-39,76
854,955	27,82
855,128	1,19
855,301	17,58
855,475	21,67
855,648	9,39
855,821	-15,19
855,994	44,2
856,168	23,72
856,341	33,96
856,514	-64,34
856,687	5,29
856,86	-7
857,033	-31,57
857,207	1,19
857,38	-74,58
857,553	1,19
857,726	-35,67
857,899	19,63
858,072	33,96
858,245	9,39
858,418	66,73
858,591	-19,29
858,764	9,39
858,937	107,69
859,11	31,91
859,283	9,39
859,455	-72,53
859,628	-31,57
859,801	72,87
859,974	107,69
860,147	-19,29
860,32	-29,52
860,492	56,49
860,665	-64,34
860,838	64,68
861,011	-7
861,183	31,91
861,356	105,64
861,529	50,35
861,701	-19,29
861,874	-72,53
862,047	74,92
862,219	-45,91
862,392	99,5
862,564	5,29
862,737	44,2
862,909	25,77
863,082	40,11
863,254	76,97
863,427	58,54
863,599	165,03
863,772	5,29
863,944	42,15
864,117	27,82
864,289	23,72
864,461	-125,78
864,634	54,44
864,806	-15,19
864,978	42,15
865,151	-84,82
865,323	191,66
865,495	66,73
865,667	-2,9
865,84	156,84
866,012	-15,19
866,184	76,97
866,356	-88,92
866,528	25,77
866,7	33,96
866,873	-13,14
867,045	-29,52
867,217	-7
867,389	66,73
867,561	13,48
867,733	1,19
867,905	-31,57
868,077	-27,48
868,249	-21,33
868,421	-15,19
868,593	-43,86
868,765	136,36
868,936	-7
869,108	42,15
869,28	50,35
869,452	-7
869,624	-23,38
869,796	3,24
869,968	31,91
870,139	48,3
870,311	-23,38
870,483	42,15
870,654	-23,38
870,826	54,44
870,998	-7
871,17	1,19
871,341	-39,76
871,513	68,78
871,684	-15,19
871,856	-2,9
872,028	-19,29
872,199	-62,29
872,371	-39,76
872,542	-15,19
872,714	66,73
872,885	74,92
873,057	9,39
873,228	62,63
873,4	3,24
873,571	107,69
873,742	-23,38
873,914	76,97
874,085	17,58
874,256	3,24
874,428	-97,11
874,599	-2,9
874,77	76,97
874,942	3,24
875,113	-35,67
875,284	-80,72
875,455	-109,4
875,626	56,49
875,798	1,19
875,969	36,01
876,14	31,91
876,311	91,31
876,482	124,07
876,653	27,82
876,824	74,92
876,995	122,02
877,166	99,5
877,337	74,92
877,508	-4,95
877,679	-23,38
877,85	-15,19
878,021	-4,95
878,192	-2,9
878,363	-11,09
878,534	-29,52
878,705	-56,15
878,876	42,15
879,047	72,87
879,217	-54,1
879,388	-2,9
879,559	9,39
879,73	107,69
879,9	-62,29
880,071	54,44
880,242	66,73
880,413	126,12
880,583	74,92
880,754	-45,91
880,924	-80,72
881,095	-29,52
881,266	-15,19
881,436	23,72
881,607	76,97
881,777	58,54
881,948	1,19
882,118	-2,9
882,289	-82,77
882,459	-7
882,63	-9,05
882,8	52,39
882,971	42,15
883,141	101,55
883,311	99,5
883,482	99,5
883,652	-4,95
883,822	-47,96
883,993	-72,53
884,163	42,15
884,333	9,39
884,504	83,11
884,674	66,73
884,844	-54,1
885,014	-113,49
885,184	83,11
885,355	-7
885,525	68,78
885,695	17,58
885,865	83,11
886,035	62,63
886,205	-56,15
886,375	58,54
886,545	-2,9
886,715	-15,19
886,885	87,21
887,055	29,87
887,225	-68,44
887,395	68,78
887,565	115,88
887,735	36,01
887,905	101,55
888,075	-27,48
888,244	42,15
888,414	52,39
888,584	27,82
888,754	-19,29
888,924	52,39
889,093	181,42
889,263	58,54
889,433	5,29
889,603	29,87
889,772	17,58
889,942	105,64
890,111	85,16
890,281	13,48
890,451	-17,24
890,62	15,53
890,79	-27,48
890,959	-39,76
891,129	42,15
891,298	25,77
891,468	-35,67
891,637	-7
891,807	87,21
891,976	115,88
892,146	-19,29
892,315	29,87
892,485	70,83
892,654	29,87
892,823	1,19
892,993	5,29
893,162	52,39
893,331	113,83
893,501	33,96
893,67	17,58
893,839	-62,29
894,008	44,2
894,177	1,19
894,347	60,59
894,516	126,12
894,685	36,01
894,854	-47,96
895,023	74,92
895,192	74,92
