Data from he_USB4F104161__30__11-53-38-314.txt Node

Date: Tue Apr 14 11:53:38 EDT 2026
User: LaboPhy
Spectrometer: USB4F10416
Trigger mode: 4
Integration Time (sec): 1,000000E-1
Scans to average: 1
Electric dark correction enabled: true
Nonlinearity correction enabled: false
Boxcar width: 0
XAxis mode: Wavelengths
Number of Pixels in Spectrum: 3648
>>>>>Begin Spectral Data<<<<<
177,847	-155,82
178,066	-155,82
178,284	-155,82
178,502	-114,86
178,72	-204,97
178,939	-20,65
179,157	53,08
179,375	-45,23
179,593	51,03
179,812	-4,27
180,03	12,12
180,248	40,79
180,466	-22,7
180,685	51,03
180,903	-41,13
181,121	-102,57
181,339	28,5
181,557	44,88
181,775	-53,42
181,994	-63,66
182,212	-26,79
182,43	48,98
182,648	-24,75
182,866	44,88
183,084	48,98
183,302	8,02
183,52	-30,89
183,739	12,12
183,957	-2,22
184,175	3,93
184,393	34,64
184,611	61,27
184,829	83,8
185,047	44,88
185,265	118,61
185,483	-26,79
185,701	44,88
185,919	40,79
186,137	-32,94
186,355	-12,46
186,573	65,36
186,791	157,52
187,009	-26,79
187,227	51,03
187,445	-4,27
187,663	1,88
187,881	-71,85
188,098	137,04
188,316	40,79
188,534	83,8
188,752	-0,17
188,97	-30,89
189,188	16,21
189,406	89,94
189,624	77,65
189,841	-6,31
190,059	-90,28
190,277	-47,27
190,495	53,08
190,713	137,04
190,931	163,67
191,148	24,4
191,366	16,21
191,584	-8,36
191,802	98,13
192,019	77,65
192,237	-18,6
192,455	16,21
192,673	81,75
192,89	40,79
193,108	89,94
193,326	-77,99
193,543	65,36
193,761	-8,36
193,979	8,02
194,196	32,6
194,414	32,6
194,632	77,65
194,849	-28,84
195,067	18,26
195,285	81,75
195,502	-65,71
195,72	18,26
195,937	32,6
196,155	137,04
196,373	8,02
196,59	-75,95
196,808	89,94
197,025	63,32
197,243	237,39
197,46	106,32
197,678	67,41
197,895	34,64
198,113	44,88
198,33	59,22
198,548	34,64
198,765	24,4
198,983	24,4
199,2	-14,51
199,418	110,42
199,635	-0,17
199,853	18,26
200,07	-4,27
200,288	-28,84
200,505	-0,17
200,722	65,36
200,94	48,98
201,157	73,56
201,375	124,76
201,592	67,41
201,809	57,17
202,027	51,03
202,244	12,12
202,461	-24,75
202,679	26,45
202,896	110,42
203,113	-16,55
203,331	16,21
203,548	44,88
203,765	-8,36
203,982	53,08
204,2	-24,75
204,417	20,31
204,634	114,52
204,851	48,98
205,069	81,75
205,286	73,56
205,503	139,09
205,72	44,88
205,937	67,41
206,155	-49,32
206,372	212,82
206,589	-43,18
206,806	100,18
207,023	-0,17
207,24	73,56
207,458	24,4
207,675	-73,9
207,892	20,31
208,109	-80,04
208,326	-20,65
208,543	36,69
208,76	32,6
208,977	89,94
209,194	44,88
209,411	16,21
209,628	-12,46
209,845	69,46
210,062	-49,32
210,279	-37,03
210,496	16,21
210,713	36,69
210,93	-30,89
211,147	165,71
211,364	30,55
211,581	73,56
211,798	114,52
212,015	-65,71
212,232	-57,51
212,449	-16,55
212,666	-20,65
212,883	-22,7
213,1	18,26
213,317	-114,86
213,533	77,65
213,75	-8,36
213,967	-16,55
214,184	-73,9
214,401	42,84
214,618	34,64
214,835	14,17
215,051	79,7
215,268	73,56
215,485	89,94
215,702	-24,75
215,919	40,79
216,135	171,86
216,352	-8,36
216,569	48,98
216,786	8,02
217,002	32,6
217,219	48,98
217,436	-16,55
217,652	-22,7
217,869	44,88
218,086	69,46
218,302	126,8
218,519	102,23
218,736	65,36
218,952	-32,94
219,169	36,69
219,386	-30,89
219,602	32,6
219,819	32,6
220,036	-24,75
220,252	53,08
220,469	-22,7
220,685	5,97
220,902	40,79
221,118	10,07
221,335	40,79
221,552	42,84
221,768	48,98
221,985	44,88
222,201	1,88
222,418	24,4
222,634	1,88
222,851	-30,89
223,067	24,4
223,284	-16,55
223,5	20,31
223,716	20,31
223,933	-32,94
224,149	24,4
224,366	79,7
224,582	61,27
224,799	-41,13
225,015	89,94
225,231	57,17
225,448	-39,08
225,664	75,6
225,88	-32,94
226,097	73,56
226,313	1,88
226,529	51,03
226,746	28,5
226,962	-8,36
227,178	69,46
227,395	-16,55
227,611	-41,13
227,827	16,21
228,044	53,08
228,26	81,75
228,476	16,21
228,692	147,28
228,909	1,88
229,125	-0,17
229,341	-0,17
229,557	-110,76
229,773	-4,27
229,99	16,21
230,206	-102,57
230,422	85,84
230,638	-65,71
230,854	-24,75
231,07	-61,61
231,286	132,95
231,503	57,17
231,719	10,07
231,935	59,22
232,151	-24,75
232,367	65,36
232,583	32,6
232,799	42,84
233,015	57,17
233,231	24,4
233,447	32,6
233,663	-110,76
233,879	14,17
234,095	-39,08
234,311	155,47
234,527	71,51
234,743	32,6
234,959	100,18
235,175	44,88
235,391	8,02
235,607	-0,17
235,823	102,23
236,039	26,45
236,255	46,93
236,471	48,98
236,687	-20,65
236,903	-2,22
237,118	32,6
237,334	-98,47
237,55	-16,55
237,766	-39,08
237,982	40,79
238,198	65,36
238,413	-32,94
238,629	20,31
238,845	89,94
239,061	-41,13
239,277	67,41
239,492	-90,28
239,708	48,98
239,924	-39,08
240,14	-16,55
240,355	108,37
240,571	-12,46
240,787	-61,61
241,003	79,7
241,218	1,88
241,434	24,4
241,65	67,41
241,865	51,03
242,081	79,7
242,297	-57,51
242,512	-43,18
242,728	1,88
242,944	51,03
243,159	-18,6
243,375	-6,31
243,59	-65,71
243,806	-55,47
244,022	26,45
244,237	-24,75
244,453	-20,65
244,668	40,79
244,884	106,32
245,099	-8,36
245,315	81,75
245,53	16,21
245,746	108,37
245,961	102,23
246,177	14,17
246,392	57,17
246,608	81,75
246,823	-16,55
247,039	-0,17
247,254	-8,36
247,47	73,56
247,685	20,31
247,9	-30,89
248,116	26,45
248,331	8,02
248,547	10,07
248,762	-4,27
248,977	-20,65
249,193	28,5
249,408	139,09
249,623	16,21
249,839	-39,08
250,054	-34,99
250,269	-55,47
250,485	77,65
250,7	32,6
250,915	42,84
251,13	51,03
251,346	73,56
251,561	126,8
251,776	100,18
251,991	-106,67
252,207	65,36
252,422	10,07
252,637	-8,36
252,852	-20,65
253,067	46,93
253,283	8,02
253,498	32,6
253,713	16,21
253,928	34,64
254,143	-30,89
254,358	8,02
254,573	-45,23
254,788	-18,6
255,004	10,07
255,219	10,07
255,434	-49,32
255,649	34,64
255,864	69,46
256,079	48,98
256,294	-84,14
256,509	-4,27
256,724	22,36
256,939	-49,32
257,154	-14,51
257,369	61,27
257,584	114,52
257,799	-39,08
258,014	-53,42
258,229	147,28
258,444	-39,08
258,659	-0,17
258,874	57,17
259,089	106,32
259,304	26,45
259,518	-10,41
259,733	36,69
259,948	102,23
260,163	141,14
260,378	-10,41
260,593	83,8
260,808	16,21
261,022	-57,51
261,237	26,45
261,452	38,74
261,667	-20,65
261,882	83,8
262,096	98,13
262,311	40,79
262,526	10,07
262,741	-37,03
262,955	-65,71
263,17	32,6
263,385	32,6
263,6	10,07
263,814	-106,67
264,029	32,6
264,244	42,84
264,458	36,69
264,673	89,94
264,888	-8,36
265,102	5,97
265,317	24,4
265,532	-12,46
265,746	-6,31
265,961	122,71
266,175	32,6
266,39	-0,17
266,605	-16,55
266,819	48,98
267,034	83,8
267,248	-45,23
267,463	46,93
267,677	-0,17
267,892	32,6
268,106	-96,43
268,321	8,02
268,535	67,41
268,75	83,8
268,964	-0,17
269,179	85,84
269,393	48,98
269,608	48,98
269,822	8,02
270,036	16,21
270,251	-41,13
270,465	53,08
270,68	122,71
270,894	48,98
271,108	89,94
271,323	20,31
271,537	-28,84
271,752	-6,31
271,966	44,88
272,18	-55,47
272,394	3,93
272,609	-43,18
272,823	73,56
273,037	48,98
273,252	8,02
273,466	42,84
273,68	114,52
273,894	53,08
274,109	-8,36
274,323	20,31
274,537	48,98
274,751	-104,62
274,966	24,4
275,18	-22,7
275,394	-26,79
275,608	-34,99
275,822	-61,61
276,036	16,21
276,25	108,37
276,465	26,45
276,679	48,98
276,893	-57,51
277,107	89,94
277,321	-55,47
277,535	73,56
277,749	65,36
277,963	122,71
278,177	-65,71
278,391	73,56
278,605	-47,27
278,819	42,84
279,033	-112,81
279,247	24,4
279,461	81,75
279,675	10,07
279,889	16,21
280,103	24,4
280,317	141,14
280,531	-0,17
280,745	-16,55
280,959	-49,32
281,173	85,84
281,387	67,41
281,601	8,02
281,815	106,32
282,029	-24,75
282,242	53,08
282,456	-22,7
282,67	48,98
282,884	-104,62
283,098	-22,7
283,312	24,4
283,525	3,93
283,739	36,69
283,953	-32,94
284,167	-49,32
284,381	26,45
284,594	24,4
284,808	18,26
285,022	106,32
285,235	16,21
285,449	69,46
285,663	-57,51
285,877	51,03
286,09	16,21
286,304	81,75
286,518	40,79
286,731	-24,75
286,945	40,79
287,159	-94,38
287,372	-0,17
287,586	-32,94
287,799	-65,71
288,013	-16,55
288,227	-0,17
288,44	288,59
288,654	108,37
288,867	61,27
289,081	8,02
289,294	65,36
289,508	53,08
289,721	-8,36
289,935	-90,28
290,148	55,12
290,362	106,32
290,575	81,75
290,789	-0,17
291,002	40,79
291,216	30,55
291,429	-12,46
291,643	48,98
291,856	-32,94
292,069	-32,94
292,283	10,07
292,496	40,79
292,71	83,8
292,923	69,46
293,136	-49,32
293,35	59,22
293,563	-30,89
293,776	42,84
293,99	69,46
294,203	24,4
294,416	40,79
294,63	73,56
294,843	26,45
295,056	65,36
295,269	12,12
295,483	-6,31
295,696	-16,55
295,909	-41,13
296,122	40,79
296,335	48,98
296,549	-57,51
296,762	10,07
296,975	14,17
297,188	65,36
297,401	-6,31
297,615	67,41
297,828	-57,51
298,041	130,9
298,254	-100,52
298,467	59,22
298,68	18,26
298,893	-69,8
299,106	34,64
299,319	16,21
299,532	139,09
299,745	18,26
299,958	-0,17
300,171	-6,31
300,384	116,56
300,598	-63,66
300,81	-16,55
301,023	-32,94
301,236	-32,94
301,449	89,94
301,662	-30,89
301,875	-16,55
302,088	77,65
302,301	55,12
302,514	-0,17
302,727	73,56
302,94	-106,67
303,153	59,22
303,366	-6,31
303,579	-24,75
303,791	-28,84
304,004	-0,17
304,217	81,75
304,43	40,79
304,643	48,98
304,855	-63,66
305,068	102,23
305,281	1,88
305,494	10,07
305,707	12,12
305,919	124,76
306,132	57,17
306,345	69,46
306,558	114,52
306,77	8,02
306,983	12,12
307,196	100,18
307,408	75,6
307,621	91,99
307,834	-14,51
308,046	63,32
308,259	8,02
308,472	-16,55
308,684	42,84
308,897	-55,47
309,109	30,55
309,322	-20,65
309,535	32,6
309,747	159,57
309,96	98,13
310,172	149,33
310,385	81,75
310,597	-71,85
310,81	57,17
311,022	16,21
311,235	-32,94
311,447	-28,84
311,66	53,08
311,872	24,4
312,085	26,45
312,297	-65,71
312,51	-41,13
312,722	-12,46
312,934	118,61
313,147	-24,75
313,359	42,84
313,572	26,45
313,784	-8,36
313,996	67,41
314,209	83,8
314,421	8,02
314,633	-32,94
314,846	32,6
315,058	98,13
315,27	-32,94
315,483	26,45
315,695	34,64
315,907	-65,71
316,119	8,02
316,332	-0,17
316,544	67,41
316,756	120,66
316,968	83,8
317,181	-6,31
317,393	32,6
317,605	16,21
317,817	-6,31
318,029	48,98
318,241	130,9
318,454	89,94
318,666	130,9
318,878	-0,17
319,09	-12,46
319,302	180,05
319,514	8,02
319,726	98,13
319,938	192,34
320,15	48,98
320,362	57,17
320,574	-80,04
320,786	-34,99
320,999	-82,09
321,211	124,76
321,423	32,6
321,635	-57,51
321,847	-30,89
322,058	-4,27
322,27	-32,94
322,482	53,08
322,694	16,21
322,906	24,4
323,118	67,41
323,33	83,8
323,542	24,4
323,754	-49,32
323,966	-123,05
324,178	85,84
324,389	44,88
324,601	81,75
324,813	16,21
325,025	-24,75
325,237	3,93
325,449	98,13
325,66	-30,89
325,872	61,27
326,084	-16,55
326,296	-69,8
326,507	32,6
326,719	-39,08
326,931	-43,18
327,143	3,93
327,354	81,75
327,566	-0,17
327,778	42,84
327,989	18,26
328,201	18,26
328,413	46,93
328,624	59,22
328,836	28,5
329,048	-49,32
329,259	34,64
329,471	18,26
329,682	-16,55
329,894	-16,55
330,106	-63,66
330,317	10,07
330,529	20,31
330,74	-55,47
330,952	20,31
331,163	-32,94
331,375	48,98
331,586	65,36
331,798	16,21
332,009	-39,08
332,221	8,02
332,432	73,56
332,644	-30,89
332,855	48,98
333,067	-22,7
333,278	20,31
333,489	149,33
333,701	-73,9
333,912	-98,47
334,124	24,4
334,335	20,31
334,546	18,26
334,758	-43,18
334,969	198,48
335,18	57,17
335,392	32,6
335,603	24,4
335,814	40,79
336,025	-14,51
336,237	-26,79
336,448	-59,56
336,659	8,02
336,87	81,75
337,082	163,67
337,293	1,88
337,504	8,02
337,715	8,02
337,926	40,79
338,138	98,13
338,349	16,21
338,56	59,22
338,771	24,4
338,982	51,03
339,193	18,26
339,404	155,47
339,616	-0,17
339,827	114,52
340,038	24,4
340,249	69,46
340,46	24,4
340,671	59,22
340,882	130,9
341,093	48,98
341,304	-41,13
341,515	-45,23
341,726	-41,13
341,937	-32,94
342,148	16,21
342,359	-39,08
342,57	-39,08
342,781	147,28
342,992	-6,31
343,203	-102,57
343,414	-24,75
343,624	-14,51
343,835	-73,9
344,046	46,93
344,257	116,56
344,468	-0,17
344,679	-49,32
344,89	42,84
345,1	-37,03
345,311	8,02
345,522	16,21
345,733	73,56
345,944	-12,46
346,154	14,17
346,365	57,17
346,576	-24,75
346,787	-10,41
346,997	81,75
347,208	67,41
347,419	-65,71
347,629	1,88
347,84	73,56
348,051	1,88
348,261	73,56
348,472	-24,75
348,683	-4,27
348,893	-20,65
349,104	36,69
349,315	-37,03
349,525	-30,89
349,736	-49,32
349,946	59,22
350,157	77,65
350,368	94,04
350,578	-22,7
350,789	81,75
350,999	-16,55
351,21	36,69
351,42	-82,09
351,631	-80,04
351,841	-24,75
352,052	-4,27
352,262	143,19
352,472	-37,03
352,683	-32,94
352,893	-14,51
353,104	-69,8
353,314	81,75
353,525	401,23
353,735	26,45
353,945	18,26
354,156	-61,61
354,366	26,45
354,576	145,24
354,787	-6,31
354,997	69,46
355,207	24,4
355,418	32,6
355,628	32,6
355,838	26,45
356,048	-8,36
356,259	81,75
356,469	-61,61
356,679	89,94
356,889	42,84
357,1	-4,27
357,31	-32,94
357,52	-0,17
357,73	-16,55
357,94	8,02
358,15	-0,17
358,361	-12,46
358,571	-16,55
358,781	38,74
358,991	-90,28
359,201	-0,17
359,411	-0,17
359,621	-39,08
359,831	104,28
360,041	-30,89
360,251	-4,27
360,461	83,8
360,672	16,21
360,882	-84,14
361,092	34,64
361,302	24,4
361,512	130,9
361,721	18,26
361,931	73,56
362,141	34,64
362,351	34,64
362,561	48,98
362,771	20,31
362,981	30,55
363,191	-49,32
363,401	40,79
363,611	12,12
363,821	-53,42
364,03	-2,22
364,24	57,17
364,45	69,46
364,66	208,72
364,87	-37,03
365,08	143,19
365,289	-34,99
365,499	28,5
365,709	28,5
365,919	-18,6
366,128	32,6
366,338	24,4
366,548	-69,8
366,758	-47,27
366,967	85,84
367,177	83,8
367,387	53,08
367,596	59,22
367,806	67,41
368,016	-12,46
368,225	16,21
368,435	44,88
368,644	10,07
368,854	-47,27
369,064	12,12
369,273	32,6
369,483	-39,08
369,692	-16,55
369,902	12,12
370,111	18,26
370,321	-6,31
370,53	-22,7
370,74	-30,89
370,949	-4,27
371,159	89,94
371,368	34,64
371,578	-0,17
371,787	48,98
371,997	16,21
372,206	63,32
372,416	18,26
372,625	20,31
372,834	16,21
373,044	-18,6
373,253	32,6
373,462	26,45
373,672	-20,65
373,881	106,32
374,09	40,79
374,3	65,36
374,509	8,02
374,718	-94,38
374,928	91,99
375,137	24,4
375,346	-71,85
375,555	108,37
375,765	-22,7
375,974	24,4
376,183	61,27
376,392	-51,37
376,601	67,41
376,811	-8,36
377,02	132,95
377,229	98,13
377,438	40,79
377,647	-69,8
377,856	42,84
378,065	-49,32
378,275	8,02
378,484	-6,31
378,693	51,03
378,902	22,36
379,111	24,4
379,32	-8,36
379,529	34,64
379,738	53,08
379,947	46,93
380,156	59,22
380,365	87,89
380,574	85,84
380,783	75,6
380,992	-30,89
381,201	14,17
381,41	1,88
381,619	10,07
381,828	79,7
382,037	55,12
382,245	180,05
382,454	141,14
382,663	77,65
382,872	67,41
383,081	24,4
383,29	114,52
383,499	32,6
383,707	69,46
383,916	122,71
384,125	139,09
384,334	42,84
384,542	87,89
384,751	20,31
384,96	48,98
385,169	-8,36
385,377	48,98
385,586	-14,51
385,795	42,84
386,004	116,56
386,212	-8,36
386,421	106,32
386,63	343,89
386,838	753,48
387,047	1244,99
387,255	1988,41
387,464	2819,88
387,673	3753,76
387,881	4976,39
388,09	5955,32
388,298	6594,29
388,507	8423,12
388,715	10045,12
388,924	11466,41
389,133	10593,97
389,341	10378,93
389,55	9084,62
389,758	6766,32
389,967	4509,46
390,175	2787,11
390,383	2334,51
390,592	1777,47
390,8	1179,46
391,009	792,39
391,217	477,01
391,426	419,66
391,634	83,8
391,842	135
392,051	26,45
392,259	118,61
392,467	75,6
392,676	-22,7
392,884	-20,65
393,092	3,93
393,301	28,5
393,509	-63,66
393,717	94,04
393,925	-45,23
394,134	1,88
394,342	114,52
394,55	132,95
394,758	51,03
394,967	98,13
395,175	-47,27
395,383	196,43
395,591	-10,41
395,799	173,91
396,007	77,65
396,216	180,05
396,424	319,31
396,632	163,67
396,84	163,67
397,048	186,19
397,256	237,39
397,464	77,65
397,672	165,71
397,88	-30,89
398,088	63,32
398,296	16,21
398,504	34,64
398,712	48,98
398,92	57,17
399,128	-32,94
399,336	-45,23
399,544	40,79
399,752	-4,27
399,96	-16,55
400,168	59,22
400,376	48,98
400,584	147,28
400,792	12,12
401	128,85
401,207	106,32
401,415	186,19
401,623	190,29
401,831	245,59
402,039	335,7
402,247	360,27
402,454	495,44
402,662	304,98
402,87	335,7
403,078	530,25
403,285	450,38
403,493	298,83
403,701	212,82
403,909	163,67
404,116	233,3
404,324	48,98
404,532	57,17
404,739	-8,36
404,947	26,45
405,155	75,6
405,362	126,8
405,57	65,36
405,778	-34,99
405,985	65,36
406,193	77,65
406,4	-98,47
406,608	-2,22
406,816	16,21
407,023	69,46
407,231	-28,84
407,438	67,41
407,646	81,75
407,853	-53,42
408,061	-37,03
408,268	-16,55
408,476	-32,94
408,683	81,75
408,89	1,88
409,098	106,32
409,305	81,75
409,513	48,98
409,72	73,56
409,927	81,75
410,135	122,71
410,342	-30,89
410,55	167,76
410,757	48,98
410,964	40,79
411,172	110,42
411,379	65,36
411,586	114,52
411,793	110,42
412,001	42,84
412,208	81,75
412,415	171,86
412,622	159,57
412,83	16,21
413,037	67,41
413,244	-114,86
413,451	94,04
413,658	114,52
413,866	91,99
414,073	12,12
414,28	139,09
414,487	-45,23
414,694	48,98
414,901	114,52
415,108	36,69
415,315	8,02
415,522	108,37
415,73	-16,55
415,937	8,02
416,144	-6,31
416,351	-8,36
416,558	-20,65
416,765	8,02
416,972	42,84
417,179	59,22
417,386	-4,27
417,593	48,98
417,8	8,02
418,006	34,64
418,213	32,6
418,42	59,22
418,627	77,65
418,834	-24,75
419,041	57,17
419,248	10,07
419,455	130,9
419,661	-6,31
419,868	16,21
420,075	-8,36
420,282	-110,76
420,489	53,08
420,696	40,79
420,902	79,7
421,109	57,17
421,316	-22,7
421,523	59,22
421,729	65,36
421,936	34,64
422,143	81,75
422,349	-6,31
422,556	-22,7
422,763	32,6
422,969	63,32
423,176	-73,9
423,383	1,88
423,589	270,16
423,796	26,45
424,002	-34,99
424,209	59,22
424,416	75,6
424,622	-49,32
424,829	-14,51
425,035	-55,47
425,242	-0,17
425,448	16,21
425,655	18,26
425,861	24,4
426,068	89,94
426,274	141,14
426,481	14,17
426,687	124,76
426,894	38,74
427,1	-16,55
427,306	-49,32
427,513	24,4
427,719	20,31
427,926	98,13
428,132	59,22
428,338	-14,51
428,545	-0,17
428,751	-8,36
428,957	81,75
429,163	-0,17
429,37	161,62
429,576	3,93
429,782	69,46
429,989	46,93
430,195	-88,23
430,401	65,36
430,607	-28,84
430,813	-30,89
431,02	-14,51
431,226	-0,17
431,432	28,5
431,638	71,51
431,844	-92,33
432,05	-24,75
432,257	-28,84
432,463	30,55
432,669	65,36
432,875	8,02
433,081	-6,31
433,287	8,02
433,493	-24,75
433,699	130,9
433,905	59,22
434,111	-45,23
434,317	32,6
434,523	79,7
434,729	-16,55
434,935	-12,46
435,141	57,17
435,347	65,36
435,553	69,46
435,759	30,55
435,965	-4,27
436,171	-61,61
436,377	67,41
436,582	112,47
436,788	-45,23
436,994	75,6
437,2	-37,03
437,406	83,8
437,612	190,29
437,818	120,66
438,023	-100,52
438,229	247,63
438,435	108,37
438,641	139,09
438,846	163,67
439,052	173,91
439,258	147,28
439,464	89,94
439,669	85,84
439,875	135
440,081	24,4
440,286	83,8
440,492	-20,65
440,698	36,69
440,903	-4,27
441,109	126,8
441,314	-45,23
441,52	3,93
441,726	51,03
441,931	-24,75
442,137	98,13
442,342	-24,75
442,548	106,32
442,753	165,71
442,959	24,4
443,164	65,36
443,37	106,32
443,575	67,41
443,781	-8,36
443,986	94,04
444,192	40,79
444,397	-30,89
444,602	-0,17
444,808	38,74
445,013	32,6
445,219	155,47
445,424	401,23
445,629	708,43
445,835	1007,43
446,04	1335,1
446,245	1636,16
446,451	1875,77
446,656	2293,55
446,861	2725,68
447,066	3120,93
447,272	3596,06
447,477	3440,42
447,682	3118,89
447,887	2799,4
448,093	2412,34
448,298	1810,23
448,503	1068,87
448,708	769,87
448,913	405,33
449,118	294,74
449,324	315,22
449,529	196,43
449,734	8,02
449,939	42,84
450,144	132,95
450,349	18,26
450,554	-8,36
450,759	77,65
450,964	53,08
451,169	59,22
451,374	36,69
451,579	3,93
451,784	-24,75
451,989	118,61
452,194	120,66
452,399	87,89
452,604	61,27
452,809	-43,18
453,014	-69,8
453,219	94,04
453,424	124,76
453,629	-82,09
453,833	-53,42
454,038	100,18
454,243	18,26
454,448	96,08
454,653	59,22
454,858	42,84
455,062	-32,94
455,267	-16,55
455,472	42,84
455,677	-37,03
455,882	-2,22
456,086	126,8
456,291	1,88
456,496	48,98
456,7	-8,36
456,905	57,17
457,11	16,21
457,314	-75,95
457,519	46,93
457,724	-12,46
457,928	-16,55
458,133	8,02
458,338	98,13
458,542	55,12
458,747	8,02
458,951	-24,75
459,156	51,03
459,36	-0,17
459,565	57,17
459,769	24,4
459,974	69,46
460,178	40,79
460,383	-69,8
460,587	34,64
460,792	106,32
460,996	-6,31
461,201	51,03
461,405	-0,17
461,61	-98,47
461,814	122,71
462,018	20,31
462,223	-22,7
462,427	22,36
462,631	61,27
462,836	-24,75
463,04	3,93
463,244	67,41
463,449	-71,85
463,653	149,33
463,857	10,07
464,062	180,05
464,266	-8,36
464,47	81,75
464,674	79,7
464,878	32,6
465,083	28,5
465,287	163,67
465,491	-28,84
465,695	100,18
465,899	-16,55
466,104	36,69
466,308	48,98
466,512	69,46
466,716	-0,17
466,92	34,64
467,124	118,61
467,328	26,45
467,532	69,46
467,736	-0,17
467,94	81,75
468,144	1,88
468,348	18,26
468,552	83,8
468,756	53,08
468,96	-28,84
469,164	-82,09
469,368	55,12
469,572	114,52
469,776	208,72
469,98	182,1
470,184	313,17
470,388	401,23
470,591	456,53
470,795	585,55
470,999	651,08
471,203	653,13
471,407	847,69
471,611	810,82
471,814	843,59
472,018	624,46
472,222	640,84
472,426	532,3
472,63	337,74
472,833	327,5
473,037	270,16
473,241	208,72
473,444	106,32
473,648	520,01
473,852	20,31
474,055	-41,13
474,259	16,21
474,463	143,19
474,666	44,88
474,87	61,27
475,074	10,07
475,277	30,55
475,481	40,79
475,684	57,17
475,888	40,79
476,091	32,6
476,295	-39,08
476,498	-30,89
476,702	55,12
476,905	139,09
477,109	59,22
477,312	10,07
477,516	-49,32
477,719	110,42
477,923	3,93
478,126	-0,17
478,329	-6,31
478,533	20,31
478,736	-14,51
478,94	81,75
479,143	73,56
479,346	126,8
479,55	20,31
479,753	69,46
479,956	-57,51
480,159	-65,71
480,363	112,47
480,566	-32,94
480,769	3,93
480,972	-30,89
481,176	98,13
481,379	42,84
481,582	81,75
481,785	-65,71
481,988	14,17
482,192	75,6
482,395	10,07
482,598	42,84
482,801	-24,75
483,004	48,98
483,207	-90,28
483,41	81,75
483,613	79,7
483,817	63,32
484,02	12,12
484,223	-8,36
484,426	-34,99
484,629	32,6
484,832	122,71
485,035	-0,17
485,238	48,98
485,441	24,4
485,644	8,02
485,846	-12,46
486,049	-57,51
486,252	8,02
486,455	-77,99
486,658	65,36
486,861	67,41
487,064	102,23
487,267	-90,28
487,47	53,08
487,672	-16,55
487,875	16,21
488,078	-55,47
488,281	83,8
488,484	61,27
488,686	73,56
488,889	57,17
489,092	16,21
489,295	24,4
489,497	48,98
489,7	42,84
489,903	8,02
490,105	-88,23
490,308	102,23
490,511	206,67
490,713	270,16
490,916	440,14
491,118	581,45
491,321	753,48
491,524	935,75
491,726	974,66
491,929	1269,57
492,131	1281,86
492,334	1453,89
492,536	1562,43
492,739	1392,45
492,941	1296,19
493,144	1077,06
493,346	905,03
493,549	536,4
493,751	474,96
493,954	360,27
494,156	266,07
494,359	139,09
494,561	-57,51
494,763	36,69
494,966	114,52
495,168	124,76
495,37	16,21
495,573	-16,55
495,775	51,03
495,977	96,08
496,18	53,08
496,382	114,52
496,584	104,28
496,787	155,47
496,989	32,6
497,191	57,17
497,393	98,13
497,595	34,64
497,798	65,36
498	89,94
498,202	-20,65
498,404	3,93
498,606	-14,51
498,808	59,22
499,011	40,79
499,213	57,17
499,415	51,03
499,617	237,39
499,819	468,81
500,021	909,13
500,223	1187,65
500,425	1607,48
500,627	2178,87
500,829	2938,66
501,031	3501,86
501,233	4001,56
501,435	4583,18
501,637	5033,74
501,839	4904,71
502,041	4917
502,243	4634,38
502,445	3983,13
502,647	3407,65
502,848	2563,89
503,05	1812,28
503,252	1322,82
503,454	892,74
503,656	569,16
503,858	450,38
504,059	335,7
504,261	261,97
504,463	376,66
504,665	243,54
504,867	167,76
505,068	239,44
505,27	294,74
505,472	274,26
505,673	206,67
505,875	89,94
506,077	85,84
506,278	147,28
506,48	48,98
506,682	61,27
506,883	36,69
507,085	42,84
507,287	-73,9
507,488	32,6
507,69	57,17
507,891	34,64
508,093	114,52
508,294	-90,28
508,496	-73,9
508,697	-37,03
508,899	-53,42
509,1	59,22
509,302	10,07
509,503	73,56
509,705	89,94
509,906	46,93
510,108	32,6
510,309	-24,75
510,51	30,55
510,712	73,56
510,913	-37,03
511,114	65,36
511,316	-45,23
511,517	81,75
511,718	-47,27
511,92	32,6
512,121	-12,46
512,322	57,17
512,524	91,99
512,725	85,84
512,926	26,45
513,127	110,42
513,329	100,18
513,53	10,07
513,731	65,36
513,932	-53,42
514,133	-32,94
514,334	24,4
514,536	48,98
514,737	51,03
514,938	-2,22
515,139	26,45
515,34	1,88
515,541	139,09
515,742	-65,71
515,943	24,4
516,144	61,27
516,345	75,6
516,546	77,65
516,747	24,4
516,948	-0,17
517,149	-22,7
517,35	-30,89
517,551	1,88
517,752	10,07
517,953	48,98
518,154	48,98
518,355	102,23
518,556	130,9
518,756	20,31
518,957	91,99
519,158	157,52
519,359	57,17
519,56	34,64
519,761	24,4
519,961	53,08
520,162	126,8
520,363	-22,7
520,564	-47,27
520,764	151,38
520,965	-0,17
521,166	20,31
521,366	24,4
521,567	94,04
521,768	48,98
521,968	24,4
522,169	18,26
522,37	8,02
522,57	-12,46
522,771	12,12
522,972	-88,23
523,172	79,7
523,373	-30,89
523,573	24,4
523,774	38,74
523,974	85,84
524,175	67,41
524,375	-16,55
524,576	-82,09
524,776	24,4
524,977	-26,79
525,177	16,21
525,378	20,31
525,578	75,6
525,778	94,04
525,979	-45,23
526,179	48,98
526,38	104,28
526,58	-49,32
526,78	-6,31
526,981	147,28
527,181	20,31
527,381	16,21
527,582	118,61
527,782	143,19
527,982	1,88
528,182	-0,17
528,383	-41,13
528,583	59,22
528,783	48,98
528,983	81,75
529,183	-24,75
529,384	16,21
529,584	139,09
529,784	184,15
529,984	81,75
530,184	40,79
530,384	-16,55
530,584	-24,75
530,784	24,4
530,984	1,88
531,185	75,6
531,385	75,6
531,585	18,26
531,785	77,65
531,985	-49,32
532,185	-24,75
532,385	-28,84
532,585	73,56
532,785	36,69
532,984	57,17
533,184	10,07
533,384	36,69
533,584	-41,13
533,784	-8,36
533,984	53,08
534,184	-32,94
534,384	-47,27
534,583	69,46
534,783	69,46
534,983	-6,31
535,183	-80,04
535,383	-14,51
535,582	-8,36
535,782	75,6
535,982	130,9
536,182	-8,36
536,381	-4,27
536,581	-82,09
536,781	59,22
536,98	16,21
537,18	-6,31
537,38	14,17
537,579	1,88
537,779	-41,13
537,979	89,94
538,178	12,12
538,378	18,26
538,577	-55,47
538,777	18,26
538,976	-0,17
539,176	12,12
539,376	18,26
539,575	-104,62
539,774	75,6
539,974	-112,81
540,173	89,94
540,373	48,98
540,572	65,36
540,772	30,55
540,971	-41,13
541,171	44,88
541,37	75,6
541,569	-32,94
541,769	67,41
541,968	108,37
542,167	53,08
542,367	83,8
542,566	-16,55
542,765	-20,65
542,965	20,31
543,164	108,37
543,363	57,17
543,562	-47,27
543,761	-0,17
543,961	180,05
544,16	-139,43
544,359	89,94
544,558	48,98
544,757	-63,66
544,957	57,17
545,156	61,27
545,355	87,89
545,554	40,79
545,753	-47,27
545,952	10,07
546,151	28,5
546,35	85,84
546,549	61,27
546,748	57,17
546,947	67,41
547,146	-123,05
547,345	5,97
547,544	-45,23
547,743	24,4
547,942	91,99
548,141	57,17
548,34	51,03
548,539	85,84
548,738	-61,61
548,937	83,8
549,135	67,41
549,334	36,69
549,533	75,6
549,732	67,41
549,931	40,79
550,13	-6,31
550,328	40,79
550,527	-22,7
550,726	20,31
550,925	-10,41
551,123	8,02
551,322	-16,55
551,521	73,56
551,72	24,4
551,918	75,6
552,117	81,75
552,315	-30,89
552,514	16,21
552,713	-12,46
552,911	42,84
553,11	-24,75
553,309	-20,65
553,507	67,41
553,706	-14,51
553,904	65,36
554,103	89,94
554,301	44,88
554,5	32,6
554,698	20,31
554,897	44,88
555,095	18,26
555,294	-86,19
555,492	48,98
555,69	122,71
555,889	18,26
556,087	57,17
556,286	100,18
556,484	-22,7
556,682	73,56
556,881	44,88
557,079	40,79
557,277	34,64
557,476	110,42
557,674	42,84
557,872	100,18
558,07	57,17
558,269	24,4
558,467	69,46
558,665	-14,51
558,863	57,17
559,062	53,08
559,26	91,99
559,458	-41,13
559,656	24,4
559,854	12,12
560,052	24,4
560,25	24,4
560,449	270,16
560,647	83,8
560,845	-0,17
561,043	63,32
561,241	98,13
561,439	108,37
561,637	16,21
561,835	73,56
562,033	48,98
562,231	10,07
562,429	79,7
562,627	67,41
562,825	-47,27
563,023	77,65
563,221	-0,17
563,418	57,17
563,616	73,56
563,814	196,43
564,012	-55,47
564,21	139,09
564,408	61,27
564,605	3,93
564,803	-0,17
565,001	313,17
565,199	-55,47
565,397	110,42
565,594	83,8
565,792	114,52
565,99	65,36
566,188	85,84
566,385	94,04
566,583	55,12
566,781	85,84
566,978	67,41
567,176	81,75
567,373	83,8
567,571	18,26
567,769	108,37
567,966	-41,13
568,164	14,17
568,361	30,55
568,559	106,32
568,756	-0,17
568,954	48,98
569,151	87,89
569,349	147,28
569,546	89,94
569,744	81,75
569,941	69,46
570,139	18,26
570,336	38,74
570,534	73,56
570,731	46,93
570,928	38,74
571,126	159,57
571,323	157,52
571,52	65,36
571,718	57,17
571,915	75,6
572,112	16,21
572,31	98,13
572,507	102,23
572,704	-4,27
572,901	59,22
573,099	53,08
573,296	116,56
573,493	36,69
573,69	51,03
573,887	24,4
574,085	145,24
574,282	139,09
574,479	48,98
574,676	114,52
574,873	132,95
575,07	108,37
575,267	36,69
575,464	-8,36
575,661	28,5
575,858	32,6
576,055	61,27
576,252	147,28
576,449	81,75
576,646	73,56
576,843	-12,46
577,04	73,56
577,237	147,28
577,434	73,56
577,631	106,32
577,828	147,28
578,025	106,32
578,222	110,42
578,419	124,76
578,615	16,21
578,812	40,79
579,009	16,21
579,206	94,04
579,403	110,42
579,599	124,76
579,796	77,65
579,993	245,59
580,19	106,32
580,386	114,52
580,583	130,9
580,78	135
580,976	180,05
581,173	57,17
581,37	151,38
581,566	106,32
581,763	122,71
581,96	83,8
582,156	188,24
582,353	139,09
582,549	229,2
582,746	124,76
582,942	-18,6
583,139	108,37
583,335	77,65
583,532	229,2
583,728	122,71
583,925	184,15
584,121	124,76
584,318	286,54
584,514	147,28
584,711	229,2
584,907	327,5
585,103	233,3
585,3	384,85
585,496	499,53
585,693	1163,08
585,889	3858,2
586,085	8333,01
586,281	14206,59
586,478	21964,29
586,674	29418,9
586,87	38425,87
587,067	46802,06
587,263	52577,33
587,459	55620,61
587,655	59788,23
587,851	60611,51
588,048	59298,76
588,244	55491,59
588,44	52321,33
588,636	46562,45
588,832	39945,46
589,028	33305,95
589,224	26973,63
589,42	21257,74
589,617	15357,55
589,813	10051,26
590,009	6229,75
590,205	3880,73
590,401	2408,24
590,597	1394,5
590,793	1163,08
590,989	741,19
591,185	640,84
591,38	497,49
591,576	395,09
591,772	356,18
591,968	319,31
592,164	307,02
592,36	343,89
592,556	151,38
592,752	216,91
592,948	59,22
593,143	114,52
593,339	98,13
593,535	104,28
593,731	137,04
593,926	204,63
594,122	163,67
594,318	132,95
594,514	167,76
594,709	42,84
594,905	151,38
595,101	28,5
595,296	98,13
595,492	163,67
595,688	102,23
595,883	180,05
596,079	161,62
596,275	28,5
596,47	130,9
596,666	77,65
596,861	89,94
597,057	145,24
597,252	151,38
597,448	34,64
597,643	110,42
597,839	51,03
598,034	81,75
598,23	51,03
598,425	18,26
598,621	159,57
598,816	16,21
599,011	-4,27
599,207	40,79
599,402	73,56
599,597	132,95
599,793	100,18
599,988	65,36
600,183	55,12
600,379	63,32
600,574	114,52
600,769	102,23
600,965	85,84
601,16	135
601,355	-53,42
601,55	89,94
601,745	34,64
601,941	94,04
602,136	155,47
602,331	89,94
602,526	36,69
602,721	114,52
602,916	-34,99
603,111	26,45
603,307	53,08
603,502	110,42
603,697	-8,36
603,892	59,22
604,087	122,71
604,282	175,95
604,477	48,98
604,672	34,64
604,867	83,8
605,062	-39,08
605,257	98,13
605,452	94,04
605,646	81,75
605,841	91,99
606,036	51,03
606,231	32,6
606,426	81,75
606,621	-65,71
606,816	24,4
607,01	184,15
607,205	30,55
607,4	36,69
607,595	24,4
607,79	8,02
607,984	48,98
608,179	65,36
608,374	57,17
608,569	18,26
608,763	32,6
608,958	89,94
609,153	106,32
609,347	112,47
609,542	57,17
609,736	46,93
609,931	57,17
610,126	40,79
610,32	32,6
610,515	28,5
610,709	253,78
610,904	98,13
611,098	-24,75
611,293	-8,36
611,487	51,03
611,682	57,17
611,876	24,4
612,071	94,04
612,265	77,65
612,46	63,32
612,654	112,47
612,848	36,69
613,043	40,79
613,237	65,36
613,432	34,64
613,626	12,12
613,82	-30,89
614,014	163,67
614,209	20,31
614,403	-14,51
614,597	155,47
614,792	85,84
614,986	44,88
615,18	73,56
615,374	116,56
615,568	-4,27
615,763	24,4
615,957	116,56
616,151	65,36
616,345	89,94
616,539	61,27
616,733	89,94
616,927	98,13
617,121	57,17
617,316	106,32
617,51	171,86
617,704	65,36
617,898	171,86
618,092	59,22
618,286	91,99
618,48	61,27
618,674	55,12
618,868	139,09
619,061	-24,75
619,255	40,79
619,449	14,17
619,643	61,27
619,837	110,42
620,031	-0,17
620,225	155,47
620,419	85,84
620,612	137,04
620,806	57,17
621	155,47
621,194	40,79
621,388	32,6
621,581	48,98
621,775	26,45
621,969	75,6
622,162	26,45
622,356	22,36
622,55	65,36
622,743	-12,46
622,937	-26,79
623,131	10,07
623,324	108,37
623,518	81,75
623,712	-14,51
623,905	-41,13
624,099	81,75
624,292	126,8
624,486	3,93
624,679	16,21
624,873	48,98
625,066	114,52
625,26	16,21
625,453	-16,55
625,647	8,02
625,84	51,03
626,034	87,89
626,227	8,02
626,42	122,71
626,614	24,4
626,807	79,7
627	30,55
627,194	75,6
627,387	57,17
627,58	18,26
627,774	-12,46
627,967	112,47
628,16	28,5
628,353	-14,51
628,547	116,56
628,74	85,84
628,933	16,21
629,126	75,6
629,319	-8,36
629,513	94,04
629,706	12,12
629,899	24,4
630,092	42,84
630,285	8,02
630,478	48,98
630,671	65,36
630,864	83,8
631,057	8,02
631,25	122,71
631,443	36,69
631,636	65,36
631,829	73,56
632,022	122,71
632,215	1,88
632,408	65,36
632,601	182,1
632,794	81,75
632,987	20,31
633,18	40,79
633,373	65,36
633,566	28,5
633,758	40,79
633,951	73,56
634,144	77,65
634,337	-12,46
634,53	106,32
634,722	188,24
634,915	-16,55
635,108	48,98
635,301	32,6
635,493	94,04
635,686	188,24
635,879	-80,04
636,071	-26,79
636,264	139,09
636,457	108,37
636,649	10,07
636,842	1,88
637,034	48,98
637,227	147,28
637,42	42,84
637,612	-2,22
637,805	26,45
637,997	163,67
638,19	157,52
638,382	16,21
638,575	1,88
638,767	16,21
638,96	65,36
639,152	57,17
639,344	116,56
639,537	100,18
639,729	42,84
639,922	83,8
640,114	40,79
640,306	124,76
640,499	173,91
640,691	132,95
640,883	16,21
641,075	34,64
641,268	40,79
641,46	100,18
641,652	24,4
641,844	-45,23
642,037	73,56
642,229	3,93
642,421	122,71
642,613	18,26
642,805	89,94
642,998	-47,27
643,19	98,13
643,382	159,57
643,574	139,09
643,766	51,03
643,958	65,36
644,15	65,36
644,342	48,98
644,534	36,69
644,726	1,88
644,918	110,42
645,11	-24,75
645,302	65,36
645,494	32,6
645,686	-16,55
645,878	8,02
646,07	108,37
646,262	130,9
646,453	-16,55
646,645	61,27
646,837	141,14
647,029	69,46
647,221	51,03
647,413	28,5
647,604	69,46
647,796	65,36
647,988	34,64
648,18	-14,51
648,371	-14,51
648,563	-8,36
648,755	91,99
648,947	-6,31
649,138	20,31
649,33	48,98
649,521	24,4
649,713	65,36
649,905	-18,6
650,096	67,41
650,288	34,64
650,479	65,36
650,671	40,79
650,863	-16,55
651,054	-6,31
651,246	32,6
651,437	-28,84
651,629	89,94
651,82	89,94
652,011	67,41
652,203	42,84
652,394	87,89
652,586	18,26
652,777	24,4
652,968	94,04
653,16	24,4
653,351	46,93
653,542	155,47
653,734	34,64
653,925	-14,51
654,116	40,79
654,308	139,09
654,499	-32,94
654,69	-41,13
654,881	85,84
655,073	87,89
655,264	20,31
655,455	1,88
655,646	94,04
655,837	116,56
656,028	87,89
656,219	67,41
656,411	73,56
656,602	69,46
656,793	8,02
656,984	34,64
657,175	-14,51
657,366	46,93
657,557	48,98
657,748	67,41
657,939	8,02
658,13	-6,31
658,321	77,65
658,512	59,22
658,703	104,28
658,894	106,32
659,084	55,12
659,275	36,69
659,466	112,47
659,657	81,75
659,848	147,28
660,039	143,19
660,23	81,75
660,42	32,6
660,611	65,36
660,802	-16,55
660,993	77,65
661,183	1,88
661,374	79,7
661,565	141,14
661,755	73,56
661,946	57,17
662,137	85,84
662,327	-0,17
662,518	-8,36
662,709	40,79
662,899	91,99
663,09	-0,17
663,28	130,9
663,471	3,93
663,662	132,95
663,852	110,42
664,043	81,75
664,233	106,32
664,424	34,64
664,614	48,98
664,804	77,65
664,995	171,86
665,185	130,9
665,376	40,79
665,566	163,67
665,756	18,26
665,947	61,27
666,137	255,83
666,328	1120,07
666,518	2072,37
666,708	3743,52
666,898	5547,78
667,089	7595,75
667,279	9291,46
667,469	10770,1
667,659	12164,76
667,85	12248,73
668,04	12349,08
668,23	11906,72
668,42	11409,06
668,61	10493,62
668,8	9801,41
668,991	8648,4
669,181	7634,66
669,371	6369,01
669,561	5717,76
669,751	4955,91
669,941	3948,31
670,131	2981,67
670,321	2178,87
670,511	1466,17
670,701	1052,49
670,891	550,73
671,081	393,04
671,271	253,78
671,461	245,59
671,651	149,33
671,841	124,76
672,03	165,71
672,22	-8,36
672,41	91,99
672,6	151,38
672,79	100,18
672,98	124,76
673,169	151,38
673,359	106,32
673,549	98,13
673,739	-41,13
673,928	57,17
674,118	77,65
674,308	114,52
674,497	124,76
674,687	-80,04
674,877	16,21
675,066	24,4
675,256	40,79
675,446	55,12
675,635	83,8
675,825	36,69
676,014	98,13
676,204	24,4
676,393	32,6
676,583	59,22
676,772	81,75
676,962	89,94
677,151	73,56
677,341	-8,36
677,53	48,98
677,72	63,32
677,909	57,17
678,099	40,79
678,288	-55,47
678,477	12,12
678,667	98,13
678,856	208,72
679,045	28,5
679,235	106,32
679,424	110,42
679,613	147,28
679,802	83,8
679,992	48,98
680,181	14,17
680,37	42,84
680,559	65,36
680,748	69,46
680,938	14,17
681,127	42,84
681,316	40,79
681,505	77,65
681,694	-22,7
681,883	1,88
682,072	-14,51
682,261	79,7
682,45	-8,36
682,639	24,4
682,828	89,94
683,017	118,61
683,206	65,36
683,395	8,02
683,584	108,37
683,773	73,56
683,962	94,04
684,151	-24,75
684,34	112,47
684,529	-49,32
684,718	132,95
684,907	-55,47
685,095	106,32
685,284	48,98
685,473	98,13
685,662	8,02
685,851	139,09
686,039	40,79
686,228	57,17
686,417	67,41
686,606	89,94
686,794	94,04
686,983	-55,47
687,172	26,45
687,36	-22,7
687,549	10,07
687,738	-4,27
687,926	-41,13
688,115	-0,17
688,303	46,93
688,492	59,22
688,68	3,93
688,869	-8,36
689,057	-24,75
689,246	32,6
689,434	73,56
689,623	34,64
689,811	1,88
690	-32,94
690,188	-51,37
690,377	18,26
690,565	42,84
690,753	81,75
690,942	-0,17
691,13	139,09
691,318	65,36
691,507	48,98
691,695	1,88
691,883	-4,27
692,072	32,6
692,26	104,28
692,448	147,28
692,636	10,07
692,824	-32,94
693,013	51,03
693,201	61,27
693,389	48,98
693,577	124,76
693,765	-8,36
693,953	12,12
694,141	-12,46
694,329	-88,23
694,518	57,17
694,706	26,45
694,894	79,7
695,082	-16,55
695,27	130,9
695,458	59,22
695,646	83,8
695,834	73,56
696,022	61,27
696,209	48,98
696,397	81,75
696,585	116,56
696,773	16,21
696,961	89,94
697,149	-10,41
697,337	114,52
697,525	89,94
697,712	85,84
697,9	59,22
698,088	118,61
698,276	67,41
698,463	87,89
698,651	65,36
698,839	69,46
699,027	59,22
699,214	149,33
699,402	34,64
699,59	28,5
699,777	73,56
699,965	120,66
700,152	8,02
700,34	85,84
700,528	-8,36
700,715	42,84
700,903	20,31
701,09	61,27
701,278	83,8
701,465	122,71
701,653	38,74
701,84	91,99
702,028	132,95
702,215	38,74
702,402	69,46
702,59	71,51
702,777	114,52
702,965	106,32
703,152	108,37
703,339	89,94
703,527	57,17
703,714	81,75
703,901	200,53
704,088	120,66
704,276	151,38
704,463	143,19
704,65	149,33
704,837	282,45
705,025	894,79
705,212	2737,96
705,399	5949,18
705,586	9297,61
705,773	13293,19
705,96	16883,28
706,147	19869,22
706,335	21765,64
706,522	22896,12
706,709	22846,97
706,896	22539,77
707,083	20882,97
707,27	19596,84
707,457	17978,95
707,644	16735,83
707,831	14354,04
708,018	12519,06
708,205	10755,76
708,392	9086,67
708,578	7945,95
708,765	6602,48
708,952	5416,71
709,139	4063
709,326	2957,1
709,513	2006,84
709,7	1183,56
709,886	870,22
710,073	689,99
710,26	477,01
710,447	323,41
710,633	239,44
710,82	188,24
711,007	147,28
711,193	141,14
711,38	91,99
711,567	122,71
711,753	36,69
711,94	135
712,127	182,1
712,313	65,36
712,5	-26,79
712,686	89,94
712,873	14,17
713,059	16,21
713,246	122,71
713,432	91,99
713,619	28,5
713,805	32,6
713,992	110,42
714,178	18,26
714,365	100,18
714,551	89,94
714,737	57,17
714,924	-67,75
715,11	65,36
715,297	55,12
715,483	32,6
715,669	112,47
715,855	67,41
716,042	48,98
716,228	28,5
716,414	114,52
716,6	14,17
716,787	14,17
716,973	-0,17
717,159	81,75
717,345	48,98
717,531	3,93
717,718	-16,55
717,904	40,79
718,09	-14,51
718,276	94,04
718,462	-4,27
718,648	44,88
718,834	-14,51
719,02	57,17
719,206	16,21
719,392	-49,32
719,578	3,93
719,764	30,55
719,95	69,46
720,136	57,17
720,322	-14,51
720,508	65,36
720,694	73,56
720,879	53,08
721,065	104,28
721,251	149,33
721,437	106,32
721,623	106,32
721,809	44,88
721,994	81,75
722,18	-0,17
722,366	30,55
722,552	44,88
722,737	36,69
722,923	77,65
723,109	106,32
723,294	98,13
723,48	106,32
723,666	75,6
723,851	65,36
724,037	114,52
724,222	81,75
724,408	44,88
724,593	75,6
724,779	114,52
724,965	61,27
725,15	32,6
725,336	91,99
725,521	204,63
725,706	8,02
725,892	108,37
726,077	44,88
726,263	24,4
726,448	94,04
726,634	100,18
726,819	206,67
727,004	524,11
727,19	794,44
727,375	1236,8
727,56	1660,73
727,745	1853,24
727,931	2209,59
728,116	2369,33
728,301	2473,78
728,486	2289,46
728,672	2051,89
728,857	2017,08
729,042	1845,05
729,227	1558,33
729,412	1380,16
729,597	1247,04
729,783	1089,35
729,968	888,65
730,153	806,73
730,338	606,03
730,523	565,07
730,708	393,04
730,893	255,83
731,078	286,54
731,263	141,14
731,448	102,23
731,633	98,13
731,818	36,69
732,003	77,65
732,187	34,64
732,372	-0,17
732,557	24,4
732,742	-57,51
732,927	16,21
733,112	-63,66
733,297	20,31
733,481	-41,13
733,666	63,32
733,851	26,45
734,036	-8,36
734,22	32,6
734,405	106,32
734,59	-34,99
734,774	-6,31
734,959	-45,23
735,144	67,41
735,328	5,97
735,513	-34,99
735,698	77,65
735,882	106,32
736,067	98,13
736,251	106,32
736,436	-69,8
736,62	1,88
736,805	-20,65
736,989	98,13
737,174	-20,65
737,358	-20,65
737,543	73,56
737,727	73,56
737,911	73,56
738,096	-8,36
738,28	77,65
738,465	-16,55
738,649	89,94
738,833	59,22
739,018	73,56
739,202	-22,7
739,386	-6,31
739,57	8,02
739,755	91,99
739,939	-24,75
740,123	-6,31
740,307	40,79
740,491	36,69
740,676	-51,37
740,86	36,69
741,044	73,56
741,228	-41,13
741,412	-63,66
741,596	-0,17
741,78	-82,09
741,964	32,6
742,148	-12,46
742,332	22,36
742,516	-24,75
742,7	75,6
742,884	-24,75
743,068	-8,36
743,252	-8,36
743,436	96,08
743,62	-65,71
743,804	69,46
743,988	73,56
744,172	73,56
744,356	48,98
744,539	-8,36
744,723	-8,36
744,907	-32,94
745,091	-41,13
745,275	16,21
745,458	16,21
745,642	20,31
745,826	42,84
746,009	102,23
746,193	48,98
746,377	40,79
746,56	40,79
746,744	155,47
746,928	16,21
747,111	36,69
747,295	48,98
747,478	24,4
747,662	-14,51
747,846	10,07
748,029	94,04
748,213	81,75
748,396	20,31
748,58	36,69
748,763	32,6
748,946	-28,84
749,13	-4,27
749,313	-0,17
749,497	5,97
749,68	46,93
749,863	48,98
750,047	24,4
750,23	59,22
750,413	61,27
750,597	65,36
750,78	-47,27
750,963	24,4
751,146	-0,17
751,33	36,69
751,513	-41,13
751,696	-8,36
751,879	18,26
752,062	-47,27
752,246	10,07
752,429	81,75
752,612	55,12
752,795	32,6
752,978	-57,51
753,161	-90,28
753,344	-39,08
753,527	65,36
753,71	3,93
753,893	16,21
754,076	-82,09
754,259	-30,89
754,442	-55,47
754,625	32,6
754,808	59,22
754,991	34,64
755,174	-20,65
755,357	-47,27
755,539	42,84
755,722	40,79
755,905	16,21
756,088	53,08
756,271	36,69
756,453	40,79
756,636	-10,41
756,819	1,88
757,002	20,31
757,184	102,23
757,367	132,95
757,55	-41,13
757,732	102,23
757,915	-14,51
758,098	32,6
758,28	36,69
758,463	22,36
758,645	89,94
758,828	71,51
759,011	77,65
759,193	61,27
759,376	73,56
759,558	-47,27
759,741	65,36
759,923	-41,13
760,105	-30,89
760,288	73,56
760,47	-104,62
760,653	-100,52
760,835	-37,03
761,017	-16,55
761,2	-41,13
761,382	171,86
761,564	10,07
761,747	51,03
761,929	22,36
762,111	-12,46
762,294	-24,75
762,476	163,67
762,658	108,37
762,84	110,42
763,022	34,64
763,205	20,31
763,387	53,08
763,569	42,84
763,751	-96,43
763,933	-63,66
764,115	-65,71
764,297	-4,27
764,479	46,93
764,661	48,98
764,843	98,13
765,025	-4,27
765,207	48,98
765,389	20,31
765,571	-16,55
765,753	32,6
765,935	40,79
766,117	42,84
766,299	96,08
766,481	65,36
766,663	40,79
766,845	-41,13
767,026	-37,03
767,208	16,21
767,39	-28,84
767,572	-20,65
767,753	67,41
767,935	-2,22
768,117	-0,17
768,299	81,75
768,48	-26,79
768,662	48,98
768,844	-53,42
769,025	61,27
769,207	8,02
769,389	83,8
769,57	57,17
769,752	46,93
769,933	18,26
770,115	81,75
770,296	-51,37
770,478	83,8
770,659	-32,94
770,841	229,2
771,022	32,6
771,204	-0,17
771,385	40,79
771,567	124,76
771,748	110,42
771,929	-0,17
772,111	18,26
772,292	24,4
772,473	75,6
772,655	51,03
772,836	65,36
773,017	51,03
773,199	61,27
773,38	18,26
773,561	85,84
773,742	5,97
773,923	-22,7
774,105	139,09
774,286	61,27
774,467	-0,17
774,648	-37,03
774,829	100,18
775,01	-47,27
775,191	-16,55
775,372	-24,75
775,553	85,84
775,734	-28,84
775,915	22,36
776,096	-8,36
776,277	36,69
776,458	-24,75
776,639	53,08
776,82	180,05
777,001	16,21
777,182	16,21
777,363	32,6
777,544	18,26
777,725	112,47
777,906	32,6
778,086	30,55
778,267	79,7
778,448	81,75
778,629	51,03
778,809	51,03
778,99	-0,17
779,171	12,12
779,352	-32,94
779,532	-32,94
779,713	-49,32
779,894	-57,51
780,074	100,18
780,255	22,36
780,435	40,79
780,616	73,56
780,797	89,94
780,977	-28,84
781,158	-8,36
781,338	3,93
781,519	73,56
781,699	118,61
781,88	40,79
782,06	26,45
782,241	-57,51
782,421	-22,7
782,601	32,6
782,782	63,32
782,962	147,28
783,142	42,84
783,323	73,56
783,503	59,22
783,683	12,12
783,864	57,17
784,044	61,27
784,224	94,04
784,404	36,69
784,585	55,12
784,765	48,98
784,945	124,76
785,125	-73,9
785,305	100,18
785,485	36,69
785,666	75,6
785,846	36,69
786,026	38,74
786,206	51,03
786,386	18,26
786,566	44,88
786,746	14,17
786,926	-32,94
787,106	98,13
787,286	8,02
787,466	3,93
787,646	-26,79
787,826	98,13
788,006	110,42
788,185	-6,31
788,365	-55,47
788,545	98,13
788,725	-14,51
788,905	20,31
789,085	-16,55
789,264	-24,75
789,444	-24,75
789,624	94,04
789,804	-59,56
789,983	98,13
790,163	-37,03
790,343	-37,03
790,522	8,02
790,702	40,79
790,882	1,88
791,061	91,99
791,241	18,26
791,42	18,26
791,6	141,14
791,78	73,56
791,959	16,21
792,139	26,45
792,318	20,31
792,498	81,75
792,677	-49,32
792,856	20,31
793,036	77,65
793,215	-8,36
793,395	16,21
793,574	-8,36
793,753	89,94
793,933	163,67
794,112	65,36
794,291	-6,31
794,471	77,65
794,65	20,31
794,829	-123,05
795,008	44,88
795,188	91,99
795,367	53,08
795,546	1,88
795,725	24,4
795,904	57,17
796,084	40,79
796,263	73,56
796,442	114,52
796,621	24,4
796,8	128,85
796,979	34,64
797,158	-43,18
797,337	10,07
797,516	18,26
797,695	98,13
797,874	77,65
798,053	77,65
798,232	10,07
798,411	-49,32
798,59	-4,27
798,769	8,02
798,947	85,84
799,126	85,84
799,305	59,22
799,484	10,07
799,663	16,21
799,842	100,18
800,02	159,57
800,199	-47,27
800,378	81,75
800,557	-37,03
800,735	-22,7
800,914	12,12
801,093	18,26
801,271	-16,55
801,45	24,4
801,628	36,69
801,807	-16,55
801,986	18,26
802,164	-26,79
802,343	-24,75
802,521	-98,47
802,7	85,84
802,878	36,69
803,057	24,4
803,235	32,6
803,414	53,08
803,592	26,45
803,771	30,55
803,949	-4,27
804,127	-32,94
804,306	94,04
804,484	-32,94
804,662	55,12
804,841	-69,8
805,019	30,55
805,197	53,08
805,375	51,03
805,554	40,79
805,732	-14,51
805,91	-4,27
806,088	24,4
806,266	-32,94
806,445	14,17
806,623	-14,51
806,801	20,31
806,979	83,8
807,157	40,79
807,335	-49,32
807,513	73,56
807,691	77,65
807,869	-77,99
808,047	-16,55
808,225	-4,27
808,403	53,08
808,581	-20,65
808,759	98,13
808,937	8,02
809,115	81,75
809,293	38,74
809,471	18,26
809,649	40,79
809,826	55,12
810,004	53,08
810,182	-14,51
810,36	-41,13
810,538	116,56
810,715	71,51
810,893	34,64
811,071	48,98
811,248	18,26
811,426	-32,94
811,604	59,22
811,781	114,52
811,959	24,4
812,137	-16,55
812,314	-32,94
812,492	-4,27
812,669	18,26
812,847	-41,13
813,024	67,41
813,202	91,99
813,379	-6,31
813,557	65,36
813,734	114,52
813,912	98,13
814,089	57,17
814,267	65,36
814,444	-51,37
814,621	3,93
814,799	1,88
814,976	36,69
815,153	73,56
815,331	53,08
815,508	-41,13
815,685	-57,51
815,862	69,46
816,04	28,5
816,217	-63,66
816,394	34,64
816,571	-0,17
816,748	229,2
816,926	102,23
817,103	345,94
817,28	89,94
817,457	-47,27
817,634	192,34
817,811	-90,28
817,988	73,56
818,165	8,02
818,342	57,17
818,519	-8,36
818,696	-49,32
818,873	-49,32
819,05	10,07
819,227	-65,71
819,404	1,88
819,581	-39,08
819,758	12,12
819,934	28,5
820,111	10,07
820,288	-4,27
820,465	100,18
820,642	106,32
820,818	8,02
820,995	44,88
821,172	83,8
821,349	81,75
821,525	18,26
821,702	85,84
821,879	-26,79
822,055	-8,36
822,232	-10,41
822,409	10,07
822,585	48,98
822,762	46,93
822,938	48,98
823,115	42,84
823,291	24,4
823,468	141,14
823,644	67,41
823,821	77,65
823,997	-57,51
824,174	53,08
824,35	147,28
824,527	44,88
824,703	77,65
824,879	-0,17
825,056	73,56
825,232	63,32
825,408	48,98
825,585	110,42
825,761	65,36
825,937	-49,32
826,113	-32,94
826,29	114,52
826,466	-22,7
826,642	370,51
826,818	42,84
826,994	26,45
827,17	-49,32
827,347	8,02
827,523	-45,23
827,699	48,98
827,875	73,56
828,051	98,13
828,227	98,13
828,403	135
828,579	151,38
828,755	32,6
828,931	-8,36
829,107	51,03
829,283	110,42
829,459	26,45
829,635	-47,27
829,811	-0,17
829,986	32,6
830,162	-118,95
830,338	18,26
830,514	-114,86
830,69	-57,51
830,865	-63,66
831,041	-24,75
831,217	-6,31
831,393	28,5
831,568	-32,94
831,744	100,18
831,92	-32,94
832,095	-90,28
832,271	-77,99
832,447	65,36
832,622	122,71
832,798	48,98
832,973	10,07
833,149	36,69
833,325	8,02
833,5	147,28
833,676	51,03
833,851	48,98
834,027	65,36
834,202	16,21
834,377	24,4
834,553	48,98
834,728	57,17
834,904	46,93
835,079	12,12
835,254	73,56
835,43	28,5
835,605	-41,13
835,78	18,26
835,955	-8,36
836,131	-8,36
836,306	61,27
836,481	-39,08
836,656	-20,65
836,832	36,69
837,007	24,4
837,182	-22,7
837,357	42,84
837,532	16,21
837,707	-24,75
837,882	40,79
838,057	-0,17
838,232	83,8
838,407	102,23
838,582	-6,31
838,757	-14,51
838,932	59,22
839,107	34,64
839,282	-77,99
839,457	91,99
839,632	59,22
839,807	48,98
839,982	73,56
840,157	-63,66
840,332	116,56
840,506	-32,94
840,681	-12,46
840,856	42,84
841,031	20,31
841,205	24,4
841,38	89,94
841,555	130,9
841,73	36,69
841,904	16,21
842,079	100,18
842,254	1,88
842,428	-57,51
842,603	-61,61
842,777	-32,94
842,952	48,98
843,126	32,6
843,301	20,31
843,476	-30,89
843,65	98,13
843,825	81,75
843,999	42,84
844,173	5,97
844,348	40,79
844,522	8,02
844,697	-8,36
844,871	-47,27
845,045	18,26
845,22	40,79
845,394	122,71
845,568	3,93
845,743	-49,32
845,917	65,36
846,091	-14,51
846,265	59,22
846,44	48,98
846,614	34,64
846,788	-96,43
846,962	-8,36
847,136	-8,36
847,31	-16,55
847,485	53,08
847,659	36,69
847,833	83,8
848,007	16,21
848,181	10,07
848,355	-6,31
848,529	173,91
848,703	53,08
848,877	-0,17
849,051	128,85
849,225	20,31
849,399	-16,55
849,573	3,93
849,746	-80,04
849,92	32,6
850,094	16,21
850,268	-53,42
850,442	67,41
850,616	-14,51
850,789	-41,13
850,963	-12,46
851,137	-90,28
851,311	81,75
851,484	73,56
851,658	-16,55
851,832	-37,03
852,005	71,51
852,179	-30,89
852,352	20,31
852,526	57,17
852,7	69,46
852,873	-8,36
853,047	44,88
853,22	22,36
853,394	-16,55
853,567	61,27
853,741	3,93
853,914	-8,36
854,088	48,98
854,261	34,64
854,434	-8,36
854,608	34,64
854,781	-69,8
854,955	-12,46
855,128	71,51
855,301	-16,55
855,475	61,27
855,648	89,94
855,821	40,79
855,994	89,94
856,168	48,98
856,341	26,45
856,514	-37,03
856,687	16,21
856,86	75,6
857,033	1,88
857,207	24,4
857,38	-32,94
857,553	139,09
857,726	-8,36
857,899	77,65
858,072	-32,94
858,245	24,4
858,418	100,18
858,591	-8,36
858,764	48,98
858,937	59,22
859,11	83,8
859,283	63,32
859,455	-4,27
859,628	40,79
859,801	110,42
859,974	124,76
860,147	-82,09
860,32	122,71
860,492	100,18
860,665	-30,89
860,838	30,55
861,011	-24,75
861,183	110,42
861,356	106,32
861,529	108,37
861,701	42,84
861,874	59,22
862,047	73,56
862,219	81,75
862,392	110,42
862,564	-14,51
862,737	24,4
862,909	94,04
863,082	-55,47
863,254	1,88
863,427	-0,17
863,599	163,67
863,772	-28,84
863,944	30,55
864,117	40,79
864,289	24,4
864,461	-39,08
864,634	-63,66
864,806	44,88
864,978	32,6
865,151	-43,18
865,323	36,69
865,495	98,13
865,667	-20,65
865,84	163,67
866,012	-16,55
866,184	91,99
866,356	-10,41
866,528	-49,32
866,7	24,4
866,873	-8,36
867,045	14,17
867,217	-88,23
867,389	32,6
867,561	-16,55
867,733	16,21
867,905	-0,17
868,077	16,21
868,249	40,79
868,421	40,79
868,593	32,6
868,765	132,95
868,936	-12,46
869,108	42,84
869,28	44,88
869,452	12,12
869,624	-30,89
869,796	87,89
869,968	-98,47
870,139	106,32
870,311	-16,55
870,483	48,98
870,654	-65,71
870,826	16,21
870,998	-28,84
871,17	57,17
871,341	-22,7
871,513	83,8
871,684	-24,75
871,856	44,88
872,028	73,56
872,199	-73,9
872,371	-80,04
872,542	26,45
872,714	-22,7
872,885	55,12
873,057	-49,32
873,228	-8,36
873,4	36,69
873,571	73,56
873,742	26,45
873,914	40,79
874,085	57,17
874,256	28,5
874,428	-32,94
874,599	40,79
874,77	38,74
874,942	-71,85
875,113	61,27
875,284	-55,47
875,455	16,21
875,626	28,5
875,798	1,88
875,969	89,94
876,14	36,69
876,311	42,84
876,482	130,9
876,653	106,32
876,824	65,36
876,995	-39,08
877,166	81,75
877,337	38,74
877,508	3,93
877,679	-49,32
877,85	-14,51
878,021	-55,47
878,192	137,04
878,363	24,4
878,534	-63,66
878,705	-98,47
878,876	-86,19
879,047	147,28
879,217	61,27
879,388	94,04
879,559	-8,36
879,73	44,88
879,9	-22,7
880,071	87,89
880,242	32,6
880,413	55,12
880,583	89,94
880,754	67,41
880,924	1,88
881,095	-73,9
881,266	26,45
881,436	81,75
881,607	139,09
881,777	36,69
881,948	10,07
882,118	124,76
882,289	-41,13
882,459	-14,51
882,63	38,74
882,8	3,93
882,971	73,56
883,141	69,46
883,311	75,6
883,482	132,95
883,652	-41,13
883,822	18,26
883,993	-32,94
884,163	-24,75
884,333	20,31
884,504	44,88
884,674	98,13
884,844	-0,17
885,014	-28,84
885,184	-22,7
885,355	-18,6
885,525	26,45
885,695	34,64
885,865	-4,27
886,035	98,13
886,205	-22,7
886,375	65,36
886,545	46,93
886,715	-8,36
886,885	94,04
887,055	-32,94
887,225	-53,42
887,395	28,5
887,565	85,84
887,735	8,02
887,905	48,98
888,075	38,74
888,244	67,41
888,414	12,12
888,584	20,31
888,754	59,22
888,924	42,84
889,093	171,86
889,263	14,17
889,433	32,6
889,603	91,99
889,772	87,89
889,942	124,76
890,111	81,75
890,281	14,17
890,451	-10,41
890,62	26,45
890,79	-24,75
890,959	-12,46
891,129	-30,89
891,298	122,71
891,468	-8,36
891,637	46,93
891,807	34,64
891,976	67,41
892,146	-82,09
892,315	65,36
892,485	26,45
892,654	30,55
892,823	-49,32
892,993	-14,51
893,162	-8,36
893,331	24,4
893,501	32,6
893,67	34,64
893,839	28,5
894,008	34,64
894,177	42,84
894,347	1,88
894,516	91,99
894,685	20,31
894,854	-14,51
895,023	40,79
895,192	14,17
