Data from he_USB4F104161__17__11-53-37-094.txt Node

Date: Tue Apr 14 11:53:37 EDT 2026
User: LaboPhy
Spectrometer: USB4F10416
Trigger mode: 4
Integration Time (sec): 1,000000E-1
Scans to average: 1
Electric dark correction enabled: true
Nonlinearity correction enabled: false
Boxcar width: 0
XAxis mode: Wavelengths
Number of Pixels in Spectrum: 3648
>>>>>Begin Spectral Data<<<<<
177,847	-206,5
178,066	-206,5
178,284	-206,5
178,502	-243,37
178,72	-269,99
178,939	14,68
179,157	-20,14
179,375	6,49
179,593	6,49
179,812	57,68
180,03	-3,75
180,248	8,53
180,466	-36,52
180,685	-9,9
180,903	-16,04
181,121	-57
181,339	49,49
181,557	2,39
181,775	-32,43
181,994	-22,19
182,212	76,12
182,43	-42,67
182,648	26,96
182,866	72,02
183,084	35,16
183,302	14,68
183,52	2,39
183,739	135,51
183,957	14,68
184,175	-54,95
184,393	-26,28
184,611	-40,62
184,829	-3,75
185,047	-57
185,265	117,08
185,483	-1,71
185,701	55,64
185,919	-1,71
186,137	-18,09
186,355	47,44
186,573	55,64
186,791	57,68
187,009	72,02
187,227	18,77
187,445	39,25
187,663	6,49
187,881	-59,05
188,098	31,06
188,316	53,59
188,534	137,56
188,752	14,68
188,97	-9,9
189,188	-50,86
189,406	-3,75
189,624	8,53
189,841	49,49
190,059	-59,05
190,277	24,92
190,495	-22,19
190,713	22,87
190,931	133,46
191,148	10,58
191,366	-1,71
191,584	6,49
191,802	22,87
192,019	147,8
192,237	35,16
192,455	-16,04
192,673	-30,38
192,89	-30,38
193,108	31,06
193,326	-24,23
193,543	-9,9
193,761	29,01
193,979	-48,81
194,196	-13,99
194,414	0,34
194,632	90,45
194,849	-30,38
195,067	-32,43
195,285	22,87
195,502	-40,62
195,72	39,25
195,937	-1,71
196,155	26,96
196,373	31,06
196,59	69,97
196,808	16,73
197,025	129,36
197,243	188,75
197,46	57,68
197,678	90,45
197,895	72,02
198,113	-9,9
198,33	-32,43
198,548	31,06
198,765	18,77
198,983	88,4
199,2	35,16
199,418	69,97
199,635	-1,71
199,853	-38,57
200,07	-73,39
200,288	-9,9
200,505	4,44
200,722	24,92
200,94	45,4
201,157	63,83
201,375	49,49
201,592	53,59
201,809	39,25
202,027	96,6
202,244	-1,71
202,461	39,25
202,679	39,25
202,896	0,34
203,113	-54,95
203,331	22,87
203,548	-63,15
203,765	26,96
203,982	74,07
204,2	6,49
204,417	-42,67
204,634	170,32
204,851	0,34
205,069	-7,85
205,286	98,64
205,503	121,17
205,72	-42,67
205,937	14,68
206,155	-9,9
206,372	112,98
206,589	-83,63
206,806	104,79
207,023	76,12
207,24	31,06
207,458	55,64
207,675	-16,04
207,892	-59,05
208,109	-34,47
208,326	-67,24
208,543	24,92
208,76	-34,47
208,977	63,83
209,194	6,49
209,411	-38,57
209,628	2,39
209,845	-54,95
210,062	-18,09
210,279	-16,04
210,496	-34,47
210,713	22,87
210,93	-7,85
211,147	55,64
211,364	-36,52
211,581	-3,75
211,798	98,64
212,015	-132,78
212,232	-26,28
212,449	22,87
212,666	22,87
212,883	31,06
213,1	-87,72
213,317	-112,3
213,533	-61,1
213,75	-1,71
213,967	-1,71
214,184	-87,72
214,401	22,87
214,618	-57
214,835	67,92
215,051	96,6
215,268	-1,71
215,485	57,68
215,702	-7,85
215,919	-9,9
216,135	155,99
216,352	8,53
216,569	39,25
216,786	18,77
217,002	8,53
217,219	-1,71
217,436	45,4
217,652	-9,9
217,869	39,25
218,086	82,26
218,302	-1,71
218,519	80,21
218,736	-42,67
218,952	-59,05
219,169	31,06
219,386	43,35
219,602	39,25
219,819	-26,28
220,036	-5,8
220,252	24,92
220,469	-54,95
220,685	31,06
220,902	90,45
221,118	8,53
221,335	-81,58
221,552	-13,99
221,768	14,68
221,985	-18,09
222,201	-7,85
222,418	-13,99
222,634	-1,71
222,851	-24,23
223,067	0,34
223,284	2,39
223,5	-42,67
223,716	-22,19
223,933	80,21
224,149	39,25
224,366	47,44
224,582	-59,05
224,799	16,73
225,015	41,3
225,231	-1,71
225,448	-50,86
225,664	-59,05
225,88	-112,3
226,097	92,5
226,313	0,34
226,529	65,88
226,746	16,73
226,962	-59,05
227,178	33,11
227,395	-22,19
227,611	88,4
227,827	-46,76
228,044	16,73
228,26	96,6
228,476	-30,38
228,692	141,65
228,909	22,87
229,125	-24,23
229,341	6,49
229,557	-57
229,773	-87,72
229,99	63,83
230,206	-22,19
230,422	39,25
230,638	-1,71
230,854	14,68
231,07	-50,86
231,286	98,64
231,503	24,92
231,719	-40,62
231,935	-18,09
232,151	-9,9
232,367	90,45
232,583	104,79
232,799	24,92
233,015	47,44
233,231	-38,57
233,447	47,44
233,663	51,54
233,879	39,25
234,095	-61,1
234,311	31,06
234,527	14,68
234,743	33,11
234,959	-16,04
235,175	16,73
235,391	6,49
235,607	57,68
235,823	14,68
236,039	-11,95
236,255	-57
236,471	47,44
236,687	57,68
236,903	6,49
237,118	24,92
237,334	49,49
237,55	14,68
237,766	-22,19
237,982	39,25
238,198	59,73
238,413	43,35
238,629	-1,71
238,845	4,44
239,061	-24,23
239,277	31,06
239,492	-32,43
239,708	76,12
239,924	-38,57
240,14	8,53
240,355	121,17
240,571	-13,99
240,787	-9,9
241,003	129,36
241,218	-48,81
241,434	-22,19
241,65	65,88
241,865	41,3
242,081	92,5
242,297	-48,81
242,512	-20,14
242,728	-1,71
242,944	-9,9
243,159	72,02
243,375	-9,9
243,59	63,83
243,806	158,03
244,022	37,2
244,237	-9,9
244,453	35,16
244,668	26,96
244,884	61,78
245,099	37,2
245,315	76,12
245,53	112,98
245,746	76,12
245,961	37,2
246,177	10,58
246,392	98,64
246,608	112,98
246,823	-36,52
247,039	2,39
247,254	24,92
247,47	88,4
247,685	-1,71
247,9	-75,43
248,116	14,68
248,331	-67,24
248,547	84,31
248,762	-59,05
248,977	-18,09
249,193	22,87
249,408	49,49
249,623	20,82
249,839	-7,85
250,054	-73,39
250,269	26,96
250,485	94,55
250,7	-1,71
250,915	47,44
251,13	43,35
251,346	31,06
251,561	92,5
251,776	14,68
251,991	-63,15
252,207	31,06
252,422	-40,62
252,637	14,68
252,852	39,25
253,067	-9,9
253,283	39,25
253,498	-26,28
253,713	4,44
253,928	-1,71
254,143	-42,67
254,358	10,58
254,573	-48,81
254,788	-16,04
255,004	-9,9
255,219	-26,28
255,434	-28,33
255,649	-24,23
255,864	-9,9
256,079	33,11
256,294	6,49
256,509	-24,23
256,724	26,96
256,939	-50,86
257,154	-1,71
257,369	39,25
257,584	41,3
257,799	57,68
258,014	16,73
258,229	35,16
258,444	6,49
258,659	4,44
258,874	-18,09
259,089	86,36
259,304	-24,23
259,518	-34,47
259,733	14,68
259,948	-22,19
260,163	22,87
260,378	41,3
260,593	37,2
260,808	6,49
261,022	-24,23
261,237	80,21
261,452	-3,75
261,667	2,39
261,882	49,49
262,096	131,41
262,311	86,36
262,526	-18,09
262,741	6,49
262,955	-75,43
263,17	-1,71
263,385	8,53
263,6	-3,75
263,814	47,44
264,029	-16,04
264,244	8,53
264,458	-1,71
264,673	6,49
264,888	-42,67
265,102	-9,9
265,317	-38,57
265,532	-13,99
265,746	37,2
265,961	22,87
266,175	47,44
266,39	-34,47
266,605	20,82
266,819	-28,33
267,034	39,25
267,248	-30,38
267,463	65,88
267,677	-34,47
267,892	-32,43
268,106	-44,71
268,321	-75,43
268,535	51,54
268,75	53,59
268,964	-30,38
269,179	22,87
269,393	24,92
269,608	24,92
269,822	-89,77
270,036	22,87
270,251	22,87
270,465	4,44
270,68	59,73
270,894	-24,23
271,108	139,6
271,323	47,44
271,537	-42,67
271,752	35,16
271,966	10,58
272,18	-71,34
272,394	14,68
272,609	18,77
272,823	-16,04
273,037	14,68
273,252	26,96
273,466	63,83
273,68	41,3
273,894	16,73
274,109	-81,58
274,323	65,88
274,537	14,68
274,751	20,82
274,966	22,87
275,18	-67,24
275,394	14,68
275,608	-57
275,822	-42,67
276,036	10,58
276,25	16,73
276,465	-1,71
276,679	39,25
276,893	-81,58
277,107	141,65
277,321	-95,91
277,535	55,64
277,749	39,25
277,963	108,88
278,177	-97,96
278,391	12,63
278,605	-59,05
278,819	-18,09
279,033	-67,24
279,247	-50,86
279,461	51,54
279,675	35,16
279,889	39,25
280,103	26,96
280,317	37,2
280,531	-83,63
280,745	0,34
280,959	31,06
281,173	55,64
281,387	-48,81
281,601	112,98
281,815	104,79
282,029	-7,85
282,242	-13,99
282,456	80,21
282,67	37,2
282,884	65,88
283,098	-22,19
283,312	-16,04
283,525	39,25
283,739	63,83
283,953	86,36
284,167	-1,71
284,381	6,49
284,594	10,58
284,808	16,73
285,022	14,68
285,235	-1,71
285,449	-13,99
285,663	-26,28
285,877	-34,47
286,09	-9,9
286,304	10,58
286,518	57,68
286,731	-71,34
286,945	49,49
287,159	-46,76
287,372	-11,95
287,586	-30,38
287,799	22,87
288,013	-59,05
288,227	41,3
288,44	344,4
288,654	72,02
288,867	-30,38
289,081	-83,63
289,294	31,06
289,508	90,45
289,721	-1,71
289,935	8,53
290,148	78,16
290,362	41,3
290,575	6,49
290,789	8,53
291,002	-18,09
291,216	98,64
291,429	43,35
291,643	-18,09
291,856	35,16
292,069	29,01
292,283	-48,81
292,496	-40,62
292,71	41,3
292,923	16,73
293,136	-91,82
293,35	59,73
293,563	-16,04
293,776	-1,71
293,99	96,6
294,203	-1,71
294,416	2,39
294,63	18,77
294,843	-1,71
295,056	-50,86
295,269	-20,14
295,483	-108,2
295,696	43,35
295,909	-9,9
296,122	14,68
296,335	43,35
296,549	-16,04
296,762	0,34
296,975	-40,62
297,188	74,07
297,401	26,96
297,615	82,26
297,828	26,96
298,041	92,5
298,254	-44,71
298,467	-13,99
298,68	-16,04
298,893	-91,82
299,106	-67,24
299,319	49,49
299,532	-1,71
299,745	14,68
299,958	-28,33
300,171	-59,05
300,384	22,87
300,598	-57
300,81	-16,04
301,023	-138,92
301,236	-73,39
301,449	45,4
301,662	-26,28
301,875	-34,47
302,088	-1,71
302,301	-50,86
302,514	-75,43
302,727	-16,04
302,94	-85,67
303,153	-1,71
303,366	-1,71
303,579	-140,97
303,791	-24,23
304,004	8,53
304,217	39,25
304,43	55,64
304,643	16,73
304,855	-75,43
305,068	63,83
305,281	33,11
305,494	22,87
305,707	-9,9
305,919	92,5
306,132	65,88
306,345	55,64
306,558	96,6
306,77	-57
306,983	72,02
307,196	55,64
307,408	49,49
307,621	10,58
307,834	-42,67
308,046	55,64
308,259	-50,86
308,472	39,25
308,684	26,96
308,897	33,11
309,109	-63,15
309,322	-50,86
309,535	84,31
309,747	121,17
309,96	14,68
310,172	100,69
310,385	98,64
310,597	-48,81
310,81	-24,23
311,022	-24,23
311,235	4,44
311,447	-134,82
311,66	6,49
311,872	72,02
312,085	-42,67
312,297	22,87
312,51	-73,39
312,722	10,58
312,934	43,35
313,147	-24,23
313,359	6,49
313,572	-102,06
313,784	-67,24
313,996	6,49
314,209	139,6
314,421	-5,8
314,633	-67,24
314,846	-63,15
315,058	18,77
315,27	0,34
315,483	-48,81
315,695	47,44
315,907	-26,28
316,119	-26,28
316,332	-18,09
316,544	49,49
316,756	104,79
316,968	76,12
317,181	18,77
317,393	74,07
317,605	18,77
317,817	141,65
318,029	72,02
318,241	76,12
318,454	82,26
318,666	162,13
318,878	80,21
319,09	18,77
319,302	135,51
319,514	74,07
319,726	10,58
319,938	170,32
320,15	47,44
320,362	-18,09
320,574	-81,58
320,786	-9,9
320,999	-1,71
321,211	82,26
321,423	49,49
321,635	-89,77
321,847	6,49
322,058	-79,53
322,27	26,96
322,482	74,07
322,694	88,4
322,906	-1,71
323,118	59,73
323,33	14,68
323,542	-24,23
323,754	6,49
323,966	-214,7
324,178	90,45
324,389	39,25
324,601	90,45
324,813	-48,81
325,025	33,11
325,237	47,44
325,449	67,92
325,66	31,06
325,872	33,11
326,084	6,49
326,296	-63,15
326,507	80,21
326,719	-26,28
326,931	-61,1
327,143	65,88
327,354	143,7
327,566	-54,95
327,778	35,16
327,989	121,17
328,201	-100,01
328,413	-1,71
328,624	47,44
328,836	-1,71
329,048	-83,63
329,259	24,92
329,471	6,49
329,682	-11,95
329,894	6,49
330,106	-116,39
330,317	-9,9
330,529	41,3
330,74	-46,76
330,952	22,87
331,163	10,58
331,375	-7,85
331,586	31,06
331,798	47,44
332,009	-46,76
332,221	-36,52
332,432	82,26
332,644	14,68
332,855	-57
333,067	-1,71
333,278	55,64
333,489	57,68
333,701	-73,39
333,912	-57
334,124	63,83
334,335	-50,86
334,546	-59,05
334,758	16,73
334,969	178,51
335,18	53,59
335,392	-9,9
335,603	115,03
335,814	6,49
336,025	-59,05
336,237	-50,86
336,448	-16,04
336,659	-20,14
336,87	39,25
337,082	121,17
337,293	-30,38
337,504	31,06
337,715	-13,99
337,926	-26,28
338,138	33,11
338,349	20,82
338,56	72,02
338,771	-65,19
338,982	49,49
339,193	6,49
339,404	57,68
339,616	47,44
339,827	43,35
340,038	-42,67
340,249	31,06
340,46	-63,15
340,671	-9,9
340,882	104,79
341,093	33,11
341,304	14,68
341,515	-9,9
341,726	-32,43
341,937	37,2
342,148	57,68
342,359	-67,24
342,57	-48,81
342,781	51,54
342,992	-13,99
343,203	-7,85
343,414	80,21
343,624	-34,47
343,835	-7,85
344,046	-1,71
344,257	16,73
344,468	6,49
344,679	6,49
344,89	47,44
345,1	-104,11
345,311	45,4
345,522	-42,67
345,733	8,53
345,944	8,53
346,154	-34,47
346,365	-1,71
346,576	-114,34
346,787	2,39
346,997	47,44
347,208	22,87
347,419	-16,04
347,629	49,49
347,84	121,17
348,051	0,34
348,261	-9,9
348,472	-38,57
348,683	51,54
348,893	-87,72
349,104	16,73
349,315	-9,9
349,525	-26,28
349,736	-38,57
349,946	-9,9
350,157	153,94
350,368	92,5
350,578	-9,9
350,789	-61,1
350,999	18,77
351,21	63,83
351,42	-1,71
351,631	0,34
351,841	4,44
352,052	-1,71
352,262	26,96
352,472	-114,34
352,683	-40,62
352,893	80,21
353,104	-122,54
353,314	74,07
353,525	420,17
353,735	18,77
353,945	6,49
354,156	-24,23
354,366	131,41
354,576	84,31
354,787	22,87
354,997	-57
355,207	-104,11
355,418	49,49
355,628	-9,9
355,838	26,96
356,048	-24,23
356,259	57,68
356,469	-75,43
356,679	10,58
356,889	96,6
357,1	-48,81
357,31	8,53
357,52	-7,85
357,73	-59,05
357,94	-11,95
358,15	-89,77
358,361	26,96
358,571	-42,67
358,781	31,06
358,991	-40,62
359,201	-1,71
359,411	-5,8
359,621	-36,52
359,831	39,25
360,041	6,49
360,251	29,01
360,461	6,49
360,672	16,73
360,882	-5,8
361,092	45,4
361,302	47,44
361,512	43,35
361,721	-7,85
361,931	74,07
362,141	-9,9
362,351	-40,62
362,561	-61,1
362,771	76,12
362,981	88,4
363,191	-40,62
363,401	-91,82
363,611	-9,9
363,821	-132,78
364,03	-108,2
364,24	39,25
364,45	80,21
364,66	268,63
364,87	-40,62
365,08	125,27
365,289	-26,28
365,499	16,73
365,709	63,83
365,919	-26,28
366,128	-7,85
366,338	84,31
366,548	-89,77
366,758	2,39
366,967	22,87
367,177	108,88
367,387	-26,28
367,596	63,83
367,806	22,87
368,016	45,4
368,225	-22,19
368,435	119,12
368,644	-26,28
368,854	-32,43
369,064	-32,43
369,273	39,25
369,483	72,02
369,692	-24,23
369,902	63,83
370,111	59,73
370,321	-46,76
370,53	14,68
370,74	-63,15
370,949	47,44
371,159	112,98
371,368	14,68
371,578	86,36
371,787	63,83
371,997	-1,71
372,206	67,92
372,416	39,25
372,625	-5,8
372,834	-9,9
373,044	31,06
373,253	31,06
373,462	16,73
373,672	0,34
373,881	22,87
374,09	-13,99
374,3	-16,04
374,509	-40,62
374,718	-48,81
374,928	133,46
375,137	4,44
375,346	-48,81
375,555	55,64
375,765	43,35
375,974	-30,38
376,183	35,16
376,392	-9,9
376,601	72,02
376,811	67,92
377,02	55,64
377,229	-18,09
377,438	172,37
377,647	-40,62
377,856	-26,28
378,065	-34,47
378,275	-18,09
378,484	33,11
378,693	61,78
378,902	-52,91
379,111	84,31
379,32	-13,99
379,529	16,73
379,738	16,73
379,947	22,87
380,156	-3,75
380,365	31,06
380,574	82,26
380,783	-91,82
380,992	22,87
381,201	33,11
381,41	8,53
381,619	16,73
381,828	55,64
382,037	72,02
382,245	164,18
382,454	178,51
382,663	88,4
382,872	26,96
383,081	39,25
383,29	88,4
383,499	84,31
383,707	63,83
383,916	117,08
384,125	137,56
384,334	33,11
384,542	125,27
384,751	67,92
384,96	20,82
385,169	-42,67
385,377	-16,04
385,586	31,06
385,795	112,98
386,004	88,4
386,212	35,16
386,421	49,49
386,63	350,54
386,838	778,57
387,047	1231,17
387,255	2081,08
387,464	2840,87
387,673	4004,12
387,881	5136,65
388,09	6052,09
388,298	7026,92
388,507	8702,16
388,715	10440,89
388,924	11655,33
389,133	10920,11
389,341	10635,44
389,55	9320,65
389,758	7059,69
389,967	4761,87
390,175	2986,28
390,383	2429,23
390,592	1833,27
390,8	1061,19
391,009	762,19
391,217	524,62
391,426	317,78
391,634	96,6
391,842	112,98
392,051	67,92
392,259	82,26
392,467	47,44
392,676	-48,81
392,884	-5,8
393,092	-7,85
393,301	33,11
393,509	31,06
393,717	104,79
393,925	59,73
394,134	-24,23
394,342	0,34
394,55	121,17
394,758	-7,85
394,967	53,59
395,175	67,92
395,383	127,32
395,591	80,21
395,799	153,94
396,007	55,64
396,216	293,2
396,424	213,33
396,632	246,1
396,84	180,56
397,048	129,36
397,256	203,09
397,464	98,64
397,672	125,27
397,88	-9,9
398,088	14,68
398,296	0,34
398,504	12,63
398,712	8,53
398,92	33,11
399,128	-67,24
399,336	88,4
399,544	69,97
399,752	-73,39
399,96	14,68
400,168	49,49
400,376	26,96
400,584	57,68
400,792	104,79
401	-13,99
401,207	31,06
401,415	186,71
401,623	170,32
401,831	151,89
402,039	268,63
402,247	244,05
402,454	428,37
402,662	428,37
402,87	440,65
403,078	399,7
403,285	424,27
403,493	342,35
403,701	213,33
403,909	112,98
404,116	176,47
404,324	121,17
404,532	86,36
404,739	43,35
404,947	-63,15
405,155	82,26
405,362	-1,71
405,57	39,25
405,778	-26,28
405,985	53,59
406,193	43,35
406,4	-126,63
406,608	26,96
406,816	20,82
407,023	55,64
407,231	22,87
407,438	88,4
407,646	26,96
407,853	-18,09
408,061	-40,62
408,268	88,4
408,476	-57
408,683	55,64
408,89	31,06
409,098	16,73
409,305	-48,81
409,513	72,02
409,72	-9,9
409,927	-36,52
410,135	10,58
410,342	-67,24
410,55	129,36
410,757	63,83
410,964	-50,86
411,172	49,49
411,379	67,92
411,586	8,53
411,793	-18,09
412,001	47,44
412,208	14,68
412,415	88,4
412,622	129,36
412,83	131,41
413,037	88,4
413,244	22,87
413,451	121,17
413,658	67,92
413,866	100,69
414,073	47,44
414,28	162,13
414,487	-5,8
414,694	31,06
414,901	147,8
415,108	26,96
415,315	35,16
415,522	55,64
415,73	14,68
415,937	43,35
416,144	-9,9
416,351	6,49
416,558	-1,71
416,765	51,54
416,972	33,11
417,179	-1,71
417,386	-7,85
417,593	-26,28
417,8	39,25
418,006	49,49
418,213	55,64
418,42	65,88
418,627	33,11
418,834	-40,62
419,041	-5,8
419,248	-30,38
419,455	55,64
419,661	18,77
419,868	-67,24
420,075	-71,34
420,282	-67,24
420,489	20,82
420,696	-26,28
420,902	51,54
421,109	-1,71
421,316	-63,15
421,523	31,06
421,729	0,34
421,936	0,34
422,143	78,16
422,349	10,58
422,556	-81,58
422,763	-7,85
422,969	18,77
423,176	-65,19
423,383	-5,8
423,589	211,28
423,796	-5,8
424,002	-5,8
424,209	61,78
424,416	100,69
424,622	-69,29
424,829	22,87
425,035	-48,81
425,242	67,92
425,448	-24,23
425,655	6,49
425,861	31,06
426,068	55,64
426,274	227,67
426,481	-38,57
426,687	86,36
426,894	51,54
427,1	47,44
427,306	-24,23
427,513	2,39
427,719	-22,19
427,926	-65,19
428,132	-20,14
428,338	59,73
428,545	-67,24
428,751	-3,75
428,957	22,87
429,163	31,06
429,37	24,92
429,576	47,44
429,782	33,11
429,989	47,44
430,195	61,78
430,401	76,12
430,607	-13,99
430,813	-91,82
431,02	49,49
431,226	67,92
431,432	6,49
431,638	76,12
431,844	35,16
432,05	-34,47
432,257	-18,09
432,463	-7,85
432,669	16,73
432,875	6,49
433,081	2,39
433,287	10,58
433,493	-44,71
433,699	82,26
433,905	-18,09
434,111	2,39
434,317	-18,09
434,523	67,92
434,729	63,83
434,935	-34,47
435,141	82,26
435,347	57,68
435,553	41,3
435,759	47,44
435,965	-59,05
436,171	-18,09
436,377	55,64
436,582	10,58
436,788	-112,3
436,994	57,68
437,2	-54,95
437,406	16,73
437,612	59,73
437,818	88,4
438,023	-63,15
438,229	172,37
438,435	112,98
438,641	155,99
438,846	63,83
439,052	194,9
439,258	211,28
439,464	100,69
439,669	74,07
439,875	96,6
440,081	129,36
440,286	-20,14
440,492	47,44
440,698	-52,91
440,903	92,5
441,109	82,26
441,314	-32,43
441,52	14,68
441,726	63,83
441,931	14,68
442,137	51,54
442,342	63,83
442,548	6,49
442,753	2,39
442,959	-79,53
443,164	22,87
443,37	145,75
443,575	45,4
443,781	31,06
443,986	115,03
444,192	-26,28
444,397	63,83
444,602	-7,85
444,808	14,68
445,013	65,88
445,219	155,99
445,424	473,42
445,629	706,89
445,835	1046,85
446,04	1239,36
446,245	1595,71
446,451	1956,15
446,656	2287,92
446,861	2691,37
447,066	3301,67
447,272	3676,45
447,477	3635,49
447,682	3311,91
447,887	2853,16
448,093	2234,68
448,298	1751,35
448,503	1038,66
448,708	735,56
448,913	440,65
449,118	342,35
449,324	194,9
449,529	178,51
449,734	76,12
449,939	33,11
450,144	14,68
450,349	-16,04
450,554	-18,09
450,759	117,08
450,964	76,12
451,169	55,64
451,374	-18,09
451,579	41,3
451,784	22,87
451,989	6,49
452,194	121,17
452,399	6,49
452,604	41,3
452,809	14,68
453,014	-18,09
453,219	-46,76
453,424	22,87
453,629	-28,33
453,833	22,87
454,038	18,77
454,243	-26,28
454,448	22,87
454,653	108,88
454,858	22,87
455,062	4,44
455,267	-18,09
455,472	47,44
455,677	35,16
455,882	16,73
456,086	129,36
456,291	33,11
456,496	-24,23
456,7	22,87
456,905	76,12
457,11	26,96
457,314	-40,62
457,519	-40,62
457,724	31,06
457,928	24,92
458,133	10,58
458,338	72,02
458,542	41,3
458,747	-9,9
458,951	-32,43
459,156	86,36
459,36	-118,44
459,565	88,4
459,769	-3,75
459,974	90,45
460,178	33,11
460,383	-87,72
460,587	2,39
460,792	47,44
460,996	-38,57
461,201	-7,85
461,405	-18,09
461,61	-32,43
461,814	80,21
462,018	10,58
462,223	-1,71
462,427	47,44
462,631	-26,28
462,836	33,11
463,04	82,26
463,244	47,44
463,449	-7,85
463,653	39,25
463,857	22,87
464,062	0,34
464,266	39,25
464,47	6,49
464,674	72,02
464,878	63,83
465,083	6,49
465,287	158,03
465,491	57,68
465,695	-22,19
465,899	14,68
466,104	55,64
466,308	14,68
466,512	-24,23
466,716	76,12
466,92	98,64
467,124	104,79
467,328	-7,85
467,532	170,32
467,736	8,53
467,94	72,02
468,144	47,44
468,348	47,44
468,552	112,98
468,756	117,08
468,96	-1,71
469,164	6,49
469,368	-9,9
469,572	131,41
469,776	293,2
469,98	244,05
470,184	362,83
470,388	407,89
470,591	399,7
470,795	647,5
470,999	743,75
471,203	745,8
471,407	844,1
471,611	850,25
471,814	688,46
472,018	538,96
472,222	584,01
472,426	498
472,63	342,35
472,833	237,91
473,037	272,72
473,241	80,21
473,444	106,84
473,648	588,11
473,852	-57
474,055	0,34
474,259	0,34
474,463	76,12
474,666	47,44
474,87	43,35
475,074	0,34
475,277	88,4
475,481	100,69
475,684	-54,95
475,888	41,3
476,091	67,92
476,295	14,68
476,498	-50,86
476,702	14,68
476,905	72,02
477,109	110,93
477,312	2,39
477,516	-110,25
477,719	6,49
477,923	47,44
478,126	-32,43
478,329	20,82
478,533	-5,8
478,736	61,78
478,94	-22,19
479,143	-13,99
479,346	51,54
479,55	57,68
479,753	55,64
479,956	-50,86
480,159	-42,67
480,363	147,8
480,566	-20,14
480,769	-9,9
480,972	-22,19
481,176	-18,09
481,379	-18,09
481,582	59,73
481,785	-28,33
481,988	106,84
482,192	90,45
482,395	0,34
482,598	-26,28
482,801	16,73
483,004	129,36
483,207	-34,47
483,41	33,11
483,613	55,64
483,817	76,12
484,02	-46,76
484,223	-30,38
484,426	59,73
484,629	-18,09
484,832	98,64
485,035	-13,99
485,238	-9,9
485,441	-50,86
485,644	31,06
485,846	55,64
486,049	-34,47
486,252	-16,04
486,455	-79,53
486,658	96,6
486,861	80,21
487,064	2,39
487,267	-18,09
487,47	90,45
487,672	63,83
487,875	90,45
488,078	-50,86
488,281	57,68
488,484	-71,34
488,686	31,06
488,889	2,39
489,092	-67,24
489,295	-9,9
489,497	102,74
489,7	-57
489,903	-1,71
490,105	-26,28
490,308	84,31
490,511	153,94
490,713	319,82
490,916	383,31
491,118	588,11
491,321	768,33
491,524	952,65
491,726	1096
491,929	1136,96
492,131	1440,06
492,334	1493,31
492,536	1493,31
492,739	1360,19
492,941	1308,99
493,144	1175,88
493,346	934,22
493,549	631,12
493,751	440,65
493,954	287,06
494,156	211,28
494,359	166,23
494,561	-34,47
494,763	49,49
494,966	119,12
495,168	69,97
495,37	-28,33
495,573	55,64
495,775	72,02
495,977	31,06
496,18	10,58
496,382	88,4
496,584	-5,8
496,787	104,79
496,989	47,44
497,191	-7,85
497,393	84,31
497,595	8,53
497,798	22,87
498	6,49
498,202	-1,71
498,404	26,96
498,606	14,68
498,808	110,93
499,011	31,06
499,213	115,03
499,415	63,83
499,617	256,34
499,819	516,43
500,021	907,59
500,223	1249,6
500,425	1696,06
500,627	2326,83
500,829	2914,6
501,031	3619,1
501,233	3934,49
501,435	4651,28
501,637	5206,28
501,839	4974,86
502,041	5093,64
502,243	4634,89
502,445	4112,66
502,647	3399,97
502,848	2445,62
503,05	1898,81
503,252	1403,2
503,454	1036,61
503,656	588,11
503,858	407,89
504,059	321,87
504,261	260,43
504,463	391,5
504,665	213,33
504,867	252,24
505,068	235,86
505,27	203,09
505,472	278,87
505,673	237,91
505,875	39,25
506,077	76,12
506,278	108,88
506,48	117,08
506,682	72,02
506,883	31,06
507,085	26,96
507,287	-24,23
507,488	63,83
507,69	65,88
507,891	22,87
508,093	137,56
508,294	-106,15
508,496	-71,34
508,697	12,63
508,899	-50,86
509,1	41,3
509,302	72,02
509,503	31,06
509,705	14,68
509,906	63,83
510,108	18,77
510,309	-16,04
510,51	6,49
510,712	-81,58
510,913	39,25
511,114	-26,28
511,316	-24,23
511,517	-24,23
511,718	43,35
511,92	47,44
512,121	72,02
512,322	39,25
512,524	104,79
512,725	-18,09
512,926	49,49
513,127	-9,9
513,329	104,79
513,53	-7,85
513,731	24,92
513,932	47,44
514,133	-9,9
514,334	-44,71
514,536	96,6
514,737	88,4
514,938	31,06
515,139	-32,43
515,34	-59,05
515,541	14,68
515,742	-59,05
515,943	65,88
516,144	-38,57
516,345	10,58
516,546	51,54
516,747	90,45
516,948	0,34
517,149	-63,15
517,35	-59,05
517,551	-5,8
517,752	-34,47
517,953	41,3
518,154	-1,71
518,355	55,64
518,556	90,45
518,756	-13,99
518,957	-30,38
519,158	158,03
519,359	72,02
519,56	-106,15
519,761	51,54
519,961	55,64
520,162	143,7
520,363	31,06
520,564	-5,8
520,764	100,69
520,965	-32,43
521,166	39,25
521,366	-75,43
521,567	51,54
521,768	131,41
521,968	0,34
522,169	88,4
522,37	-16,04
522,57	-59,05
522,771	14,68
522,972	-42,67
523,172	147,8
523,373	45,4
523,573	-18,09
523,774	55,64
523,974	6,49
524,175	33,11
524,375	-46,76
524,576	-67,24
524,776	-1,71
524,977	8,53
525,177	-13,99
525,378	-18,09
525,578	57,68
525,778	106,84
525,979	-1,71
526,179	6,49
526,38	74,07
526,58	-34,47
526,78	-63,15
526,981	-9,9
527,181	24,92
527,381	-3,75
527,582	80,21
527,782	74,07
527,982	-16,04
528,182	-7,85
528,383	2,39
528,583	57,68
528,783	61,78
528,983	26,96
529,183	6,49
529,384	-42,67
529,584	74,07
529,784	125,27
529,984	24,92
530,184	8,53
530,384	-38,57
530,584	-48,81
530,784	96,6
530,984	-22,19
531,185	69,97
531,385	149,84
531,585	51,54
531,785	39,25
531,985	-26,28
532,185	41,3
532,385	-26,28
532,585	41,3
532,785	51,54
532,984	76,12
533,184	35,16
533,384	-67,24
533,584	-34,47
533,784	90,45
533,984	14,68
534,184	-81,58
534,384	-22,19
534,583	59,73
534,783	10,58
534,983	33,11
535,183	-1,71
535,383	-91,82
535,582	24,92
535,782	-26,28
535,982	39,25
536,182	26,96
536,381	51,54
536,581	-67,24
536,781	-13,99
536,98	59,73
537,18	-1,71
537,38	74,07
537,579	-34,47
537,779	-28,33
537,979	98,64
538,178	-40,62
538,378	117,08
538,577	-38,57
538,777	-9,9
538,976	6,49
539,176	6,49
539,376	-18,09
539,575	-22,19
539,774	-22,19
539,974	-16,04
540,173	10,58
540,373	12,63
540,572	-34,47
540,772	-48,81
540,971	-18,09
541,171	35,16
541,37	39,25
541,569	8,53
541,769	63,83
541,968	-13,99
542,167	-34,47
542,367	-26,28
542,566	16,73
542,765	-38,57
542,965	-73,39
543,164	10,58
543,363	74,07
543,562	-83,63
543,761	51,54
543,961	86,36
544,16	-124,58
544,359	190,8
544,558	74,07
544,757	22,87
544,957	80,21
545,156	63,83
545,355	-34,47
545,554	6,49
545,753	-65,19
545,952	61,78
546,151	31,06
546,35	55,64
546,549	-24,23
546,748	96,6
546,947	-22,19
547,146	-50,86
547,345	88,4
547,544	-30,38
547,743	-46,76
547,942	49,49
548,141	41,3
548,34	16,73
548,539	-22,19
548,738	-57
548,937	-24,23
549,135	-9,9
549,334	6,49
549,533	37,2
549,732	-42,67
549,931	10,58
550,13	-18,09
550,328	-18,09
550,527	-48,81
550,726	24,92
550,925	-91,82
551,123	0,34
551,322	2,39
551,521	47,44
551,72	-16,04
551,918	72,02
552,117	49,49
552,315	-79,53
552,514	18,77
552,713	-16,04
552,911	-140,97
553,11	-100,01
553,309	-9,9
553,507	55,64
553,706	55,64
553,904	18,77
554,103	-18,09
554,301	26,96
554,5	-34,47
554,698	35,16
554,897	98,64
555,095	-7,85
555,294	-67,24
555,492	31,06
555,69	96,6
555,889	-16,04
556,087	-57
556,286	98,64
556,484	74,07
556,682	16,73
556,881	80,21
557,079	45,4
557,277	57,68
557,476	31,06
557,674	104,79
557,872	92,5
558,07	-22,19
558,269	-32,43
558,467	-34,47
558,665	123,22
558,863	22,87
559,062	31,06
559,26	-1,71
559,458	-83,63
559,656	69,97
559,854	16,73
560,052	63,83
560,25	-9,9
560,449	387,41
560,647	51,54
560,845	-67,24
561,043	33,11
561,241	155,99
561,439	104,79
561,637	-20,14
561,835	33,11
562,033	133,46
562,231	-1,71
562,429	61,78
562,627	43,35
562,825	2,39
563,023	47,44
563,221	31,06
563,418	47,44
563,616	16,73
563,814	63,83
564,012	39,25
564,21	82,26
564,408	117,08
564,605	10,58
564,803	-110,25
565,001	223,57
565,199	-40,62
565,397	55,64
565,594	41,3
565,792	72,02
565,99	47,44
566,188	80,21
566,385	39,25
566,583	31,06
566,781	131,41
566,978	72,02
567,176	172,37
567,373	155,99
567,571	39,25
567,769	51,54
567,966	-89,77
568,164	106,84
568,361	35,16
568,559	121,17
568,756	-24,23
568,954	92,5
569,151	106,84
569,349	129,36
569,546	22,87
569,744	117,08
569,941	57,68
570,139	115,03
570,336	-26,28
570,534	72,02
570,731	-18,09
570,928	6,49
571,126	170,32
571,323	82,26
571,52	6,49
571,718	90,45
571,915	55,64
572,112	-42,67
572,31	55,64
572,507	129,36
572,704	-32,43
572,901	49,49
573,099	106,84
573,296	192,85
573,493	57,68
573,69	26,96
573,887	-26,28
574,085	155,99
574,282	72,02
574,479	115,03
574,676	84,31
574,873	47,44
575,07	72,02
575,267	-22,19
575,464	49,49
575,661	121,17
575,858	65,88
576,055	49,49
576,252	84,31
576,449	65,88
576,646	108,88
576,843	72,02
577,04	125,27
577,237	170,32
577,434	117,08
577,631	41,3
577,828	158,03
578,025	-13,99
578,222	69,97
578,419	110,93
578,615	65,88
578,812	92,5
579,009	63,83
579,206	51,54
579,403	57,68
579,599	106,84
579,796	67,92
579,993	155,99
580,19	39,25
580,386	55,64
580,583	108,88
580,78	55,64
580,976	96,6
581,173	84,31
581,37	72,02
581,566	96,6
581,763	35,16
581,96	135,51
582,156	129,36
582,353	182,61
582,549	194,9
582,746	168,27
582,942	178,51
583,139	172,37
583,335	178,51
583,532	194,9
583,728	108,88
583,925	145,75
584,121	190,8
584,318	213,33
584,514	155,99
584,711	264,53
584,907	303,44
585,103	289,1
585,3	375,12
585,496	424,27
585,693	1216,83
585,889	3881,24
586,085	8790,22
586,281	14907,51
586,478	22585,34
586,674	30607,23
586,87	39640,82
587,067	48141,94
587,263	53984,8
587,459	57785,83
587,655	61038
587,851	62125,47
588,048	60622,26
588,244	57890,27
588,44	53947,93
588,636	48318,07
588,832	41295,58
589,028	34578,25
589,224	27793,33
589,42	22046,72
589,617	15747,17
589,813	10676,4
590,009	6412,53
590,205	3975,45
590,401	2406,7
590,597	1392,96
590,793	1153,35
590,989	801,1
591,185	637,26
591,38	498
591,576	340,3
591,772	383,31
591,968	289,1
592,164	272,72
592,36	252,24
592,556	153,94
592,752	252,24
592,948	98,64
593,143	117,08
593,339	41,3
593,535	76,12
593,731	80,21
593,926	90,45
594,122	39,25
594,318	76,12
594,514	211,28
594,709	-1,71
594,905	90,45
595,101	96,6
595,296	104,79
595,492	139,6
595,688	39,25
595,883	125,27
596,079	149,84
596,275	-18,09
596,47	72,02
596,666	55,64
596,861	51,54
597,057	53,59
597,252	-13,99
597,448	78,16
597,643	143,7
597,839	104,79
598,034	84,31
598,23	8,53
598,425	47,44
598,621	178,51
598,816	-13,99
599,011	51,54
599,207	26,96
599,402	-48,81
599,597	98,64
599,793	22,87
599,988	96,6
600,183	41,3
600,379	90,45
600,574	6,49
600,769	96,6
600,965	51,54
601,16	16,73
601,355	31,06
601,55	63,83
601,745	-18,09
601,941	96,6
602,136	92,5
602,331	86,36
602,526	16,73
602,721	90,45
602,916	88,4
603,111	6,49
603,307	8,53
603,502	92,5
603,697	63,83
603,892	55,64
604,087	112,98
604,282	84,31
604,477	31,06
604,672	37,2
604,867	14,68
605,062	55,64
605,257	31,06
605,452	112,98
605,646	55,64
605,841	63,83
606,036	35,16
606,231	-40,62
606,426	-1,71
606,621	20,82
606,816	55,64
607,01	82,26
607,205	104,79
607,4	22,87
607,595	51,54
607,79	14,68
607,984	55,64
608,179	39,25
608,374	10,58
608,569	33,11
608,763	-9,9
608,958	37,2
609,153	26,96
609,347	92,5
609,542	155,99
609,736	63,83
609,931	55,64
610,126	22,87
610,32	104,79
610,515	-32,43
610,709	264,53
610,904	86,36
611,098	-20,14
611,293	2,39
611,487	35,16
611,682	2,39
611,876	-52,91
612,071	55,64
612,265	72,02
612,46	37,2
612,654	22,87
612,848	65,88
613,043	-1,71
613,237	-9,9
613,432	-42,67
613,626	-46,76
613,82	-9,9
614,014	63,83
614,209	57,68
614,403	47,44
614,597	41,3
614,792	26,96
614,986	-34,47
615,18	65,88
615,374	55,64
615,568	63,83
615,763	96,6
615,957	-3,75
616,151	-18,09
616,345	80,21
616,539	47,44
616,733	43,35
616,927	51,54
617,121	63,83
617,316	72,02
617,51	59,73
617,704	33,11
617,898	123,22
618,092	31,06
618,286	-22,19
618,48	-42,67
618,674	125,27
618,868	-9,9
619,061	18,77
619,255	125,27
619,449	-11,95
619,643	-34,47
619,837	178,51
620,031	2,39
620,225	129,36
620,419	14,68
620,612	88,4
620,806	55,64
621	88,4
621,194	49,49
621,388	88,4
621,581	63,83
621,775	80,21
621,969	-67,24
622,162	104,79
622,356	-63,15
622,55	172,37
622,743	88,4
622,937	51,54
623,131	16,73
623,324	131,41
623,518	18,77
623,712	-48,81
623,905	8,53
624,099	76,12
624,292	67,92
624,486	-13,99
624,679	-18,09
624,873	16,73
625,066	31,06
625,26	49,49
625,453	-9,9
625,647	22,87
625,84	37,2
626,034	102,74
626,227	49,49
626,42	92,5
626,614	-11,95
626,807	149,84
627	-11,95
627,194	8,53
627,387	57,68
627,58	20,82
627,774	-1,71
627,967	39,25
628,16	22,87
628,353	61,78
628,547	2,39
628,74	106,84
628,933	-42,67
629,126	57,68
629,319	35,16
629,513	37,2
629,706	26,96
629,899	49,49
630,092	-48,81
630,285	-54,95
630,478	6,49
630,671	24,92
630,864	59,73
631,057	47,44
631,25	51,54
631,443	69,97
631,636	22,87
631,829	22,87
632,022	115,03
632,215	49,49
632,408	35,16
632,601	61,78
632,794	55,64
632,987	-75,43
633,18	43,35
633,373	47,44
633,566	61,78
633,758	-83,63
633,951	100,69
634,144	59,73
634,337	18,77
634,53	74,07
634,722	131,41
634,915	22,87
635,108	10,58
635,301	47,44
635,493	59,73
635,686	153,94
635,879	26,96
636,071	-26,28
636,264	67,92
636,457	26,96
636,649	14,68
636,842	43,35
637,034	123,22
637,227	82,26
637,42	51,54
637,612	-5,8
637,805	-32,43
637,997	57,68
638,19	47,44
638,382	-36,52
638,575	18,77
638,767	0,34
638,96	117,08
639,152	-28,33
639,344	90,45
639,537	-42,67
639,729	22,87
639,922	33,11
640,114	31,06
640,306	-1,71
640,499	133,46
640,691	84,31
640,883	-42,67
641,075	57,68
641,268	129,36
641,46	-13,99
641,652	80,21
641,844	0,34
642,037	-22,19
642,229	31,06
642,421	47,44
642,613	22,87
642,805	49,49
642,998	6,49
643,19	80,21
643,382	162,13
643,574	12,63
643,766	41,3
643,958	14,68
644,15	112,98
644,342	84,31
644,534	88,4
644,726	26,96
644,918	37,2
645,11	10,58
645,302	6,49
645,494	82,26
645,686	-5,8
645,878	47,44
646,07	31,06
646,262	-16,04
646,453	63,83
646,645	137,56
646,837	10,58
647,029	31,06
647,221	-3,75
647,413	6,49
647,604	6,49
647,796	39,25
647,988	39,25
648,18	-32,43
648,371	41,3
648,563	10,58
648,755	-20,14
648,947	-16,04
649,138	-16,04
649,33	8,53
649,521	18,77
649,713	106,84
649,905	57,68
650,096	-26,28
650,288	29,01
650,479	-13,99
650,671	-20,14
650,863	16,73
651,054	-7,85
651,246	59,73
651,437	92,5
651,629	72,02
651,82	94,55
652,011	35,16
652,203	69,97
652,394	-5,8
652,586	26,96
652,777	31,06
652,968	47,44
653,16	-20,14
653,351	65,88
653,542	106,84
653,734	20,82
653,925	-16,04
654,116	82,26
654,308	153,94
654,499	39,25
654,69	-22,19
654,881	47,44
655,073	82,26
655,264	37,2
655,455	31,06
655,646	-26,28
655,837	129,36
656,028	45,4
656,219	112,98
656,411	43,35
656,602	31,06
656,793	90,45
656,984	94,55
657,175	10,58
657,366	10,58
657,557	63,83
657,748	55,64
657,939	-5,8
658,13	-32,43
658,321	41,3
658,512	59,73
658,703	143,7
658,894	112,98
659,084	82,26
659,275	35,16
659,466	149,84
659,657	88,4
659,848	84,31
660,039	88,4
660,23	110,93
660,42	-7,85
660,611	112,98
660,802	43,35
660,993	33,11
661,183	100,69
661,374	6,49
661,565	104,79
661,755	43,35
661,946	57,68
662,137	14,68
662,327	31,06
662,518	-28,33
662,709	14,68
662,899	16,73
663,09	-67,24
663,28	59,73
663,471	67,92
663,662	92,5
663,852	74,07
664,043	22,87
664,233	-57
664,424	76,12
664,614	80,21
664,804	43,35
664,995	155,99
665,185	106,84
665,376	6,49
665,566	127,32
665,756	63,83
665,947	112,98
666,137	229,71
666,328	956,74
666,518	2343,22
666,708	3801,37
666,898	5728,51
667,089	7643,36
667,279	9625,79
667,469	11272,36
667,659	12179,61
667,85	12482,71
668,04	12746,9
668,23	12339,35
668,42	11612,32
668,61	10899,63
668,8	10078,4
668,991	9046,22
669,181	8018,14
669,371	6545,65
669,561	5789,95
669,751	5060,87
669,941	3920,15
670,131	3072,29
670,321	2285,87
670,511	1546,56
670,701	893,26
670,891	579,92
671,081	371,02
671,271	278,87
671,461	182,61
671,651	227,67
671,841	139,6
672,03	155,99
672,22	31,06
672,41	74,07
672,6	35,16
672,79	80,21
672,98	57,68
673,169	33,11
673,359	-18,09
673,549	20,82
673,739	-65,19
673,928	43,35
674,118	39,25
674,308	86,36
674,497	96,6
674,687	-7,85
674,877	74,07
675,066	39,25
675,256	37,2
675,446	24,92
675,635	-24,23
675,825	18,77
676,014	88,4
676,204	10,58
676,393	47,44
676,583	22,87
676,772	45,4
676,962	-28,33
677,151	41,3
677,341	-32,43
677,53	-34,47
677,72	104,79
677,909	8,53
678,099	-38,57
678,288	-30,38
678,477	-28,33
678,667	35,16
678,856	190,8
679,045	80,21
679,235	63,83
679,424	12,63
679,613	192,85
679,802	63,83
679,992	63,83
680,181	-50,86
680,37	29,01
680,559	-30,38
680,748	47,44
680,938	108,88
681,127	76,12
681,316	82,26
681,505	80,21
681,694	-81,58
681,883	41,3
682,072	6,49
682,261	49,49
682,45	-50,86
682,639	57,68
682,828	33,11
683,017	203,09
683,206	88,4
683,395	-18,09
683,584	31,06
683,773	88,4
683,962	6,49
684,151	-24,23
684,34	22,87
684,529	-16,04
684,718	-71,34
684,907	72,02
685,095	14,68
685,284	108,88
685,473	88,4
685,662	22,87
685,851	74,07
686,039	31,06
686,228	49,49
686,417	10,58
686,606	170,32
686,794	-48,81
686,983	0,34
687,172	8,53
687,36	-13,99
687,549	-26,28
687,738	-50,86
687,926	-24,23
688,115	33,11
688,303	18,77
688,492	137,56
688,68	-81,58
688,869	2,39
689,057	-65,19
689,246	-63,15
689,434	47,44
689,623	-42,67
689,811	53,59
690	22,87
690,188	8,53
690,377	6,49
690,565	45,4
690,753	55,64
690,942	16,73
691,13	121,17
691,318	47,44
691,507	-30,38
691,695	55,64
691,883	63,83
692,072	-13,99
692,26	178,51
692,448	90,45
692,636	33,11
692,824	-40,62
693,013	61,78
693,201	0,34
693,389	-34,47
693,577	-13,99
693,765	74,07
693,953	72,02
694,141	55,64
694,329	-1,71
694,518	49,49
694,706	31,06
694,894	63,83
695,082	-26,28
695,27	14,68
695,458	72,02
695,646	18,77
695,834	164,18
696,022	74,07
696,209	86,36
696,397	-7,85
696,585	31,06
696,773	88,4
696,961	18,77
697,149	80,21
697,337	86,36
697,525	47,44
697,712	55,64
697,9	145,75
698,088	65,88
698,276	96,6
698,463	6,49
698,651	92,5
698,839	-32,43
699,027	18,77
699,214	143,7
699,402	35,16
699,59	49,49
699,777	41,3
699,965	16,73
700,152	-34,47
700,34	61,78
700,528	-36,52
700,715	26,96
700,903	108,88
701,09	115,03
701,278	55,64
701,465	88,4
701,653	63,83
701,84	14,68
702,028	-5,8
702,215	43,35
702,402	115,03
702,59	158,03
702,777	112,98
702,965	49,49
703,152	31,06
703,339	155,99
703,527	-5,8
703,714	94,55
703,901	67,92
704,088	98,64
704,276	51,54
704,463	76,12
704,65	133,46
704,837	313,68
705,025	883,02
705,212	2857,26
705,399	6144,25
705,586	9662,66
705,773	13641,86
705,96	17369,16
706,147	20668,44
706,335	22542,33
706,522	23721,96
706,709	23570,41
706,896	22683,64
707,083	21577,74
707,27	20434,97
707,457	18604,09
707,644	17164,37
707,831	14725,24
708,018	12992,66
708,205	11212,97
708,392	9517,25
708,578	8052,95
708,765	6543,6
708,952	5445,89
709,139	4331,8
709,326	2935,08
709,513	2087,22
709,7	1343,81
709,886	909,64
710,073	663,88
710,26	545,1
710,447	252,24
710,633	287,06
710,82	155,99
711,007	137,56
711,193	-9,9
711,38	112,98
711,567	141,65
711,753	112,98
711,94	67,92
712,127	98,64
712,313	65,88
712,5	-40,62
712,686	137,56
712,873	39,25
713,059	-30,38
713,246	82,26
713,432	49,49
713,619	55,64
713,805	-65,19
713,992	215,38
714,178	8,53
714,365	76,12
714,551	96,6
714,737	16,73
714,924	-79,53
715,11	121,17
715,297	29,01
715,483	39,25
715,669	53,59
715,855	39,25
716,042	37,2
716,228	6,49
716,414	47,44
716,6	47,44
716,787	-65,19
716,973	-67,24
717,159	90,45
717,345	76,12
717,531	-26,28
717,718	35,16
717,904	74,07
718,09	29,01
718,276	-30,38
718,462	65,88
718,648	88,4
718,834	0,34
719,02	96,6
719,206	88,4
719,392	-59,05
719,578	22,87
719,764	-89,77
719,95	18,77
720,136	47,44
720,322	-1,71
720,508	65,88
720,694	-34,47
720,879	-40,62
721,065	131,41
721,251	31,06
721,437	76,12
721,623	49,49
721,809	61,78
721,994	65,88
722,18	-46,76
722,366	63,83
722,552	-9,9
722,737	14,68
722,923	35,16
723,109	43,35
723,294	-38,57
723,48	104,79
723,666	49,49
723,851	-16,04
724,037	72,02
724,222	145,75
724,408	123,22
724,593	88,4
724,779	10,58
724,965	-63,15
725,15	6,49
725,336	80,21
725,521	51,54
725,706	0,34
725,892	55,64
726,077	43,35
726,263	55,64
726,448	123,22
726,634	31,06
726,819	215,38
727,004	534,86
727,19	862,54
727,375	1337,66
727,56	1530,17
727,745	1935,67
727,931	2308,4
728,116	2218,29
728,301	2414,9
728,486	2169,14
728,672	2097,46
728,857	2040,12
729,042	1773,88
729,227	1528,13
729,412	1405,25
729,597	1237,31
729,783	973,13
729,968	909,64
730,153	786,76
730,338	645,45
730,523	543,05
730,708	434,51
730,893	428,37
731,078	293,2
731,263	211,28
731,448	117,08
731,633	96,6
731,818	57,68
732,003	26,96
732,187	-9,9
732,372	-57
732,557	104,79
732,742	-22,19
732,927	-9,9
733,112	72,02
733,297	-26,28
733,481	43,35
733,666	76,12
733,851	96,6
734,036	16,73
734,22	2,39
734,405	106,84
734,59	-32,43
734,774	92,5
734,959	6,49
735,144	80,21
735,328	51,54
735,513	-20,14
735,698	-36,52
735,882	43,35
736,067	90,45
736,251	100,69
736,436	-16,04
736,62	31,06
736,805	-7,85
736,989	-7,85
737,174	26,96
737,358	-67,24
737,543	84,31
737,727	18,77
737,911	158,03
738,096	-79,53
738,28	84,31
738,465	33,11
738,649	35,16
738,833	63,83
739,018	2,39
739,202	-9,9
739,386	-75,43
739,57	0,34
739,755	88,4
739,939	41,3
740,123	-46,76
740,307	57,68
740,491	31,06
740,676	-57
740,86	10,58
741,044	72,02
741,228	8,53
741,412	-83,63
741,596	-57
741,78	22,87
741,964	-1,71
742,148	31,06
742,332	-75,43
742,516	-26,28
742,7	31,06
742,884	33,11
743,068	35,16
743,252	47,44
743,436	43,35
743,62	-116,39
743,804	112,98
743,988	153,94
744,172	84,31
744,356	24,92
744,539	-32,43
744,723	-7,85
744,907	-11,95
745,091	22,87
745,275	43,35
745,458	22,87
745,642	-30,38
745,826	-5,8
746,009	86,36
746,193	43,35
746,377	84,31
746,56	88,4
746,744	86,36
746,928	-59,05
747,111	59,73
747,295	12,63
747,478	6,49
747,662	-30,38
747,846	49,49
748,029	55,64
748,213	-32,43
748,396	-34,47
748,58	31,06
748,763	-18,09
748,946	-26,28
749,13	-32,43
749,313	-22,19
749,497	153,94
749,68	-34,47
749,863	29,01
750,047	-5,8
750,23	-32,43
750,413	14,68
750,597	22,87
750,78	-28,33
750,963	14,68
751,146	-7,85
751,33	100,69
751,513	-5,8
751,696	-40,62
751,879	-75,43
752,062	-67,24
752,246	49,49
752,429	51,54
752,612	18,77
752,795	6,49
752,978	31,06
753,161	-100,01
753,344	-50,86
753,527	88,4
753,71	74,07
753,893	33,11
754,076	-22,19
754,259	-24,23
754,442	26,96
754,625	-89,77
754,808	110,93
754,991	-26,28
755,174	24,92
755,357	-5,8
755,539	6,49
755,722	47,44
755,905	-24,23
756,088	-24,23
756,271	-5,8
756,453	31,06
756,636	-26,28
756,819	129,36
757,002	-63,15
757,184	88,4
757,367	137,56
757,55	-9,9
757,732	119,12
757,915	47,44
758,098	0,34
758,28	-30,38
758,463	-24,23
758,645	106,84
758,828	106,84
759,011	88,4
759,193	47,44
759,376	65,88
759,558	-22,19
759,741	63,83
759,923	-100,01
760,105	6,49
760,288	-9,9
760,47	-26,28
760,653	-48,81
760,835	-34,47
761,017	-50,86
761,2	47,44
761,382	63,83
761,564	-40,62
761,747	39,25
761,929	-34,47
762,111	16,73
762,294	-67,24
762,476	141,65
762,658	18,77
762,84	162,13
763,022	31,06
763,205	18,77
763,387	153,94
763,569	31,06
763,751	-106,15
763,933	18,77
764,115	8,53
764,297	-59,05
764,479	90,45
764,661	26,96
764,843	145,75
765,025	20,82
765,207	0,34
765,389	-1,71
765,571	-38,57
765,753	31,06
765,935	80,21
766,117	72,02
766,299	153,94
766,481	115,03
766,663	31,06
766,845	-18,09
767,026	14,68
767,208	55,64
767,39	-13,99
767,572	-57
767,753	104,79
767,935	-24,23
768,117	-1,71
768,299	131,41
768,48	39,25
768,662	57,68
768,844	-26,28
769,025	237,91
769,207	-34,47
769,389	-9,9
769,57	80,21
769,752	24,92
769,933	18,77
770,115	112,98
770,296	2,39
770,478	108,88
770,659	16,73
770,841	209,23
771,022	47,44
771,204	96,6
771,385	72,02
771,567	106,84
771,748	88,4
771,929	-63,15
772,111	10,58
772,292	22,87
772,473	39,25
772,655	24,92
772,836	29,01
773,017	117,08
773,199	29,01
773,38	74,07
773,561	10,58
773,742	112,98
773,923	-16,04
774,105	43,35
774,286	20,82
774,467	-83,63
774,648	14,68
774,829	57,68
775,01	-26,28
775,191	6,49
775,372	-13,99
775,553	-57
775,734	-40,62
775,915	-32,43
776,096	14,68
776,277	0,34
776,458	-9,9
776,639	33,11
776,82	80,21
777,001	-77,48
777,182	24,92
777,363	-13,99
777,544	8,53
777,725	112,98
777,906	-50,86
778,086	65,88
778,267	92,5
778,448	47,44
778,629	-38,57
778,809	-9,9
778,99	-26,28
779,171	-22,19
779,352	-9,9
779,532	-81,58
779,713	-13,99
779,894	59,73
780,074	65,88
780,255	57,68
780,435	84,31
780,616	80,21
780,797	76,12
780,977	14,68
781,158	-1,71
781,338	47,44
781,519	-34,47
781,699	141,65
781,88	49,49
782,06	45,4
782,241	-50,86
782,421	-65,19
782,601	57,68
782,782	88,4
782,962	35,16
783,142	-57
783,323	-9,9
783,503	137,56
783,683	63,83
783,864	14,68
784,044	61,78
784,224	164,18
784,404	18,77
784,585	31,06
784,765	-69,29
784,945	129,36
785,125	-65,19
785,305	39,25
785,485	112,98
785,666	-26,28
785,846	-26,28
786,026	-26,28
786,206	-73,39
786,386	24,92
786,566	57,68
786,746	45,4
786,926	63,83
787,106	-50,86
787,286	-114,34
787,466	51,54
787,646	-16,04
787,826	22,87
788,006	35,16
788,185	-16,04
788,365	-87,72
788,545	55,64
788,725	49,49
788,905	-36,52
789,085	31,06
789,264	14,68
789,444	18,77
789,624	49,49
789,804	-18,09
789,983	53,59
790,163	39,25
790,343	8,53
790,522	16,73
790,702	-57
790,882	-42,67
791,061	96,6
791,241	22,87
791,42	123,22
791,6	57,68
791,78	39,25
791,959	14,68
792,139	39,25
792,318	-30,38
792,498	100,69
792,677	51,54
792,856	-1,71
793,036	-46,76
793,215	35,16
793,395	90,45
793,574	-24,23
793,753	18,77
793,933	145,75
794,112	53,59
794,291	0,34
794,471	112,98
794,65	18,77
794,829	-65,19
795,008	72,02
795,188	51,54
795,367	67,92
795,546	0,34
795,725	31,06
795,904	53,59
796,084	53,59
796,263	47,44
796,442	104,79
796,621	-95,91
796,8	63,83
796,979	-24,23
797,158	-7,85
797,337	14,68
797,516	76,12
797,695	31,06
797,874	92,5
798,053	39,25
798,232	100,69
798,411	-22,19
798,59	6,49
798,769	-48,81
798,947	-11,95
799,126	39,25
799,305	49,49
799,484	18,77
799,663	-24,23
799,842	-5,8
800,02	35,16
800,199	-81,58
800,378	-34,47
800,557	-83,63
800,735	-97,96
800,914	-7,85
801,093	74,07
801,271	41,3
801,45	47,44
801,628	84,31
801,807	-18,09
801,986	33,11
802,164	96,6
802,343	31,06
802,521	-75,43
802,7	49,49
802,878	49,49
803,057	-34,47
803,235	63,83
803,414	63,83
803,592	94,55
803,771	39,25
803,949	74,07
804,127	33,11
804,306	0,34
804,484	-100,01
804,662	84,31
804,841	-73,39
805,019	29,01
805,197	47,44
805,375	-13,99
805,554	-40,62
805,732	14,68
805,91	22,87
806,088	-13,99
806,266	-65,19
806,445	-24,23
806,623	-48,81
806,801	41,3
806,979	14,68
807,157	55,64
807,335	-11,95
807,513	10,58
807,691	39,25
807,869	-26,28
808,047	-18,09
808,225	-20,14
808,403	39,25
808,581	-1,71
808,759	80,21
808,937	98,64
809,115	82,26
809,293	33,11
809,471	-22,19
809,649	96,6
809,826	8,53
810,004	84,31
810,182	10,58
810,36	-5,8
810,538	39,25
810,715	-26,28
810,893	47,44
811,071	26,96
811,248	125,27
811,426	47,44
811,604	90,45
811,781	26,96
811,959	57,68
812,137	-83,63
812,314	-67,24
812,492	-61,1
812,669	6,49
812,847	16,73
813,024	14,68
813,202	47,44
813,379	-18,09
813,557	121,17
813,734	88,4
813,912	37,2
814,089	74,07
814,267	104,79
814,444	22,87
814,621	0,34
814,799	-34,47
814,976	76,12
815,153	6,49
815,331	26,96
815,508	-18,09
815,685	31,06
815,862	33,11
816,04	-9,9
816,217	2,39
816,394	-40,62
816,571	47,44
816,748	129,36
816,926	65,88
817,103	278,87
817,28	0,34
817,457	-67,24
817,634	121,17
817,811	-32,43
817,988	55,64
818,165	39,25
818,342	10,58
818,519	10,58
818,696	57,68
818,873	-13,99
819,05	-9,9
819,227	39,25
819,404	8,53
819,581	16,73
819,758	47,44
819,934	-38,57
820,111	-18,09
820,288	18,77
820,465	133,46
820,642	-18,09
820,818	96,6
820,995	41,3
821,172	-7,85
821,349	78,16
821,525	47,44
821,702	35,16
821,879	33,11
822,055	-40,62
822,232	24,92
822,409	31,06
822,585	90,45
822,762	14,68
822,938	92,5
823,115	22,87
823,291	-7,85
823,468	117,08
823,644	-7,85
823,821	47,44
823,997	-9,9
824,174	65,88
824,35	-1,71
824,527	31,06
824,703	72,02
824,879	29,01
825,056	-22,19
825,232	102,74
825,408	39,25
825,585	-13,99
825,761	-18,09
825,937	14,68
826,113	63,83
826,29	92,5
826,466	-34,47
826,642	338,26
826,818	6,49
826,994	10,58
827,17	-9,9
827,347	-1,71
827,523	8,53
827,699	78,16
827,875	72,02
828,051	39,25
828,227	-1,71
828,403	65,88
828,579	74,07
828,755	22,87
828,931	33,11
829,107	39,25
829,283	129,36
829,459	-120,49
829,635	-50,86
829,811	-59,05
829,986	16,73
830,162	-16,04
830,338	12,63
830,514	0,34
830,69	8,53
830,865	10,58
831,041	-28,33
831,217	-83,63
831,393	-18,09
831,568	53,59
831,744	16,73
831,92	22,87
832,095	0,34
832,271	-42,67
832,447	49,49
832,622	35,16
832,798	22,87
832,973	22,87
833,149	76,12
833,325	-97,96
833,5	-75,43
833,676	18,77
833,851	8,53
834,027	-65,19
834,202	53,59
834,377	72,02
834,553	18,77
834,728	16,73
834,904	8,53
835,079	-59,05
835,254	-5,8
835,43	22,87
835,605	16,73
835,78	65,88
835,955	63,83
836,131	18,77
836,306	-38,57
836,481	-50,86
836,656	-61,1
836,832	45,4
837,007	-79,53
837,182	-73,39
837,357	39,25
837,532	-116,39
837,707	-75,43
837,882	-73,39
838,057	84,31
838,232	106,84
838,407	39,25
838,582	-34,47
838,757	22,87
838,932	133,46
839,107	63,83
839,282	-100,01
839,457	31,06
839,632	74,07
839,807	35,16
839,982	14,68
840,157	26,96
840,332	-11,95
840,506	-50,86
840,681	-110,25
840,856	22,87
841,031	14,68
841,205	-1,71
841,38	67,92
841,555	55,64
841,73	6,49
841,904	0,34
842,079	18,77
842,254	69,97
842,428	10,58
842,603	-102,06
842,777	-83,63
842,952	-9,9
843,126	-32,43
843,301	39,25
843,476	-91,82
843,65	63,83
843,825	51,54
843,999	24,92
844,173	-67,24
844,348	-7,85
844,522	92,5
844,697	59,73
844,871	-18,09
845,045	47,44
845,22	96,6
845,394	86,36
845,568	-1,71
845,743	74,07
845,917	72,02
846,091	-11,95
846,265	31,06
846,44	-38,57
846,614	76,12
846,788	16,73
846,962	35,16
847,136	2,39
847,31	-7,85
847,485	72,02
847,659	-5,8
847,833	57,68
848,007	31,06
848,181	-38,57
848,355	-71,34
848,529	39,25
848,703	47,44
848,877	-73,39
849,051	74,07
849,225	33,11
849,399	4,44
849,573	-83,63
849,746	-9,9
849,92	-30,38
850,094	26,96
850,268	-40,62
850,442	14,68
850,616	43,35
850,789	-1,71
850,963	-34,47
851,137	6,49
851,311	92,5
851,484	76,12
851,658	90,45
851,832	-91,82
852,005	-32,43
852,179	-54,95
852,352	0,34
852,526	-26,28
852,7	90,45
852,873	-59,05
853,047	63,83
853,22	22,87
853,394	41,3
853,567	-24,23
853,741	-75,43
853,914	-40,62
854,088	129,36
854,261	22,87
854,434	76,12
854,608	14,68
854,781	-54,95
854,955	-20,14
855,128	63,83
855,301	26,96
855,475	147,8
855,648	72,02
855,821	14,68
855,994	-9,9
856,168	57,68
856,341	121,17
856,514	-83,63
856,687	-7,85
856,86	72,02
857,033	74,07
857,207	-40,62
857,38	-1,71
857,553	100,69
857,726	20,82
857,899	137,56
858,072	14,68
858,245	-26,28
858,418	0,34
858,591	10,58
858,764	-16,04
858,937	98,64
859,11	76,12
859,283	24,92
859,455	-42,67
859,628	-7,85
859,801	92,5
859,974	98,64
860,147	-9,9
860,32	63,83
860,492	-1,71
860,665	-59,05
860,838	61,78
861,011	14,68
861,183	125,27
861,356	55,64
861,529	29,01
861,701	10,58
861,874	22,87
862,047	123,22
862,219	29,01
862,392	88,4
862,564	16,73
862,737	-9,9
862,909	51,54
863,082	-46,76
863,254	-16,04
863,427	-26,28
863,599	57,68
863,772	-40,62
863,944	37,2
864,117	47,44
864,289	-20,14
864,461	-97,96
864,634	26,96
864,806	10,58
864,978	43,35
865,151	6,49
865,323	104,79
865,495	82,26
865,667	31,06
865,84	84,31
866,012	-18,09
866,184	39,25
866,356	26,96
866,528	53,59
866,7	72,02
866,873	-34,47
867,045	6,49
867,217	-42,67
867,389	14,68
867,561	6,49
867,733	-48,81
867,905	-32,43
868,077	24,92
868,249	8,53
868,421	41,3
868,593	-81,58
868,765	86,36
868,936	-18,09
869,108	72,02
869,28	131,41
869,452	-18,09
869,624	-50,86
869,796	-9,9
869,968	47,44
870,139	162,13
870,311	-26,28
870,483	108,88
870,654	-34,47
870,826	16,73
870,998	-67,24
871,17	49,49
871,341	-44,71
871,513	100,69
871,684	-40,62
871,856	-26,28
872,028	-57
872,199	-30,38
872,371	-9,9
872,542	-32,43
872,714	-16,04
872,885	57,68
873,057	-16,04
873,228	4,44
873,4	67,92
873,571	123,22
873,742	-57
873,914	-59,05
874,085	35,16
874,256	-7,85
874,428	-116,39
874,599	39,25
874,77	125,27
874,942	-42,67
875,113	67,92
875,284	-9,9
875,455	22,87
875,626	45,4
875,798	41,3
875,969	2,39
876,14	63,83
876,311	22,87
876,482	82,26
876,653	86,36
876,824	100,69
876,995	47,44
877,166	88,4
877,337	8,53
877,508	-26,28
877,679	-9,9
877,85	-48,81
878,021	8,53
878,192	14,68
878,363	90,45
878,534	-34,47
878,705	63,83
878,876	0,34
879,047	10,58
879,217	41,3
879,388	-30,38
879,559	10,58
879,73	51,54
879,9	-13,99
880,071	49,49
880,242	67,92
880,413	22,87
880,583	47,44
880,754	47,44
880,924	35,16
881,095	-59,05
881,266	-7,85
881,436	41,3
881,607	55,64
881,777	98,64
881,948	-73,39
882,118	6,49
882,289	14,68
882,459	-48,81
882,63	63,83
882,8	0,34
882,971	16,73
883,141	-3,75
883,311	22,87
883,482	170,32
883,652	-9,9
883,822	39,25
883,993	39,25
884,163	24,92
884,333	2,39
884,504	31,06
884,674	131,41
884,844	24,92
885,014	-71,34
885,184	14,68
885,355	-44,71
885,525	51,54
885,695	22,87
885,865	94,55
886,035	-7,85
886,205	-5,8
886,375	41,3
886,545	-9,9
886,715	-110,25
886,885	63,83
887,055	18,77
887,225	-91,82
887,395	6,49
887,565	84,31
887,735	57,68
887,905	63,83
888,075	-71,34
888,244	84,31
888,414	14,68
888,584	57,68
888,754	41,3
888,924	51,54
889,093	112,98
889,263	-54,95
889,433	-9,9
889,603	74,07
889,772	6,49
889,942	96,6
890,111	-1,71
890,281	63,83
890,451	33,11
890,62	-30,38
890,79	-18,09
890,959	88,4
891,129	-24,23
891,298	35,16
891,468	16,73
891,637	57,68
891,807	45,4
891,976	55,64
892,146	-97,96
892,315	-9,9
892,485	63,83
892,654	-42,67
892,823	-75,43
892,993	-13,99
893,162	112,98
893,331	63,83
893,501	49,49
893,67	74,07
893,839	16,73
894,008	10,58
894,177	39,25
894,347	22,87
894,516	55,64
894,685	49,49
894,854	22,87
895,023	86,36
895,192	72,02
