Data from mercure_USB4F104161__2__11-31-52-803.txt Node

Date: Tue Apr 14 11:31:52 EDT 2026
User: LaboPhy
Spectrometer: USB4F10416
Trigger mode: 4
Integration Time (sec): 1,000000E-1
Scans to average: 1
Electric dark correction enabled: true
Nonlinearity correction enabled: false
Boxcar width: 0
XAxis mode: Wavelengths
Number of Pixels in Spectrum: 3648
>>>>>Begin Spectral Data<<<<<
177,847	-195,07
178,066	-195,07
178,284	-195,07
178,502	-147,97
178,72	-117,25
178,939	-27,14
179,157	-23,04
179,375	13,82
179,593	15,87
179,812	62,98
180,03	-39,42
180,248	62,98
180,466	-68,09
180,685	-6,66
180,903	-16,9
181,121	-27,14
181,339	52,74
181,557	-43,52
181,775	-20,99
181,994	42,5
182,212	42,5
182,43	87,55
182,648	46,59
182,866	62,98
183,084	114,17
183,302	30,21
183,52	32,26
183,739	34,3
183,957	54,78
184,175	-45,57
184,393	79,36
184,611	5,63
184,829	-2,56
185,047	-6,66
185,265	83,45
185,483	-27,14
185,701	134,65
185,919	81,41
186,137	103,93
186,355	54,78
186,573	15,87
186,791	69,12
187,009	24,06
187,227	87,55
187,445	42,5
187,663	-41,47
187,881	9,73
188,098	5,63
188,316	38,4
188,534	161,28
188,752	46,59
188,97	17,92
189,188	5,63
189,406	50,69
189,624	62,98
189,841	-10,75
190,059	-18,94
190,277	-23,04
190,495	22,02
190,713	97,79
190,931	148,99
191,148	75,26
191,366	54,78
191,584	-10,75
191,802	46,59
192,019	103,93
192,237	54,78
192,455	19,97
192,673	120,32
192,89	22,02
193,108	30,21
193,326	-27,14
193,543	34,3
193,761	26,11
193,979	54,78
194,196	-55,81
194,414	95,74
194,632	144,89
194,849	-84,48
195,067	-90,62
195,285	62,98
195,502	-68,09
195,72	71,17
195,937	-14,85
196,155	110,08
196,373	67,07
196,59	48,64
196,808	56,83
197,025	85,5
197,243	153,09
197,46	103,93
197,678	-2,56
197,895	26,11
198,113	58,88
198,33	-43,52
198,548	62,98
198,765	13,82
198,983	62,98
199,2	-59,9
199,418	93,69
199,635	-2,56
199,853	38,4
200,07	60,93
200,288	-43,52
200,505	-27,14
200,722	142,85
200,94	28,16
201,157	-2,56
201,375	155,13
201,592	5,63
201,809	30,21
202,027	73,21
202,244	42,5
202,461	9,73
202,679	91,65
202,896	-16,9
203,113	-61,95
203,331	73,21
203,548	40,45
203,765	120,32
203,982	44,54
204,2	-43,52
204,417	38,4
204,634	202,24
204,851	5,63
205,069	62,98
205,286	7,68
205,503	81,41
205,72	1,54
205,937	54,78
206,155	15,87
206,372	103,93
206,589	13,82
206,806	-12,8
207,023	19,97
207,24	95,74
207,458	22,02
207,675	-2,56
207,892	32,26
208,109	26,11
208,326	5,63
208,543	-2,56
208,76	30,21
208,977	128,51
209,194	105,98
209,411	-51,71
209,628	54,78
209,845	-20,99
210,062	26,11
210,279	24,06
210,496	-43,52
210,713	7,68
210,93	-8,7
211,147	101,89
211,364	-4,61
211,581	-16,9
211,798	204,28
212,015	13,82
212,232	34,3
212,449	-16,9
212,666	34,3
212,883	-59,9
213,1	-39,42
213,317	-76,29
213,533	95,74
213,75	79,36
213,967	38,4
214,184	42,5
214,401	32,26
214,618	13,82
214,835	62,98
215,051	93,69
215,268	22,02
215,485	54,78
215,702	24,06
215,919	15,87
216,135	146,94
216,352	75,26
216,569	38,4
216,786	58,88
217,002	46,59
217,219	32,26
217,436	22,02
217,652	120,32
217,869	13,82
218,086	103,93
218,302	65,02
218,519	79,36
218,736	26,11
218,952	-27,14
219,169	54,78
219,386	95,74
219,602	5,63
219,819	26,11
220,036	58,88
220,252	79,36
220,469	-55,81
220,685	67,07
220,902	91,65
221,118	71,17
221,335	22,02
221,552	-10,75
221,768	67,07
221,985	26,11
222,201	52,74
222,418	77,31
222,634	-59,9
222,851	9,73
223,067	30,21
223,284	-27,14
223,5	71,17
223,716	22,02
223,933	-0,51
224,149	7,68
224,366	26,11
224,582	-25,09
224,799	-18,94
225,015	1,54
225,231	-25,09
225,448	56,83
225,664	87,55
225,88	-6,66
226,097	77,31
226,313	-8,7
226,529	89,6
226,746	87,55
226,962	13,82
227,178	42,5
227,395	-14,85
227,611	67,07
227,827	112,13
228,044	95,74
228,26	202,24
228,476	46,59
228,692	200,19
228,909	79,36
229,125	91,65
229,341	-10,75
229,557	15,87
229,773	38,4
229,99	87,55
230,206	-74,24
230,422	36,35
230,638	-41,47
230,854	-18,94
231,07	-0,51
231,286	83,45
231,503	38,4
231,719	-27,14
231,935	62,98
232,151	-0,51
232,367	79,36
232,583	114,17
232,799	17,92
233,015	9,73
233,231	30,21
233,447	38,4
233,663	-74,24
233,879	97,79
234,095	-0,51
234,311	71,17
234,527	95,74
234,743	128,51
234,959	13,82
235,175	58,88
235,391	-43,52
235,607	26,11
235,823	75,26
236,039	65,02
236,255	13,82
236,471	48,64
236,687	52,74
236,903	-16,9
237,118	54,78
237,334	62,98
237,55	44,54
237,766	22,02
237,982	34,3
238,198	122,37
238,413	54,78
238,629	105,98
238,845	-8,7
239,061	-10,75
239,277	-27,14
239,492	-8,7
239,708	22,02
239,924	13,82
240,14	112,13
240,355	181,76
240,571	-2,56
240,787	5,63
241,003	36,35
241,218	-18,94
241,434	24,06
241,65	77,31
241,865	-2,56
242,081	136,7
242,297	-10,75
242,512	30,21
242,728	38,4
242,944	11,78
243,159	40,45
243,375	24,06
243,59	-23,04
243,806	112,13
244,022	9,73
244,237	42,5
244,453	9,73
244,668	108,03
244,884	114,17
245,099	-0,51
245,315	95,74
245,53	169,47
245,746	155,13
245,961	71,17
246,177	13,82
246,392	75,26
246,608	30,21
246,823	-49,66
247,039	54,78
247,254	-8,7
247,47	54,78
247,685	-39,42
247,9	-29,18
248,116	19,97
248,331	15,87
248,547	71,17
248,762	24,06
248,977	112,13
249,193	120,32
249,408	32,26
249,623	67,07
249,839	-18,94
250,054	-68,09
250,269	30,21
250,485	-8,7
250,7	58,88
250,915	38,4
251,13	44,54
251,346	13,82
251,561	153,09
251,776	15,87
251,991	-92,67
252,207	144,89
252,422	13,82
252,637	54,78
252,852	-23,04
253,067	67,07
253,283	40,45
253,498	17,92
253,713	22,02
253,928	-10,75
254,143	-27,14
254,358	67,07
254,573	-37,38
254,788	-16,9
255,004	-0,51
255,219	-43,52
255,434	81,41
255,649	-64
255,864	-2,56
256,079	-4,61
256,294	-10,75
256,509	15,87
256,724	7,68
256,939	1,54
257,154	-31,23
257,369	32,26
257,584	67,07
257,799	9,73
258,014	-18,94
258,229	198,14
258,444	30,21
258,659	50,69
258,874	42,5
259,089	87,55
259,304	13,82
259,518	9,73
259,733	65,02
259,948	75,26
260,163	87,55
260,378	62,98
260,593	13,82
260,808	77,31
261,022	-64
261,237	60,93
261,452	-2,56
261,667	7,68
261,882	62,98
262,096	44,54
262,311	54,78
262,526	11,78
262,741	62,98
262,955	-39,42
263,17	79,36
263,385	-43,52
263,6	-35,33
263,814	-66,05
264,029	50,69
264,244	28,16
264,458	140,8
264,673	5,63
264,888	105,98
265,102	50,69
265,317	56,83
265,532	-25,09
265,746	38,4
265,961	62,98
266,175	42,5
266,39	13,82
266,605	40,45
266,819	130,56
267,034	46,59
267,248	-84,48
267,463	50,69
267,677	-57,86
267,892	13,82
268,106	-14,85
268,321	30,21
268,535	50,69
268,75	103,93
268,964	-98,81
269,179	46,59
269,393	13,82
269,608	87,55
269,822	-51,71
270,036	-43,52
270,251	-10,75
270,465	9,73
270,68	48,64
270,894	-39,42
271,108	177,66
271,323	22,02
271,537	-18,94
271,752	79,36
271,966	71,17
272,18	-43,52
272,394	-0,51
272,609	50,69
272,823	-35,33
273,037	50,69
273,252	56,83
273,466	-66,05
273,68	128,51
273,894	54,78
274,109	40,45
274,323	32,26
274,537	-23,04
274,751	-35,33
274,966	60,93
275,18	-10,75
275,394	-55,81
275,608	-31,23
275,822	-92,67
276,036	24,06
276,25	75,26
276,465	13,82
276,679	46,59
276,893	-10,75
277,107	99,84
277,321	-33,28
277,535	81,41
277,749	79,36
277,963	54,78
278,177	-2,56
278,391	69,12
278,605	-18,94
278,819	46,59
279,033	-0,51
279,247	89,6
279,461	95,74
279,675	24,06
279,889	87,55
280,103	-55,81
280,317	136,7
280,531	-66,05
280,745	89,6
280,959	-35,33
281,173	103,93
281,387	103,93
281,601	32,26
281,815	73,21
282,029	-20,99
282,242	73,21
282,456	-10,75
282,67	62,98
282,884	-10,75
283,098	22,02
283,312	22,02
283,525	-57,86
283,739	-2,56
283,953	7,68
284,167	46,59
284,381	1,54
284,594	34,3
284,808	40,45
285,022	54,78
285,235	-10,75
285,449	87,55
285,663	-2,56
285,877	-25,09
286,09	105,98
286,304	83,45
286,518	-18,94
286,731	-68,09
286,945	81,41
287,159	-8,7
287,372	103,93
287,586	26,11
287,799	7,68
288,013	-2,56
288,227	22,02
288,44	243,2
288,654	108,03
288,867	56,83
289,081	83,45
289,294	91,65
289,508	95,74
289,721	54,78
289,935	-6,66
290,148	24,06
290,362	65,02
290,575	95,74
290,789	-68,09
291,002	-154,11
291,216	120,32
291,429	5,63
291,643	112,13
291,856	-10,75
292,069	7,68
292,283	-12,8
292,496	13,82
292,71	97,79
292,923	42,5
293,136	-2,56
293,35	48,64
293,563	32,26
293,776	48,64
293,99	58,88
294,203	-51,71
294,416	-14,85
294,63	38,4
294,843	32,26
295,056	110,08
295,269	-25,09
295,483	-76,29
295,696	58,88
295,909	-43,52
296,122	126,46
296,335	120,32
296,549	97,79
296,762	103,93
296,975	95,74
297,188	122,37
297,401	71,17
297,615	75,26
297,828	54,78
298,041	58,88
298,254	22,02
298,467	65,02
298,68	-33,28
298,893	-16,9
299,106	32,26
299,319	87,55
299,532	67,07
299,745	-37,38
299,958	5,63
300,171	-27,14
300,384	22,02
300,598	-55,81
300,81	89,6
301,023	44,54
301,236	48,64
301,449	28,16
301,662	-25,09
301,875	-16,9
302,088	24,06
302,301	124,41
302,514	-0,51
302,727	110,08
302,94	34,3
303,153	73,21
303,366	85,5
303,579	36,35
303,791	83,45
304,004	-10,75
304,217	54,78
304,43	62,98
304,643	56,83
304,855	-2,56
305,068	71,17
305,281	1,54
305,494	93,69
305,707	-27,14
305,919	204,28
306,132	54,78
306,345	114,17
306,558	128,51
306,77	-12,8
306,983	34,3
307,196	108,03
307,408	11,78
307,621	83,45
307,834	-8,7
308,046	42,5
308,259	56,83
308,472	91,65
308,684	210,43
308,897	17,92
309,109	17,92
309,322	75,26
309,535	79,36
309,747	189,95
309,96	161,28
310,172	196,09
310,385	126,46
310,597	116,22
310,81	132,61
311,022	110,08
311,235	157,18
311,447	306,68
311,66	286,2
311,872	474,62
312,085	638,45
312,297	796,15
312,51	808,44
312,722	947,7
312,934	1177,07
313,147	1070,58
313,359	1086,96
313,572	998,9
313,784	857,59
313,996	630,26
314,209	562,68
314,421	361,98
314,633	202,24
314,846	153,09
315,058	161,28
315,27	157,18
315,483	40,45
315,695	83,45
315,907	85,5
316,119	30,21
316,332	38,4
316,544	71,17
316,756	128,51
316,968	103,93
317,181	46,59
317,393	1,54
317,605	46,59
317,817	87,55
318,029	194,05
318,241	163,33
318,454	50,69
318,666	99,84
318,878	-6,66
319,09	11,78
319,302	40,45
319,514	65,02
319,726	32,26
319,938	89,6
320,15	44,54
320,362	93,69
320,574	-27,14
320,786	-47,62
320,999	-2,56
321,211	91,65
321,423	128,51
321,635	-37,38
321,847	155,13
322,058	17,92
322,27	79,36
322,482	97,79
322,694	120,32
322,906	36,35
323,118	112,13
323,33	120,32
323,542	81,41
323,754	46,59
323,966	-8,7
324,178	153,09
324,389	56,83
324,601	95,74
324,813	42,5
325,025	81,41
325,237	46,59
325,449	108,03
325,66	50,69
325,872	5,63
326,084	132,61
326,296	58,88
326,507	65,02
326,719	181,76
326,931	44,54
327,143	110,08
327,354	97,79
327,566	108,03
327,778	79,36
327,989	87,55
328,201	56,83
328,413	128,51
328,624	194,05
328,836	120,32
329,048	46,59
329,259	128,51
329,471	105,98
329,682	62,98
329,894	73,21
330,106	85,5
330,317	81,41
330,529	112,13
330,74	50,69
330,952	99,84
331,163	87,55
331,375	148,99
331,586	153,09
331,798	56,83
332,009	40,45
332,221	124,41
332,432	196,09
332,644	169,47
332,855	103,93
333,067	169,47
333,278	224,76
333,489	247,29
333,701	140,8
333,912	275,96
334,124	359,93
334,335	337,4
334,546	308,73
334,758	366,07
334,969	554,49
335,18	390,65
335,392	421,37
335,603	515,58
335,814	505,34
336,025	431,61
336,237	478,71
336,448	353,79
336,659	441,85
336,87	554,49
337,082	570,87
337,293	370,17
337,504	407,03
337,715	308,73
337,926	300,54
338,138	241,15
338,349	187,9
338,56	230,91
338,771	140,8
338,982	230,91
339,193	130,56
339,404	249,34
339,616	194,05
339,827	216,57
340,038	83,45
340,249	118,27
340,46	112,13
340,671	112,13
340,882	220,67
341,093	140,8
341,304	48,64
341,515	46,59
341,726	112,13
341,937	73,21
342,148	177,66
342,359	56,83
342,57	151,04
342,781	298,49
342,992	153,09
343,203	26,11
343,414	146,94
343,624	79,36
343,835	30,21
344,046	71,17
344,257	142,85
344,468	75,26
344,679	105,98
344,89	114,17
345,1	-92,67
345,311	81,41
345,522	85,5
345,733	157,18
345,944	99,84
346,154	144,89
346,365	255,48
346,576	153,09
346,787	65,02
346,997	173,57
347,208	114,17
347,419	112,13
347,629	134,65
347,84	136,7
348,051	93,69
348,261	97,79
348,472	124,41
348,683	222,72
348,893	128,51
349,104	110,08
349,315	130,56
349,525	148,99
349,736	146,94
349,946	196,09
350,157	243,2
350,368	194,05
350,578	140,8
350,789	185,85
350,999	200,19
351,21	226,81
351,42	54,78
351,631	155,13
351,841	218,62
352,052	245,24
352,262	251,39
352,472	243,2
352,683	163,33
352,893	318,97
353,104	177,66
353,314	333,31
353,525	689,65
353,735	202,24
353,945	304,64
354,156	142,85
354,366	284,16
354,576	286,2
354,787	271,87
354,997	196,09
355,207	132,61
355,418	259,58
355,628	239,1
355,838	327,16
356,048	484,86
356,259	464,38
356,469	413,18
356,679	425,47
356,889	480,76
357,1	509,43
357,31	415,23
357,52	488,95
357,73	546,3
357,94	474,62
358,15	386,55
358,361	450,04
358,571	333,31
358,781	376,31
358,991	226,81
359,201	306,68
359,411	148,99
359,621	194,05
359,831	325,12
360,041	202,24
360,251	243,2
360,461	179,71
360,672	177,66
360,882	185,85
361,092	228,86
361,302	204,28
361,512	255,48
361,721	187,9
361,931	206,33
362,141	288,25
362,351	216,57
362,561	251,39
362,771	499,19
362,981	931,31
363,191	1263,08
363,401	2289,12
363,611	3257,81
363,821	4398,52
364,03	5479,85
364,24	7337,36
364,45	8738,17
364,66	11402,58
364,87	13364,53
365,08	13985,07
365,289	14263,59
365,499	13810,99
365,709	12154,18
365,919	10296,67
366,128	7814,54
366,338	6743,45
366,548	5092,79
366,758	4408,76
366,967	3521,99
367,177	2553,31
367,387	1711,59
367,596	1121,77
367,806	800,24
368,016	650,74
368,225	546,3
368,435	466,42
368,644	312,83
368,854	288,25
369,064	370,17
369,273	300,54
369,483	226,81
369,692	220,67
369,902	228,86
370,111	255,48
370,321	245,24
370,53	237,05
370,74	278,01
370,949	288,25
371,159	300,54
371,368	255,48
371,578	284,16
371,787	269,82
371,997	194,05
372,206	243,2
372,416	275,96
372,625	267,77
372,834	253,44
373,044	235
373,253	308,73
373,462	294,4
373,672	237,05
373,881	370,17
374,09	343,55
374,3	351,74
374,509	359,93
374,718	253,44
374,928	476,66
375,137	400,89
375,346	368,12
375,555	378,36
375,765	407,03
375,974	407,03
376,183	431,61
376,392	220,67
376,601	235
376,811	407,03
377,02	357,88
377,229	359,93
377,438	366,07
377,647	220,67
377,856	218,62
378,065	284,16
378,275	202,24
378,484	280,06
378,693	278,01
378,902	382,46
379,111	349,69
379,32	425,47
379,529	333,31
379,738	411,13
379,947	450,04
380,156	466,42
380,365	343,55
380,574	525,82
380,783	325,12
380,992	351,74
381,201	368,12
381,41	325,12
381,619	235
381,828	331,26
382,037	349,69
382,245	499,19
382,454	423,42
382,663	484,86
382,872	484,86
383,081	531,96
383,29	730,61
383,499	638,45
383,707	751,09
383,916	865,78
384,125	980,47
384,334	1054,19
384,542	1172,97
384,751	1287,66
384,96	1424,87
385,169	1510,89
385,377	1736,17
385,586	1775,08
385,795	2069,98
386,004	2162,14
386,212	2235,87
386,421	2397,66
386,63	2553,31
386,838	2751,96
387,047	2686,42
387,255	2858,45
387,464	2801,11
387,673	2858,45
387,881	2866,64
388,09	2919,89
388,298	2592,22
388,507	2334,17
388,715	1940,96
388,924	1744,36
389,133	1121,77
389,341	923,12
389,55	773,62
389,758	615,93
389,967	609,78
390,175	454,14
390,383	488,95
390,592	480,76
390,8	417,27
391,009	417,27
391,217	402,94
391,426	443,9
391,634	206,33
391,842	310,78
392,051	255,48
392,259	370,17
392,467	275,96
392,676	325,12
392,884	280,06
393,092	290,3
393,301	261,63
393,509	255,48
393,717	372,22
393,925	335,35
394,134	347,64
394,342	386,55
394,55	413,18
394,758	423,42
394,967	243,2
395,175	237,05
395,383	267,77
395,591	275,96
395,799	318,97
396,007	278,01
396,216	402,94
396,424	300,54
396,632	294,4
396,84	286,2
397,048	333,31
397,256	263,68
397,464	300,54
397,672	308,73
397,88	302,59
398,088	265,72
398,296	374,27
398,504	423,42
398,712	411,13
398,92	376,31
399,128	493,05
399,336	437,75
399,544	366,07
399,752	382,46
399,96	447,99
400,168	370,17
400,376	390,65
400,584	392,7
400,792	310,78
401	318,97
401,207	214,52
401,415	321,02
401,623	400,89
401,831	284,16
402,039	329,21
402,247	370,17
402,454	660,98
402,662	912,88
402,87	1332,72
403,078	2176,48
403,285	2958,8
403,493	4062,66
403,701	5039,54
403,909	6286,75
404,116	7937,41
404,324	9528,69
404,532	11918,67
404,739	13092,15
404,947	12608,83
405,155	12547,39
405,362	10181,99
405,57	7841,16
405,778	5756,33
405,985	4253,12
406,193	3309,01
406,4	2674,14
406,608	2307,55
406,816	1750,5
407,023	1519,08
407,231	1437,16
407,438	1557,99
407,646	1867,24
407,853	1775,08
408,061	1656,29
408,268	1725,93
408,476	1455,59
408,683	1357,29
408,89	964,08
409,098	884,21
409,305	660,98
409,513	564,73
409,72	493,05
409,927	388,6
410,135	454,14
410,342	153,09
410,55	431,61
410,757	353,79
410,964	198,14
411,172	390,65
411,379	312,83
411,586	316,92
411,793	271,87
412,001	226,81
412,208	316,92
412,415	294,4
412,622	378,36
412,83	366,07
413,037	488,95
413,244	370,17
413,451	472,57
413,658	398,84
413,866	447,99
414,073	382,46
414,28	488,95
414,487	427,51
414,694	398,84
414,901	482,81
415,108	396,79
415,315	450,04
415,522	486,9
415,73	472,57
415,937	353,79
416,144	308,73
416,351	374,27
416,558	374,27
416,765	390,65
416,972	402,94
417,179	439,8
417,386	493,05
417,593	376,31
417,8	407,03
418,006	476,66
418,213	491
418,42	513,53
418,627	507,38
418,834	357,88
419,041	435,71
419,248	472,57
419,455	540,15
419,661	562,68
419,868	493,05
420,075	458,23
420,282	499,19
420,489	456,19
420,696	499,19
420,902	493,05
421,109	540,15
421,316	476,66
421,523	529,91
421,729	517,62
421,936	480,76
422,143	384,51
422,349	409,08
422,556	271,87
422,763	331,26
422,969	327,16
423,176	296,44
423,383	251,39
423,589	585,21
423,796	296,44
424,002	280,06
424,209	271,87
424,416	308,73
424,622	187,9
424,829	292,35
425,035	237,05
425,242	257,53
425,448	343,55
425,655	370,17
425,861	345,59
426,068	284,16
426,274	425,47
426,481	275,96
426,687	368,12
426,894	357,88
427,1	333,31
427,306	243,2
427,513	384,51
427,719	321,02
427,926	284,16
428,132	306,68
428,338	245,24
428,545	300,54
428,751	325,12
428,957	357,88
429,163	253,44
429,37	388,6
429,576	325,12
429,782	357,88
429,989	275,96
430,195	353,79
430,401	333,31
430,607	366,07
430,813	271,87
431,02	382,46
431,226	318,97
431,432	380,41
431,638	284,16
431,844	366,07
432,05	280,06
432,257	431,61
432,463	366,07
432,669	441,85
432,875	460,28
433,081	501,24
433,287	540,15
433,493	605,69
433,699	1279,47
433,905	2360,8
434,111	4038,08
434,317	6356,38
434,523	9164,15
434,729	12035,4
434,935	15914,25
435,141	20223,18
435,347	23987,35
435,553	29965,37
435,759	34321,4
435,965	36950,99
436,171	36131,8
436,377	32306,2
436,582	28179,54
436,788	21687,48
436,994	16471,3
437,2	11836,75
437,406	8779,13
437,612	6264,22
437,818	4410,81
438,023	2676,18
438,229	1902,05
438,435	972,27
438,641	728,56
438,846	534,01
439,052	554,49
439,258	491
439,464	333,31
439,669	425,47
439,875	400,89
440,081	409,08
440,286	278,01
440,492	329,21
440,698	292,35
440,903	243,2
441,109	480,76
441,314	284,16
441,52	222,72
441,726	278,01
441,931	251,39
442,137	325,12
442,342	335,35
442,548	259,58
442,753	321,02
442,959	228,86
443,164	220,67
443,37	310,78
443,575	210,43
443,781	243,2
443,986	345,59
444,192	323,07
444,397	298,49
444,602	161,28
444,808	239,1
445,013	292,35
445,219	202,24
445,424	366,07
445,629	318,97
445,835	400,89
446,04	374,27
446,245	259,58
446,451	300,54
446,656	194,05
446,861	267,77
447,066	337,4
447,272	323,07
447,477	275,96
447,682	161,28
447,887	292,35
448,093	316,92
448,298	386,55
448,503	292,35
448,708	327,16
448,913	251,39
449,118	312,83
449,324	323,07
449,529	417,27
449,734	269,82
449,939	286,2
450,144	368,12
450,349	417,27
450,554	210,43
450,759	296,44
450,964	345,59
451,169	308,73
451,374	267,77
451,579	316,92
451,784	355,83
451,989	232,96
452,194	259,58
452,399	333,31
452,604	325,12
452,809	296,44
453,014	327,16
453,219	337,4
453,424	296,44
453,629	218,62
453,833	181,76
454,038	243,2
454,243	237,05
454,448	398,84
454,653	407,03
454,858	316,92
455,062	226,81
455,267	280,06
455,472	484,86
455,677	312,83
455,882	310,78
456,086	314,88
456,291	316,92
456,496	194,05
456,7	275,96
456,905	335,35
457,11	337,4
457,314	327,16
457,519	325,12
457,724	271,87
457,928	310,78
458,133	351,74
458,338	292,35
458,542	302,59
458,747	275,96
458,951	222,72
459,156	333,31
459,36	269,82
459,565	361,98
459,769	341,5
459,974	316,92
460,178	255,48
460,383	261,63
460,587	161,28
460,792	296,44
460,996	286,2
461,201	237,05
461,405	173,57
461,61	249,34
461,814	304,64
462,018	222,72
462,223	316,92
462,427	333,31
462,631	318,97
462,836	366,07
463,04	318,97
463,244	361,98
463,449	216,57
463,653	402,94
463,857	224,76
464,062	380,41
464,266	237,05
464,47	300,54
464,674	335,35
464,878	333,31
465,083	222,72
465,287	333,31
465,491	341,5
465,695	245,24
465,899	245,24
466,104	243,2
466,308	300,54
466,512	292,35
466,716	308,73
466,92	314,88
467,124	390,65
467,328	318,97
467,532	304,64
467,736	302,59
467,94	269,82
468,144	263,68
468,348	366,07
468,552	423,42
468,756	337,4
468,96	300,54
469,164	243,2
469,368	280,06
469,572	292,35
469,776	329,21
469,98	275,96
470,184	302,59
470,388	402,94
470,591	308,73
470,795	351,74
470,999	327,16
471,203	310,78
471,407	278,01
471,611	267,77
471,814	284,16
472,018	247,29
472,222	318,97
472,426	341,5
472,63	364,03
472,833	325,12
473,037	366,07
473,241	345,59
473,444	349,69
473,648	677,37
473,852	292,35
474,055	349,69
474,259	300,54
474,463	398,84
474,666	368,12
474,87	204,28
475,074	308,73
475,277	316,92
475,481	290,3
475,684	366,07
475,888	325,12
476,091	357,88
476,295	235
476,498	333,31
476,702	306,68
476,905	382,46
477,109	368,12
477,312	337,4
477,516	288,25
477,719	337,4
477,923	351,74
478,126	378,36
478,329	230,91
478,533	349,69
478,736	355,83
478,94	341,5
479,143	333,31
479,346	378,36
479,55	402,94
479,753	292,35
479,956	255,48
480,159	325,12
480,363	404,99
480,566	347,64
480,769	341,5
480,972	235
481,176	353,79
481,379	464,38
481,582	374,27
481,785	267,77
481,988	361,98
482,192	497,14
482,395	427,51
482,598	427,51
482,801	480,76
483,004	357,88
483,207	325,12
483,41	310,78
483,613	415,23
483,817	439,8
484,02	411,13
484,223	304,64
484,426	398,84
484,629	325,12
484,832	433,66
485,035	333,31
485,238	398,84
485,441	308,73
485,644	398,84
485,846	450,04
486,049	386,55
486,252	439,8
486,455	325,12
486,658	380,41
486,861	466,42
487,064	484,86
487,267	390,65
487,47	472,57
487,672	443,9
487,875	445,95
488,078	439,8
488,281	546,3
488,484	429,56
488,686	472,57
488,889	390,65
489,092	382,46
489,295	507,38
489,497	480,76
489,7	441,85
489,903	439,8
490,105	386,55
490,308	423,42
490,511	478,71
490,713	540,15
490,916	605,69
491,118	554,49
491,321	529,91
491,524	638,45
491,726	587,26
491,929	589,3
492,131	556,54
492,334	562,68
492,536	595,45
492,739	609,78
492,941	581,11
493,144	513,53
493,346	488,95
493,549	435,71
493,751	427,51
493,954	327,16
494,156	480,76
494,359	488,95
494,561	335,35
494,763	468,47
494,966	417,27
495,168	521,72
495,37	333,31
495,573	329,21
495,775	466,42
495,977	447,99
496,18	458,23
496,382	517,62
496,584	450,04
496,787	515,58
496,989	370,17
497,191	407,03
497,393	476,66
497,595	407,03
497,798	347,64
498	361,98
498,202	421,37
498,404	384,51
498,606	433,66
498,808	470,52
499,011	488,95
499,213	460,28
499,415	398,84
499,617	556,54
499,819	505,34
500,021	529,91
500,223	390,65
500,425	476,66
500,627	366,07
500,829	400,89
501,031	374,27
501,233	280,06
501,435	488,95
501,637	548,34
501,839	431,61
502,041	456,19
502,243	384,51
502,445	357,88
502,647	398,84
502,848	400,89
503,05	376,31
503,252	474,62
503,454	478,71
503,656	294,4
503,858	419,32
504,059	474,62
504,261	423,42
504,463	611,83
504,665	458,23
504,867	427,51
505,068	390,65
505,27	456,19
505,472	521,72
505,673	398,84
505,875	425,47
506,077	404,99
506,278	407,03
506,48	462,33
506,682	458,23
506,883	550,39
507,085	447,99
507,287	435,71
507,488	472,57
507,69	450,04
507,891	452,09
508,093	523,77
508,294	431,61
508,496	378,36
508,697	447,99
508,899	398,84
509,1	392,7
509,302	480,76
509,503	423,42
509,705	454,14
509,906	472,57
510,108	376,31
510,309	417,27
510,51	454,14
510,712	400,89
510,913	335,35
511,114	468,47
511,316	316,92
511,517	464,38
511,718	382,46
511,92	433,66
512,121	333,31
512,322	437,75
512,524	531,96
512,725	548,34
512,926	501,24
513,127	411,13
513,329	538,1
513,53	435,71
513,731	474,62
513,932	466,42
514,133	398,84
514,334	407,03
514,536	548,34
514,737	515,58
514,938	513,53
515,139	464,38
515,34	433,66
515,541	538,1
515,742	476,66
515,943	439,8
516,144	540,15
516,345	415,23
516,546	480,76
516,747	497,14
516,948	415,23
517,149	423,42
517,35	374,27
517,551	378,36
517,752	476,66
517,953	439,8
518,154	445,95
518,355	525,82
518,556	398,84
518,756	468,47
518,957	464,38
519,158	431,61
519,359	415,23
519,56	458,23
519,761	472,57
519,961	505,34
520,162	546,3
520,363	392,7
520,564	454,14
520,764	622,07
520,965	357,88
521,166	433,66
521,366	402,94
521,567	480,76
521,768	464,38
521,968	308,73
522,169	409,08
522,37	325,12
522,57	423,42
522,771	417,27
522,972	333,31
523,172	515,58
523,373	491
523,573	472,57
523,774	484,86
523,974	542,2
524,175	529,91
524,375	452,09
524,576	378,36
524,776	445,95
524,977	439,8
525,177	574,97
525,378	519,67
525,578	572,92
525,778	476,66
525,979	423,42
526,179	505,34
526,38	431,61
526,58	357,88
526,78	425,47
526,981	523,77
527,181	447,99
527,381	460,28
527,582	472,57
527,782	439,8
527,982	538,1
528,182	521,72
528,383	470,52
528,583	386,55
528,783	404,99
528,983	491
529,183	345,59
529,384	378,36
529,584	474,62
529,784	587,26
529,984	409,08
530,184	398,84
530,384	353,79
530,584	384,51
530,784	433,66
530,984	400,89
531,185	493,05
531,385	464,38
531,585	476,66
531,785	400,89
531,985	409,08
532,185	368,12
532,385	419,32
532,585	335,35
532,785	441,85
532,984	419,32
533,184	456,19
533,384	433,66
533,584	427,51
533,784	443,9
533,984	468,47
534,184	316,92
534,384	343,55
534,583	472,57
534,783	382,46
534,983	534,01
535,183	425,47
535,383	359,93
535,582	423,42
535,782	472,57
535,982	542,2
536,182	431,61
536,381	497,14
536,581	431,61
536,781	415,23
536,98	427,51
537,18	423,42
537,38	464,38
537,579	423,42
537,779	464,38
537,979	466,42
538,178	415,23
538,378	439,8
538,577	366,07
538,777	335,35
538,976	413,18
539,176	493,05
539,376	423,42
539,575	345,59
539,774	529,91
539,974	452,09
540,173	548,34
540,373	515,58
540,572	447,99
540,772	464,38
540,971	495,1
541,171	441,85
541,37	472,57
541,569	513,53
541,769	470,52
541,968	542,2
542,167	435,71
542,367	464,38
542,566	472,57
542,765	505,34
542,965	531,96
543,164	589,3
543,363	529,91
543,562	579,06
543,761	693,75
543,961	777,72
544,16	1209,84
544,359	3565
544,558	6665,63
544,757	11314,52
544,957	17071,36
545,156	24575,11
545,355	32338,96
545,554	39791,52
545,753	47815,46
545,952	52689,63
546,151	57289,37
546,35	58456,71
546,549	56527,52
546,748	51847,91
546,947	46822,2
547,146	40338,33
547,345	33500,16
547,544	27333,73
547,743	21613,75
547,942	16317,7
548,141	11269,46
548,34	7247,25
548,539	4130,24
548,738	2512,35
548,937	1852,9
549,135	1226,22
549,334	1033,71
549,533	853,49
549,732	773,62
549,931	660,98
550,13	574,97
550,328	534,01
550,527	452,09
550,726	503,29
550,925	480,76
551,123	503,29
551,322	466,42
551,521	550,39
551,72	370,17
551,918	458,23
552,117	441,85
552,315	404,99
552,514	341,5
552,713	458,23
552,911	335,35
553,11	368,12
553,309	409,08
553,507	327,16
553,706	407,03
553,904	325,12
554,103	374,27
554,301	366,07
554,5	390,65
554,698	433,66
554,897	300,54
555,095	327,16
555,294	327,16
555,492	382,46
555,69	402,94
555,889	300,54
556,087	423,42
556,286	437,75
556,484	345,59
556,682	359,93
556,881	341,5
557,079	284,16
557,277	343,55
557,476	370,17
557,674	349,69
557,872	404,99
558,07	312,83
558,269	263,68
558,467	316,92
558,665	343,55
558,863	359,93
559,062	296,44
559,26	325,12
559,458	210,43
559,656	318,97
559,854	265,72
560,052	294,4
560,25	288,25
560,449	548,34
560,647	292,35
560,845	202,24
561,043	349,69
561,241	398,84
561,439	376,31
561,637	239,1
561,835	357,88
562,033	439,8
562,231	318,97
562,429	325,12
562,627	169,47
562,825	259,58
563,023	333,31
563,221	288,25
563,418	314,88
563,616	275,96
563,814	376,31
564,012	316,92
564,21	341,5
564,408	357,88
564,605	329,21
564,803	237,05
565,001	628,21
565,199	237,05
565,397	364,03
565,594	286,2
565,792	415,23
565,99	253,44
566,188	335,35
566,385	267,77
566,583	302,59
566,781	415,23
566,978	316,92
567,176	392,7
567,373	437,75
567,571	302,59
567,769	390,65
567,966	275,96
568,164	300,54
568,361	292,35
568,559	329,21
568,756	349,69
568,954	308,73
569,151	374,27
569,349	407,03
569,546	325,12
569,744	386,55
569,941	407,03
570,139	329,21
570,336	210,43
570,534	310,78
570,731	261,63
570,928	366,07
571,126	550,39
571,323	341,5
571,52	245,24
571,718	378,36
571,915	337,4
572,112	284,16
572,31	329,21
572,507	361,98
572,704	390,65
572,901	378,36
573,099	316,92
573,296	509,43
573,493	302,59
573,69	345,59
573,887	370,17
574,085	488,95
574,282	407,03
574,479	384,51
574,676	462,33
574,873	464,38
575,07	505,34
575,267	628,21
575,464	919,03
575,661	1517,03
575,858	2069,98
576,055	2835,92
576,252	3808,71
576,449	4801,97
576,646	5537,2
576,843	5926,31
577,04	6567,32
577,237	6622,62
577,434	6782,36
577,631	6966,68
577,828	6632,86
578,025	6952,34
578,222	7091,6
578,419	7619,98
578,615	8068,48
578,812	8246,66
579,009	8258,95
579,206	7910,79
579,403	7853,45
579,599	7189,91
579,796	6331,81
579,993	5963,17
580,19	5086,64
580,386	4261,31
580,583	3743,17
580,78	2956,75
580,976	2483,67
581,173	1934,82
581,37	1267,18
581,566	904,69
581,763	658,93
581,96	497,14
582,156	382,46
582,353	429,56
582,549	540,15
582,746	407,03
582,942	359,93
583,139	402,94
583,335	458,23
583,532	411,13
583,728	404,99
583,925	341,5
584,121	433,66
584,318	423,42
584,514	491
584,711	398,84
584,907	439,8
585,103	329,21
585,3	370,17
585,496	366,07
585,693	343,55
585,889	456,19
586,085	316,92
586,281	472,57
586,478	456,19
586,674	341,5
586,87	366,07
587,067	333,31
587,263	419,32
587,459	402,94
587,655	325,12
587,851	447,99
588,048	609,78
588,244	413,18
588,44	472,57
588,636	458,23
588,832	513,53
589,028	579,06
589,224	474,62
589,42	439,8
589,617	400,89
589,813	435,71
590,009	376,31
590,205	411,13
590,401	394,75
590,597	325,12
590,793	357,88
590,989	300,54
591,185	497,14
591,38	435,71
591,576	304,64
591,772	339,45
591,968	368,12
592,164	361,98
592,36	400,89
592,556	327,16
592,752	460,28
592,948	259,58
593,143	450,04
593,339	357,88
593,535	329,21
593,731	327,16
593,926	415,23
594,122	370,17
594,318	415,23
594,514	517,62
594,709	366,07
594,905	435,71
595,101	427,51
595,296	361,98
595,492	409,08
595,688	300,54
595,883	382,46
596,079	382,46
596,275	316,92
596,47	325,12
596,666	343,55
596,861	275,96
597,057	304,64
597,252	212,48
597,448	351,74
597,643	390,65
597,839	308,73
598,034	325,12
598,23	312,83
598,425	349,69
598,621	310,78
598,816	372,22
599,011	435,71
599,207	325,12
599,402	359,93
599,597	501,24
599,793	464,38
599,988	374,27
600,183	361,98
600,379	450,04
600,574	447,99
600,769	474,62
600,965	423,42
601,16	423,42
601,355	329,21
601,55	427,51
601,745	466,42
601,941	447,99
602,136	423,42
602,331	425,47
602,526	415,23
602,721	374,27
602,916	357,88
603,111	374,27
603,307	386,55
603,502	335,35
603,697	296,44
603,892	357,88
604,087	368,12
604,282	466,42
604,477	447,99
604,672	407,03
604,867	357,88
605,062	351,74
605,257	300,54
605,452	390,65
605,646	415,23
605,841	296,44
606,036	423,42
606,231	288,25
606,426	337,4
606,621	327,16
606,816	239,1
607,01	392,7
607,205	378,36
607,4	275,96
607,595	280,06
607,79	218,62
607,984	329,21
608,179	218,62
608,374	235
608,569	198,14
608,763	194,05
608,958	194,05
609,153	202,24
609,347	278,01
609,542	294,4
609,736	232,96
609,931	251,39
610,126	218,62
610,32	308,73
610,515	181,76
610,709	400,89
610,904	300,54
611,098	153,09
611,293	204,28
611,487	226,81
611,682	308,73
611,876	255,48
612,071	155,13
612,265	298,49
612,46	187,9
612,654	247,29
612,848	175,61
613,043	218,62
613,237	210,43
613,432	253,44
613,626	214,52
613,82	189,95
614,014	222,72
614,209	228,86
614,403	91,65
614,597	218,62
614,792	253,44
614,986	230,91
615,18	296,44
615,374	329,21
615,568	146,94
615,763	212,48
615,957	259,58
616,151	280,06
616,345	226,81
616,539	222,72
616,733	218,62
616,927	194,05
617,121	194,05
617,316	265,72
617,51	290,3
617,704	210,43
617,898	226,81
618,092	175,61
618,286	148,99
618,48	75,26
618,674	286,2
618,868	292,35
619,061	114,17
619,255	267,77
619,449	194,05
619,643	81,41
619,837	261,63
620,031	185,85
620,225	267,77
620,419	171,52
620,612	241,15
620,806	280,06
621	267,77
621,194	202,24
621,388	204,28
621,581	247,29
621,775	169,47
621,969	67,07
622,162	159,23
622,356	177,66
622,55	239,1
622,743	138,75
622,937	144,89
623,131	146,94
623,324	284,16
623,518	161,28
623,712	177,66
623,905	196,09
624,099	337,4
624,292	198,14
624,486	214,52
624,679	228,86
624,873	228,86
625,066	253,44
625,26	187,9
625,453	206,33
625,647	130,56
625,84	228,86
626,034	339,45
626,227	202,24
626,42	261,63
626,614	204,28
626,807	243,2
627	128,51
627,194	261,63
627,387	97,79
627,58	157,18
627,774	173,57
627,967	179,71
628,16	187,9
628,353	222,72
628,547	259,58
628,74	337,4
628,933	114,17
629,126	218,62
629,319	243,2
629,513	275,96
629,706	194,05
629,899	220,67
630,092	218,62
630,285	198,14
630,478	185,85
630,671	251,39
630,864	194,05
631,057	179,71
631,25	296,44
631,443	212,48
631,636	218,62
631,829	294,4
632,022	280,06
632,215	173,57
632,408	198,14
632,601	357,88
632,794	243,2
632,987	177,66
633,18	312,83
633,373	312,83
633,566	202,24
633,758	128,51
633,951	335,35
634,144	226,81
634,337	153,09
634,53	218,62
634,722	247,29
634,915	232,96
635,108	259,58
635,301	292,35
635,493	259,58
635,686	366,07
635,879	316,92
636,071	130,56
636,264	335,35
636,457	366,07
636,649	370,17
636,842	316,92
637,034	417,27
637,227	407,03
637,42	259,58
637,612	327,16
637,805	347,64
637,997	476,66
638,19	345,59
638,382	175,61
638,575	310,78
638,767	366,07
638,96	431,61
639,152	278,01
639,344	370,17
639,537	243,2
639,729	300,54
639,922	366,07
640,114	235
640,306	351,74
640,499	327,16
640,691	302,59
640,883	228,86
641,075	298,49
641,268	351,74
641,46	214,52
641,652	296,44
641,844	214,52
642,037	247,29
642,229	333,31
642,421	411,13
642,613	345,59
642,805	345,59
642,998	341,5
643,19	431,61
643,382	501,24
643,574	421,37
643,766	407,03
643,958	378,36
644,15	513,53
644,342	435,71
644,534	460,28
644,726	407,03
644,918	505,34
645,11	337,4
645,302	423,42
645,494	417,27
645,686	398,84
645,878	404,99
646,07	441,85
646,262	456,19
646,453	505,34
646,645	468,47
646,837	450,04
647,029	433,66
647,221	431,61
647,413	382,46
647,604	415,23
647,796	417,27
647,988	376,31
648,18	316,92
648,371	296,44
648,563	308,73
648,755	314,88
648,947	261,63
649,138	325,12
649,33	327,16
649,521	384,51
649,713	288,25
649,905	294,4
650,096	425,47
650,288	431,61
650,479	308,73
650,671	458,23
650,863	388,6
651,054	447,99
651,246	468,47
651,437	431,61
651,629	417,27
651,82	497,14
652,011	505,34
652,203	505,34
652,394	456,19
652,586	505,34
652,777	447,99
652,968	443,9
653,16	349,69
653,351	513,53
653,542	566,78
653,734	458,23
653,925	392,7
654,116	427,51
654,308	480,76
654,499	407,03
654,69	466,42
654,881	400,89
655,073	447,99
655,264	452,09
655,455	284,16
655,646	390,65
655,837	517,62
656,028	390,65
656,219	292,35
656,411	425,47
656,602	390,65
656,793	394,75
656,984	382,46
657,175	357,88
657,366	316,92
657,557	497,14
657,748	333,31
657,939	278,01
658,13	316,92
658,321	450,04
658,512	378,36
658,703	548,34
658,894	415,23
659,084	445,95
659,275	411,13
659,466	468,47
659,657	579,06
659,848	503,29
660,039	415,23
660,23	441,85
660,42	407,03
660,611	439,8
660,802	447,99
660,993	476,66
661,183	474,62
661,374	460,28
661,565	513,53
661,755	364,03
661,946	447,99
662,137	402,94
662,327	374,27
662,518	382,46
662,709	370,17
662,899	185,85
663,09	278,01
663,28	341,5
663,471	255,48
663,662	378,36
663,852	318,97
664,043	187,9
664,233	278,01
664,424	259,58
664,614	292,35
664,804	284,16
664,995	302,59
665,185	296,44
665,376	208,38
665,566	300,54
665,756	212,48
665,947	284,16
666,137	302,59
666,328	443,9
666,518	335,35
666,708	308,73
666,898	374,27
667,089	476,66
667,279	357,88
667,469	333,31
667,659	343,55
667,85	505,34
668,04	310,78
668,23	300,54
668,42	443,9
668,61	337,4
668,8	443,9
668,991	392,7
669,181	523,77
669,371	368,12
669,561	386,55
669,751	421,37
669,941	368,12
670,131	390,65
670,321	312,83
670,511	357,88
670,701	357,88
670,891	341,5
671,081	243,2
671,271	257,53
671,461	267,77
671,651	351,74
671,841	300,54
672,03	253,44
672,22	206,33
672,41	284,16
672,6	286,2
672,79	235
672,98	235
673,169	235
673,359	218,62
673,549	247,29
673,739	103,93
673,928	185,85
674,118	316,92
674,308	226,81
674,497	368,12
674,687	230,91
674,877	243,2
675,066	243,2
675,256	249,34
675,446	325,12
675,635	333,31
675,825	185,85
676,014	269,82
676,204	312,83
676,393	292,35
676,583	359,93
676,772	349,69
676,962	310,78
677,151	327,16
677,341	278,01
677,53	333,31
677,72	261,63
677,909	390,65
678,099	275,96
678,288	136,7
678,477	278,01
678,667	282,11
678,856	341,5
679,045	331,26
679,235	243,2
679,424	247,29
679,613	251,39
679,802	228,86
679,992	206,33
680,181	116,22
680,37	259,58
680,559	181,76
680,748	245,24
680,938	243,2
681,127	159,23
681,316	210,43
681,505	128,51
681,694	132,61
681,883	237,05
682,072	163,33
682,261	157,18
682,45	95,74
682,639	101,89
682,828	210,43
683,017	212,48
683,206	210,43
683,395	128,51
683,584	192
683,773	251,39
683,962	173,57
684,151	52,74
684,34	177,66
684,529	202,24
684,718	99,84
684,907	204,28
685,095	146,94
685,284	226,81
685,473	200,19
685,662	120,32
685,851	177,66
686,039	206,33
686,228	177,66
686,417	89,6
686,606	327,16
686,794	169,47
686,983	50,69
687,172	155,13
687,36	130,56
687,549	114,17
687,738	79,36
687,926	132,61
688,115	103,93
688,303	46,59
688,492	222,72
688,68	42,5
688,869	46,59
689,057	71,17
689,246	-33,28
689,434	134,65
689,623	89,6
689,811	93,69
690	153,09
690,188	179,71
690,377	140,8
690,565	282,11
690,753	275,96
690,942	228,86
691,13	218,62
691,318	194,05
691,507	136,7
691,695	136,7
691,883	136,7
692,072	103,93
692,26	173,57
692,448	130,56
692,636	87,55
692,824	81,41
693,013	204,28
693,201	159,23
693,389	67,07
693,577	97,79
693,765	89,6
693,953	50,69
694,141	136,7
694,329	26,11
694,518	73,21
694,706	52,74
694,894	126,46
695,082	54,78
695,27	136,7
695,458	212,48
695,646	251,39
695,834	259,58
696,022	255,48
696,209	257,53
696,397	407,03
696,585	310,78
696,773	349,69
696,961	327,16
697,149	235
697,337	251,39
697,525	278,01
697,712	222,72
697,9	177,66
698,088	214,52
698,276	323,07
698,463	216,57
698,651	153,09
698,839	196,09
699,027	226,81
699,214	210,43
699,402	46,59
699,59	134,65
699,777	54,78
699,965	192
700,152	71,17
700,34	128,51
700,528	38,4
700,715	136,7
700,903	202,24
701,09	155,13
701,278	161,28
701,465	122,37
701,653	67,07
701,84	46,59
702,028	155,13
702,215	99,84
702,402	48,64
702,59	173,57
702,777	161,28
702,965	153,09
703,152	114,17
703,339	165,37
703,527	65,02
703,714	91,65
703,901	48,64
704,088	189,95
704,276	108,03
704,463	153,09
704,65	99,84
704,837	105,98
705,025	79,36
705,212	97,79
705,399	153,09
705,586	81,41
705,773	87,55
705,96	58,88
706,147	155,13
706,335	138,75
706,522	136,7
706,709	179,71
706,896	120,32
707,083	151,04
707,27	177,66
707,457	218,62
707,644	71,17
707,831	218,62
708,018	120,32
708,205	60,93
708,392	185,85
708,578	202,24
708,765	75,26
708,952	71,17
709,139	108,03
709,326	169,47
709,513	130,56
709,7	83,45
709,886	210,43
710,073	144,89
710,26	235
710,447	99,84
710,633	105,98
710,82	79,36
711,007	124,41
711,193	122,37
711,38	124,41
711,567	171,52
711,753	87,55
711,94	122,37
712,127	155,13
712,313	93,69
712,5	54,78
712,686	105,98
712,873	130,56
713,059	97,79
713,246	235
713,432	173,57
713,619	69,12
713,805	112,13
713,992	214,52
714,178	101,89
714,365	91,65
714,551	228,86
714,737	112,13
714,924	40,45
715,11	189,95
715,297	71,17
715,483	65,02
715,669	126,46
715,855	179,71
716,042	105,98
716,228	54,78
716,414	181,76
716,6	120,32
716,787	120,32
716,973	120,32
717,159	75,26
717,345	95,74
717,531	75,26
717,718	148,99
717,904	163,33
718,09	71,17
718,276	73,21
718,462	128,51
718,648	71,17
718,834	46,59
719,02	181,76
719,206	50,69
719,392	103,93
719,578	89,6
719,764	-25,09
719,95	17,92
720,136	128,51
720,322	87,55
720,508	169,47
720,694	95,74
720,879	101,89
721,065	142,85
721,251	159,23
721,437	95,74
721,623	169,47
721,809	189,95
721,994	124,41
722,18	48,64
722,366	40,45
722,552	144,89
722,737	153,09
722,923	189,95
723,109	167,42
723,294	116,22
723,48	204,28
723,666	226,81
723,851	89,6
724,037	185,85
724,222	200,19
724,408	278,01
724,593	243,2
724,779	108,03
724,965	148,99
725,15	212,48
725,336	181,76
725,521	265,72
725,706	171,52
725,892	181,76
726,077	169,47
726,263	155,13
726,448	292,35
726,634	226,81
726,819	288,25
727,004	181,76
727,19	148,99
727,375	214,52
727,56	114,17
727,745	120,32
727,931	183,81
728,116	128,51
728,301	189,95
728,486	235
728,672	122,37
728,857	202,24
729,042	189,95
729,227	71,17
729,412	144,89
729,597	122,37
729,783	97,79
729,968	153,09
730,153	189,95
730,338	144,89
730,523	163,33
730,708	136,7
730,893	116,22
731,078	226,81
731,263	134,65
731,448	97,79
731,633	148,99
731,818	116,22
732,003	112,13
732,187	91,65
732,372	95,74
732,557	241,15
732,742	103,93
732,927	83,45
733,112	216,57
733,297	153,09
733,481	194,05
733,666	230,91
733,851	202,24
734,036	181,76
734,22	200,19
734,405	325,12
734,59	185,85
734,774	198,14
734,959	124,41
735,144	275,96
735,328	249,34
735,513	169,47
735,698	204,28
735,882	321,02
736,067	292,35
736,251	226,81
736,436	138,75
736,62	128,51
736,805	241,15
736,989	271,87
737,174	142,85
737,358	165,37
737,543	275,96
737,727	353,79
737,911	329,21
738,096	251,39
738,28	296,44
738,465	339,45
738,649	355,83
738,833	423,42
739,018	259,58
739,202	286,2
739,386	275,96
739,57	239,1
739,755	243,2
739,939	263,68
740,123	144,89
740,307	253,44
740,491	171,52
740,676	138,75
740,86	185,85
741,044	161,28
741,228	185,85
741,412	105,98
741,596	71,17
741,78	40,45
741,964	148,99
742,148	116,22
742,332	97,79
742,516	54,78
742,7	144,89
742,884	132,61
743,068	122,37
743,252	153,09
743,436	148,99
743,62	38,4
743,804	316,92
743,988	204,28
744,172	235
744,356	144,89
744,539	173,57
744,723	128,51
744,907	204,28
745,091	214,52
745,275	282,11
745,458	267,77
745,642	306,68
745,826	278,01
746,009	278,01
746,193	321,02
746,377	294,4
746,56	339,45
746,744	318,97
746,928	253,44
747,111	402,94
747,295	288,25
747,478	325,12
747,662	237,05
747,846	368,12
748,029	407,03
748,213	288,25
748,396	185,85
748,58	310,78
748,763	226,81
748,946	175,61
749,13	308,73
749,313	261,63
749,497	359,93
749,68	366,07
749,863	402,94
750,047	376,31
750,23	392,7
750,413	382,46
750,597	431,61
750,78	456,19
750,963	447,99
751,146	376,31
751,33	415,23
751,513	392,7
751,696	280,06
751,879	398,84
752,062	259,58
752,246	390,65
752,429	284,16
752,612	196,09
752,795	278,01
752,978	173,57
753,161	62,98
753,344	146,94
753,527	122,37
753,71	161,28
753,893	112,13
754,076	157,18
754,259	148,99
754,442	103,93
754,625	42,5
754,808	235
754,991	122,37
755,174	132,61
755,357	112,13
755,539	177,66
755,722	202,24
755,905	136,7
756,088	120,32
756,271	97,79
756,453	120,32
756,636	122,37
756,819	198,14
757,002	179,71
757,184	241,15
757,367	265,72
757,55	253,44
757,732	361,98
757,915	132,61
758,098	208,38
758,28	243,2
758,463	171,52
758,645	177,66
758,828	249,34
759,011	153,09
759,193	134,65
759,376	312,83
759,558	120,32
759,741	87,55
759,923	187,9
760,105	210,43
760,288	243,2
760,47	132,61
760,653	144,89
760,835	146,94
761,017	212,48
761,2	237,05
761,382	253,44
761,564	210,43
761,747	218,62
761,929	169,47
762,111	155,13
762,294	278,01
762,476	546,3
762,658	525,82
762,84	685,56
763,022	765,43
763,205	742,9
763,387	976,37
763,569	959,99
763,751	796,15
763,933	826,87
764,115	759,28
764,297	636,41
764,479	710,13
764,661	529,91
764,843	636,41
765,025	427,51
765,207	423,42
765,389	288,25
765,571	302,59
765,753	388,6
765,935	327,16
766,117	333,31
766,299	407,03
766,481	398,84
766,663	169,47
766,845	167,42
767,026	114,17
767,208	169,47
767,39	185,85
767,572	103,93
767,753	239,1
767,935	87,55
768,117	185,85
768,299	275,96
768,48	218,62
768,662	235
768,844	151,04
769,025	292,35
769,207	173,57
769,389	140,8
769,57	230,91
769,752	200,19
769,933	157,18
770,115	314,88
770,296	189,95
770,478	318,97
770,659	226,81
770,841	441,85
771,022	138,75
771,204	239,1
771,385	321,02
771,567	343,55
771,748	456,19
771,929	407,03
772,111	464,38
772,292	509,43
772,473	505,34
772,655	548,34
772,836	443,9
773,017	521,72
773,199	447,99
773,38	384,51
773,561	484,86
773,742	335,35
773,923	267,77
774,105	392,7
774,286	368,12
774,467	271,87
774,648	280,06
774,829	300,54
775,01	212,48
775,191	177,66
775,372	255,48
775,553	228,86
775,734	153,09
775,915	120,32
776,096	189,95
776,277	271,87
776,458	323,07
776,639	480,76
776,82	693,75
777,001	572,92
777,182	656,89
777,363	691,7
777,544	726,52
777,725	677,37
777,906	529,91
778,086	484,86
778,267	505,34
778,448	357,88
778,629	284,16
778,809	286,2
778,99	198,14
779,171	232,96
779,352	153,09
779,532	97,79
779,713	122,37
779,894	153,09
780,074	226,81
780,255	85,5
780,435	187,9
780,616	169,47
780,797	130,56
780,977	9,73
781,158	46,59
781,338	89,6
781,519	15,87
781,699	255,48
781,88	95,74
782,06	161,28
782,241	-53,76
782,421	-86,53
782,601	77,31
782,782	87,55
782,962	81,41
783,142	15,87
783,323	146,94
783,503	54,78
783,683	173,57
783,864	87,55
784,044	120,32
784,224	224,76
784,404	153,09
784,585	91,65
784,765	105,98
784,945	144,89
785,125	38,4
785,305	132,61
785,485	194,05
785,666	7,68
785,846	7,68
786,026	79,36
786,206	42,5
786,386	-6,66
786,566	95,74
786,746	103,93
786,926	136,7
787,106	40,45
787,286	-2,56
787,466	112,13
787,646	138,75
787,826	79,36
788,006	169,47
788,185	136,7
788,365	42,5
788,545	171,52
788,725	155,13
788,905	157,18
789,085	85,5
789,264	138,75
789,444	112,13
789,624	136,7
789,804	56,83
789,983	128,51
790,163	95,74
790,343	40,45
790,522	95,74
790,702	58,88
790,882	36,35
791,061	189,95
791,241	105,98
791,42	116,22
791,6	155,13
791,78	73,21
791,959	30,21
792,139	81,41
792,318	87,55
792,498	126,46
792,677	38,4
792,856	56,83
793,036	103,93
793,215	-8,7
793,395	161,28
793,574	44,54
793,753	85,5
793,933	144,89
794,112	253,44
794,291	134,65
794,471	302,59
794,65	226,81
794,829	73,21
795,008	206,33
795,188	241,15
795,367	228,86
795,546	163,33
795,725	146,94
795,904	153,09
796,084	112,13
796,263	128,51
796,442	128,51
796,621	58,88
796,8	216,57
796,979	153,09
797,158	112,13
797,337	-14,85
797,516	136,7
797,695	120,32
797,874	87,55
798,053	128,51
798,232	138,75
798,411	54,78
798,59	67,07
798,769	5,63
798,947	54,78
799,126	65,02
799,305	120,32
799,484	65,02
799,663	36,35
799,842	140,8
800,02	194,05
800,199	122,37
800,378	196,09
800,557	161,28
800,735	187,9
800,914	187,9
801,093	243,2
801,271	202,24
801,45	292,35
801,628	241,15
801,807	212,48
801,986	136,7
802,164	161,28
802,343	79,36
802,521	75,26
802,7	105,98
802,878	128,51
803,057	130,56
803,235	97,79
803,414	142,85
803,592	144,89
803,771	161,28
803,949	71,17
804,127	13,82
804,306	136,7
804,484	83,45
804,662	54,78
804,841	54,78
805,019	62,98
805,197	48,64
805,375	36,35
805,554	44,54
805,732	114,17
805,91	87,55
806,088	38,4
806,266	24,06
806,445	26,11
806,623	-0,51
806,801	79,36
806,979	87,55
807,157	81,41
807,335	-2,56
807,513	62,98
807,691	124,41
807,869	-80,38
808,047	-33,28
808,225	-37,38
808,403	54,78
808,581	26,11
808,759	204,28
808,937	85,5
809,115	146,94
809,293	108,03
809,471	140,8
809,649	204,28
809,826	202,24
810,004	206,33
810,182	138,75
810,36	257,53
810,538	310,78
810,715	411,13
810,893	423,42
811,071	538,1
811,248	673,27
811,426	570,87
811,604	677,37
811,781	644,6
811,959	534,01
812,137	431,61
812,314	300,54
812,492	267,77
812,669	286,2
812,847	122,37
813,024	171,52
813,202	343,55
813,379	204,28
813,557	185,85
813,734	257,53
813,912	187,9
814,089	138,75
814,267	169,47
814,444	169,47
814,621	169,47
814,799	128,51
814,976	146,94
815,153	130,56
815,331	138,75
815,508	120,32
815,685	54,78
815,862	136,7
816,04	-18,94
816,217	24,06
816,394	42,5
816,571	81,41
816,748	103,93
816,926	103,93
817,103	390,65
817,28	40,45
817,457	1,54
817,634	112,13
817,811	38,4
817,988	95,74
818,165	5,63
818,342	87,55
818,519	62,98
818,696	87,55
818,873	-31,23
819,05	128,51
819,227	-23,04
819,404	73,21
819,581	30,21
819,758	77,31
819,934	-8,7
820,111	34,3
820,288	-14,85
820,465	65,02
820,642	7,68
820,818	-29,18
820,995	54,78
821,172	30,21
821,349	105,98
821,525	22,02
821,702	3,58
821,879	13,82
822,055	52,74
822,232	7,68
822,409	-10,75
822,585	32,26
822,762	81,41
822,938	54,78
823,115	67,07
823,291	-33,28
823,468	151,04
823,644	-0,51
823,821	56,83
823,997	-2,56
824,174	-35,33
824,35	22,02
824,527	17,92
824,703	69,12
824,879	46,59
825,056	124,41
825,232	140,8
825,408	58,88
825,585	-2,56
825,761	5,63
825,937	13,82
826,113	118,27
826,29	108,03
826,466	105,98
826,642	445,95
826,818	136,7
826,994	77,31
827,17	13,82
827,347	38,4
827,523	-37,38
827,699	99,84
827,875	46,59
828,051	79,36
828,227	22,02
828,403	177,66
828,579	148,99
828,755	114,17
828,931	-2,56
829,107	103,93
829,283	169,47
829,459	-0,51
829,635	58,88
829,811	73,21
829,986	79,36
830,162	1,54
830,338	101,89
830,514	-33,28
830,69	62,98
830,865	-2,56
831,041	81,41
831,217	-2,56
831,393	30,21
831,568	-2,56
831,744	48,64
831,92	13,82
832,095	71,17
832,271	30,21
832,447	108,03
832,622	122,37
832,798	103,93
832,973	62,98
833,149	30,21
833,325	38,4
833,5	67,07
833,676	15,87
833,851	79,36
834,027	54,78
834,202	32,26
834,377	122,37
834,553	73,21
834,728	62,98
834,904	26,11
835,079	40,45
835,254	-14,85
835,43	28,16
835,605	-14,85
835,78	-8,7
835,955	22,02
836,131	110,08
836,306	-39,42
836,481	30,21
836,656	62,98
836,832	58,88
837,007	-55,81
837,182	5,63
837,357	7,68
837,532	9,73
837,707	71,17
837,882	30,21
838,057	54,78
838,232	83,45
838,407	3,58
838,582	-8,7
838,757	30,21
838,932	91,65
839,107	9,73
839,282	-51,71
839,457	30,21
839,632	151,04
839,807	67,07
839,982	40,45
840,157	87,55
840,332	112,13
840,506	179,71
840,681	95,74
840,856	157,18
841,031	87,55
841,205	71,17
841,38	171,52
841,555	132,61
841,73	136,7
841,904	169,47
842,079	173,57
842,254	169,47
842,428	155,13
842,603	181,76
842,777	56,83
842,952	105,98
843,126	54,78
843,301	187,9
843,476	103,93
843,65	202,24
843,825	292,35
843,999	206,33
844,173	165,37
844,348	93,69
844,522	200,19
844,697	163,33
844,871	138,75
845,045	179,71
845,22	112,13
845,394	228,86
845,568	81,41
845,743	177,66
845,917	173,57
846,091	46,59
846,265	38,4
846,44	128,51
846,614	122,37
846,788	54,78
846,962	73,21
847,136	97,79
847,31	56,83
847,485	181,76
847,659	-8,7
847,833	87,55
848,007	103,93
848,181	56,83
848,355	67,07
848,529	108,03
848,703	13,82
848,877	-37,38
849,051	120,32
849,225	-4,61
849,399	38,4
849,573	-23,04
849,746	38,4
849,92	-2,56
850,094	75,26
850,268	15,87
850,442	99,84
850,616	-2,56
850,789	13,82
850,963	19,97
851,137	38,4
851,311	210,43
851,484	48,64
851,658	116,22
851,832	46,59
852,005	56,83
852,179	30,21
852,352	38,4
852,526	22,02
852,7	50,69
852,873	42,5
853,047	114,17
853,22	50,69
853,394	46,59
853,567	26,11
853,741	-18,94
853,914	-49,66
854,088	165,37
854,261	32,26
854,434	-51,71
854,608	-35,33
854,781	5,63
854,955	15,87
855,128	97,79
855,301	-61,95
855,475	120,32
855,648	-0,51
855,821	85,5
855,994	128,51
856,168	28,16
856,341	60,93
856,514	5,63
856,687	42,5
856,86	22,02
857,033	-10,75
857,207	128,51
857,38	-18,94
857,553	81,41
857,726	71,17
857,899	50,69
858,072	13,82
858,245	58,88
858,418	62,98
858,591	46,59
858,764	30,21
858,937	24,06
859,11	79,36
859,283	81,41
859,455	75,26
859,628	15,87
859,801	198,14
859,974	116,22
860,147	22,02
860,32	56,83
860,492	26,11
860,665	-14,85
860,838	67,07
861,011	52,74
861,183	65,02
861,356	155,13
861,529	95,74
861,701	-8,7
861,874	13,82
862,047	30,21
862,219	54,78
862,392	60,93
862,564	-12,8
862,737	13,82
862,909	128,51
863,082	83,45
863,254	79,36
863,427	71,17
863,599	128,51
863,772	15,87
863,944	200,19
864,117	71,17
864,289	108,03
864,461	-18,94
864,634	91,65
864,806	26,11
864,978	128,51
865,151	15,87
865,323	206,33
865,495	120,32
865,667	-51,71
865,84	159,23
866,012	34,3
866,184	95,74
866,356	22,02
866,528	38,4
866,7	-16,9
866,873	62,98
867,045	128,51
867,217	3,58
867,389	198,14
867,561	114,17
867,733	85,5
867,905	95,74
868,077	46,59
868,249	42,5
868,421	71,17
868,593	46,59
868,765	105,98
868,936	-27,14
869,108	105,98
869,28	196,09
869,452	32,26
869,624	58,88
869,796	32,26
869,968	89,6
870,139	67,07
870,311	40,45
870,483	103,93
870,654	-33,28
870,826	87,55
870,998	97,79
871,17	58,88
871,341	-2,56
871,513	67,07
871,684	30,21
871,856	24,06
872,028	73,21
872,199	-51,71
872,371	46,59
872,542	5,63
872,714	-23,04
872,885	112,13
873,057	44,54
873,228	67,07
873,4	136,7
873,571	157,18
873,742	15,87
873,914	73,21
874,085	79,36
874,256	5,63
874,428	-84,48
874,599	67,07
874,77	153,09
874,942	-88,57
875,113	67,07
875,284	-49,66
875,455	38,4
875,626	112,13
875,798	13,82
875,969	38,4
876,14	46,59
876,311	157,18
876,482	130,56
876,653	46,59
876,824	46,59
876,995	91,65
877,166	48,64
877,337	62,98
877,508	-59,9
877,679	34,3
877,85	-43,52
878,021	-4,61
878,192	89,6
878,363	13,82
878,534	62,98
878,705	9,73
878,876	32,26
879,047	81,41
879,217	5,63
879,388	148,99
879,559	22,02
879,73	136,7
879,9	75,26
880,071	32,26
880,242	38,4
880,413	87,55
880,583	71,17
880,754	108,03
880,924	75,26
881,095	-16,9
881,266	-2,56
881,436	54,78
881,607	124,41
881,777	89,6
881,948	62,98
882,118	81,41
882,289	-10,75
882,459	50,69
882,63	79,36
882,8	7,68
882,971	146,94
883,141	118,27
883,311	97,79
883,482	93,69
883,652	15,87
883,822	-25,09
883,993	-16,9
884,163	65,02
884,333	54,78
884,504	67,07
884,674	97,79
884,844	46,59
885,014	-25,09
885,184	48,64
885,355	-6,66
885,525	38,4
885,695	120,32
885,865	196,09
886,035	93,69
886,205	134,65
886,375	128,51
886,545	62,98
886,715	22,02
886,885	87,55
887,055	71,17
887,225	7,68
887,395	-8,7
887,565	202,24
887,735	62,98
887,905	136,7
888,075	30,21
888,244	105,98
888,414	114,17
888,584	5,63
888,754	103,93
888,924	87,55
889,093	228,86
889,263	58,88
889,433	22,02
889,603	130,56
889,772	40,45
889,942	122,37
890,111	13,82
890,281	148,99
890,451	30,21
890,62	-49,66
890,79	87,55
890,959	-8,7
891,129	120,32
891,298	71,17
891,468	42,5
891,637	110,08
891,807	73,21
891,976	32,26
892,146	-33,28
892,315	65,02
892,485	167,42
892,654	87,55
892,823	38,4
892,993	11,78
893,162	112,13
893,331	95,74
893,501	46,59
893,67	103,93
893,839	114,17
894,008	22,02
894,177	56,83
894,347	120,32
894,516	153,09
894,685	-10,75
894,854	1,54
895,023	17,92
895,192	58,88
