Data from mercure_USB4F104161__0__11-31-52-519.txt Node

Date: Tue Apr 14 11:31:52 EDT 2026
User: LaboPhy
Spectrometer: USB4F10416
Trigger mode: 4
Integration Time (sec): 1,000000E-1
Scans to average: 1
Electric dark correction enabled: true
Nonlinearity correction enabled: false
Boxcar width: 0
XAxis mode: Wavelengths
Number of Pixels in Spectrum: 3648
>>>>>Begin Spectral Data<<<<<
177,847	-161,11
178,066	-161,11
178,284	-161,11
178,502	-132,44
178,72	-171,35
178,939	15,02
179,157	33,45
179,375	-23,89
179,593	107,18
179,812	-17,75
180,03	-25,94
180,248	-17,75
180,466	39,59
180,685	55,98
180,903	-101,72
181,121	-50,52
181,339	-13,65
181,557	31,4
181,775	107,18
181,994	8,87
182,212	-50,52
182,43	-5,46
182,648	-34,13
182,866	74,41
183,084	78,51
183,302	-1,37
183,52	47,79
183,739	72,36
183,957	137,9
184,175	12,97
184,393	15,02
184,611	82,6
184,829	29,35
185,047	19,11
185,265	92,84
185,483	-11,61
185,701	27,31
185,919	-7,51
186,137	47,79
186,355	31,4
186,573	39,59
186,791	123,56
187,009	55,98
187,227	64,17
187,445	107,18
187,663	55,98
187,881	-21,84
188,098	105,13
188,316	15,02
188,534	72,36
188,752	49,83
188,97	0,68
189,188	-9,56
189,406	47,79
189,624	66,22
189,841	43,69
190,059	-89,43
190,277	96,94
190,495	-15,7
190,713	98,99
190,931	137,9
191,148	41,64
191,366	17,07
191,584	15,02
191,802	123,56
192,019	150,18
192,237	90,79
192,455	105,13
192,673	72,36
192,89	35,5
193,108	2,73
193,326	58,03
193,543	117,42
193,761	43,69
193,979	55,98
194,196	-54,61
194,414	39,59
194,632	25,26
194,849	-13,65
195,067	-71
195,285	29,35
195,502	-75,09
195,72	23,21
195,937	27,31
196,155	74,41
196,373	66,22
196,59	-1,37
196,808	82,6
197,025	109,23
197,243	244,39
197,46	58,03
197,678	148,14
197,895	68,27
198,113	39,59
198,33	-46,42
198,548	17,07
198,765	31,4
198,983	88,75
199,2	-64,85
199,418	47,79
199,635	17,07
199,853	60,07
200,07	17,07
200,288	25,26
200,505	17,07
200,722	78,51
200,94	31,4
201,157	-23,89
201,375	158,38
201,592	-15,7
201,809	49,83
202,027	146,09
202,244	72,36
202,461	-7,51
202,679	29,35
202,896	96,94
203,113	-30,04
203,331	58,03
203,548	-23,89
203,765	55,98
203,982	123,56
204,2	51,88
204,417	-11,61
204,634	207,53
204,851	43,69
205,069	35,5
205,286	49,83
205,503	98,99
205,72	39,59
205,937	80,55
206,155	-9,56
206,372	141,99
206,589	25,26
206,806	0,68
207,023	31,4
207,24	111,27
207,458	12,97
207,675	-42,32
207,892	-9,56
208,109	-30,04
208,326	35,5
208,543	88,75
208,76	62,12
208,977	129,7
209,194	45,74
209,411	41,64
209,628	6,83
209,845	58,03
210,062	39,59
210,279	-25,94
210,496	-17,75
210,713	-42,32
210,93	-15,7
211,147	78,51
211,364	62,12
211,581	39,59
211,798	211,62
212,015	-103,76
212,232	8,87
212,449	0,68
212,666	39,59
212,883	-30,04
213,1	-1,37
213,317	17,07
213,533	27,31
213,75	-9,56
213,967	-23,89
214,184	-77,14
214,401	80,55
214,618	-21,84
214,835	47,79
215,051	64,17
215,268	-21,84
215,485	96,94
215,702	55,98
215,919	-128,34
216,135	170,66
216,352	23,21
216,569	76,46
216,786	96,94
217,002	-48,47
217,219	15,02
217,436	-54,61
217,652	47,79
217,869	66,22
218,086	139,94
218,302	49,83
218,519	76,46
218,736	29,35
218,952	-128,34
219,169	86,7
219,386	15,02
219,602	68,27
219,819	70,31
220,036	-23,89
220,252	72,36
220,469	-17,75
220,685	72,36
220,902	96,94
221,118	33,45
221,335	55,98
221,552	39,59
221,768	74,41
221,985	-36,18
222,201	-9,56
222,418	96,94
222,634	-73,04
222,851	-25,94
223,067	6,83
223,284	0,68
223,5	17,07
223,716	84,65
223,933	58,03
224,149	19,11
224,366	43,69
224,582	35,5
224,799	15,02
225,015	-36,18
225,231	8,87
225,448	27,31
225,664	-32,08
225,88	27,31
226,097	55,98
226,313	-68,95
226,529	0,68
226,746	-32,08
226,962	101,03
227,178	47,79
227,395	-23,89
227,611	10,92
227,827	8,87
228,044	47,79
228,26	43,69
228,476	62,12
228,692	88,75
228,909	51,88
229,125	74,41
229,341	8,87
229,557	-25,94
229,773	35,5
229,99	109,23
230,206	15,02
230,422	12,97
230,638	-48,47
230,854	-9,56
231,07	-1,37
231,286	72,36
231,503	8,87
231,719	-81,24
231,935	15,02
232,151	55,98
232,367	150,18
232,583	96,94
232,799	55,98
233,015	-13,65
233,231	15,02
233,447	41,64
233,663	0,68
233,879	76,46
234,095	31,4
234,311	123,56
234,527	27,31
234,743	6,83
234,959	68,27
235,175	84,65
235,391	-13,65
235,607	33,45
235,823	25,26
236,039	6,83
236,255	-17,75
236,471	72,36
236,687	-23,89
236,903	-32,08
237,118	-42,32
237,334	-7,51
237,55	51,88
237,766	0,68
237,982	121,51
238,198	55,98
238,413	-25,94
238,629	80,55
238,845	27,31
239,061	39,59
239,277	10,92
239,492	-32,08
239,708	-7,51
239,924	-40,28
240,14	107,18
240,355	156,33
240,571	-5,46
240,787	8,87
241,003	60,07
241,218	6,83
241,434	62,12
241,65	60,07
241,865	-73,04
242,081	109,23
242,297	-42,32
242,512	47,79
242,728	82,6
242,944	8,87
243,159	15,02
243,375	-42,32
243,59	58,03
243,806	78,51
244,022	-3,41
244,237	47,79
244,453	35,5
244,668	8,87
244,884	84,65
245,099	-30,04
245,315	154,28
245,53	41,64
245,746	115,37
245,961	58,03
246,177	-5,46
246,392	33,45
246,608	121,51
246,823	-54,61
247,039	-17,75
247,254	-38,23
247,47	64,17
247,685	-52,56
247,9	-17,75
248,116	0,68
248,331	6,83
248,547	47,79
248,762	-60,76
248,977	96,94
249,193	15,02
249,408	43,69
249,623	96,94
249,839	10,92
250,054	-103,76
250,269	47,79
250,485	31,4
250,7	113,32
250,915	115,37
251,13	129,7
251,346	15,02
251,561	84,65
251,776	92,84
251,991	-27,99
252,207	64,17
252,422	-1,37
252,637	-30,04
252,852	-25,94
253,067	31,4
253,283	-1,37
253,498	49,83
253,713	33,45
253,928	23,21
254,143	64,17
254,358	23,21
254,573	-13,65
254,788	-9,56
255,004	43,69
255,219	-64,85
255,434	45,74
255,649	6,83
255,864	55,98
256,079	27,31
256,294	35,5
256,509	17,07
256,724	64,17
256,939	-42,32
257,154	-1,37
257,369	62,12
257,584	129,7
257,799	41,64
258,014	55,98
258,229	39,59
258,444	-5,46
258,659	58,03
258,874	80,55
259,089	49,83
259,304	31,4
259,518	-9,56
259,733	17,07
259,948	80,55
260,163	27,31
260,378	47,79
260,593	-3,41
260,808	31,4
261,022	-99,67
261,237	27,31
261,452	43,69
261,667	17,07
261,882	98,99
262,096	70,31
262,311	47,79
262,526	-1,37
262,741	6,83
262,955	-38,23
263,17	37,55
263,385	8,87
263,6	-56,66
263,814	15,02
264,029	6,83
264,244	70,31
264,458	64,17
264,673	31,4
264,888	68,27
265,102	53,93
265,317	92,84
265,532	39,59
265,746	101,03
265,961	64,17
266,175	8,87
266,39	15,02
266,605	41,64
266,819	-38,23
267,034	189,1
267,248	-50,52
267,463	66,22
267,677	15,02
267,892	23,21
268,106	-107,86
268,321	-23,89
268,535	101,03
268,75	72,36
268,964	-5,46
269,179	47,79
269,393	47,79
269,608	80,55
269,822	-99,67
270,036	-7,51
270,251	39,59
270,465	23,21
270,68	31,4
270,894	39,59
271,108	215,72
271,323	-83,28
271,537	17,07
271,752	82,6
271,966	66,22
272,18	17,07
272,394	29,35
272,609	27,31
272,823	49,83
273,037	-1,37
273,252	-17,75
273,466	47,79
273,68	111,27
273,894	21,16
274,109	43,69
274,323	-95,57
274,537	8,87
274,751	-23,89
274,966	53,93
275,18	-89,43
275,394	35,5
275,608	-50,52
275,822	-40,28
276,036	-25,94
276,25	0,68
276,465	-15,7
276,679	25,26
276,893	-9,56
277,107	139,94
277,321	10,92
277,535	-9,56
277,749	41,64
277,963	82,6
278,177	-34,13
278,391	45,74
278,605	8,87
278,819	117,42
279,033	-107,86
279,247	0,68
279,461	74,41
279,675	15,02
279,889	45,74
280,103	21,16
280,317	101,03
280,531	-17,75
280,745	-9,56
280,959	-64,85
281,173	41,64
281,387	45,74
281,601	6,83
281,815	64,17
282,029	-64,85
282,242	70,31
282,456	58,03
282,67	41,64
282,884	-34,13
283,098	8,87
283,312	-38,23
283,525	-1,37
283,739	51,88
283,953	-34,13
284,167	31,4
284,381	64,17
284,594	47,79
284,808	47,79
285,022	-17,75
285,235	39,59
285,449	6,83
285,663	15,02
285,877	-42,32
286,09	94,89
286,304	31,4
286,518	39,59
286,731	-17,75
286,945	101,03
287,159	-42,32
287,372	-46,42
287,586	41,64
287,799	-91,48
288,013	-73,04
288,227	43,69
288,44	244,39
288,654	107,18
288,867	19,11
289,081	27,31
289,294	105,13
289,508	86,7
289,721	45,74
289,935	55,98
290,148	15,02
290,362	64,17
290,575	80,55
290,789	-7,51
291,002	-1,37
291,216	58,03
291,429	43,69
291,643	-13,65
291,856	31,4
292,069	-21,84
292,283	10,92
292,496	68,27
292,71	8,87
292,923	-7,51
293,136	19,11
293,35	-15,7
293,563	37,55
293,776	10,92
293,99	33,45
294,203	29,35
294,416	31,4
294,63	8,87
294,843	-3,41
295,056	84,65
295,269	27,31
295,483	23,21
295,696	64,17
295,909	35,5
296,122	94,89
296,335	137,9
296,549	117,42
296,762	15,02
296,975	17,07
297,188	49,83
297,401	131,75
297,615	64,17
297,828	-7,51
298,041	137,9
298,254	-58,71
298,467	76,46
298,68	8,87
298,893	25,26
299,106	0,68
299,319	58,03
299,532	121,51
299,745	23,21
299,958	-42,32
300,171	-17,75
300,384	88,75
300,598	-87,38
300,81	43,69
301,023	-42,32
301,236	27,31
301,449	47,79
301,662	2,73
301,875	-7,51
302,088	35,5
302,301	113,32
302,514	55,98
302,727	76,46
302,94	-17,75
303,153	10,92
303,366	64,17
303,579	-32,08
303,791	101,03
304,004	96,94
304,217	80,55
304,43	58,03
304,643	72,36
304,855	8,87
305,068	2,73
305,281	117,42
305,494	129,7
305,707	96,94
305,919	113,32
306,132	51,88
306,345	31,4
306,558	129,7
306,77	66,22
306,983	15,02
307,196	68,27
307,408	-25,94
307,621	64,17
307,834	47,79
308,046	84,65
308,259	82,6
308,472	49,83
308,684	166,57
308,897	0,68
309,109	19,11
309,322	-42,32
309,535	74,41
309,747	125,61
309,96	96,94
310,172	182,95
310,385	64,17
310,597	74,41
310,81	121,51
311,022	176,81
311,235	195,24
311,447	268,97
311,66	346,79
311,872	621,22
312,085	572,07
312,297	793,25
312,51	842,4
312,722	1073,82
312,934	1217,18
313,147	1049,24
313,359	1157,78
313,572	1034,91
313,784	809,63
313,996	678,56
314,209	606,88
314,421	301,73
314,633	254,63
314,846	185
315,058	103,08
315,27	148,14
315,483	21,16
315,695	162,47
315,907	133,8
316,119	115,37
316,332	8,87
316,544	170,66
316,756	121,51
316,968	117,42
317,181	15,02
317,393	51,88
317,605	31,4
317,817	96,94
318,029	45,74
318,241	58,03
318,454	31,4
318,666	105,13
318,878	-25,94
319,09	2,73
319,302	88,75
319,514	109,23
319,726	41,64
319,938	113,32
320,15	84,65
320,362	82,6
320,574	17,07
320,786	31,4
320,999	35,5
321,211	98,99
321,423	109,23
321,635	35,5
321,847	84,65
322,058	35,5
322,27	123,56
322,482	133,8
322,694	156,33
322,906	107,18
323,118	80,55
323,33	125,61
323,542	25,26
323,754	90,79
323,966	15,02
324,178	88,75
324,389	92,84
324,601	121,51
324,813	-1,37
325,025	129,7
325,237	60,07
325,449	209,58
325,66	88,75
325,872	113,32
326,084	88,75
326,296	31,4
326,507	113,32
326,719	129,7
326,931	31,4
327,143	154,28
327,354	129,7
327,566	74,41
327,778	109,23
327,989	113,32
328,201	72,36
328,413	148,14
328,624	141,99
328,836	80,55
329,048	37,55
329,259	72,36
329,471	92,84
329,682	55,98
329,894	105,13
330,106	6,83
330,317	-15,7
330,529	60,07
330,74	78,51
330,952	86,7
331,163	96,94
331,375	199,34
331,586	80,55
331,798	2,73
332,009	105,13
332,221	123,56
332,432	195,24
332,644	164,52
332,855	101,03
333,067	170,66
333,278	260,77
333,489	277,16
333,701	246,44
333,912	279,21
334,124	305,83
334,335	408,23
334,546	252,58
334,758	402,08
334,969	584,35
335,18	508,58
335,392	408,23
335,603	500,39
335,814	498,34
336,025	473,76
336,237	436,9
336,448	449,19
336,659	547,49
336,87	506,53
337,082	522,91
337,293	363,17
337,504	375,46
337,715	375,46
337,926	197,29
338,138	213,67
338,349	293,54
338,56	260,77
338,771	207,53
338,982	162,47
339,193	121,51
339,404	187,05
339,616	191,14
339,827	191,14
340,038	0,68
340,249	174,76
340,46	187,05
340,671	189,1
340,882	293,54
341,093	127,66
341,304	131,75
341,515	55,98
341,726	113,32
341,937	115,37
342,148	96,94
342,359	123,56
342,57	62,12
342,781	240,3
342,992	98,99
343,203	29,35
343,414	166,57
343,624	84,65
343,835	51,88
344,046	133,8
344,257	123,56
344,468	121,51
344,679	90,79
344,89	137,9
345,1	31,4
345,311	146,09
345,522	191,14
345,733	105,13
345,944	117,42
346,154	168,62
346,365	215,72
346,576	146,09
346,787	74,41
346,997	123,56
347,208	170,66
347,419	115,37
347,629	203,43
347,84	234,15
348,051	156,33
348,261	201,38
348,472	47,79
348,683	139,94
348,893	141,99
349,104	197,29
349,315	131,75
349,525	131,75
349,736	148,14
349,946	109,23
350,157	232,1
350,368	197,29
350,578	60,07
350,789	195,24
350,999	197,29
351,21	182,95
351,42	60,07
351,631	137,9
351,841	64,17
352,052	260,77
352,262	309,93
352,472	103,08
352,683	228,01
352,893	244,39
353,104	232,1
353,314	246,44
353,525	647,84
353,735	289,45
353,945	221,86
354,156	219,82
354,366	289,45
354,576	344,74
354,787	215,72
354,997	287,4
355,207	129,7
355,418	352,93
355,628	293,54
355,838	256,68
356,048	285,35
356,259	524,96
356,469	379,56
356,679	506,53
356,889	481,96
357,1	553,63
357,31	473,76
357,52	524,96
357,73	533,15
357,94	484
358,15	383,65
358,361	383,65
358,571	277,16
358,781	367,27
358,991	242,34
359,201	211,62
359,411	164,52
359,621	279,21
359,831	242,34
360,041	195,24
360,251	158,38
360,461	252,58
360,672	195,24
360,882	205,48
361,092	236,2
361,302	221,86
361,512	285,35
361,721	215,72
361,931	178,86
362,141	199,34
362,351	162,47
362,561	359,08
362,771	506,53
362,981	795,29
363,191	1319,57
363,401	2300,55
363,611	3150,46
363,821	4309,61
364,03	5702,23
364,24	7322,17
364,45	8763,94
364,66	11385,34
364,87	13189,6
365,08	13998,55
365,289	14449,1
365,499	13877,72
365,709	11876,85
365,919	9990,67
366,128	7879,22
366,338	6576,71
366,548	5081,69
366,758	4307,56
366,967	3385,97
367,177	2546,31
367,387	1641,11
367,596	1106,59
367,806	854,69
368,016	629,41
368,225	504,48
368,435	543,39
368,644	330,41
368,854	291,49
369,064	359,08
369,273	350,89
369,483	191,14
369,692	195,24
369,902	236,2
370,111	301,73
370,321	215,72
370,53	211,62
370,74	215,72
370,949	299,69
371,159	287,4
371,368	258,73
371,578	256,68
371,787	303,78
371,997	301,73
372,206	211,62
372,416	277,16
372,625	258,73
372,834	252,58
373,044	273,06
373,253	301,73
373,462	340,65
373,672	344,74
373,881	285,35
374,09	359,08
374,3	404,13
374,509	424,61
374,718	336,55
374,928	541,35
375,137	326,31
375,346	375,46
375,555	498,34
375,765	338,6
375,974	342,69
376,183	342,69
376,392	246,44
376,601	307,88
376,811	254,63
377,02	271,01
377,229	322,21
377,438	367,27
377,647	148,14
377,856	203,43
378,065	293,54
378,275	277,16
378,484	299,69
378,693	375,46
378,902	322,21
379,111	404,13
379,32	346,79
379,529	506,53
379,738	354,98
379,947	428,71
380,156	424,61
380,365	387,75
380,574	406,18
380,783	369,32
380,992	350,89
381,201	334,5
381,41	285,35
381,619	334,5
381,828	359,08
382,037	314,02
382,245	457,38
382,454	420,52
382,663	481,96
382,872	492,2
383,081	635,55
383,29	656,03
383,499	639,65
383,707	918,17
383,916	893,6
384,125	1018,52
384,334	1067,67
384,542	1157,78
384,751	1317,53
384,96	1344,15
385,169	1450,64
385,377	1647,25
385,586	1792,66
385,795	1999,5
386,004	2071,18
386,212	2015,88
386,421	2513,54
386,63	2550,4
386,838	2708,1
387,047	2771,58
387,255	2882,17
387,464	2824,83
387,673	2738,82
387,881	2726,53
388,09	2898,56
388,298	2595,46
388,507	2192,01
388,715	1882,77
388,924	1559,19
389,133	1141,4
389,341	912,03
389,55	711,33
389,758	690,85
389,967	533,15
390,175	469,67
390,383	441
390,592	459,43
390,8	303,78
391,009	377,51
391,217	365,22
391,426	344,74
391,634	293,54
391,842	346,79
392,051	301,73
392,259	334,5
392,467	236,2
392,676	264,87
392,884	256,68
393,092	303,78
393,301	285,35
393,509	309,93
393,717	385,7
393,925	318,12
394,134	266,92
394,342	377,51
394,55	426,66
394,758	385,7
394,967	301,73
395,175	215,72
395,383	320,17
395,591	207,53
395,799	305,83
396,007	219,82
396,216	383,65
396,424	318,12
396,632	293,54
396,84	262,82
397,048	256,68
397,256	375,46
397,464	228,01
397,672	395,94
397,88	295,59
398,088	285,35
398,296	342,69
398,504	311,97
398,712	371,37
398,92	424,61
399,128	391,84
399,336	383,65
399,544	506,53
399,752	383,65
399,96	434,85
400,168	359,08
400,376	393,89
400,584	352,93
400,792	336,55
401	348,84
401,207	295,59
401,415	277,16
401,623	344,74
401,831	297,64
402,039	322,21
402,247	365,22
402,454	541,35
402,662	840,35
402,87	1370,77
403,078	2228,87
403,285	2796,16
403,493	3971,69
403,701	5223
403,909	6163,02
404,116	7920,18
404,324	9640,47
404,532	11772,41
404,739	13058,53
404,947	12589,55
405,155	12446,19
405,362	10037,78
405,57	7961,14
405,778	5792,34
405,985	4356,71
406,193	3345,02
406,4	2572,93
406,608	2284,17
406,816	1784,46
407,023	1383,06
407,231	1327,77
407,438	1483,41
407,646	1827,47
407,853	1718,93
408,061	1688,21
408,268	1637,01
408,476	1469,08
408,683	1276,57
408,89	1008,28
409,098	860,83
409,305	664,22
409,513	547,49
409,72	465,57
409,927	418,47
410,135	402,08
410,342	291,49
410,55	350,89
410,757	307,88
410,964	277,16
411,172	334,5
411,379	285,35
411,586	285,35
411,793	223,91
412,001	262,82
412,208	314,02
412,415	328,36
412,622	354,98
412,83	336,55
413,037	484
413,244	262,82
413,451	449,19
413,658	514,72
413,866	490,15
414,073	371,37
414,28	563,87
414,487	428,71
414,694	416,42
414,901	457,38
415,108	404,13
415,315	481,96
415,522	549,54
415,73	432,8
415,937	318,12
416,144	408,23
416,351	326,31
416,558	371,37
416,765	354,98
416,972	424,61
417,179	426,66
417,386	545,44
417,593	459,43
417,8	346,79
418,006	541,35
418,213	510,63
418,42	486,05
418,627	613,03
418,834	449,19
419,041	455,33
419,248	422,56
419,455	475,81
419,661	518,82
419,868	441
420,075	445,09
420,282	424,61
420,489	498,34
420,696	481,96
420,902	481,96
421,109	506,53
421,316	441
421,523	518,82
421,729	436,9
421,936	395,94
422,143	465,57
422,349	404,13
422,556	375,46
422,763	311,97
422,969	328,36
423,176	246,44
423,383	252,58
423,589	580,26
423,796	336,55
424,002	273,06
424,209	254,63
424,416	338,6
424,622	230,06
424,829	285,35
425,035	228,01
425,242	342,69
425,448	236,2
425,655	359,08
425,861	320,17
426,068	359,08
426,274	479,91
426,481	408,23
426,687	334,5
426,894	311,97
427,1	285,35
427,306	279,21
427,513	326,31
427,719	291,49
427,926	340,65
428,132	322,21
428,338	291,49
428,545	367,27
428,751	273,06
428,957	332,45
429,163	350,89
429,37	379,56
429,576	330,41
429,782	424,61
429,989	246,44
430,195	301,73
430,401	303,78
430,607	303,78
430,813	262,82
431,02	352,93
431,226	328,36
431,432	301,73
431,638	361,13
431,844	301,73
432,05	297,64
432,257	377,51
432,463	375,46
432,669	490,15
432,875	338,6
433,081	477,86
433,287	498,34
433,493	615,07
433,699	1338,01
433,905	2448,01
434,111	4129,39
434,317	6212,17
434,523	9191,97
434,729	11956,72
434,935	15899,06
435,141	20220,28
435,347	23560,52
435,553	29630,69
435,759	34162,85
435,965	36620,41
436,171	35956,87
436,377	32284,86
436,582	28342,52
436,788	21707,1
436,994	16601,52
437,2	11549,18
437,406	8886,82
437,612	6154,83
437,818	4510,31
438,023	2687,62
438,229	1790,61
438,435	1032,86
438,641	729,76
438,846	457,38
439,052	580,26
439,258	518,82
439,464	426,66
439,669	346,79
439,875	432,8
440,081	369,32
440,286	219,82
440,492	289,45
440,698	391,84
440,903	318,12
441,109	451,24
441,314	262,82
441,52	271,01
441,726	309,93
441,931	260,77
442,137	260,77
442,342	346,79
442,548	256,68
442,753	408,23
442,959	195,24
443,164	225,96
443,37	412,32
443,575	303,78
443,781	189,1
443,986	332,45
444,192	293,54
444,397	238,25
444,602	277,16
444,808	297,64
445,013	352,93
445,219	238,25
445,424	369,32
445,629	301,73
445,835	285,35
446,04	418,47
446,245	305,83
446,451	277,16
446,656	277,16
446,861	334,5
447,066	322,21
447,272	309,93
447,477	318,12
447,682	195,24
447,887	260,77
448,093	309,93
448,298	416,42
448,503	301,73
448,708	252,58
448,913	180,9
449,118	279,21
449,324	359,08
449,529	326,31
449,734	254,63
449,939	221,86
450,144	424,61
450,349	326,31
450,554	268,97
450,759	342,69
450,964	342,69
451,169	324,26
451,374	322,21
451,579	289,45
451,784	264,87
451,989	352,93
452,194	297,64
452,399	223,91
452,604	240,3
452,809	262,82
453,014	320,17
453,219	344,74
453,424	459,43
453,629	197,29
453,833	234,15
454,038	371,37
454,243	285,35
454,448	293,54
454,653	363,17
454,858	303,78
455,062	238,25
455,267	268,97
455,472	311,97
455,677	289,45
455,882	309,93
456,086	393,89
456,291	277,16
456,496	211,62
456,7	285,35
456,905	400,04
457,11	346,79
457,314	318,12
457,519	309,93
457,724	307,88
457,928	287,4
458,133	246,44
458,338	375,46
458,542	303,78
458,747	268,97
458,951	244,39
459,156	354,98
459,36	215,72
459,565	301,73
459,769	336,55
459,974	342,69
460,178	254,63
460,383	232,1
460,587	240,3
460,792	344,74
460,996	309,93
461,201	268,97
461,405	268,97
461,61	303,78
461,814	332,45
462,018	205,48
462,223	287,4
462,427	268,97
462,631	326,31
462,836	236,2
463,04	367,27
463,244	332,45
463,449	271,01
463,653	391,84
463,857	309,93
464,062	309,93
464,266	248,49
464,47	287,4
464,674	260,77
464,878	285,35
465,083	287,4
465,287	305,83
465,491	303,78
465,695	311,97
465,899	285,35
466,104	264,87
466,308	266,92
466,512	264,87
466,716	397,99
466,92	383,65
467,124	318,12
467,328	314,02
467,532	391,84
467,736	311,97
467,94	400,04
468,144	391,84
468,348	314,02
468,552	354,98
468,756	295,59
468,96	262,82
469,164	305,83
469,368	334,5
469,572	357,03
469,776	359,08
469,98	291,49
470,184	393,89
470,388	367,27
470,591	352,93
470,795	326,31
470,999	305,83
471,203	334,5
471,407	275,11
471,611	277,16
471,814	295,59
472,018	244,39
472,222	363,17
472,426	441
472,63	330,41
472,833	363,17
473,037	393,89
473,241	328,36
473,444	354,98
473,648	832,16
473,852	316,07
474,055	273,06
474,259	330,41
474,463	361,13
474,666	301,73
474,87	359,08
475,074	221,86
475,277	336,55
475,481	416,42
475,684	260,77
475,888	426,66
476,091	371,37
476,295	268,97
476,498	293,54
476,702	281,25
476,905	465,57
477,109	350,89
477,312	252,58
477,516	260,77
477,719	385,7
477,923	342,69
478,126	318,12
478,329	336,55
478,533	264,87
478,736	338,6
478,94	328,36
479,143	326,31
479,346	346,79
479,55	381,6
479,753	305,83
479,956	246,44
480,159	309,93
480,363	363,17
480,566	350,89
480,769	309,93
480,972	371,37
481,176	350,89
481,379	416,42
481,582	453,28
481,785	285,35
481,988	344,74
482,192	432,8
482,395	426,66
482,598	477,86
482,801	449,19
483,004	389,8
483,207	285,35
483,41	477,86
483,613	473,76
483,817	434,85
484,02	416,42
484,223	246,44
484,426	412,32
484,629	371,37
484,832	524,96
485,035	424,61
485,238	471,72
485,441	443,04
485,644	387,75
485,846	391,84
486,049	406,18
486,252	352,93
486,455	408,23
486,658	361,13
486,861	492,2
487,064	395,94
487,267	408,23
487,47	453,28
487,672	414,37
487,875	402,08
488,078	375,46
488,281	494,24
488,484	408,23
488,686	420,52
488,889	467,62
489,092	389,8
489,295	518,82
489,497	572,07
489,7	377,51
489,903	545,44
490,105	377,51
490,308	408,23
490,511	518,82
490,713	586,4
490,916	465,57
491,118	709,28
491,321	631,46
491,524	647,84
491,726	662,18
491,929	580,26
492,131	623,27
492,334	543,39
492,536	576,16
492,739	576,16
492,941	555,68
493,144	510,63
493,346	473,76
493,549	498,34
493,751	352,93
493,954	455,33
494,156	424,61
494,359	502,44
494,561	432,8
494,763	451,24
494,966	391,84
495,168	389,8
495,37	342,69
495,573	406,18
495,775	342,69
495,977	449,19
496,18	408,23
496,382	496,29
496,584	332,45
496,787	420,52
496,989	336,55
497,191	330,41
497,393	436,9
497,595	377,51
497,798	432,8
498	481,96
498,202	410,28
498,404	346,79
498,606	357,03
498,808	514,72
499,011	400,04
499,213	361,13
499,415	379,56
499,617	477,86
499,819	477,86
500,021	414,37
500,223	428,71
500,425	441
500,627	369,32
500,829	406,18
501,031	434,85
501,233	367,27
501,435	408,23
501,637	502,44
501,839	459,43
502,041	381,6
502,243	490,15
502,445	391,84
502,647	492,2
502,848	404,13
503,05	350,89
503,252	391,84
503,454	545,44
503,656	443,04
503,858	416,42
504,059	494,24
504,261	449,19
504,463	625,31
504,665	352,93
504,867	441
505,068	447,14
505,27	465,57
505,472	535,2
505,673	416,42
505,875	391,84
506,077	408,23
506,278	457,38
506,48	539,3
506,682	424,61
506,883	408,23
507,085	477,86
507,287	475,81
507,488	432,8
507,69	391,84
507,891	408,23
508,093	500,39
508,294	428,71
508,496	342,69
508,697	373,41
508,899	395,94
509,1	498,34
509,302	455,33
509,503	354,98
509,705	508,58
509,906	494,24
510,108	297,64
510,309	340,65
510,51	484
510,712	402,08
510,913	393,89
511,114	500,39
511,316	307,88
511,517	539,3
511,718	367,27
511,92	334,5
512,121	481,96
512,322	377,51
512,524	578,21
512,725	432,8
512,926	492,2
513,127	322,21
513,329	436,9
513,53	465,57
513,731	496,29
513,932	502,44
514,133	459,43
514,334	375,46
514,536	508,58
514,737	510,63
514,938	441
515,139	373,41
515,34	420,52
515,541	428,71
515,742	481,96
515,943	508,58
516,144	484
516,345	453,28
516,546	498,34
516,747	471,72
516,948	490,15
517,149	354,98
517,35	441
517,551	361,13
517,752	484
517,953	449,19
518,154	459,43
518,355	492,2
518,556	555,68
518,756	457,38
518,957	391,84
519,158	481,96
519,359	430,76
519,56	426,66
519,761	508,58
519,961	426,66
520,162	547,49
520,363	262,82
520,564	383,65
520,764	637,6
520,965	334,5
521,166	416,42
521,366	424,61
521,567	459,43
521,768	416,42
521,968	490,15
522,169	432,8
522,37	418,47
522,57	346,79
522,771	477,86
522,972	352,93
523,172	531,11
523,373	445,09
523,573	379,56
523,774	424,61
523,974	516,77
524,175	514,72
524,375	527,01
524,576	428,71
524,776	471,72
524,977	408,23
525,177	461,48
525,378	432,8
525,578	471,72
525,778	453,28
525,979	441
526,179	516,77
526,38	457,38
526,58	484
526,78	383,65
526,981	537,25
527,181	516,77
527,381	445,09
527,582	524,96
527,782	567,97
527,982	471,72
528,182	383,65
528,383	438,95
528,583	375,46
528,783	420,52
528,983	449,19
529,183	326,31
529,384	449,19
529,584	510,63
529,784	539,3
529,984	383,65
530,184	469,67
530,384	416,42
530,584	342,69
530,784	375,46
530,984	379,56
531,185	465,57
531,385	467,62
531,585	451,24
531,785	477,86
531,985	361,13
532,185	459,43
532,385	414,37
532,585	441
532,785	498,34
532,984	449,19
533,184	361,13
533,384	481,96
533,584	385,7
533,784	512,67
533,984	451,24
534,184	410,28
534,384	441
534,583	381,6
534,783	408,23
534,983	432,8
535,183	441
535,383	268,97
535,582	498,34
535,782	451,24
535,982	524,96
536,182	426,66
536,381	447,14
536,581	367,27
536,781	457,38
536,98	410,28
537,18	389,8
537,38	457,38
537,579	377,51
537,779	379,56
537,979	475,81
538,178	465,57
538,378	420,52
538,577	375,46
538,777	402,08
538,976	359,08
539,176	498,34
539,376	475,81
539,575	391,84
539,774	506,53
539,974	359,08
540,173	451,24
540,373	522,91
540,572	400,04
540,772	432,8
540,971	424,61
541,171	465,57
541,37	408,23
541,569	500,39
541,769	504,48
541,968	449,19
542,167	502,44
542,367	504,48
542,566	490,15
542,765	498,34
542,965	531,11
543,164	557,73
543,363	555,68
543,562	481,96
543,761	561,83
543,961	793,25
544,16	1155,74
544,359	3539,57
544,558	6472,26
544,757	11201,02
544,957	16689,58
545,156	24316,22
545,355	32381,12
545,554	40052,81
545,753	47830,99
545,952	52037,52
546,151	56995,65
546,35	58314,54
546,549	55965,52
546,748	51998,61
546,947	46452,71
547,146	40636,48
547,345	33411,24
547,544	27293,96
547,743	21776,73
547,942	16206,26
548,141	11493,88
548,34	7135,81
548,539	4233,83
548,738	2595,46
548,937	1931,92
549,135	1243,8
549,334	973,47
549,533	887,45
549,732	703,14
549,931	678,56
550,13	625,31
550,328	610,98
550,527	563,87
550,726	486,05
550,925	508,58
551,123	465,57
551,322	375,46
551,521	518,82
551,72	498,34
551,918	381,6
552,117	441
552,315	443,04
552,514	432,8
552,713	367,27
552,911	424,61
553,11	328,36
553,309	393,89
553,507	324,26
553,706	361,13
553,904	465,57
554,103	418,47
554,301	350,89
554,5	391,84
554,698	418,47
554,897	377,51
555,095	309,93
555,294	318,12
555,492	342,69
555,69	326,31
555,889	346,79
556,087	342,69
556,286	492,2
556,484	445,09
556,682	311,97
556,881	326,31
557,079	281,25
557,277	309,93
557,476	408,23
557,674	383,65
557,872	434,85
558,07	295,59
558,269	289,45
558,467	268,97
558,665	236,2
558,863	305,83
559,062	367,27
559,26	252,58
559,458	88,75
559,656	301,73
559,854	305,83
560,052	268,97
560,25	297,64
560,449	563,87
560,647	293,54
560,845	195,24
561,043	264,87
561,241	352,93
561,439	367,27
561,637	326,31
561,835	264,87
562,033	359,08
562,231	246,44
562,429	361,13
562,627	281,25
562,825	336,55
563,023	346,79
563,221	326,31
563,418	285,35
563,616	309,93
563,814	430,76
564,012	279,21
564,21	393,89
564,408	322,21
564,605	215,72
564,803	338,6
565,001	572,07
565,199	246,44
565,397	397,99
565,594	361,13
565,792	371,37
565,99	252,58
566,188	309,93
566,385	320,17
566,583	334,5
566,781	361,13
566,978	268,97
567,176	416,42
567,373	371,37
567,571	416,42
567,769	441
567,966	197,29
568,164	334,5
568,361	277,16
568,559	385,7
568,756	334,5
568,954	402,08
569,151	383,65
569,349	475,81
569,546	357,03
569,744	412,32
569,941	338,6
570,139	357,03
570,336	301,73
570,534	275,11
570,731	268,97
570,928	285,35
571,126	498,34
571,323	383,65
571,52	318,12
571,718	334,5
571,915	404,13
572,112	275,11
572,31	354,98
572,507	375,46
572,704	297,64
572,901	244,39
573,099	344,74
573,296	359,08
573,493	314,02
573,69	320,17
573,887	354,98
574,085	443,04
574,282	445,09
574,479	404,13
574,676	432,8
574,873	451,24
575,07	441
575,267	596,64
575,464	942,75
575,661	1544,85
575,858	1993,36
576,055	2884,22
576,252	3906,16
576,449	4754,02
576,646	5392,98
576,843	6001,23
577,04	6543,94
577,237	6656,58
577,434	6765,12
577,631	6603,33
577,828	6699,59
578,025	6715,97
578,222	7209,53
578,419	7682,61
578,615	7832,12
578,812	8301,1
579,009	8120,88
579,206	7995,95
579,403	7809,59
579,599	7002,69
579,796	6363,72
579,993	5790,29
580,19	4874,85
580,386	4246,12
580,583	3660,4
580,78	2886,27
580,976	2499,2
581,173	1749,65
581,37	1399,45
581,566	940,7
581,763	629,41
581,96	508,58
582,156	510,63
582,353	406,18
582,549	535,2
582,746	385,7
582,942	424,61
583,139	354,98
583,335	424,61
583,532	486,05
583,728	338,6
583,925	473,76
584,121	395,94
584,318	537,25
584,514	410,28
584,711	424,61
584,907	412,32
585,103	377,51
585,3	324,26
585,496	367,27
585,693	330,41
585,889	328,36
586,085	338,6
586,281	391,84
586,478	391,84
586,674	402,08
586,87	408,23
587,067	371,37
587,263	367,27
587,459	361,13
587,655	424,61
587,851	361,13
588,048	535,2
588,244	289,45
588,44	424,61
588,636	354,98
588,832	459,43
589,028	531,11
589,224	344,74
589,42	365,22
589,617	391,84
589,813	457,38
590,009	434,85
590,205	434,85
590,401	473,76
590,597	363,17
590,793	393,89
590,989	367,27
591,185	391,84
591,38	361,13
591,576	359,08
591,772	350,89
591,968	363,17
592,164	379,56
592,36	367,27
592,556	367,27
592,752	457,38
592,948	385,7
593,143	318,12
593,339	277,16
593,535	336,55
593,731	449,19
593,926	486,05
594,122	375,46
594,318	473,76
594,514	402,08
594,709	240,3
594,905	393,89
595,101	375,46
595,296	400,04
595,492	516,77
595,688	297,64
595,883	475,81
596,079	400,04
596,275	334,5
596,47	336,55
596,666	334,5
596,861	287,4
597,057	279,21
597,252	281,25
597,448	328,36
597,643	408,23
597,839	400,04
598,034	301,73
598,23	309,93
598,425	328,36
598,621	367,27
598,816	408,23
599,011	369,32
599,207	387,75
599,402	432,8
599,597	500,39
599,793	430,76
599,988	379,56
600,183	445,09
600,379	443,04
600,574	400,04
600,769	488,1
600,965	436,9
601,16	361,13
601,355	412,32
601,55	461,48
601,745	424,61
601,941	475,81
602,136	510,63
602,331	342,69
602,526	326,31
602,721	408,23
602,916	285,35
603,111	371,37
603,307	277,16
603,502	391,84
603,697	279,21
603,892	383,65
604,087	346,79
604,282	518,82
604,477	391,84
604,672	348,84
604,867	320,17
605,062	318,12
605,257	400,04
605,452	475,81
605,646	412,32
605,841	348,84
606,036	352,93
606,231	277,16
606,426	363,17
606,621	236,2
606,816	236,2
607,01	445,09
607,205	287,4
607,4	285,35
607,595	344,74
607,79	240,3
607,984	236,2
608,179	221,86
608,374	219,82
608,569	252,58
608,763	228,01
608,958	189,1
609,153	338,6
609,347	240,3
609,542	223,91
609,736	268,97
609,931	271,01
610,126	215,72
610,32	246,44
610,515	182,95
610,709	449,19
610,904	293,54
611,098	129,7
611,293	187,05
611,487	264,87
611,682	158,38
611,876	172,71
612,071	156,33
612,265	279,21
612,46	117,42
612,654	232,1
612,848	121,51
613,043	178,86
613,237	223,91
613,432	195,24
613,626	170,66
613,82	139,94
614,014	260,77
614,209	293,54
614,403	127,66
614,597	203,43
614,792	295,59
614,986	240,3
615,18	279,21
615,374	211,62
615,568	219,82
615,763	264,87
615,957	258,73
616,151	221,86
616,345	285,35
616,539	174,76
616,733	182,95
616,927	230,06
617,121	187,05
617,316	207,53
617,51	221,86
617,704	205,48
617,898	238,25
618,092	215,72
618,286	187,05
618,48	182,95
618,674	273,06
618,868	199,34
619,061	131,75
619,255	213,67
619,449	309,93
619,643	178,86
619,837	305,83
620,031	148,14
620,225	328,36
620,419	146,09
620,612	254,63
620,806	260,77
621	228,01
621,194	189,1
621,388	195,24
621,581	252,58
621,775	187,05
621,969	199,34
622,162	187,05
622,356	195,24
622,55	244,39
622,743	180,9
622,937	238,25
623,131	219,82
623,324	260,77
623,518	172,71
623,712	228,01
623,905	172,71
624,099	246,44
624,292	242,34
624,486	248,49
624,679	178,86
624,873	137,9
625,066	248,49
625,26	207,53
625,453	187,05
625,647	217,77
625,84	238,25
626,034	199,34
626,227	203,43
626,42	273,06
626,614	287,4
626,807	221,86
627	228,01
627,194	170,66
627,387	219,82
627,58	148,14
627,774	199,34
627,967	275,11
628,16	303,78
628,353	264,87
628,547	221,86
628,74	262,82
628,933	174,76
629,126	266,92
629,319	221,86
629,513	244,39
629,706	211,62
629,899	295,59
630,092	248,49
630,285	166,57
630,478	174,76
630,671	170,66
630,864	223,91
631,057	168,62
631,25	301,73
631,443	256,68
631,636	246,44
631,829	299,69
632,022	293,54
632,215	213,67
632,408	187,05
632,601	246,44
632,794	252,58
632,987	139,94
633,18	189,1
633,373	236,2
633,566	146,09
633,758	152,23
633,951	236,2
634,144	305,83
634,337	301,73
634,53	285,35
634,722	322,21
634,915	203,43
635,108	182,95
635,301	219,82
635,493	322,21
635,686	342,69
635,879	244,39
636,071	244,39
636,264	301,73
636,457	359,08
636,649	326,31
636,842	295,59
637,034	481,96
637,227	408,23
637,42	273,06
637,612	320,17
637,805	260,77
637,997	406,18
638,19	268,97
638,382	264,87
638,575	285,35
638,767	361,13
638,96	363,17
639,152	381,6
639,344	426,66
639,537	268,97
639,729	236,2
639,922	209,58
640,114	305,83
640,306	346,79
640,499	326,31
640,691	244,39
640,883	271,01
641,075	219,82
641,268	320,17
641,46	289,45
641,652	180,9
641,844	236,2
642,037	211,62
642,229	252,58
642,421	453,28
642,613	291,49
642,805	344,74
642,998	244,39
643,19	400,04
643,382	463,52
643,574	465,57
643,766	408,23
643,958	441
644,15	377,51
644,342	484
644,534	455,33
644,726	410,28
644,918	481,96
645,11	395,94
645,302	434,85
645,494	514,72
645,686	434,85
645,878	408,23
646,07	426,66
646,262	471,72
646,453	391,84
646,645	340,65
646,837	377,51
647,029	412,32
647,221	428,71
647,413	301,73
647,604	412,32
647,796	428,71
647,988	402,08
648,18	432,8
648,371	318,12
648,563	326,31
648,755	244,39
648,947	248,49
649,138	289,45
649,33	389,8
649,521	344,74
649,713	361,13
649,905	359,08
650,096	361,13
650,288	369,32
650,479	336,55
650,671	361,13
650,863	338,6
651,054	459,43
651,246	461,48
651,437	457,38
651,629	567,97
651,82	506,53
652,011	385,7
652,203	486,05
652,394	535,2
652,586	484
652,777	475,81
652,968	490,15
653,16	395,94
653,351	563,87
653,542	588,45
653,734	385,7
653,925	309,93
654,116	422,56
654,308	473,76
654,499	461,48
654,69	354,98
654,881	383,65
655,073	385,7
655,264	377,51
655,455	391,84
655,646	369,32
655,837	451,24
656,028	334,5
656,219	375,46
656,411	316,07
656,602	408,23
656,793	371,37
656,984	330,41
657,175	430,76
657,366	342,69
657,557	369,32
657,748	342,69
657,939	369,32
658,13	436,9
658,321	467,62
658,512	375,46
658,703	467,62
658,894	498,34
659,084	395,94
659,275	408,23
659,466	492,2
659,657	555,68
659,848	486,05
660,039	475,81
660,23	436,9
660,42	391,84
660,611	565,92
660,802	408,23
660,993	375,46
661,183	506,53
661,374	418,47
661,565	610,98
661,755	395,94
661,946	428,71
662,137	455,33
662,327	400,04
662,518	334,5
662,709	295,59
662,899	230,06
663,09	420,52
663,28	262,82
663,471	260,77
663,662	412,32
663,852	332,45
664,043	309,93
664,233	293,54
664,424	301,73
664,614	244,39
664,804	230,06
664,995	383,65
665,185	273,06
665,376	189,1
665,566	375,46
665,756	318,12
665,947	303,78
666,137	334,5
666,328	484
666,518	371,37
666,708	289,45
666,898	424,61
667,089	326,31
667,279	350,89
667,469	391,84
667,659	385,7
667,85	514,72
668,04	342,69
668,23	350,89
668,42	432,8
668,61	457,38
668,8	326,31
668,991	287,4
669,181	434,85
669,371	389,8
669,561	373,41
669,751	379,56
669,941	391,84
670,131	387,75
670,321	311,97
670,511	316,07
670,701	320,17
670,891	371,37
671,081	301,73
671,271	311,97
671,461	211,62
671,651	238,25
671,841	246,44
672,03	287,4
672,22	213,67
672,41	203,43
672,6	322,21
672,79	170,66
672,98	209,58
673,169	230,06
673,359	162,47
673,549	256,68
673,739	182,95
673,928	211,62
674,118	291,49
674,308	244,39
674,497	303,78
674,687	277,16
674,877	264,87
675,066	303,78
675,256	262,82
675,446	246,44
675,635	279,21
675,825	260,77
676,014	326,31
676,204	281,25
676,393	391,84
676,583	260,77
676,772	354,98
676,962	299,69
677,151	277,16
677,341	281,25
677,53	344,74
677,72	273,06
677,909	344,74
678,099	232,1
678,288	279,21
678,477	326,31
678,667	268,97
678,856	311,97
679,045	281,25
679,235	189,1
679,424	285,35
679,613	330,41
679,802	172,71
679,992	123,56
680,181	107,18
680,37	293,54
680,559	170,66
680,748	230,06
680,938	182,95
681,127	129,7
681,316	141,99
681,505	195,24
681,694	103,08
681,883	182,95
682,072	109,23
682,261	162,47
682,45	88,75
682,639	31,4
682,828	154,28
683,017	221,86
683,206	232,1
683,395	211,62
683,584	176,81
683,773	254,63
683,962	187,05
684,151	49,83
684,34	187,05
684,529	139,94
684,718	172,71
684,907	98,99
685,095	236,2
685,284	268,97
685,473	191,14
685,662	158,38
685,851	211,62
686,039	146,09
686,228	135,85
686,417	51,88
686,606	230,06
686,794	178,86
686,983	105,13
687,172	96,94
687,36	170,66
687,549	80,55
687,738	80,55
687,926	113,32
688,115	170,66
688,303	82,6
688,492	148,14
688,68	60,07
688,869	96,94
689,057	0,68
689,246	80,55
689,434	166,57
689,623	10,92
689,811	174,76
690	174,76
690,188	51,88
690,377	185
690,565	301,73
690,753	236,2
690,942	230,06
691,13	285,35
691,318	182,95
691,507	162,47
691,695	203,43
691,883	154,28
692,072	191,14
692,26	203,43
692,448	164,52
692,636	96,94
692,824	64,17
693,013	211,62
693,201	94,89
693,389	58,03
693,577	94,89
693,765	131,75
693,953	180,9
694,141	141,99
694,329	96,94
694,518	55,98
694,706	78,51
694,894	158,38
695,082	125,61
695,27	86,7
695,458	228,01
695,646	225,96
695,834	271,01
696,022	287,4
696,209	326,31
696,397	322,21
696,585	301,73
696,773	320,17
696,961	236,2
697,149	279,21
697,337	277,16
697,525	266,92
697,712	219,82
697,9	238,25
698,088	232,1
698,276	301,73
698,463	260,77
698,651	168,62
698,839	156,33
699,027	191,14
699,214	228,01
699,402	76,46
699,59	127,66
699,777	195,24
699,965	158,38
700,152	80,55
700,34	98,99
700,528	-9,56
700,715	64,17
700,903	109,23
701,09	113,32
701,278	96,94
701,465	182,95
701,653	72,36
701,84	76,46
702,028	131,75
702,215	115,37
702,402	146,09
702,59	117,42
702,777	156,33
702,965	172,71
703,152	0,68
703,339	154,28
703,527	158,38
703,714	125,61
703,901	49,83
704,088	137,9
704,276	80,55
704,463	82,6
704,65	55,98
704,837	45,74
705,025	64,17
705,212	117,42
705,399	74,41
705,586	146,09
705,773	127,66
705,96	158,38
706,147	154,28
706,335	170,66
706,522	199,34
706,709	187,05
706,896	154,28
707,083	180,9
707,27	101,03
707,457	219,82
707,644	115,37
707,831	215,72
708,018	90,79
708,205	96,94
708,392	164,52
708,578	207,53
708,765	72,36
708,952	113,32
709,139	129,7
709,326	164,52
709,513	135,85
709,7	88,75
709,886	146,09
710,073	207,53
710,26	238,25
710,447	154,28
710,633	129,7
710,82	117,42
711,007	113,32
711,193	166,57
711,38	156,33
711,567	219,82
711,753	137,9
711,94	92,84
712,127	98,99
712,313	172,71
712,5	82,6
712,686	158,38
712,873	141,99
713,059	98,99
713,246	146,09
713,432	166,57
713,619	47,79
713,805	88,75
713,992	172,71
714,178	166,57
714,365	107,18
714,551	219,82
714,737	109,23
714,924	23,21
715,11	180,9
715,297	94,89
715,483	74,41
715,669	164,52
715,855	146,09
716,042	115,37
716,228	64,17
716,414	170,66
716,6	121,51
716,787	70,31
716,973	15,02
717,159	158,38
717,345	113,32
717,531	43,69
717,718	55,98
717,904	121,51
718,09	80,55
718,276	80,55
718,462	113,32
718,648	133,8
718,834	19,11
719,02	168,62
719,206	117,42
719,392	88,75
719,578	74,41
719,764	72,36
719,95	115,37
720,136	234,15
720,322	113,32
720,508	78,51
720,694	92,84
720,879	96,94
721,065	195,24
721,251	207,53
721,437	58,03
721,623	277,16
721,809	201,38
721,994	193,19
722,18	98,99
722,366	117,42
722,552	64,17
722,737	170,66
722,923	246,44
723,109	213,67
723,294	141,99
723,48	260,77
723,666	236,2
723,851	201,38
724,037	230,06
724,222	195,24
724,408	211,62
724,593	187,05
724,779	154,28
724,965	68,27
725,15	221,86
725,336	215,72
725,521	279,21
725,706	166,57
725,892	160,42
726,077	230,06
726,263	195,24
726,448	320,17
726,634	162,47
726,819	295,59
727,004	254,63
727,19	172,71
727,375	377,51
727,56	207,53
727,745	205,48
727,931	195,24
728,116	174,76
728,301	195,24
728,486	203,43
728,672	131,75
728,857	207,53
729,042	141,99
729,227	152,23
729,412	252,58
729,597	105,13
729,783	141,99
729,968	146,09
730,153	207,53
730,338	166,57
730,523	137,9
730,708	117,42
730,893	166,57
731,078	117,42
731,263	221,86
731,448	33,45
731,633	170,66
731,818	158,38
732,003	121,51
732,187	146,09
732,372	53,93
732,557	273,06
732,742	154,28
732,927	176,81
733,112	187,05
733,297	123,56
733,481	209,58
733,666	234,15
733,851	203,43
734,036	148,14
734,22	154,28
734,405	346,79
734,59	162,47
734,774	260,77
734,959	88,75
735,144	289,45
735,328	211,62
735,513	105,13
735,698	193,19
735,882	256,68
736,067	262,82
736,251	246,44
736,436	219,82
736,62	232,1
736,805	139,94
736,989	346,79
737,174	148,14
737,358	156,33
737,543	363,17
737,727	236,2
737,911	400,04
738,096	303,78
738,28	424,61
738,465	271,01
738,649	344,74
738,833	334,5
739,018	252,58
739,202	232,1
739,386	207,53
739,57	193,19
739,755	268,97
739,939	301,73
740,123	154,28
740,307	203,43
740,491	248,49
740,676	60,07
740,86	197,29
741,044	174,76
741,228	162,47
741,412	162,47
741,596	139,94
741,78	47,79
741,964	156,33
742,148	133,8
742,332	123,56
742,516	111,27
742,7	162,47
742,884	170,66
743,068	72,36
743,252	191,14
743,436	170,66
743,62	115,37
743,804	277,16
743,988	262,82
744,172	191,14
744,356	148,14
744,539	203,43
744,723	189,1
744,907	185
745,091	213,67
745,275	260,77
745,458	301,73
745,642	291,49
745,826	330,41
746,009	264,87
746,193	309,93
746,377	318,12
746,56	318,12
746,744	391,84
746,928	232,1
747,111	342,69
747,295	248,49
747,478	338,6
747,662	248,49
747,846	326,31
748,029	381,6
748,213	322,21
748,396	305,83
748,58	328,36
748,763	350,89
748,946	248,49
749,13	260,77
749,313	309,93
749,497	383,65
749,68	361,13
749,863	287,4
750,047	254,63
750,23	391,84
750,413	428,71
750,597	484
750,78	252,58
750,963	506,53
751,146	367,27
751,33	441
751,513	393,89
751,696	383,65
751,879	318,12
752,062	215,72
752,246	311,97
752,429	295,59
752,612	273,06
752,795	268,97
752,978	205,48
753,161	146,09
753,344	170,66
753,527	182,95
753,71	137,9
753,893	148,14
754,076	107,18
754,259	203,43
754,442	88,75
754,625	72,36
754,808	268,97
754,991	90,79
755,174	121,51
755,357	88,75
755,539	109,23
755,722	230,06
755,905	129,7
756,088	137,9
756,271	80,55
756,453	277,16
756,636	27,31
756,819	246,44
757,002	137,9
757,184	225,96
757,367	268,97
757,55	203,43
757,732	293,54
757,915	189,1
758,098	154,28
758,28	219,82
758,463	185
758,645	285,35
758,828	262,82
759,011	301,73
759,193	180,9
759,376	320,17
759,558	195,24
759,741	187,05
759,923	234,15
760,105	193,19
760,288	205,48
760,47	129,7
760,653	205,48
760,835	301,73
761,017	223,91
761,2	228,01
761,382	283,3
761,564	293,54
761,747	268,97
761,929	146,09
762,111	119,46
762,294	361,13
762,476	481,96
762,658	551,59
762,84	645,79
763,022	744,1
763,205	879,26
763,387	989,85
763,569	928,41
763,751	842,4
763,933	830,11
764,115	662,18
764,297	744,1
764,479	637,6
764,661	576,16
764,843	590,5
765,025	473,76
765,207	326,31
765,389	330,41
765,571	279,21
765,753	379,56
765,935	334,5
766,117	244,39
766,299	475,81
766,481	400,04
766,663	205,48
766,845	234,15
767,026	164,52
767,208	180,9
767,39	154,28
767,572	39,59
767,753	191,14
767,935	64,17
768,117	109,23
768,299	219,82
768,48	236,2
768,662	187,05
768,844	123,56
769,025	338,6
769,207	211,62
769,389	187,05
769,57	109,23
769,752	254,63
769,933	221,86
770,115	238,25
770,296	187,05
770,478	293,54
770,659	172,71
770,841	357,03
771,022	230,06
771,204	281,25
771,385	258,73
771,567	365,22
771,748	516,77
771,929	344,74
772,111	506,53
772,292	567,97
772,473	492,2
772,655	539,3
772,836	420,52
773,017	572,07
773,199	500,39
773,38	451,24
773,561	371,37
773,742	215,72
773,923	303,78
774,105	400,04
774,286	289,45
774,467	248,49
774,648	260,77
774,829	252,58
775,01	213,67
775,191	178,86
775,372	131,75
775,553	271,01
775,734	129,7
775,915	55,98
776,096	195,24
776,277	244,39
776,458	303,78
776,639	400,04
776,82	688,8
777,001	625,31
777,182	746,14
777,363	754,34
777,544	625,31
777,725	748,19
777,906	641,7
778,086	531,11
778,267	459,43
778,448	318,12
778,629	275,11
778,809	221,86
778,99	162,47
779,171	139,94
779,352	191,14
779,532	146,09
779,713	152,23
779,894	113,32
780,074	232,1
780,255	209,58
780,435	187,05
780,616	148,14
780,797	178,86
780,977	58,03
781,158	31,4
781,338	107,18
781,519	105,13
781,699	271,01
781,88	27,31
782,06	55,98
782,241	19,11
782,421	-1,37
782,601	98,99
782,782	80,55
782,962	98,99
783,142	35,5
783,323	51,88
783,503	92,84
783,683	121,51
783,864	111,27
784,044	47,79
784,224	182,95
784,404	125,61
784,585	117,42
784,765	88,75
784,945	182,95
785,125	88,75
785,305	92,84
785,485	148,14
785,666	141,99
785,846	80,55
786,026	121,51
786,206	58,03
786,386	170,66
786,566	70,31
786,746	121,51
786,926	113,32
787,106	29,35
787,286	125,61
787,466	72,36
787,646	129,7
787,826	96,94
788,006	217,77
788,185	178,86
788,365	47,79
788,545	240,3
788,725	137,9
788,905	195,24
789,085	74,41
789,264	98,99
789,444	219,82
789,624	90,79
789,804	105,13
789,983	103,08
790,163	96,94
790,343	72,36
790,522	133,8
790,702	0,68
790,882	29,35
791,061	154,28
791,241	105,13
791,42	64,17
791,6	166,57
791,78	92,84
791,959	64,17
792,139	31,4
792,318	0,68
792,498	154,28
792,677	66,22
792,856	66,22
793,036	82,6
793,215	129,7
793,395	137,9
793,574	60,07
793,753	107,18
793,933	187,05
794,112	264,87
794,291	203,43
794,471	293,54
794,65	178,86
794,829	213,67
795,008	213,67
795,188	309,93
795,367	209,58
795,546	137,9
795,725	150,18
795,904	127,66
796,084	129,7
796,263	117,42
796,442	178,86
796,621	131,75
796,8	148,14
796,979	221,86
797,158	15,02
797,337	115,37
797,516	178,86
797,695	205,48
797,874	101,03
798,053	187,05
798,232	-1,37
798,411	6,83
798,59	37,55
798,769	-71
798,947	115,37
799,126	154,28
799,305	88,75
799,484	66,22
799,663	58,03
799,842	137,9
800,02	154,28
800,199	92,84
800,378	174,76
800,557	162,47
800,735	72,36
800,914	187,05
801,093	260,77
801,271	248,49
801,45	273,06
801,628	273,06
801,807	170,66
801,986	256,68
802,164	115,37
802,343	6,83
802,521	35,5
802,7	150,18
802,878	228,01
803,057	86,7
803,235	205,48
803,414	166,57
803,592	133,8
803,771	74,41
803,949	68,27
804,127	80,55
804,306	174,76
804,484	47,79
804,662	80,55
804,841	-1,37
805,019	101,03
805,197	88,75
805,375	72,36
805,554	31,4
805,732	-25,94
805,91	55,98
806,088	35,5
806,266	-42,32
806,445	-38,23
806,623	60,07
806,801	162,47
806,979	90,79
807,157	19,11
807,335	-9,56
807,513	27,31
807,691	55,98
807,869	31,4
808,047	64,17
808,225	-21,84
808,403	23,21
808,581	8,87
808,759	203,43
808,937	101,03
809,115	66,22
809,293	150,18
809,471	72,36
809,649	211,62
809,826	254,63
810,004	213,67
810,182	129,7
810,36	223,91
810,538	342,69
810,715	361,13
810,893	371,37
811,071	541,35
811,248	653,98
811,426	615,07
811,604	582,31
811,781	631,46
811,959	465,57
812,137	334,5
812,314	289,45
812,492	359,08
812,669	285,35
812,847	187,05
813,024	166,57
813,202	244,39
813,379	213,67
813,557	180,9
813,734	219,82
813,912	219,82
814,089	98,99
814,267	207,53
814,444	172,71
814,621	127,66
814,799	117,42
814,976	256,68
815,153	197,29
815,331	64,17
815,508	113,32
815,685	8,87
815,862	111,27
816,04	-19,8
816,217	41,64
816,394	92,84
816,571	64,17
816,748	230,06
816,926	141,99
817,103	350,89
817,28	19,11
817,457	19,11
817,634	123,56
817,811	-42,32
817,988	19,11
818,165	55,98
818,342	51,88
818,519	35,5
818,696	10,92
818,873	-1,37
819,05	133,8
819,227	19,11
819,404	-38,23
819,581	15,02
819,758	58,03
819,934	66,22
820,111	23,21
820,288	12,97
820,465	49,83
820,642	55,98
820,818	64,17
820,995	-17,75
821,172	76,46
821,349	41,64
821,525	39,59
821,702	72,36
821,879	-56,66
822,055	-34,13
822,232	12,97
822,409	47,79
822,585	178,86
822,762	35,5
822,938	2,73
823,115	82,6
823,291	17,07
823,468	178,86
823,644	58,03
823,821	19,11
823,997	-9,56
824,174	49,83
824,35	6,83
824,527	96,94
824,703	19,11
824,879	-5,46
825,056	-7,51
825,232	141,99
825,408	-5,46
825,585	86,7
825,761	66,22
825,937	41,64
826,113	195,24
826,29	139,94
826,466	35,5
826,642	514,72
826,818	113,32
826,994	109,23
827,17	23,21
827,347	96,94
827,523	49,83
827,699	127,66
827,875	72,36
828,051	76,46
828,227	33,45
828,403	154,28
828,579	76,46
828,755	74,41
828,931	131,75
829,107	135,85
829,283	162,47
829,459	47,79
829,635	29,35
829,811	74,41
829,986	113,32
830,162	39,59
830,338	121,51
830,514	-34,13
830,69	15,02
830,865	70,31
831,041	55,98
831,217	43,69
831,393	-38,23
831,568	-99,67
831,744	113,32
831,92	19,11
832,095	0,68
832,271	-64,85
832,447	29,35
832,622	39,59
832,798	25,26
832,973	105,13
833,149	154,28
833,325	19,11
833,5	0,68
833,676	25,26
833,851	74,41
834,027	45,74
834,202	58,03
834,377	154,28
834,553	39,59
834,728	125,61
834,904	107,18
835,079	-1,37
835,254	33,45
835,43	64,17
835,605	51,88
835,78	47,79
835,955	58,03
836,131	15,02
836,306	-73,04
836,481	-1,37
836,656	55,98
836,832	86,7
837,007	-42,32
837,182	-50,52
837,357	-1,37
837,532	6,83
837,707	-23,89
837,882	170,66
838,057	49,83
838,232	146,09
838,407	66,22
838,582	6,83
838,757	76,46
838,932	137,9
839,107	90,79
839,282	0,68
839,457	92,84
839,632	125,61
839,807	49,83
839,982	2,73
840,157	113,32
840,332	113,32
840,506	64,17
840,681	103,08
840,856	80,55
841,031	-25,94
841,205	72,36
841,38	164,52
841,555	205,48
841,73	139,94
841,904	131,75
842,079	221,86
842,254	273,06
842,428	158,38
842,603	115,37
842,777	8,87
842,952	193,19
843,126	58,03
843,301	174,76
843,476	141,99
843,65	117,42
843,825	228,01
843,999	279,21
844,173	139,94
844,348	164,52
844,522	199,34
844,697	187,05
844,871	113,32
845,045	195,24
845,22	88,75
845,394	199,34
845,568	80,55
845,743	174,76
845,917	88,75
846,091	144,04
846,265	88,75
846,44	88,75
846,614	101,03
846,788	139,94
846,962	58,03
847,136	137,9
847,31	-38,23
847,485	174,76
847,659	43,69
847,833	80,55
848,007	72,36
848,181	47,79
848,355	39,59
848,529	15,02
848,703	88,75
848,877	39,59
849,051	121,51
849,225	74,41
849,399	-7,51
849,573	-32,08
849,746	-58,71
849,92	-9,56
850,094	60,07
850,268	39,59
850,442	135,85
850,616	-42,32
850,789	33,45
850,963	51,88
851,137	25,26
851,311	203,43
851,484	105,13
851,658	105,13
851,832	-50,52
852,005	64,17
852,179	45,74
852,352	31,4
852,526	25,26
852,7	109,23
852,873	-34,13
853,047	101,03
853,22	55,98
853,394	180,9
853,567	109,23
853,741	-3,41
853,914	-7,51
854,088	129,7
854,261	41,64
854,434	-17,75
854,608	31,4
854,781	-25,94
854,955	96,94
855,128	141,99
855,301	76,46
855,475	80,55
855,648	92,84
855,821	33,45
855,994	135,85
856,168	80,55
856,341	82,6
856,514	-38,23
856,687	-5,46
856,86	23,21
857,033	121,51
857,207	0,68
857,38	0,68
857,553	156,33
857,726	-15,7
857,899	111,27
858,072	31,4
858,245	27,31
858,418	55,98
858,591	-40,28
858,764	49,83
858,937	39,59
859,11	123,56
859,283	15,02
859,455	55,98
859,628	55,98
859,801	98,99
859,974	172,71
860,147	0,68
860,32	47,79
860,492	49,83
860,665	-38,23
860,838	162,47
861,011	41,64
861,183	164,52
861,356	131,75
861,529	96,94
861,701	0,68
861,874	37,55
862,047	68,27
862,219	43,69
862,392	76,46
862,564	51,88
862,737	31,4
862,909	180,9
863,082	6,83
863,254	90,79
863,427	39,59
863,599	141,99
863,772	-21,84
863,944	123,56
864,117	121,51
864,289	92,84
864,461	27,31
864,634	49,83
864,806	58,03
864,978	66,22
865,151	47,79
865,323	170,66
865,495	90,79
865,667	74,41
865,84	246,44
866,012	-42,32
866,184	25,26
866,356	-5,46
866,528	80,55
866,7	55,98
866,873	49,83
867,045	98,99
867,217	49,83
867,389	98,99
867,561	21,16
867,733	80,55
867,905	-21,84
868,077	58,03
868,249	129,7
868,421	107,18
868,593	72,36
868,765	150,18
868,936	62,12
869,108	41,64
869,28	141,99
869,452	27,31
869,624	-15,7
869,796	121,51
869,968	72,36
870,139	201,38
870,311	6,83
870,483	129,7
870,654	-1,37
870,826	107,18
870,998	-25,94
871,17	127,66
871,341	47,79
871,513	72,36
871,684	0,68
871,856	84,65
872,028	158,38
872,199	37,55
872,371	-36,18
872,542	43,69
872,714	6,83
872,885	115,37
873,057	80,55
873,228	107,18
873,4	86,7
873,571	164,52
873,742	15,02
873,914	88,75
874,085	92,84
874,256	92,84
874,428	-40,28
874,599	51,88
874,77	168,62
874,942	43,69
875,113	84,65
875,284	-73,04
875,455	23,21
875,626	64,17
875,798	4,78
875,969	115,37
876,14	64,17
876,311	156,33
876,482	90,79
876,653	60,07
876,824	170,66
876,995	15,02
877,166	113,32
877,337	41,64
877,508	39,59
877,679	-13,65
877,85	-30,04
878,021	23,21
878,192	47,79
878,363	-15,7
878,534	72,36
878,705	-15,7
878,876	117,42
879,047	98,99
879,217	-58,71
879,388	64,17
879,559	31,4
879,73	101,03
879,9	-44,37
880,071	82,6
880,242	123,56
880,413	49,83
880,583	43,69
880,754	15,02
880,924	37,55
881,095	47,79
881,266	6,83
881,436	82,6
881,607	156,33
881,777	35,5
881,948	-9,56
882,118	121,51
882,289	80,55
882,459	66,22
882,63	41,64
882,8	-42,32
882,971	105,13
883,141	107,18
883,311	96,94
883,482	123,56
883,652	64,17
883,822	60,07
883,993	55,98
884,163	86,7
884,333	17,07
884,504	135,85
884,674	74,41
884,844	131,75
885,014	-38,23
885,184	23,21
885,355	-15,7
885,525	-15,7
885,695	158,38
885,865	154,28
886,035	23,21
886,205	39,59
886,375	66,22
886,545	105,13
886,715	6,83
886,885	55,98
887,055	58,03
887,225	-5,46
887,395	35,5
887,565	203,43
887,735	49,83
887,905	60,07
888,075	15,02
888,244	105,13
888,414	84,65
888,584	47,79
888,754	49,83
888,924	49,83
889,093	187,05
889,263	43,69
889,433	64,17
889,603	58,03
889,772	98,99
889,942	109,23
890,111	121,51
890,281	37,55
890,451	64,17
890,62	58,03
890,79	84,65
890,959	80,55
891,129	64,17
891,298	115,37
891,468	72,36
891,637	80,55
891,807	47,79
891,976	107,18
892,146	47,79
892,315	45,74
892,485	107,18
892,654	12,97
892,823	-7,51
892,993	49,83
893,162	37,55
893,331	4,78
893,501	43,69
893,67	109,23
893,839	64,17
894,008	58,03
894,177	60,07
894,347	31,4
894,516	113,32
894,685	64,17
894,854	-54,61
895,023	105,13
895,192	-9,56
