Data from mercure_USB4F104161__6__11-31-53-132.txt Node

Date: Tue Apr 14 11:31:53 EDT 2026
User: LaboPhy
Spectrometer: USB4F10416
Trigger mode: 4
Integration Time (sec): 1,000000E-1
Scans to average: 1
Electric dark correction enabled: true
Nonlinearity correction enabled: false
Boxcar width: 0
XAxis mode: Wavelengths
Number of Pixels in Spectrum: 3648
>>>>>Begin Spectral Data<<<<<
177,847	-102,91
178,066	-102,91
178,284	-102,91
178,502	-254,46
178,72	-164,35
178,939	46,59
179,157	7,68
179,375	5,63
179,593	36,35
179,812	19,97
180,03	11,78
180,248	36,35
180,466	7,68
180,685	36,35
180,903	-96,77
181,121	-76,29
181,339	-35,33
181,557	-2,56
181,775	42,5
181,994	38,4
182,212	-16,9
182,43	30,21
182,648	-16,9
182,866	19,97
183,084	130,56
183,302	-8,7
183,52	3,58
183,739	38,4
183,957	165,37
184,175	48,64
184,393	3,58
184,611	85,5
184,829	44,54
185,047	5,63
185,265	142,85
185,483	38,4
185,701	36,35
185,919	71,17
186,137	77,31
186,355	103,93
186,573	110,08
186,791	151,04
187,009	15,87
187,227	60,93
187,445	3,58
187,663	30,21
187,881	-29,18
188,098	36,35
188,316	112,13
188,534	128,51
188,752	19,97
188,97	22,02
189,188	-10,75
189,406	134,65
189,624	93,69
189,841	32,26
190,059	-14,85
190,277	9,73
190,495	36,35
190,713	77,31
190,931	216,57
191,148	93,69
191,366	44,54
191,584	58,88
191,802	126,46
192,019	110,08
192,237	69,12
192,455	44,54
192,673	108,03
192,89	54,78
193,108	60,93
193,326	28,16
193,543	118,27
193,761	73,21
193,979	56,83
194,196	38,4
194,414	56,83
194,632	95,74
194,849	22,02
195,067	-37,38
195,285	71,17
195,502	-49,66
195,72	-6,66
195,937	-25,09
196,155	11,78
196,373	-12,8
196,59	26,11
196,808	30,21
197,025	54,78
197,243	278,01
197,46	60,93
197,678	114,17
197,895	85,5
198,113	36,35
198,33	-2,56
198,548	11,78
198,765	-29,18
198,983	60,93
199,2	-43,52
199,418	36,35
199,635	62,98
199,853	-4,61
200,07	75,26
200,288	11,78
200,505	36,35
200,722	95,74
200,94	91,65
201,157	-4,61
201,375	89,6
201,592	15,87
201,809	87,55
202,027	110,08
202,244	54,78
202,461	58,88
202,679	56,83
202,896	28,16
203,113	-33,28
203,331	48,64
203,548	36,35
203,765	77,31
203,982	142,85
204,2	40,45
204,417	-4,61
204,634	169,47
204,851	71,17
205,069	103,93
205,286	48,64
205,503	36,35
205,72	58,88
205,937	87,55
206,155	62,98
206,372	148,99
206,589	48,64
206,806	73,21
207,023	22,02
207,24	44,54
207,458	19,97
207,675	-18,94
207,892	28,16
208,109	67,07
208,326	83,45
208,543	-2,56
208,76	15,87
208,977	118,27
209,194	85,5
209,411	87,55
209,628	77,31
209,845	30,21
210,062	11,78
210,279	-102,91
210,496	19,97
210,713	-29,18
210,93	-0,51
211,147	151,04
211,364	-57,86
211,581	38,4
211,798	87,55
212,015	-12,8
212,232	79,36
212,449	11,78
212,666	40,45
212,883	93,69
213,1	65,02
213,317	-33,28
213,533	30,21
213,75	7,68
213,967	48,64
214,184	19,97
214,401	97,79
214,618	-39,42
214,835	79,36
215,051	52,74
215,268	101,89
215,485	85,5
215,702	15,87
215,919	-25,09
216,135	239,1
216,352	-10,75
216,569	46,59
216,786	60,93
217,002	19,97
217,219	87,55
217,436	-18,94
217,652	13,82
217,869	65,02
218,086	126,46
218,302	22,02
218,519	97,79
218,736	46,59
218,952	19,97
219,169	65,02
219,386	36,35
219,602	-29,18
219,819	87,55
220,036	-49,66
220,252	126,46
220,469	-33,28
220,685	124,41
220,902	105,98
221,118	24,06
221,335	40,45
221,552	-8,7
221,768	11,78
221,985	-18,94
222,201	93,69
222,418	13,82
222,634	46,59
222,851	48,64
223,067	144,89
223,284	28,16
223,5	-12,8
223,716	52,74
223,933	-2,56
224,149	5,63
224,366	79,36
224,582	-18,94
224,799	7,68
225,015	-2,56
225,231	3,58
225,448	-20,99
225,664	110,08
225,88	15,87
226,097	167,42
226,313	7,68
226,529	60,93
226,746	40,45
226,962	36,35
227,178	65,02
227,395	5,63
227,611	34,3
227,827	3,58
228,044	-8,7
228,26	93,69
228,476	52,74
228,692	101,89
228,909	151,04
229,125	17,92
229,341	65,02
229,557	28,16
229,773	-70,14
229,99	87,55
230,206	22,02
230,422	60,93
230,638	40,45
230,854	3,58
231,07	-27,14
231,286	97,79
231,503	101,89
231,719	28,16
231,935	-4,61
232,151	3,58
232,367	103,93
232,583	110,08
232,799	85,5
233,015	85,5
233,231	38,4
233,447	-31,23
233,663	30,21
233,879	7,68
234,095	11,78
234,311	112,13
234,527	15,87
234,743	87,55
234,959	71,17
235,175	24,06
235,391	-74,24
235,607	56,83
235,823	15,87
236,039	-10,75
236,255	-29,18
236,471	69,12
236,687	52,74
236,903	54,78
237,118	58,88
237,334	19,97
237,55	24,06
237,766	-53,76
237,982	122,37
238,198	85,5
238,413	46,59
238,629	93,69
238,845	-4,61
239,061	22,02
239,277	-70,14
239,492	-27,14
239,708	81,41
239,924	19,97
240,14	46,59
240,355	192
240,571	19,97
240,787	3,58
241,003	118,27
241,218	-2,56
241,434	28,16
241,65	85,5
241,865	77,31
242,081	30,21
242,297	-53,76
242,512	32,26
242,728	46,59
242,944	32,26
243,159	60,93
243,375	-14,85
243,59	36,35
243,806	5,63
244,022	28,16
244,237	62,98
244,453	46,59
244,668	103,93
244,884	167,42
245,099	13,82
245,315	118,27
245,53	132,61
245,746	77,31
245,961	85,5
246,177	28,16
246,392	116,22
246,608	134,65
246,823	89,6
247,039	-31,23
247,254	40,45
247,47	89,6
247,685	48,64
247,9	11,78
248,116	3,58
248,331	71,17
248,547	19,97
248,762	-0,51
248,977	95,74
249,193	81,41
249,408	13,82
249,623	105,98
249,839	-0,51
250,054	-86,53
250,269	11,78
250,485	-12,8
250,7	-33,28
250,915	81,41
251,13	110,08
251,346	77,31
251,561	140,8
251,776	181,76
251,991	-53,76
252,207	134,65
252,422	44,54
252,637	-23,04
252,852	7,68
253,067	56,83
253,283	24,06
253,498	28,16
253,713	60,93
253,928	-8,7
254,143	-57,86
254,358	60,93
254,573	19,97
254,788	13,82
255,004	44,54
255,219	-10,75
255,434	36,35
255,649	-35,33
255,864	120,32
256,079	-2,56
256,294	13,82
256,509	69,12
256,724	40,45
256,939	-25,09
257,154	42,5
257,369	75,26
257,584	128,51
257,799	-10,75
258,014	19,97
258,229	93,69
258,444	36,35
258,659	54,78
258,874	87,55
259,089	159,23
259,304	52,74
259,518	-4,61
259,733	-12,8
259,948	46,59
260,163	118,27
260,378	89,6
260,593	5,63
260,808	69,12
261,022	34,3
261,237	69,12
261,452	50,69
261,667	-18,94
261,882	85,5
262,096	134,65
262,311	124,41
262,526	-37,38
262,741	1,54
262,955	-53,76
263,17	71,17
263,385	28,16
263,6	3,58
263,814	-53,76
264,029	44,54
264,244	58,88
264,458	5,63
264,673	36,35
264,888	101,89
265,102	95,74
265,317	28,16
265,532	-8,7
265,746	79,36
265,961	48,64
266,175	46,59
266,39	60,93
266,605	-92,67
266,819	-18,94
267,034	97,79
267,248	-61,95
267,463	44,54
267,677	15,87
267,892	60,93
268,106	-45,57
268,321	34,3
268,535	118,27
268,75	122,37
268,964	38,4
269,179	85,5
269,393	36,35
269,608	120,32
269,822	-74,24
270,036	-51,71
270,251	13,82
270,465	-18,94
270,68	5,63
270,894	-4,61
271,108	146,94
271,323	167,42
271,537	42,5
271,752	77,31
271,966	32,26
272,18	-45,57
272,394	3,58
272,609	108,03
272,823	5,63
273,037	-12,8
273,252	38,4
273,466	-39,42
273,68	114,17
273,894	110,08
274,109	11,78
274,323	110,08
274,537	81,41
274,751	-27,14
274,966	77,31
275,18	3,58
275,394	3,58
275,608	-43,52
275,822	-45,57
276,036	13,82
276,25	122,37
276,465	22,02
276,679	77,31
276,893	19,97
277,107	85,5
277,321	7,68
277,535	105,98
277,749	67,07
277,963	134,65
278,177	-127,49
278,391	71,17
278,605	7,68
278,819	97,79
279,033	-25,09
279,247	46,59
279,461	71,17
279,675	-12,8
279,889	87,55
280,103	81,41
280,317	138,75
280,531	-35,33
280,745	-37,38
280,959	-16,9
281,173	44,54
281,387	24,06
281,601	73,21
281,815	40,45
282,029	3,58
282,242	22,02
282,456	19,97
282,67	40,45
282,884	17,92
283,098	28,16
283,312	54,78
283,525	52,74
283,739	95,74
283,953	19,97
284,167	36,35
284,381	42,5
284,594	-10,75
284,808	15,87
285,022	-2,56
285,235	65,02
285,449	44,54
285,663	103,93
285,877	28,16
286,09	28,16
286,304	110,08
286,518	24,06
286,731	-29,18
286,945	46,59
287,159	-37,38
287,372	-0,51
287,586	-12,8
287,799	44,54
288,013	3,58
288,227	-25,09
288,44	327,16
288,654	69,12
288,867	69,12
289,081	24,06
289,294	54,78
289,508	120,32
289,721	-45,57
289,935	60,93
290,148	77,31
290,362	151,04
290,575	52,74
290,789	60,93
291,002	19,97
291,216	85,5
291,429	15,87
291,643	71,17
291,856	73,21
292,069	-53,76
292,283	-66,05
292,496	69,12
292,71	165,37
292,923	36,35
293,136	46,59
293,35	58,88
293,563	-4,61
293,776	28,16
293,99	24,06
294,203	-8,7
294,416	15,87
294,63	65,02
294,843	71,17
295,056	58,88
295,269	69,12
295,483	-68,09
295,696	126,46
295,909	30,21
296,122	120,32
296,335	112,13
296,549	110,08
296,762	65,02
296,975	79,36
297,188	50,69
297,401	95,74
297,615	151,04
297,828	-4,61
298,041	142,85
298,254	-12,8
298,467	44,54
298,68	-16,9
298,893	-0,51
299,106	81,41
299,319	81,41
299,532	13,82
299,745	36,35
299,958	-2,56
300,171	-12,8
300,384	28,16
300,598	-109,05
300,81	93,69
301,023	-4,61
301,236	7,68
301,449	93,69
301,662	9,73
301,875	89,6
302,088	62,98
302,301	62,98
302,514	28,16
302,727	105,98
302,94	-33,28
303,153	22,02
303,366	97,79
303,579	28,16
303,791	52,74
304,004	28,16
304,217	79,36
304,43	87,55
304,643	28,16
304,855	19,97
305,068	142,85
305,281	144,89
305,494	103,93
305,707	19,97
305,919	134,65
306,132	-16,9
306,345	22,02
306,558	142,85
306,77	34,3
306,983	54,78
307,196	71,17
307,408	71,17
307,621	136,7
307,834	81,41
308,046	-20,99
308,259	30,21
308,472	103,93
308,684	85,5
308,897	44,54
309,109	3,58
309,322	-4,61
309,535	97,79
309,747	185,85
309,96	101,89
310,172	175,61
310,385	208,38
310,597	32,26
310,81	130,56
311,022	101,89
311,235	161,28
311,447	273,92
311,66	357,88
311,872	601,59
312,085	601,59
312,297	693,75
312,51	855,54
312,722	1109,49
312,934	1117,68
313,147	1109,49
313,359	1076,72
313,572	1043,95
313,784	888,31
313,996	728,56
314,209	568,82
314,421	351,74
314,633	310,78
314,846	216,57
315,058	171,52
315,27	161,28
315,483	54,78
315,695	93,69
315,907	114,17
316,119	99,84
316,332	122,37
316,544	220,67
316,756	13,82
316,968	52,74
317,181	69,12
317,393	54,78
317,605	116,22
317,817	144,89
318,029	151,04
318,241	120,32
318,454	103,93
318,666	85,5
318,878	11,78
319,09	44,54
319,302	183,81
319,514	159,23
319,726	93,69
319,938	165,37
320,15	126,46
320,362	159,23
320,574	-16,9
320,786	48,64
320,999	3,58
321,211	118,27
321,423	56,83
321,635	28,16
321,847	128,51
322,058	69,12
322,27	97,79
322,482	175,61
322,694	60,93
322,906	56,83
323,118	130,56
323,33	175,61
323,542	19,97
323,754	13,82
323,966	-78,33
324,178	97,79
324,389	52,74
324,601	153,09
324,813	15,87
325,025	69,12
325,237	60,93
325,449	101,89
325,66	97,79
325,872	52,74
326,084	67,07
326,296	46,59
326,507	65,02
326,719	155,13
326,931	44,54
327,143	114,17
327,354	153,09
327,566	126,46
327,778	179,71
327,989	183,81
328,201	103,93
328,413	85,5
328,624	194,05
328,836	126,46
329,048	65,02
329,259	101,89
329,471	159,23
329,682	120,32
329,894	87,55
330,106	-18,94
330,317	114,17
330,529	118,27
330,74	54,78
330,952	62,98
331,163	105,98
331,375	134,65
331,586	136,7
331,798	97,79
332,009	73,21
332,221	169,47
332,432	216,57
332,644	167,42
332,855	118,27
333,067	200,19
333,278	179,71
333,489	347,64
333,701	230,91
333,912	265,72
334,124	372,22
334,335	296,44
334,546	347,64
334,758	437,75
334,969	617,97
335,18	468,47
335,392	505,34
335,603	495,1
335,814	509,43
336,025	323,07
336,237	392,7
336,448	486,9
336,659	497,14
336,87	548,34
337,082	540,15
337,293	419,32
337,504	343,55
337,715	259,58
337,926	230,91
338,138	290,3
338,349	267,77
338,56	245,24
338,771	237,05
338,982	108,03
339,193	175,61
339,404	181,76
339,616	194,05
339,827	226,81
340,038	167,42
340,249	118,27
340,46	103,93
340,671	153,09
340,882	167,42
341,093	169,47
341,304	95,74
341,515	52,74
341,726	62,98
341,937	112,13
342,148	128,51
342,359	65,02
342,57	128,51
342,781	210,43
342,992	85,5
343,203	93,69
343,414	161,28
343,624	110,08
343,835	134,65
344,046	136,7
344,257	142,85
344,468	95,74
344,679	71,17
344,89	36,35
345,1	95,74
345,311	114,17
345,522	126,46
345,733	155,13
345,944	155,13
346,154	185,85
346,365	210,43
346,576	130,56
346,787	165,37
346,997	114,17
347,208	155,13
347,419	69,12
347,629	110,08
347,84	251,39
348,051	163,33
348,261	208,38
348,472	52,74
348,683	126,46
348,893	89,6
349,104	167,42
349,315	126,46
349,525	216,57
349,736	224,76
349,946	120,32
350,157	202,24
350,368	253,44
350,578	138,75
350,789	224,76
350,999	208,38
351,21	228,86
351,42	112,13
351,631	163,33
351,841	134,65
352,052	241,15
352,262	253,44
352,472	243,2
352,683	247,29
352,893	325,12
353,104	286,2
353,314	445,95
353,525	761,33
353,735	351,74
353,945	282,11
354,156	245,24
354,366	232,96
354,576	341,5
354,787	259,58
354,997	177,66
355,207	202,24
355,418	273,92
355,628	237,05
355,838	323,07
356,048	318,97
356,259	523,77
356,469	454,14
356,679	407,03
356,889	593,4
357,1	425,47
357,31	484,86
357,52	517,62
357,73	495,1
357,94	495,1
358,15	394,75
358,361	433,66
358,571	290,3
358,781	396,79
358,991	183,81
359,201	333,31
359,411	273,92
359,621	169,47
359,831	290,3
360,041	325,12
360,251	218,62
360,461	171,52
360,672	159,23
360,882	171,52
361,092	163,33
361,302	265,72
361,512	245,24
361,721	230,91
361,931	249,34
362,141	243,2
362,351	253,44
362,561	343,55
362,771	462,33
362,981	982,51
363,191	1306,09
363,401	2330,08
363,611	3208,66
363,821	4386,24
364,03	5811,62
364,24	7372,18
364,45	8869,24
364,66	11734,35
364,87	13299
365,08	14259,49
365,289	14671,14
365,499	14216,49
365,709	12139,85
365,919	10278,24
366,128	8048,01
366,338	6851,99
366,548	5338,54
366,758	4445,63
366,967	3462,6
367,177	2723,29
367,387	1752,55
367,596	1234,41
367,806	888,31
368,016	724,47
368,225	546,3
368,435	472,57
368,644	314,88
368,854	255,48
369,064	251,39
369,273	235
369,483	331,26
369,692	255,48
369,902	265,72
370,111	294,4
370,321	286,2
370,53	245,24
370,74	298,49
370,949	316,92
371,159	312,83
371,368	372,22
371,578	380,41
371,787	269,82
371,997	200,19
372,206	265,72
372,416	255,48
372,625	249,34
372,834	259,58
373,044	232,96
373,253	392,7
373,462	333,31
373,672	237,05
373,881	407,03
374,09	325,12
374,3	361,98
374,509	388,6
374,718	368,12
374,928	503,29
375,137	443,9
375,346	396,79
375,555	437,75
375,765	404,99
375,974	273,92
376,183	382,46
376,392	269,82
376,601	284,16
376,811	423,42
377,02	333,31
377,229	302,59
377,438	331,26
377,647	249,34
377,856	179,71
378,065	251,39
378,275	333,31
378,484	294,4
378,693	382,46
378,902	407,03
379,111	390,65
379,32	364,03
379,529	429,56
379,738	429,56
379,947	429,56
380,156	470,52
380,365	388,6
380,574	486,9
380,783	341,5
380,992	390,65
381,201	351,74
381,41	282,11
381,619	355,83
381,828	374,27
382,037	378,36
382,245	470,52
382,454	488,95
382,663	470,52
382,872	546,3
383,081	570,87
383,29	691,7
383,499	736,76
383,707	855,54
383,916	955,89
384,125	1052,14
384,334	1021,42
384,542	1232,37
384,751	1322,48
384,96	1416,68
385,169	1449,45
385,377	1633,77
385,586	1676,77
385,795	1897,96
386,004	2153,95
386,212	2174,43
386,421	2553,31
386,63	2739,67
386,838	2815,45
387,047	2616,79
387,255	2999,76
387,464	2936,28
387,673	2735,57
387,881	2768,34
388,09	2880,98
388,298	2516,44
388,507	2268,64
388,715	1961,44
388,924	1709,54
389,133	1121,77
389,341	939,51
389,55	828,92
389,758	660,98
389,967	669,17
390,175	372,22
390,383	433,66
390,592	456,19
390,8	333,31
391,009	421,37
391,217	437,75
391,426	445,95
391,634	253,44
391,842	278,01
392,051	294,4
392,259	306,68
392,467	310,78
392,676	290,3
392,884	288,25
393,092	321,02
393,301	380,41
393,509	318,97
393,717	458,23
393,925	443,9
394,134	370,17
394,342	445,95
394,55	335,35
394,758	394,75
394,967	249,34
395,175	200,19
395,383	269,82
395,591	290,3
395,799	368,12
396,007	282,11
396,216	423,42
396,424	355,83
396,632	372,22
396,84	208,38
397,048	333,31
397,256	398,84
397,464	314,88
397,672	323,07
397,88	343,55
398,088	384,51
398,296	413,18
398,504	357,88
398,712	421,37
398,92	392,7
399,128	384,51
399,336	380,41
399,544	501,24
399,752	333,31
399,96	439,8
400,168	466,42
400,376	359,93
400,584	364,03
400,792	310,78
401	278,01
401,207	398,84
401,415	368,12
401,623	323,07
401,831	302,59
402,039	392,7
402,247	364,03
402,454	587,26
402,662	867,83
402,87	1398,25
403,078	2237,92
403,285	2956,75
403,493	3952,07
403,701	5191,09
403,909	6362,53
404,116	8091,01
404,324	9661,8
404,532	11967,82
404,739	13083,96
404,947	13051,19
405,155	12492,1
405,362	10286,44
405,57	8207,75
405,778	5787,05
405,985	4388,29
406,193	3397,07
406,4	2866,64
406,608	2473,43
406,816	1826,28
407,023	1498,6
407,231	1283,56
407,438	1609,19
407,646	1838,56
407,853	1871,33
408,061	1672,68
408,268	1742,31
408,476	1590,76
408,683	1310,19
408,89	1129,97
409,098	781,81
409,305	665,08
409,513	595,45
409,72	517,62
409,927	499,19
410,135	441,85
410,342	280,06
410,55	398,84
410,757	321,02
410,964	232,96
411,172	355,83
411,379	331,26
411,586	390,65
411,793	308,73
412,001	249,34
412,208	306,68
412,415	380,41
412,622	417,27
412,83	261,63
413,037	357,88
413,244	290,3
413,451	454,14
413,658	497,14
413,866	482,81
414,073	464,38
414,28	556,54
414,487	376,31
414,694	456,19
414,901	488,95
415,108	466,42
415,315	429,56
415,522	626,17
415,73	441,85
415,937	355,83
416,144	413,18
416,351	486,9
416,558	357,88
416,765	355,83
416,972	429,56
417,179	378,36
417,386	411,13
417,593	427,51
417,8	445,95
418,006	488,95
418,213	472,57
418,42	601,59
418,627	564,73
418,834	466,42
419,041	470,52
419,248	472,57
419,455	538,1
419,661	529,91
419,868	454,14
420,075	579,06
420,282	323,07
420,489	544,25
420,696	454,14
420,902	511,48
421,109	505,34
421,316	478,71
421,523	505,34
421,729	515,58
421,936	396,79
422,143	548,34
422,349	372,22
422,556	316,92
422,763	439,8
422,969	308,73
423,176	341,5
423,383	376,31
423,589	634,36
423,796	347,64
424,002	232,96
424,209	323,07
424,416	302,59
424,622	232,96
424,829	208,38
425,035	275,96
425,242	271,87
425,448	325,12
425,655	335,35
425,861	345,59
426,068	398,84
426,274	347,64
426,481	384,51
426,687	464,38
426,894	331,26
427,1	349,69
427,306	269,82
427,513	331,26
427,719	382,46
427,926	323,07
428,132	247,29
428,338	380,41
428,545	290,3
428,751	278,01
428,957	366,07
429,163	323,07
429,37	374,27
429,576	390,65
429,782	390,65
429,989	314,88
430,195	372,22
430,401	366,07
430,607	267,77
430,813	308,73
431,02	372,22
431,226	480,76
431,432	378,36
431,638	351,74
431,844	331,26
432,05	380,41
432,257	390,65
432,463	388,6
432,669	568,82
432,875	466,42
433,081	417,27
433,287	544,25
433,493	652,79
433,699	1326,57
433,905	2315,74
434,111	4165,06
434,317	6370,72
434,523	9407,86
434,729	12391,75
434,935	16268,55
435,141	20638,92
435,347	23985,3
435,553	30090,29
435,759	34542,58
435,965	37321,67
436,171	36262,87
436,377	32443,41
436,582	28552,27
436,788	22052,02
436,994	16717,06
437,2	12189
437,406	9033,08
437,612	6296,99
437,818	4484,54
438,023	2706,9
438,229	1867,24
438,435	1125,87
438,641	710,13
438,846	548,34
439,052	460,28
439,258	495,1
439,464	437,75
439,669	464,38
439,875	503,29
440,081	398,84
440,286	298,49
440,492	355,83
440,698	404,99
440,903	306,68
441,109	382,46
441,314	306,68
441,52	251,39
441,726	347,64
441,931	343,55
442,137	347,64
442,342	396,79
442,548	302,59
442,753	447,99
442,959	273,92
443,164	245,24
443,37	372,22
443,575	323,07
443,781	243,2
443,986	374,27
444,192	314,88
444,397	310,78
444,602	226,81
444,808	310,78
445,013	245,24
445,219	159,23
445,424	384,51
445,629	200,19
445,835	423,42
446,04	316,92
446,245	280,06
446,451	286,2
446,656	259,58
446,861	335,35
447,066	368,12
447,272	388,6
447,477	286,2
447,682	294,4
447,887	298,49
448,093	290,3
448,298	368,12
448,503	259,58
448,708	316,92
448,913	257,53
449,118	357,88
449,324	300,54
449,529	396,79
449,734	343,55
449,939	314,88
450,144	431,61
450,349	323,07
450,554	183,81
450,759	372,22
450,964	316,92
451,169	331,26
451,374	263,68
451,579	314,88
451,784	339,45
451,989	306,68
452,194	339,45
452,399	269,82
452,604	300,54
452,809	224,76
453,014	298,49
453,219	323,07
453,424	325,12
453,629	220,67
453,833	323,07
454,038	364,03
454,243	232,96
454,448	351,74
454,653	355,83
454,858	237,05
455,062	257,53
455,267	339,45
455,472	480,76
455,677	286,2
455,882	280,06
456,086	384,51
456,291	314,88
456,496	308,73
456,7	290,3
456,905	333,31
457,11	323,07
457,314	308,73
457,519	187,9
457,724	265,72
457,928	306,68
458,133	237,05
458,338	308,73
458,542	269,82
458,747	314,88
458,951	333,31
459,156	429,56
459,36	216,57
459,565	439,8
459,769	366,07
459,974	374,27
460,178	374,27
460,383	257,53
460,587	241,15
460,792	374,27
460,996	323,07
461,201	280,06
461,405	200,19
461,61	323,07
461,814	345,59
462,018	237,05
462,223	282,11
462,427	269,82
462,631	241,15
462,836	278,01
463,04	306,68
463,244	402,94
463,449	249,34
463,653	404,99
463,857	259,58
464,062	331,26
464,266	286,2
464,47	323,07
464,674	298,49
464,878	269,82
465,083	286,2
465,287	364,03
465,491	267,77
465,695	335,35
465,899	323,07
466,104	364,03
466,308	310,78
466,512	300,54
466,716	275,96
466,92	349,69
467,124	396,79
467,328	314,88
467,532	423,42
467,736	261,63
467,94	382,46
468,144	282,11
468,348	218,62
468,552	413,18
468,756	290,3
468,96	333,31
469,164	192
469,368	249,34
469,572	290,3
469,776	343,55
469,98	304,64
470,184	306,68
470,388	372,22
470,591	347,64
470,795	445,95
470,999	316,92
471,203	339,45
471,407	343,55
471,611	294,4
471,814	325,12
472,018	292,35
472,222	382,46
472,426	384,51
472,63	400,89
472,833	421,37
473,037	298,49
473,241	304,64
473,444	347,64
473,648	810,48
473,852	292,35
474,055	351,74
474,259	267,77
474,463	404,99
474,666	288,25
474,87	314,88
475,074	310,78
475,277	359,93
475,481	497,14
475,684	253,44
475,888	232,96
476,091	306,68
476,295	265,72
476,498	204,28
476,702	372,22
476,905	437,75
477,109	415,23
477,312	278,01
477,516	321,02
477,719	386,55
477,923	361,98
478,126	341,5
478,329	327,16
478,533	265,72
478,736	382,46
478,94	331,26
479,143	398,84
479,346	331,26
479,55	417,27
479,753	380,41
479,956	273,92
480,159	409,08
480,363	509,43
480,566	355,83
480,769	290,3
480,972	404,99
481,176	384,51
481,379	411,13
481,582	478,71
481,785	298,49
481,988	437,75
482,192	497,14
482,395	278,01
482,598	372,22
482,801	372,22
483,004	462,33
483,207	355,83
483,41	398,84
483,613	439,8
483,817	343,55
484,02	335,35
484,223	294,4
484,426	433,66
484,629	361,98
484,832	441,85
485,035	429,56
485,238	341,5
485,441	548,34
485,644	404,99
485,846	437,75
486,049	390,65
486,252	404,99
486,455	314,88
486,658	427,51
486,861	456,19
487,064	587,26
487,267	310,78
487,47	404,99
487,672	486,9
487,875	470,52
488,078	415,23
488,281	503,29
488,484	413,18
488,686	501,24
488,889	361,98
489,092	370,17
489,295	445,95
489,497	538,1
489,7	437,75
489,903	447,99
490,105	491
490,308	431,61
490,511	556,54
490,713	491
490,916	585,21
491,118	511,48
491,321	654,84
491,524	513,53
491,726	636,41
491,929	538,1
492,131	626,17
492,334	568,82
492,536	495,1
492,739	544,25
492,941	503,29
493,144	538,1
493,346	491
493,549	407,03
493,751	435,71
493,954	456,19
494,156	466,42
494,359	439,8
494,561	306,68
494,763	409,08
494,966	529,91
495,168	407,03
495,37	413,18
495,573	407,03
495,775	413,18
495,977	474,62
496,18	415,23
496,382	556,54
496,584	445,95
496,787	488,95
496,989	380,41
497,191	341,5
497,393	452,09
497,595	302,59
497,798	443,9
498	404,99
498,202	433,66
498,404	376,31
498,606	454,14
498,808	466,42
499,011	462,33
499,213	478,71
499,415	437,75
499,617	513,53
499,819	519,67
500,021	521,72
500,223	439,8
500,425	474,62
500,627	400,89
500,829	462,33
501,031	425,47
501,233	351,74
501,435	466,42
501,637	544,25
501,839	482,81
502,041	335,35
502,243	462,33
502,445	429,56
502,647	445,95
502,848	351,74
503,05	392,7
503,252	511,48
503,454	439,8
503,656	425,47
503,858	333,31
504,059	478,71
504,261	407,03
504,463	519,67
504,665	396,79
504,867	407,03
505,068	527,86
505,27	503,29
505,472	454,14
505,673	507,38
505,875	273,92
506,077	437,75
506,278	355,83
506,48	437,75
506,682	407,03
506,883	470,52
507,085	511,48
507,287	470,52
507,488	423,42
507,69	474,62
507,891	433,66
508,093	488,95
508,294	450,04
508,496	396,79
508,697	384,51
508,899	359,93
509,1	427,51
509,302	415,23
509,503	470,52
509,705	441,85
509,906	472,57
510,108	388,6
510,309	409,08
510,51	404,99
510,712	429,56
510,913	368,12
511,114	380,41
511,316	318,97
511,517	544,25
511,718	454,14
511,92	407,03
512,121	390,65
512,322	466,42
512,524	488,95
512,725	462,33
512,926	429,56
513,127	429,56
513,329	429,56
513,53	382,46
513,731	478,71
513,932	478,71
514,133	456,19
514,334	431,61
514,536	499,19
514,737	558,58
514,938	404,99
515,139	488,95
515,34	396,79
515,541	568,82
515,742	433,66
515,943	538,1
516,144	505,34
516,345	564,73
516,546	470,52
516,747	511,48
516,948	507,38
517,149	425,47
517,35	439,8
517,551	484,86
517,752	491
517,953	493,05
518,154	417,27
518,355	456,19
518,556	472,57
518,756	464,38
518,957	484,86
519,158	503,29
519,359	523,77
519,56	470,52
519,761	552,44
519,961	445,95
520,162	560,63
520,363	370,17
520,564	394,75
520,764	497,14
520,965	396,79
521,166	462,33
521,366	388,6
521,567	476,66
521,768	380,41
521,968	454,14
522,169	339,45
522,37	423,42
522,57	392,7
522,771	462,33
522,972	398,84
523,172	531,96
523,373	511,48
523,573	435,71
523,774	536,06
523,974	529,91
524,175	503,29
524,375	439,8
524,576	404,99
524,776	425,47
524,977	480,76
525,177	527,86
525,378	452,09
525,578	521,72
525,778	450,04
525,979	480,76
526,179	349,69
526,38	486,9
526,58	447,99
526,78	327,16
526,981	536,06
527,181	497,14
527,381	431,61
527,582	470,52
527,782	472,57
527,982	462,33
528,182	484,86
528,383	425,47
528,583	411,13
528,783	394,75
528,983	439,8
529,183	421,37
529,384	433,66
529,584	527,86
529,784	579,06
529,984	435,71
530,184	445,95
530,384	425,47
530,584	407,03
530,784	491
530,984	384,51
531,185	515,58
531,385	517,62
531,585	425,47
531,785	488,95
531,985	394,75
532,185	462,33
532,385	447,99
532,585	441,85
532,785	503,29
532,984	478,71
533,184	435,71
533,384	398,84
533,584	384,51
533,784	464,38
533,984	423,42
534,184	286,2
534,384	402,94
534,583	437,75
534,783	431,61
534,983	513,53
535,183	382,46
535,383	474,62
535,582	407,03
535,782	564,73
535,982	486,9
536,182	437,75
536,381	447,99
536,581	445,95
536,781	486,9
536,98	464,38
537,18	472,57
537,38	519,67
537,579	417,27
537,779	439,8
537,979	515,58
538,178	478,71
538,378	513,53
538,577	366,07
538,777	456,19
538,976	429,56
539,176	454,14
539,376	464,38
539,575	450,04
539,774	404,99
539,974	339,45
540,173	437,75
540,373	447,99
540,572	540,15
540,772	488,95
540,971	507,38
541,171	474,62
541,37	507,38
541,569	501,24
541,769	441,85
541,968	396,79
542,167	505,34
542,367	546,3
542,566	495,1
542,765	452,09
542,965	445,95
543,164	601,59
543,363	587,26
543,562	546,3
543,761	585,21
543,961	855,54
544,16	1289,71
544,359	3462,6
544,558	6663,58
544,757	11496,78
544,957	17202,43
545,156	24890,5
545,355	33033,22
545,554	40299,42
545,753	48364,32
545,952	53115,61
546,151	57756,3
546,35	59124,35
546,549	56705,69
546,748	52853,47
546,947	47358,77
547,146	41214,86
547,345	33635,33
547,544	28007,51
547,743	22021,3
547,942	16518,4
548,141	11447,63
548,34	7411,09
548,539	4134,34
548,738	2594,26
548,937	1816,04
549,135	1234,41
549,334	955,89
549,533	896,5
549,732	773,62
549,931	681,46
550,13	724,47
550,328	570,87
550,527	589,3
550,726	540,15
550,925	396,79
551,123	497,14
551,322	445,95
551,521	587,26
551,72	421,37
551,918	456,19
552,117	435,71
552,315	368,12
552,514	380,41
552,713	372,22
552,911	421,37
553,11	343,55
553,309	345,59
553,507	409,08
553,706	364,03
553,904	382,46
554,103	404,99
554,301	470,52
554,5	357,88
554,698	478,71
554,897	390,65
555,095	372,22
555,294	335,35
555,492	323,07
555,69	372,22
555,889	318,97
556,087	355,83
556,286	507,38
556,484	361,98
556,682	343,55
556,881	353,79
557,079	347,64
557,277	339,45
557,476	357,88
557,674	372,22
557,872	437,75
558,07	339,45
558,269	327,16
558,467	306,68
558,665	386,55
558,863	333,31
559,062	339,45
559,26	292,35
559,458	282,11
559,656	325,12
559,854	316,92
560,052	282,11
560,25	265,72
560,449	644,6
560,647	404,99
560,845	249,34
561,043	300,54
561,241	495,1
561,439	396,79
561,637	314,88
561,835	331,26
562,033	376,31
562,231	292,35
562,429	288,25
562,627	288,25
562,825	325,12
563,023	355,83
563,221	275,96
563,418	314,88
563,616	235
563,814	417,27
564,012	290,3
564,21	380,41
564,408	380,41
564,605	382,46
564,803	333,31
565,001	550,39
565,199	284,16
565,397	314,88
565,594	341,5
565,792	462,33
565,99	384,51
566,188	429,56
566,385	527,86
566,583	292,35
566,781	374,27
566,978	398,84
567,176	404,99
567,373	431,61
567,571	329,21
567,769	462,33
567,966	323,07
568,164	298,49
568,361	323,07
568,559	325,12
568,756	364,03
568,954	308,73
569,151	439,8
569,349	433,66
569,546	321,02
569,744	325,12
569,941	323,07
570,139	331,26
570,336	388,6
570,534	347,64
570,731	327,16
570,928	273,92
571,126	441,85
571,323	470,52
571,52	314,88
571,718	388,6
571,915	431,61
572,112	290,3
572,31	316,92
572,507	388,6
572,704	323,07
572,901	251,39
573,099	273,92
573,296	370,17
573,493	306,68
573,69	335,35
573,887	333,31
574,085	519,67
574,282	409,08
574,479	431,61
574,676	364,03
574,873	488,95
575,07	429,56
575,267	521,72
575,464	955,89
575,661	1592,81
575,858	2080,22
576,055	3003,86
576,252	3796,42
576,449	4812,21
576,646	5565,87
576,843	6133,15
577,04	6720,92
577,237	6786,46
577,434	6868,38
577,631	6761,88
577,828	6843,8
578,025	7030,16
578,222	7261,59
578,419	7855,5
578,615	8041,86
578,812	8482,17
579,009	8211,84
579,206	8052,1
579,403	7851,4
579,599	7060,88
579,796	6415,77
579,993	5871,01
580,19	5000,63
580,386	4361,66
580,583	3837,38
580,78	3020,24
580,976	2397,66
581,173	1756,65
581,37	1388,01
581,566	949,75
581,763	699,89
581,96	491
582,156	536,06
582,353	441,85
582,549	521,72
582,746	437,75
582,942	341,5
583,139	331,26
583,335	398,84
583,532	503,29
583,728	325,12
583,925	454,14
584,121	480,76
584,318	486,9
584,514	450,04
584,711	423,42
584,907	407,03
585,103	343,55
585,3	407,03
585,496	421,37
585,693	392,7
585,889	419,32
586,085	331,26
586,281	398,84
586,478	376,31
586,674	396,79
586,87	480,76
587,067	396,79
587,263	415,23
587,459	429,56
587,655	417,27
587,851	534,01
588,048	577,02
588,244	421,37
588,44	513,53
588,636	488,95
588,832	421,37
589,028	617,97
589,224	423,42
589,42	380,41
589,617	536,06
589,813	503,29
590,009	552,44
590,205	517,62
590,401	407,03
590,597	306,68
590,793	439,8
590,989	316,92
591,185	355,83
591,38	388,6
591,576	404,99
591,772	359,93
591,968	366,07
592,164	372,22
592,36	382,46
592,556	407,03
592,752	478,71
592,948	456,19
593,143	323,07
593,339	302,59
593,535	347,64
593,731	366,07
593,926	396,79
594,122	396,79
594,318	357,88
594,514	384,51
594,709	366,07
594,905	396,79
595,101	288,25
595,296	447,99
595,492	482,81
595,688	374,27
595,883	349,69
596,079	431,61
596,275	382,46
596,47	294,4
596,666	380,41
596,861	329,21
597,057	308,73
597,252	316,92
597,448	331,26
597,643	390,65
597,839	372,22
598,034	351,74
598,23	318,97
598,425	380,41
598,621	404,99
598,816	470,52
599,011	396,79
599,207	347,64
599,402	316,92
599,597	447,99
599,793	327,16
599,988	376,31
600,183	456,19
600,379	425,47
600,574	380,41
600,769	415,23
600,965	454,14
601,16	372,22
601,355	370,17
601,55	417,27
601,745	445,95
601,941	462,33
602,136	447,99
602,331	404,99
602,526	341,5
602,721	429,56
602,916	323,07
603,111	390,65
603,307	368,12
603,502	384,51
603,697	325,12
603,892	327,16
604,087	476,66
604,282	462,33
604,477	417,27
604,672	366,07
604,867	357,88
605,062	339,45
605,257	392,7
605,452	431,61
605,646	353,79
605,841	296,44
606,036	261,63
606,231	310,78
606,426	224,76
606,621	290,3
606,816	302,59
607,01	370,17
607,205	374,27
607,4	318,97
607,595	368,12
607,79	312,83
607,984	331,26
608,179	288,25
608,374	294,4
608,569	212,48
608,763	122,37
608,958	153,09
609,153	368,12
609,347	304,64
609,542	286,2
609,736	296,44
609,931	284,16
610,126	204,28
610,32	241,15
610,515	151,04
610,709	470,52
610,904	269,82
611,098	177,66
611,293	208,38
611,487	226,81
611,682	243,2
611,876	247,29
612,071	275,96
612,265	257,53
612,46	232,96
612,654	257,53
612,848	237,05
613,043	241,15
613,237	321,02
613,432	138,75
613,626	167,42
613,82	200,19
614,014	306,68
614,209	237,05
614,403	202,24
614,597	331,26
614,792	304,64
614,986	216,57
615,18	323,07
615,374	208,38
615,568	284,16
615,763	220,67
615,957	298,49
616,151	259,58
616,345	245,24
616,539	241,15
616,733	251,39
616,927	257,53
617,121	200,19
617,316	253,44
617,51	298,49
617,704	257,53
617,898	294,4
618,092	163,33
618,286	151,04
618,48	103,93
618,674	333,31
618,868	314,88
619,061	202,24
619,255	216,57
619,449	204,28
619,643	163,33
619,837	347,64
620,031	212,48
620,225	278,01
620,419	183,81
620,612	187,9
620,806	220,67
621	261,63
621,194	230,91
621,388	267,77
621,581	235
621,775	298,49
621,969	325,12
622,162	183,81
622,356	267,77
622,55	257,53
622,743	134,65
622,937	177,66
623,131	249,34
623,324	288,25
623,518	235
623,712	192
623,905	194,05
624,099	239,1
624,292	251,39
624,486	202,24
624,679	185,85
624,873	185,85
625,066	222,72
625,26	265,72
625,453	105,98
625,647	187,9
625,84	257,53
626,034	192
626,227	194,05
626,42	292,35
626,614	194,05
626,807	280,06
627	118,27
627,194	298,49
627,387	189,95
627,58	177,66
627,774	134,65
627,967	235
628,16	224,76
628,353	216,57
628,547	232,96
628,74	312,83
628,933	169,47
629,126	226,81
629,319	251,39
629,513	347,64
629,706	177,66
629,899	208,38
630,092	194,05
630,285	177,66
630,478	161,28
630,671	265,72
630,864	249,34
631,057	282,11
631,25	294,4
631,443	298,49
631,636	249,34
631,829	306,68
632,022	355,83
632,215	263,68
632,408	204,28
632,601	226,81
632,794	155,13
632,987	208,38
633,18	269,82
633,373	185,85
633,566	257,53
633,758	79,36
633,951	216,57
634,144	226,81
634,337	292,35
634,53	292,35
634,722	349,69
634,915	200,19
635,108	202,24
635,301	323,07
635,493	308,73
635,686	470,52
635,879	323,07
636,071	232,96
636,264	394,75
636,457	386,55
636,649	290,3
636,842	237,05
637,034	398,84
637,227	388,6
637,42	359,93
637,612	278,01
637,805	243,2
637,997	421,37
638,19	273,92
638,382	339,45
638,575	396,79
638,767	339,45
638,96	480,76
639,152	372,22
639,344	372,22
639,537	314,88
639,729	331,26
639,922	314,88
640,114	265,72
640,306	372,22
640,499	290,3
640,691	265,72
640,883	339,45
641,075	339,45
641,268	282,11
641,46	314,88
641,652	273,92
641,844	222,72
642,037	316,92
642,229	351,74
642,421	544,25
642,613	333,31
642,805	275,96
642,998	445,95
643,19	366,07
643,382	552,44
643,574	409,08
643,766	415,23
643,958	486,9
644,15	497,14
644,342	478,71
644,534	519,67
644,726	359,93
644,918	456,19
645,11	312,83
645,302	374,27
645,494	454,14
645,686	429,56
645,878	407,03
646,07	437,75
646,262	445,95
646,453	409,08
646,645	398,84
646,837	454,14
647,029	482,81
647,221	404,99
647,413	357,88
647,604	376,31
647,796	407,03
647,988	345,59
648,18	325,12
648,371	300,54
648,563	265,72
648,755	392,7
648,947	265,72
649,138	333,31
649,33	366,07
649,521	388,6
649,713	368,12
649,905	376,31
650,096	468,47
650,288	468,47
650,479	347,64
650,671	413,18
650,863	425,47
651,054	366,07
651,246	478,71
651,437	445,95
651,629	527,86
651,82	562,68
652,011	564,73
652,203	519,67
652,394	497,14
652,586	503,29
652,777	417,27
652,968	462,33
653,16	470,52
653,351	488,95
653,542	564,73
653,734	519,67
653,925	404,99
654,116	409,08
654,308	544,25
654,499	396,79
654,69	374,27
654,881	349,69
655,073	368,12
655,264	400,89
655,455	445,95
655,646	409,08
655,837	501,24
656,028	390,65
656,219	415,23
656,411	388,6
656,602	429,56
656,793	413,18
656,984	380,41
657,175	417,27
657,366	331,26
657,557	460,28
657,748	378,36
657,939	333,31
658,13	421,37
658,321	519,67
658,512	509,43
658,703	482,81
658,894	454,14
659,084	425,47
659,275	450,04
659,466	417,27
659,657	495,1
659,848	513,53
660,039	437,75
660,23	505,34
660,42	445,95
660,611	447,99
660,802	433,66
660,993	488,95
661,183	366,07
661,374	433,66
661,565	501,24
661,755	515,58
661,946	382,46
662,137	357,88
662,327	396,79
662,518	425,47
662,709	384,51
662,899	302,59
663,09	421,37
663,28	316,92
663,471	298,49
663,662	409,08
663,852	300,54
664,043	228,86
664,233	316,92
664,424	265,72
664,614	278,01
664,804	214,52
664,995	339,45
665,185	292,35
665,376	198,14
665,566	392,7
665,756	265,72
665,947	327,16
666,137	284,16
666,328	454,14
666,518	333,31
666,708	368,12
666,898	355,83
667,089	429,56
667,279	388,6
667,469	364,03
667,659	343,55
667,85	429,56
668,04	454,14
668,23	345,59
668,42	425,47
668,61	349,69
668,8	417,27
668,991	361,98
669,181	517,62
669,371	282,11
669,561	437,75
669,751	472,57
669,941	372,22
670,131	400,89
670,321	366,07
670,511	413,18
670,701	423,42
670,891	327,16
671,081	269,82
671,271	273,92
671,461	257,53
671,651	275,96
671,841	275,96
672,03	333,31
672,22	235
672,41	273,92
672,6	318,97
672,79	257,53
672,98	204,28
673,169	308,73
673,359	228,86
673,549	251,39
673,739	140,8
673,928	245,24
674,118	200,19
674,308	259,58
674,497	357,88
674,687	218,62
674,877	296,44
675,066	306,68
675,256	300,54
675,446	331,26
675,635	290,3
675,825	241,15
676,014	282,11
676,204	316,92
676,393	335,35
676,583	343,55
676,772	374,27
676,962	327,16
677,151	259,58
677,341	247,29
677,53	200,19
677,72	300,54
677,909	298,49
678,099	382,46
678,288	163,33
678,477	275,96
678,667	253,44
678,856	398,84
679,045	335,35
679,235	298,49
679,424	298,49
679,613	331,26
679,802	230,91
679,992	235
680,181	155,13
680,37	175,61
680,559	249,34
680,748	179,71
680,938	294,4
681,127	132,61
681,316	243,2
681,505	103,93
681,694	126,46
681,883	218,62
682,072	163,33
682,261	171,52
682,45	136,7
682,639	103,93
682,828	208,38
683,017	189,95
683,206	308,73
683,395	177,66
683,584	122,37
683,773	183,81
683,962	93,69
684,151	73,21
684,34	161,28
684,529	130,56
684,718	91,65
684,907	144,89
685,095	235
685,284	210,43
685,473	196,09
685,662	185,85
685,851	339,45
686,039	200,19
686,228	216,57
686,417	153,09
686,606	290,3
686,794	245,24
686,983	52,74
687,172	216,57
687,36	155,13
687,549	93,69
687,738	93,69
687,926	77,31
688,115	93,69
688,303	67,07
688,492	237,05
688,68	120,32
688,869	108,03
689,057	81,41
689,246	85,5
689,434	120,32
689,623	144,89
689,811	175,61
690	65,02
690,188	120,32
690,377	200,19
690,565	179,71
690,753	245,24
690,942	171,52
691,13	249,34
691,318	151,04
691,507	218,62
691,695	216,57
691,883	144,89
692,072	208,38
692,26	171,52
692,448	232,96
692,636	83,45
692,824	87,55
693,013	200,19
693,201	155,13
693,389	40,45
693,577	142,85
693,765	151,04
693,953	167,42
694,141	110,08
694,329	67,07
694,518	144,89
694,706	103,93
694,894	177,66
695,082	52,74
695,27	175,61
695,458	249,34
695,646	194,05
695,834	314,88
696,022	224,76
696,209	359,93
696,397	310,78
696,585	323,07
696,773	292,35
696,961	296,44
697,149	204,28
697,337	224,76
697,525	257,53
697,712	290,3
697,9	243,2
698,088	271,87
698,276	226,81
698,463	187,9
698,651	224,76
698,839	112,13
699,027	159,23
699,214	196,09
699,402	118,27
699,59	120,32
699,777	101,89
699,965	134,65
700,152	65,02
700,34	69,12
700,528	65,02
700,715	126,46
700,903	151,04
701,09	105,98
701,278	62,98
701,465	167,42
701,653	77,31
701,84	81,41
702,028	151,04
702,215	134,65
702,402	52,74
702,59	165,37
702,777	126,46
702,965	126,46
703,152	118,27
703,339	187,9
703,527	24,06
703,714	110,08
703,901	101,89
704,088	202,24
704,276	169,47
704,463	128,51
704,65	65,02
704,837	101,89
705,025	200,19
705,212	110,08
705,399	153,09
705,586	194,05
705,773	210,43
705,96	89,6
706,147	204,28
706,335	216,57
706,522	159,23
706,709	155,13
706,896	220,67
707,083	216,57
707,27	177,66
707,457	220,67
707,644	134,65
707,831	161,28
708,018	114,17
708,205	200,19
708,392	167,42
708,578	200,19
708,765	167,42
708,952	118,27
709,139	126,46
709,326	120,32
709,513	112,13
709,7	83,45
709,886	183,81
710,073	226,81
710,26	249,34
710,447	54,78
710,633	187,9
710,82	105,98
711,007	142,85
711,193	114,17
711,38	120,32
711,567	241,15
711,753	71,17
711,94	208,38
712,127	134,65
712,313	216,57
712,5	48,64
712,686	208,38
712,873	153,09
713,059	32,26
713,246	114,17
713,432	192
713,619	56,83
713,805	79,36
713,992	257,53
714,178	134,65
714,365	136,7
714,551	257,53
714,737	124,41
714,924	69,12
715,11	259,58
715,297	169,47
715,483	187,9
715,669	134,65
715,855	85,5
716,042	194,05
716,228	112,13
716,414	175,61
716,6	101,89
716,787	95,74
716,973	69,12
717,159	200,19
717,345	105,98
717,531	79,36
717,718	77,31
717,904	138,75
718,09	93,69
718,276	81,41
718,462	110,08
718,648	110,08
718,834	46,59
719,02	224,76
719,206	146,94
719,392	110,08
719,578	112,13
719,764	69,12
719,95	79,36
720,136	144,89
720,322	144,89
720,508	112,13
720,694	85,5
720,879	81,41
721,065	265,72
721,251	136,7
721,437	167,42
721,623	155,13
721,809	161,28
721,994	161,28
722,18	69,12
722,366	130,56
722,552	161,28
722,737	189,95
722,923	245,24
723,109	204,28
723,294	235
723,48	175,61
723,666	185,85
723,851	112,13
724,037	232,96
724,222	208,38
724,408	243,2
724,593	218,62
724,779	153,09
724,965	187,9
725,15	200,19
725,336	247,29
725,521	298,49
725,706	179,71
725,892	251,39
726,077	179,71
726,263	226,81
726,448	230,91
726,634	249,34
726,819	194,05
727,004	312,83
727,19	269,82
727,375	257,53
727,56	261,63
727,745	175,61
727,931	235
728,116	151,04
728,301	196,09
728,486	261,63
728,672	144,89
728,857	235
729,042	62,98
729,227	167,42
729,412	140,8
729,597	134,65
729,783	126,46
729,968	175,61
730,153	146,94
730,338	93,69
730,523	142,85
730,708	151,04
730,893	69,12
731,078	216,57
731,263	267,77
731,448	44,54
731,633	118,27
731,818	52,74
732,003	165,37
732,187	93,69
732,372	36,35
732,557	226,81
732,742	196,09
732,927	153,09
733,112	185,85
733,297	202,24
733,481	269,82
733,666	249,34
733,851	202,24
734,036	245,24
734,22	163,33
734,405	384,51
734,59	232,96
734,774	249,34
734,959	257,53
735,144	175,61
735,328	261,63
735,513	140,8
735,698	249,34
735,882	314,88
736,067	251,39
736,251	212,48
736,436	232,96
736,62	208,38
736,805	200,19
736,989	292,35
737,174	212,48
737,358	142,85
737,543	292,35
737,727	347,64
737,911	382,46
738,096	333,31
738,28	349,69
738,465	388,6
738,649	302,59
738,833	380,41
739,018	282,11
739,202	177,66
739,386	257,53
739,57	347,64
739,755	251,39
739,939	210,43
740,123	93,69
740,307	204,28
740,491	183,81
740,676	71,17
740,86	247,29
741,044	265,72
741,228	122,37
741,412	85,5
741,596	99,84
741,78	187,9
741,964	185,85
742,148	159,23
742,332	163,33
742,516	93,69
742,7	146,94
742,884	144,89
743,068	165,37
743,252	142,85
743,436	175,61
743,62	105,98
743,804	282,11
743,988	257,53
744,172	208,38
744,356	278,01
744,539	200,19
744,723	167,42
744,907	177,66
745,091	269,82
745,275	290,3
745,458	298,49
745,642	306,68
745,826	351,74
746,009	316,92
746,193	331,26
746,377	310,78
746,56	269,82
746,744	286,2
746,928	314,88
747,111	314,88
747,295	314,88
747,478	327,16
747,662	333,31
747,846	355,83
748,029	306,68
748,213	310,78
748,396	341,5
748,58	316,92
748,763	298,49
748,946	241,15
749,13	325,12
749,313	284,16
749,497	364,03
749,68	429,56
749,863	435,71
750,047	398,84
750,23	407,03
750,413	316,92
750,597	470,52
750,78	435,71
750,963	462,33
751,146	409,08
751,33	429,56
751,513	433,66
751,696	376,31
751,879	374,27
752,062	302,59
752,246	296,44
752,429	359,93
752,612	257,53
752,795	212,48
752,978	171,52
753,161	105,98
753,344	99,84
753,527	138,75
753,71	220,67
753,893	192
754,076	126,46
754,259	218,62
754,442	148,99
754,625	71,17
754,808	265,72
754,991	177,66
755,174	101,89
755,357	97,79
755,539	114,17
755,722	200,19
755,905	134,65
756,088	212,48
756,271	155,13
756,453	224,76
756,636	101,89
756,819	183,81
757,002	77,31
757,184	253,44
757,367	273,92
757,55	237,05
757,732	302,59
757,915	218,62
758,098	202,24
758,28	169,47
758,463	228,86
758,645	253,44
758,828	284,16
759,011	257,53
759,193	259,58
759,376	282,11
759,558	202,24
759,741	228,86
759,923	208,38
760,105	208,38
760,288	302,59
760,47	167,42
760,653	159,23
760,835	228,86
761,017	165,37
761,2	218,62
761,382	290,3
761,564	235
761,747	257,53
761,929	235
762,111	198,14
762,294	265,72
762,476	495,1
762,658	452,09
762,84	632,31
763,022	658,93
763,205	810,48
763,387	962,03
763,569	939,51
763,751	759,28
763,933	798,2
764,115	703,99
764,297	636,41
764,479	742,9
764,661	519,67
764,843	599,54
765,025	409,08
765,207	437,75
765,389	347,64
765,571	243,2
765,753	343,55
765,935	339,45
766,117	290,3
766,299	339,45
766,481	380,41
766,663	200,19
766,845	142,85
767,026	235
767,208	159,23
767,39	134,65
767,572	93,69
767,753	212,48
767,935	148,99
768,117	175,61
768,299	239,1
768,48	192
768,662	151,04
768,844	163,33
769,025	300,54
769,207	177,66
769,389	198,14
769,57	237,05
769,752	290,3
769,933	177,66
770,115	259,58
770,296	208,38
770,478	335,35
770,659	148,99
770,841	470,52
771,022	288,25
771,204	249,34
771,385	298,49
771,567	462,33
771,748	472,57
771,929	337,4
772,111	519,67
772,292	525,82
772,473	568,82
772,655	450,04
772,836	570,87
773,017	538,1
773,199	445,95
773,38	493,05
773,561	366,07
773,742	392,7
773,923	292,35
774,105	380,41
774,286	474,62
774,467	298,49
774,648	275,96
774,829	245,24
775,01	278,01
775,191	185,85
775,372	237,05
775,553	200,19
775,734	208,38
775,915	148,99
776,096	210,43
776,277	237,05
776,458	273,92
776,639	495,1
776,82	665,08
777,001	585,21
777,182	658,93
777,363	742,9
777,544	712,18
777,725	710,13
777,906	605,69
778,086	548,34
778,267	499,19
778,448	384,51
778,629	314,88
778,809	286,2
778,99	216,57
779,171	128,51
779,352	161,28
779,532	114,17
779,713	134,65
779,894	105,98
780,074	235
780,255	192
780,435	169,47
780,616	200,19
780,797	118,27
780,977	15,87
781,158	85,5
781,338	130,56
781,519	73,21
781,699	235
781,88	81,41
782,06	218,62
782,241	17,92
782,421	17,92
782,601	54,78
782,782	183,81
782,962	128,51
783,142	9,73
783,323	136,7
783,503	140,8
783,683	136,7
783,864	126,46
784,044	134,65
784,224	99,84
784,404	93,69
784,585	136,7
784,765	60,93
784,945	218,62
785,125	85,5
785,305	93,69
785,485	138,75
785,666	163,33
785,846	62,98
786,026	142,85
786,206	130,56
786,386	87,55
786,566	44,54
786,746	52,74
786,926	118,27
787,106	75,26
787,286	101,89
787,466	126,46
787,646	103,93
787,826	126,46
788,006	200,19
788,185	-8,7
788,365	-8,7
788,545	202,24
788,725	130,56
788,905	185,85
789,085	81,41
789,264	81,41
789,444	69,12
789,624	159,23
789,804	28,16
789,983	142,85
790,163	120,32
790,343	120,32
790,522	81,41
790,702	151,04
790,882	77,31
791,061	224,76
791,241	126,46
791,42	151,04
791,6	169,47
791,78	83,45
791,959	44,54
792,139	46,59
792,318	130,56
792,498	79,36
792,677	122,37
792,856	7,68
793,036	46,59
793,215	161,28
793,395	124,41
793,574	91,65
793,753	161,28
793,933	206,33
794,112	226,81
794,291	218,62
794,471	275,96
794,65	226,81
794,829	220,67
795,008	224,76
795,188	275,96
795,367	237,05
795,546	200,19
795,725	210,43
795,904	179,71
796,084	151,04
796,263	44,54
796,442	187,9
796,621	159,23
796,8	192
796,979	103,93
797,158	118,27
797,337	75,26
797,516	93,69
797,695	239,1
797,874	134,65
798,053	185,85
798,232	95,74
798,411	24,06
798,59	50,69
798,769	-2,56
798,947	118,27
799,126	69,12
799,305	134,65
799,484	87,55
799,663	26,11
799,842	46,59
800,02	155,13
800,199	87,55
800,378	275,96
800,557	151,04
800,735	126,46
800,914	161,28
801,093	204,28
801,271	232,96
801,45	249,34
801,628	306,68
801,807	153,09
801,986	241,15
802,164	153,09
802,343	62,98
802,521	48,64
802,7	136,7
802,878	163,33
803,057	118,27
803,235	75,26
803,414	69,12
803,592	241,15
803,771	126,46
803,949	134,65
804,127	103,93
804,306	151,04
804,484	97,79
804,662	97,79
804,841	-33,28
805,019	71,17
805,197	60,93
805,375	134,65
805,554	71,17
805,732	56,83
805,91	87,55
806,088	69,12
806,266	52,74
806,445	54,78
806,623	28,16
806,801	93,69
806,979	130,56
807,157	40,45
807,335	-20,99
807,513	36,35
807,691	91,65
807,869	5,63
808,047	85,5
808,225	-16,9
808,403	73,21
808,581	101,89
808,759	93,69
808,937	54,78
809,115	153,09
809,293	126,46
809,471	93,69
809,649	151,04
809,826	273,92
810,004	284,16
810,182	200,19
810,36	235
810,538	282,11
810,715	519,67
810,893	413,18
811,071	458,23
811,248	642,55
811,426	595,45
811,604	620,02
811,781	601,59
811,959	646,65
812,137	404,99
812,314	257,53
812,492	333,31
812,669	323,07
812,847	210,43
813,024	151,04
813,202	312,83
813,379	261,63
813,557	194,05
813,734	273,92
813,912	298,49
814,089	116,22
814,267	204,28
814,444	216,57
814,621	224,76
814,799	44,54
814,976	212,48
815,153	140,8
815,331	24,06
815,508	13,82
815,685	89,6
815,862	46,59
816,04	36,35
816,217	15,87
816,394	62,98
816,571	24,06
816,748	239,1
816,926	257,53
817,103	288,25
817,28	112,13
817,457	48,64
817,634	187,9
817,811	-12,8
817,988	32,26
818,165	52,74
818,342	89,6
818,519	48,64
818,696	52,74
818,873	52,74
819,05	132,61
819,227	3,58
819,404	79,36
819,581	-8,7
819,758	-43,52
819,934	50,69
820,111	28,16
820,288	81,41
820,465	136,7
820,642	110,08
820,818	62,98
820,995	32,26
821,172	93,69
821,349	71,17
821,525	28,16
821,702	60,93
821,879	36,35
822,055	58,88
822,232	22,02
822,409	52,74
822,585	118,27
822,762	155,13
822,938	103,93
823,115	77,31
823,291	28,16
823,468	159,23
823,644	32,26
823,821	101,89
823,997	52,74
824,174	38,4
824,35	87,55
824,527	93,69
824,703	73,21
824,879	171,52
825,056	85,5
825,232	167,42
825,408	89,6
825,585	38,4
825,761	126,46
825,937	122,37
826,113	183,81
826,29	200,19
826,466	56,83
826,642	470,52
826,818	130,56
826,994	54,78
827,17	30,21
827,347	56,83
827,523	28,16
827,699	97,79
827,875	95,74
828,051	93,69
828,227	85,5
828,403	93,69
828,579	93,69
828,755	138,75
828,931	22,02
829,107	101,89
829,283	187,9
829,459	44,54
829,635	54,78
829,811	44,54
829,986	91,65
830,162	52,74
830,338	19,97
830,514	-16,9
830,69	11,78
830,865	93,69
831,041	69,12
831,217	101,89
831,393	7,68
831,568	-18,94
831,744	79,36
831,92	52,74
832,095	81,41
832,271	101,89
832,447	138,75
832,622	148,99
832,798	79,36
832,973	32,26
833,149	56,83
833,325	83,45
833,5	52,74
833,676	69,12
833,851	65,02
834,027	28,16
834,202	110,08
834,377	40,45
834,553	1,54
834,728	85,5
834,904	89,6
835,079	48,64
835,254	24,06
835,43	28,16
835,605	71,17
835,78	34,3
835,955	52,74
836,131	101,89
836,306	15,87
836,481	22,02
836,656	81,41
836,832	93,69
837,007	-20,99
837,182	15,87
837,357	71,17
837,532	44,54
837,707	110,08
837,882	128,51
838,057	60,93
838,232	101,89
838,407	73,21
838,582	40,45
838,757	48,64
838,932	93,69
839,107	101,89
839,282	-49,66
839,457	77,31
839,632	175,61
839,807	105,98
839,982	81,41
840,157	91,65
840,332	163,33
840,506	126,46
840,681	77,31
840,856	114,17
841,031	183,81
841,205	120,32
841,38	91,65
841,555	167,42
841,73	183,81
841,904	167,42
842,079	204,28
842,254	200,19
842,428	224,76
842,603	112,13
842,777	118,27
842,952	146,94
843,126	120,32
843,301	175,61
843,476	146,94
843,65	187,9
843,825	259,58
843,999	212,48
844,173	138,75
844,348	103,93
844,522	224,76
844,697	167,42
844,871	112,13
845,045	249,34
845,22	175,61
845,394	220,67
845,568	54,78
845,743	101,89
845,917	32,26
846,091	118,27
846,265	40,45
846,44	151,04
846,614	120,32
846,788	38,4
846,962	112,13
847,136	126,46
847,31	95,74
847,485	130,56
847,659	22,02
847,833	75,26
848,007	91,65
848,181	93,69
848,355	11,78
848,529	56,83
848,703	114,17
848,877	-70,14
849,051	3,58
849,225	77,31
849,399	52,74
849,573	56,83
849,746	15,87
849,92	-59,9
850,094	126,46
850,268	28,16
850,442	93,69
850,616	13,82
850,789	19,97
850,963	13,82
851,137	-37,38
851,311	210,43
851,484	189,95
851,658	62,98
851,832	-8,7
852,005	97,79
852,179	46,59
852,352	67,07
852,526	22,02
852,7	95,74
852,873	77,31
853,047	144,89
853,22	60,93
853,394	77,31
853,567	60,93
853,741	24,06
853,914	54,78
854,088	134,65
854,261	85,5
854,434	28,16
854,608	-37,38
854,781	-41,47
854,955	60,93
855,128	28,16
855,301	79,36
855,475	202,24
855,648	89,6
855,821	48,64
855,994	183,81
856,168	13,82
856,341	103,93
856,514	114,17
856,687	105,98
856,86	42,5
857,033	132,61
857,207	122,37
857,38	32,26
857,553	153,09
857,726	116,22
857,899	169,47
858,072	128,51
858,245	60,93
858,418	-27,14
858,591	11,78
858,764	62,98
858,937	36,35
859,11	110,08
859,283	7,68
859,455	95,74
859,628	142,85
859,801	91,65
859,974	56,83
860,147	44,54
860,32	118,27
860,492	13,82
860,665	-33,28
860,838	138,75
861,011	24,06
861,183	130,56
861,356	138,75
861,529	118,27
861,701	17,92
861,874	38,4
862,047	159,23
862,219	9,73
862,392	79,36
862,564	13,82
862,737	89,6
862,909	159,23
863,082	13,82
863,254	87,55
863,427	97,79
863,599	118,27
863,772	13,82
863,944	122,37
864,117	11,78
864,289	60,93
864,461	-2,56
864,634	5,63
864,806	52,74
864,978	153,09
865,151	89,6
865,323	175,61
865,495	112,13
865,667	46,59
865,84	167,42
866,012	15,87
866,184	69,12
866,356	32,26
866,528	105,98
866,7	83,45
866,873	91,65
867,045	22,02
867,217	3,58
867,389	71,17
867,561	56,83
867,733	69,12
867,905	77,31
868,077	44,54
868,249	126,46
868,421	69,12
868,593	15,87
868,765	155,13
868,936	5,63
869,108	118,27
869,28	110,08
869,452	112,13
869,624	52,74
869,796	181,76
869,968	167,42
870,139	194,05
870,311	89,6
870,483	120,32
870,654	69,12
870,826	71,17
870,998	99,84
871,17	30,21
871,341	44,54
871,513	165,37
871,684	71,17
871,856	60,93
872,028	122,37
872,199	7,68
872,371	-86,53
872,542	83,45
872,714	136,7
872,885	179,71
873,057	40,45
873,228	122,37
873,4	103,93
873,571	144,89
873,742	69,12
873,914	85,5
874,085	54,78
874,256	110,08
874,428	52,74
874,599	28,16
874,77	208,38
874,942	11,78
875,113	97,79
875,284	11,78
875,455	15,87
875,626	36,35
875,798	30,21
875,969	-20,99
876,14	114,17
876,311	118,27
876,482	183,81
876,653	99,84
876,824	110,08
876,995	142,85
877,166	62,98
877,337	105,98
877,508	-18,94
877,679	-10,75
877,85	-39,42
878,021	11,78
878,192	118,27
878,363	1,54
878,534	-41,47
878,705	-41,47
878,876	52,74
879,047	108,03
879,217	7,68
879,388	122,37
879,559	69,12
879,73	3,58
879,9	28,16
880,071	36,35
880,242	85,5
880,413	11,78
880,583	118,27
880,754	130,56
880,924	19,97
881,095	71,17
881,266	22,02
881,436	79,36
881,607	187,9
881,777	110,08
881,948	3,58
882,118	-0,51
882,289	60,93
882,459	34,3
882,63	36,35
882,8	44,54
882,971	142,85
883,141	48,64
883,311	155,13
883,482	159,23
883,652	46,59
883,822	69,12
883,993	34,3
884,163	110,08
884,333	11,78
884,504	103,93
884,674	101,89
884,844	97,79
885,014	24,06
885,184	40,45
885,355	36,35
885,525	48,64
885,695	97,79
885,865	198,14
886,035	155,13
886,205	38,4
886,375	151,04
886,545	93,69
886,715	1,54
886,885	77,31
887,055	79,36
887,225	118,27
887,395	77,31
887,565	169,47
887,735	126,46
887,905	157,18
888,075	-2,56
888,244	192
888,414	95,74
888,584	62,98
888,754	44,54
888,924	9,73
889,093	204,28
889,263	77,31
889,433	13,82
889,603	48,64
889,772	126,46
889,942	99,84
890,111	30,21
890,281	69,12
890,451	30,21
890,62	101,89
890,79	19,97
890,959	30,21
891,129	60,93
891,298	110,08
891,468	-10,75
891,637	101,89
891,807	77,31
891,976	28,16
892,146	19,97
892,315	52,74
892,485	130,56
892,654	-2,56
892,823	-25,09
892,993	44,54
893,162	120,32
893,331	81,41
893,501	65,02
893,67	40,45
893,839	69,12
894,008	77,31
894,177	91,65
894,347	50,69
894,516	167,42
894,685	77,31
894,854	69,12
895,023	69,12
895,192	89,6
