Data from mercure_USB4F104161__7__11-31-53-219.txt Node

Date: Tue Apr 14 11:31:53 EDT 2026
User: LaboPhy
Spectrometer: USB4F10416
Trigger mode: 4
Integration Time (sec): 1,000000E-1
Scans to average: 1
Electric dark correction enabled: true
Nonlinearity correction enabled: false
Boxcar width: 0
XAxis mode: Wavelengths
Number of Pixels in Spectrum: 3648
>>>>>Begin Spectral Data<<<<<
177,847	-203,43
178,066	-203,43
178,284	-203,43
178,502	-203,43
178,72	-170,66
178,939	48,47
179,157	3,41
179,375	1,37
179,593	42,32
179,812	36,18
180,03	-0,68
180,248	19,8
180,466	-92,84
180,685	27,99
180,903	-31,4
181,121	-98,99
181,339	44,37
181,557	-41,64
181,775	34,13
181,994	-80,55
182,212	-31,4
182,43	-105,13
182,648	13,65
182,866	9,56
183,084	68,95
183,302	-76,46
183,52	11,61
183,739	60,76
183,957	46,42
184,175	-39,59
184,393	-55,98
184,611	3,41
184,829	15,7
185,047	-72,36
185,265	9,56
185,483	-55,98
185,701	75,09
185,919	62,8
186,137	-39,59
186,355	1,37
186,573	-27,31
186,791	27,99
187,009	50,52
187,227	32,08
187,445	1,37
187,663	-66,22
187,881	46,42
188,098	64,85
188,316	17,75
188,534	56,66
188,752	-0,68
188,97	-55,98
189,188	-51,88
189,406	-8,87
189,624	95,57
189,841	-21,16
190,059	-88,75
190,277	1,37
190,495	-39,59
190,713	107,86
190,931	165,2
191,148	25,94
191,366	-70,31
191,584	25,94
191,802	136,53
192,019	25,94
192,237	-0,68
192,455	30,04
192,673	15,7
192,89	-39,59
193,108	23,89
193,326	-23,21
193,543	42,32
193,761	-2,73
193,979	19,8
194,196	17,75
194,414	42,32
194,632	68,95
194,849	-12,97
195,067	17,75
195,285	30,04
195,502	-105,13
195,72	38,23
195,937	13,65
196,155	-8,87
196,373	42,32
196,59	-45,74
196,808	91,48
197,025	25,94
197,243	230,74
197,46	17,75
197,678	1,37
197,895	46,42
198,113	-23,21
198,33	15,7
198,548	9,56
198,765	-29,35
198,983	124,24
199,2	-98,99
199,418	120,15
199,635	-10,92
199,853	13,65
200,07	-35,5
200,288	-15,02
200,505	21,84
200,722	66,9
200,94	30,04
201,157	48,47
201,375	116,05
201,592	36,18
201,809	66,9
202,027	91,48
202,244	9,56
202,461	-60,07
202,679	27,99
202,896	99,67
203,113	-80,55
203,331	9,56
203,548	66,9
203,765	17,75
203,982	40,28
204,2	-23,21
204,417	-43,69
204,634	165,2
204,851	-15,02
205,069	50,52
205,286	-6,83
205,503	73,04
205,72	66,9
205,937	62,8
206,155	-45,74
206,372	93,52
206,589	-72,36
206,806	66,9
207,023	-17,07
207,24	46,42
207,458	-62,12
207,675	-31,4
207,892	23,89
208,109	-17,07
208,326	25,94
208,543	-62,12
208,76	48,47
208,977	68,95
209,194	34,13
209,411	-37,55
209,628	-47,79
209,845	-31,4
210,062	-53,93
210,279	-105,13
210,496	36,18
210,713	-68,27
210,93	-96,94
211,147	19,8
211,364	-10,92
211,581	9,56
211,798	87,38
212,015	-88,75
212,232	-55,98
212,449	-15,02
212,666	11,61
212,883	68,95
213,1	-55,98
213,317	42,32
213,533	25,94
213,75	-15,02
213,967	1,37
214,184	-6,83
214,401	1,37
214,618	-72,36
214,835	1,37
215,051	52,56
215,268	9,56
215,485	66,9
215,702	25,94
215,919	-37,55
216,135	152,91
216,352	32,08
216,569	13,65
216,786	-31,4
217,002	54,61
217,219	27,99
217,436	44,37
217,652	9,56
217,869	3,41
218,086	83,28
218,302	3,41
218,519	107,86
218,736	-55,98
218,952	-187,05
219,169	36,18
219,386	73,04
219,602	91,48
219,819	-31,4
220,036	-62,12
220,252	52,56
220,469	-58,03
220,685	1,37
220,902	34,13
221,118	-15,02
221,335	30,04
221,552	48,47
221,768	79,19
221,985	-39,59
222,201	34,13
222,418	103,76
222,634	-96,94
222,851	-39,59
223,067	11,61
223,284	44,37
223,5	-23,21
223,716	9,56
223,933	-39,59
224,149	36,18
224,366	44,37
224,582	-31,4
224,799	50,52
225,015	-72,36
225,231	-37,55
225,448	-4,78
225,664	87,38
225,88	-72,36
226,097	77,14
226,313	-31,4
226,529	32,08
226,746	71
226,962	9,56
227,178	38,23
227,395	13,65
227,611	-19,11
227,827	-64,17
228,044	36,18
228,26	85,33
228,476	9,56
228,692	64,85
228,909	-12,97
229,125	-23,21
229,341	-15,02
229,557	-31,4
229,773	-62,12
229,99	36,18
230,206	-129,7
230,422	27,99
230,638	-88,75
230,854	27,99
231,07	-15,02
231,286	38,23
231,503	-35,5
231,719	-150,18
231,935	-62,12
232,151	-19,11
232,367	36,18
232,583	-35,5
232,799	93,52
233,015	-35,5
233,231	34,13
233,447	-76,46
233,663	-47,79
233,879	-72,36
234,095	-27,31
234,311	73,04
234,527	-31,4
234,743	27,99
234,959	46,42
235,175	25,94
235,391	-72,36
235,607	25,94
235,823	3,41
236,039	-21,16
236,255	1,37
236,471	21,84
236,687	25,94
236,903	21,84
237,118	54,61
237,334	-6,83
237,55	66,9
237,766	-35,5
237,982	-29,35
238,198	52,56
238,413	-15,02
238,629	-2,73
238,845	-29,35
239,061	3,41
239,277	-6,83
239,492	-31,4
239,708	66,9
239,924	-86,7
240,14	9,56
240,355	126,29
240,571	5,46
240,787	-12,97
241,003	17,75
241,218	-29,35
241,434	-55,98
241,65	101,72
241,865	-66,22
242,081	44,37
242,297	36,18
242,512	34,13
242,728	-23,21
242,944	-31,4
243,159	103,76
243,375	-21,16
243,59	36,18
243,806	27,99
244,022	-10,92
244,237	5,46
244,453	9,56
244,668	17,75
244,884	130,39
245,099	3,41
245,315	60,76
245,53	83,28
245,746	1,37
245,961	50,52
246,177	34,13
246,392	62,8
246,608	46,42
246,823	-31,4
247,039	-4,78
247,254	3,41
247,47	54,61
247,685	9,56
247,9	-70,31
248,116	-31,4
248,331	36,18
248,547	62,8
248,762	-103,08
248,977	42,32
249,193	17,75
249,408	60,76
249,623	13,65
249,839	-39,59
250,054	-144,04
250,269	-15,02
250,485	-4,78
250,7	75,09
250,915	54,61
251,13	19,8
251,346	17,75
251,561	71
251,776	83,28
251,991	-41,64
252,207	44,37
252,422	11,61
252,637	-33,45
252,852	-21,16
253,067	-21,16
253,283	-29,35
253,498	21,84
253,713	-35,5
253,928	-94,89
254,143	-37,55
254,358	27,99
254,573	-66,22
254,788	-62,12
255,004	-33,45
255,219	15,7
255,434	-29,35
255,649	-47,79
255,864	54,61
256,079	-55,98
256,294	-17,07
256,509	1,37
256,724	42,32
256,939	-15,02
257,154	114
257,369	44,37
257,584	48,47
257,799	42,32
258,014	-58,03
258,229	-2,73
258,444	83,28
258,659	-15,02
258,874	91,48
259,089	66,9
259,304	-21,16
259,518	30,04
259,733	27,99
259,948	52,56
260,163	89,43
260,378	-35,5
260,593	25,94
260,808	19,8
261,022	-68,27
261,237	54,61
261,452	9,56
261,667	-55,98
261,882	75,09
262,096	42,32
262,311	95,57
262,526	-21,16
262,741	-21,16
262,955	-6,83
263,17	58,71
263,385	-55,98
263,6	-23,21
263,814	-64,17
264,029	-2,73
264,244	32,08
264,458	-10,92
264,673	68,95
264,888	-31,4
265,102	77,14
265,317	9,56
265,532	-45,74
265,746	44,37
265,961	-23,21
266,175	38,23
266,39	-39,59
266,605	-15,02
266,819	32,08
267,034	27,99
267,248	-76,46
267,463	5,46
267,677	75,09
267,892	54,61
268,106	-109,23
268,321	-10,92
268,535	52,56
268,75	60,76
268,964	3,41
269,179	32,08
269,393	17,75
269,608	46,42
269,822	-37,55
270,036	-103,08
270,251	3,41
270,465	-15,02
270,68	-23,21
270,894	9,56
271,108	58,71
271,323	3,41
271,537	-55,98
271,752	34,13
271,966	38,23
272,18	-113,32
272,394	-64,17
272,609	32,08
272,823	-41,64
273,037	-6,83
273,252	-47,79
273,466	15,7
273,68	75,09
273,894	73,04
274,109	7,51
274,323	11,61
274,537	25,94
274,751	-64,17
274,966	99,67
275,18	-72,36
275,394	-51,88
275,608	-98,99
275,822	-96,94
276,036	-88,75
276,25	25,94
276,465	120,15
276,679	-45,74
276,893	-15,02
277,107	27,99
277,321	1,37
277,535	30,04
277,749	25,94
277,963	-27,31
278,177	-21,16
278,391	30,04
278,605	-64,17
278,819	42,32
279,033	-92,84
279,247	50,52
279,461	95,57
279,675	13,65
279,889	111,96
280,103	11,61
280,317	54,61
280,531	-88,75
280,745	-76,46
280,959	-12,97
281,173	40,28
281,387	1,37
281,601	44,37
281,815	58,71
282,029	-80,55
282,242	99,67
282,456	27,99
282,67	-29,35
282,884	-64,17
283,098	17,75
283,312	-31,4
283,525	-23,21
283,739	1,37
283,953	-12,97
284,167	9,56
284,381	62,8
284,594	-29,35
284,808	1,37
285,022	25,94
285,235	-15,02
285,449	73,04
285,663	-23,21
285,877	27,99
286,09	19,8
286,304	79,19
286,518	58,71
286,731	-96,94
286,945	50,52
287,159	-64,17
287,372	42,32
287,586	3,41
287,799	58,71
288,013	-80,55
288,227	-64,17
288,44	255,31
288,654	83,28
288,867	-10,92
289,081	-80,55
289,294	34,13
289,508	21,84
289,721	25,94
289,935	19,8
290,148	50,52
290,362	1,37
290,575	83,28
290,789	-31,4
291,002	-125,61
291,216	-19,11
291,429	-49,83
291,643	-21,16
291,856	21,84
292,069	42,32
292,283	-78,51
292,496	-4,78
292,71	-6,83
292,923	58,71
293,136	-39,59
293,35	-12,97
293,563	54,61
293,776	40,28
293,99	25,94
294,203	-88,75
294,416	-64,17
294,63	13,65
294,843	13,65
295,056	1,37
295,269	-4,78
295,483	-84,65
295,696	19,8
295,909	-31,4
296,122	34,13
296,335	50,52
296,549	46,42
296,762	52,56
296,975	91,48
297,188	-12,97
297,401	-62,12
297,615	50,52
297,828	-37,55
298,041	79,19
298,254	-45,74
298,467	-15,02
298,68	-96,94
298,893	27,99
299,106	-31,4
299,319	-39,59
299,532	11,61
299,745	-86,7
299,958	-31,4
300,171	-45,74
300,384	25,94
300,598	-103,08
300,81	9,56
301,023	34,13
301,236	-146,09
301,449	5,46
301,662	36,18
301,875	1,37
302,088	-10,92
302,301	25,94
302,514	-51,88
302,727	89,43
302,94	-55,98
303,153	-64,17
303,366	-70,31
303,579	-23,21
303,791	25,94
304,004	17,75
304,217	17,75
304,43	-29,35
304,643	36,18
304,855	-45,74
305,068	42,32
305,281	95,57
305,494	38,23
305,707	-62,12
305,919	161,11
306,132	50,52
306,345	3,41
306,558	95,57
306,77	-58,03
306,983	-2,73
307,196	75,09
307,408	-29,35
307,621	34,13
307,834	34,13
308,046	-55,98
308,259	-33,45
308,472	62,8
308,684	79,19
308,897	44,37
309,109	60,76
309,322	25,94
309,535	136,53
309,747	140,63
309,96	157,01
310,172	142,68
310,385	189,78
310,597	17,75
310,81	148,82
311,022	144,72
311,235	122,2
311,447	206,16
311,66	402,77
311,872	398,67
312,085	558,41
312,297	662,86
312,51	759,11
312,722	1047,88
312,934	1166,66
313,147	1181
313,359	1037,64
313,572	986,44
313,784	865,61
313,996	662,86
314,209	525,65
314,421	314,7
314,633	134,48
314,846	173,39
315,058	157,01
315,27	161,11
315,483	19,8
315,695	87,38
315,907	91,48
316,119	-6,83
316,332	75,09
316,544	73,04
316,756	58,71
316,968	-4,78
317,181	17,75
317,393	36,18
317,605	-43,69
317,817	107,86
318,029	95,57
318,241	5,46
318,454	9,56
318,666	71
318,878	-51,88
319,09	-39,59
319,302	75,09
319,514	60,76
319,726	17,75
319,938	46,42
320,15	1,37
320,362	15,7
320,574	-31,4
320,786	-68,27
320,999	-47,79
321,211	54,61
321,423	77,14
321,635	30,04
321,847	23,89
322,058	1,37
322,27	17,75
322,482	93,52
322,694	50,52
322,906	27,99
323,118	50,52
323,33	103,76
323,542	91,48
323,754	9,56
323,966	-135,85
324,178	71
324,389	73,04
324,601	13,65
324,813	9,56
325,025	105,81
325,237	-10,92
325,449	134,48
325,66	-2,73
325,872	19,8
326,084	73,04
326,296	30,04
326,507	9,56
326,719	42,32
326,931	-4,78
327,143	62,8
327,354	134,48
327,566	62,8
327,778	93,52
327,989	99,67
328,201	17,75
328,413	75,09
328,624	189,78
328,836	44,37
329,048	-55,98
329,259	30,04
329,471	60,76
329,682	38,23
329,894	54,61
330,106	9,56
330,317	89,43
330,529	46,42
330,74	44,37
330,952	79,19
331,163	91,48
331,375	91,48
331,586	54,61
331,798	68,95
332,009	71
332,221	11,61
332,432	148,82
332,644	103,76
332,855	83,28
333,067	144,72
333,278	144,72
333,489	288,08
333,701	175,44
333,912	247,12
334,124	302,42
334,335	304,46
334,546	263,51
334,758	355,66
334,969	550,22
335,18	365,9
335,392	382,29
335,603	468,3
335,814	458,06
336,025	415,05
336,237	394,58
336,448	394,58
336,659	439,63
336,87	419,15
337,082	439,63
337,293	320,85
337,504	324,94
337,715	304,46
337,926	165,2
338,138	255,31
338,349	109,91
338,56	187,73
338,771	103,76
338,982	181,59
339,193	103,76
339,404	247,12
339,616	197,97
339,827	214,35
340,038	93,52
340,249	185,68
340,46	71
340,671	144,72
340,882	275,79
341,093	140,63
341,304	19,8
341,515	95,57
341,726	46,42
341,937	93,52
342,148	66,9
342,359	27,99
342,57	34,13
342,781	208,21
342,992	58,71
343,203	34,13
343,414	134,48
343,624	75,09
343,835	120,15
344,046	165,2
344,257	103,76
344,468	116,05
344,679	-6,83
344,89	56,66
345,1	-23,21
345,311	103,76
345,522	140,63
345,733	103,76
345,944	77,14
346,154	124,24
346,365	128,34
346,576	91,48
346,787	-6,83
346,997	142,68
347,208	138,58
347,419	58,71
347,629	210,26
347,84	175,44
348,051	71
348,261	159,06
348,472	11,61
348,683	132,44
348,893	71
349,104	122,2
349,315	132,44
349,525	81,24
349,736	118,1
349,946	77,14
350,157	259,41
350,368	161,11
350,578	87,38
350,789	181,59
350,999	107,86
351,21	173,39
351,42	79,19
351,631	183,63
351,841	62,8
352,052	132,44
352,262	263,51
352,472	140,63
352,683	169,3
352,893	271,7
353,104	206,16
353,314	292,18
353,525	564,56
353,735	286,03
353,945	249,17
354,156	173,39
354,366	275,79
354,576	335,18
354,787	236,88
354,997	202,07
355,207	243,03
355,418	212,31
355,628	263,51
355,838	294,22
356,048	345,42
356,259	505,17
356,469	345,42
356,679	425,29
356,889	511,31
357,1	456,01
357,31	482,64
357,52	517,45
357,73	476,49
357,94	460,11
358,15	388,43
358,361	347,47
358,571	370
358,781	320,85
358,991	243,03
359,201	257,36
359,411	195,92
359,621	148,82
359,831	292,18
360,041	83,28
360,251	251,22
360,461	255,31
360,672	157,01
360,882	185,68
361,092	134,48
361,302	181,59
361,512	161,11
361,721	169,3
361,931	173,39
362,141	200,02
362,351	169,3
362,561	296,27
362,771	433,49
362,981	920,9
363,191	1307,97
363,401	2102,58
363,611	3185,96
363,821	4302,1
364,03	5645,57
364,24	7245,03
364,45	8887,5
364,66	11728,03
364,87	13423,75
365,08	14238,84
365,289	14677,11
365,499	14300,28
365,709	12442,78
365,919	10349,75
366,128	8078,55
366,338	6563,06
366,548	5358,85
366,758	4523,28
366,967	3450,14
367,177	2581,81
367,387	1735,99
367,596	1154,37
367,806	750,92
368,016	605,52
368,225	470,35
368,435	437,58
368,644	230,74
368,854	308,56
369,064	240,98
369,273	247,12
369,483	281,94
369,692	275,79
369,902	181,59
370,111	259,41
370,321	232,79
370,53	255,31
370,74	259,41
370,949	197,97
371,159	329,04
371,368	322,9
371,578	230,74
371,787	220,5
371,997	216,4
372,206	210,26
372,416	247,12
372,625	230,74
372,834	265,55
373,044	290,13
373,253	337,23
373,462	292,18
373,672	312,66
373,881	380,24
374,09	255,31
374,3	357,71
374,509	345,42
374,718	261,46
374,928	501,07
375,137	306,51
375,346	320,85
375,555	525,65
375,765	339,28
375,974	308,56
376,183	357,71
376,392	238,93
376,601	339,28
376,811	261,46
377,02	257,36
377,229	249,17
377,438	345,42
377,647	234,83
377,856	167,25
378,065	249,17
378,275	238,93
378,484	222,55
378,693	271,7
378,902	251,22
379,111	312,66
379,32	322,9
379,529	378,19
379,738	345,42
379,947	359,76
380,156	470,35
380,365	382,29
380,574	421,2
380,783	281,94
380,992	419,15
381,201	314,7
381,41	269,65
381,619	296,27
381,828	240,98
382,037	281,94
382,245	470,35
382,454	453,97
382,663	421,2
382,872	472,4
383,081	593,23
383,29	636,24
383,499	648,52
383,707	814,41
383,916	931,14
384,125	902,47
384,334	998,73
384,542	1154,37
384,751	1164,61
384,96	1377,6
385,169	1475,9
385,377	1668,41
385,586	1697,08
385,795	2002,23
386,004	2035
386,212	2262,32
386,421	2327,86
386,63	2622,77
386,838	2698,54
387,047	2762,03
387,255	2909,48
387,464	2858,28
387,673	2802,99
387,881	2858,28
388,09	2862,38
388,298	2536,75
388,507	2247,99
388,715	1905,98
388,924	1703,23
389,133	1142,08
389,341	931,14
389,55	724,3
389,758	656,72
389,967	609,61
390,175	365,9
390,383	513,36
390,592	400,72
390,8	394,58
391,009	378,19
391,217	363,86
391,426	441,68
391,634	200,02
391,842	304,46
392,051	249,17
392,259	406,86
392,467	251,22
392,676	189,78
392,884	206,16
393,092	349,52
393,301	304,46
393,509	279,89
393,717	337,23
393,925	345,42
394,134	263,51
394,342	357,71
394,55	415,05
394,758	238,93
394,967	283,98
395,175	165,2
395,383	232,79
395,591	288,08
395,799	271,7
396,007	197,97
396,216	298,32
396,424	271,7
396,632	288,08
396,84	183,63
397,048	273,75
397,256	329,04
397,464	349,52
397,672	263,51
397,88	265,55
398,088	230,74
398,296	337,23
398,504	279,89
398,712	345,42
398,92	376,14
399,128	370
399,336	384,34
399,544	374,1
399,752	404,82
399,96	320,85
400,168	349,52
400,376	341,33
400,584	378,19
400,792	306,51
401	208,21
401,207	322,9
401,415	312,66
401,623	236,88
401,831	374,1
402,039	419,15
402,247	329,04
402,454	542,03
402,662	822,6
402,87	1383,74
403,078	2221,36
403,285	2950,44
403,493	4050,2
403,701	5170,44
403,909	6409,46
404,116	7998,68
404,324	9782,46
404,532	11981,98
404,739	13200,52
404,947	12776,59
405,155	12575,89
405,362	10306,74
405,57	8023,26
405,778	5899,52
405,985	4404,5
406,193	3353,89
406,4	2843,95
406,608	2381,1
406,816	1819,96
407,023	1502,53
407,231	1422,66
407,438	1496,38
407,646	1752,38
407,853	1852,73
408,061	1664,32
408,268	1783,1
408,476	1570,11
408,683	1224
408,89	972,1
409,098	914,76
409,305	689,48
409,513	634,19
409,72	421,2
409,927	333,14
410,135	447,82
410,342	224,59
410,55	394,58
410,757	265,55
410,964	161,11
411,172	259,41
411,379	230,74
411,586	281,94
411,793	238,93
412,001	220,5
412,208	206,16
412,415	281,94
412,622	339,28
412,83	279,89
413,037	292,18
413,244	255,31
413,451	324,94
413,658	433,49
413,866	345,42
414,073	372,05
414,28	460,11
414,487	378,19
414,694	353,62
414,901	404,82
415,108	347,47
415,315	353,62
415,522	447,82
415,73	337,23
415,937	404,82
416,144	329,04
416,351	353,62
416,558	320,85
416,765	310,61
416,972	345,42
417,179	324,94
417,386	345,42
417,593	470,35
417,8	288,08
418,006	492,88
418,213	435,53
418,42	484,69
418,627	484,69
418,834	378,19
419,041	460,11
419,248	544,08
419,455	484,69
419,661	478,54
419,868	468,3
420,075	396,62
420,282	398,67
420,489	419,15
420,696	529,74
420,902	468,3
421,109	503,12
421,316	419,15
421,523	435,53
421,729	390,48
421,936	320,85
422,143	484,69
422,349	349,52
422,556	238,93
422,763	402,77
422,969	273,75
423,176	230,74
423,383	296,27
423,589	484,69
423,796	208,21
424,002	275,79
424,209	255,31
424,416	263,51
424,622	212,31
424,829	210,26
425,035	197,97
425,242	296,27
425,448	267,6
425,655	283,98
425,861	300,37
426,068	304,46
426,274	443,73
426,481	304,46
426,687	355,66
426,894	353,62
427,1	333,14
427,306	238,93
427,513	347,47
427,719	355,66
427,926	275,79
428,132	243,03
428,338	255,31
428,545	271,7
428,751	230,74
428,957	386,38
429,163	347,47
429,37	329,04
429,576	273,75
429,782	329,04
429,989	214,35
430,195	271,7
430,401	255,31
430,607	396,62
430,813	150,87
431,02	304,46
431,226	304,46
431,432	312,66
431,638	286,03
431,844	161,11
432,05	230,74
432,257	357,71
432,463	410,96
432,669	402,77
432,875	451,92
433,081	365,9
433,287	542,03
433,493	519,5
433,699	1373,5
433,905	2401,58
434,111	4146,45
434,317	6337,78
434,523	9399,49
434,729	12465,3
434,935	16112,74
435,141	20472,86
435,347	24185,83
435,553	30348,17
435,759	34904,9
435,965	37280,54
436,171	36911,91
436,377	32875,36
436,582	28615,58
436,788	22008,84
436,994	16622,68
437,2	12186,78
437,406	9020,62
437,612	6442,23
437,818	4412,69
438,023	2712,88
438,229	1733,95
438,435	984,39
438,641	683,34
438,846	509,26
439,052	404,82
439,258	521,55
439,464	451,92
439,669	460,11
439,875	388,43
440,081	300,37
440,286	306,51
440,492	218,45
440,698	277,84
440,903	222,55
441,109	363,86
441,314	218,45
441,52	234,83
441,726	353,62
441,931	251,22
442,137	251,22
442,342	269,65
442,548	335,18
442,753	290,13
442,959	208,21
443,164	267,6
443,37	208,21
443,575	255,31
443,781	230,74
443,986	402,77
444,192	265,55
444,397	251,22
444,602	212,31
444,808	230,74
445,013	265,55
445,219	195,92
445,424	347,47
445,629	304,46
445,835	283,98
446,04	316,75
446,245	251,22
446,451	333,14
446,656	200,02
446,861	240,98
447,066	251,22
447,272	265,55
447,477	263,51
447,682	259,41
447,887	202,07
448,093	263,51
448,298	312,66
448,503	226,64
448,708	189,78
448,913	193,87
449,118	406,86
449,324	320,85
449,529	380,24
449,734	283,98
449,939	169,3
450,144	361,81
450,349	370
450,554	197,97
450,759	386,38
450,964	304,46
451,169	255,31
451,374	181,59
451,579	300,37
451,784	304,46
451,989	296,27
452,194	249,17
452,399	298,32
452,604	232,79
452,809	165,2
453,014	189,78
453,219	259,41
453,424	296,27
453,629	271,7
453,833	253,27
454,038	322,9
454,243	288,08
454,448	238,93
454,653	316,75
454,858	243,03
455,062	191,83
455,267	218,45
455,472	372,05
455,677	300,37
455,882	240,98
456,086	281,94
456,291	312,66
456,496	202,07
456,7	224,59
456,905	208,21
457,11	273,75
457,314	324,94
457,519	218,45
457,724	345,42
457,928	202,07
458,133	288,08
458,338	337,23
458,542	294,22
458,747	271,7
458,951	220,5
459,156	320,85
459,36	206,16
459,565	345,42
459,769	171,35
459,974	320,85
460,178	191,83
460,383	189,78
460,587	296,27
460,792	290,13
460,996	247,12
461,201	316,75
461,405	140,63
461,61	230,74
461,814	257,36
462,018	165,2
462,223	288,08
462,427	222,55
462,631	204,11
462,836	355,66
463,04	322,9
463,244	349,52
463,449	167,25
463,653	370
463,857	216,4
464,062	324,94
464,266	189,78
464,47	249,17
464,674	298,32
464,878	279,89
465,083	238,93
465,287	298,32
465,491	277,84
465,695	357,71
465,899	247,12
466,104	283,98
466,308	298,32
466,512	322,9
466,716	281,94
466,92	427,34
467,124	265,55
467,328	255,31
467,532	320,85
467,736	314,7
467,94	236,88
468,144	189,78
468,348	308,56
468,552	421,2
468,756	316,75
468,96	296,27
469,164	181,59
469,368	316,75
469,572	283,98
469,776	353,62
469,98	314,7
470,184	322,9
470,388	320,85
470,591	337,23
470,795	300,37
470,999	251,22
471,203	249,17
471,407	337,23
471,611	279,89
471,814	240,98
472,018	197,97
472,222	349,52
472,426	394,58
472,63	363,86
472,833	347,47
473,037	296,27
473,241	279,89
473,444	396,62
473,648	632,14
473,852	288,08
474,055	363,86
474,259	288,08
474,463	304,46
474,666	361,81
474,87	271,7
475,074	312,66
475,277	247,12
475,481	345,42
475,684	259,41
475,888	281,94
476,091	226,64
476,295	308,56
476,498	322,9
476,702	294,22
476,905	349,52
477,109	400,72
477,312	296,27
477,516	292,18
477,719	329,04
477,923	302,42
478,126	245,07
478,329	347,47
478,533	240,98
478,736	331,09
478,94	296,27
479,143	292,18
479,346	322,9
479,55	353,62
479,753	322,9
479,956	318,8
480,159	312,66
480,363	421,2
480,566	302,42
480,769	312,66
480,972	288,08
481,176	353,62
481,379	382,29
481,582	394,58
481,785	263,51
481,988	263,51
482,192	413,01
482,395	357,71
482,598	372,05
482,801	316,75
483,004	478,54
483,207	361,81
483,41	372,05
483,613	306,51
483,817	419,15
484,02	378,19
484,223	337,23
484,426	421,2
484,629	359,76
484,832	365,9
485,035	363,86
485,238	355,66
485,441	374,1
485,644	437,58
485,846	464,21
486,049	349,52
486,252	359,76
486,455	345,42
486,658	324,94
486,861	437,58
487,064	451,92
487,267	304,46
487,47	476,49
487,672	413,01
487,875	335,18
488,078	378,19
488,281	501,07
488,484	378,19
488,686	435,53
488,889	427,34
489,092	378,19
489,295	453,97
489,497	501,07
489,7	339,28
489,903	396,62
490,105	402,77
490,308	511,31
490,511	529,74
490,713	589,13
490,916	542,03
491,118	619,85
491,321	609,61
491,524	566,6
491,726	593,23
491,929	492,88
492,131	611,66
492,334	533,84
492,536	480,59
492,739	456,01
492,941	511,31
493,144	568,65
493,346	423,25
493,549	429,39
493,751	329,04
493,954	380,24
494,156	355,66
494,359	331,09
494,561	279,89
494,763	453,97
494,966	417,1
495,168	529,74
495,37	312,66
495,573	337,23
495,775	382,29
495,977	443,73
496,18	421,2
496,382	458,06
496,584	419,15
496,787	417,1
496,989	365,9
497,191	370
497,393	427,34
497,595	380,24
497,798	329,04
498	402,77
498,202	380,24
498,404	392,53
498,606	404,82
498,808	443,73
499,011	533,84
499,213	337,23
499,415	413,01
499,617	505,17
499,819	419,15
500,021	574,8
500,223	398,67
500,425	314,7
500,627	298,32
500,829	408,91
501,031	421,2
501,233	333,14
501,435	476,49
501,637	496,97
501,839	513,36
502,041	304,46
502,243	410,96
502,445	337,23
502,647	386,38
502,848	427,34
503,05	378,19
503,252	470,35
503,454	388,43
503,656	492,88
503,858	404,82
504,059	478,54
504,261	374,1
504,463	435,53
504,665	372,05
504,867	392,53
505,068	427,34
505,27	406,86
505,472	443,73
505,673	341,33
505,875	308,56
506,077	421,2
506,278	333,14
506,48	421,2
506,682	386,38
506,883	425,29
507,085	421,2
507,287	361,81
507,488	410,96
507,69	445,77
507,891	406,86
508,093	566,6
508,294	413,01
508,496	279,89
508,697	331,09
508,899	402,77
509,1	423,25
509,302	460,11
509,503	410,96
509,705	410,96
509,906	370
510,108	259,41
510,309	388,43
510,51	419,15
510,712	335,18
510,913	386,38
511,114	437,58
511,316	263,51
511,517	535,89
511,718	367,95
511,92	458,06
512,121	429,39
512,322	357,71
512,524	427,34
512,725	425,29
512,926	378,19
513,127	370
513,329	453,97
513,53	394,58
513,731	447,82
513,932	404,82
514,133	398,67
514,334	410,96
514,536	413,01
514,737	488,78
514,938	478,54
515,139	472,4
515,34	310,61
515,541	582,99
515,742	415,05
515,943	474,45
516,144	386,38
516,345	456,01
516,546	421,2
516,747	470,35
516,948	476,49
517,149	402,77
517,35	353,62
517,551	329,04
517,752	451,92
517,953	443,73
518,154	468,3
518,355	460,11
518,556	427,34
518,756	413,01
518,957	359,76
519,158	437,58
519,359	355,66
519,56	413,01
519,761	494,93
519,961	451,92
520,162	560,46
520,363	290,13
520,564	370
520,764	486,73
520,965	402,77
521,166	517,45
521,366	372,05
521,567	437,58
521,768	476,49
521,968	388,43
522,169	431,44
522,37	372,05
522,57	312,66
522,771	404,82
522,972	331,09
523,172	527,69
523,373	429,39
523,573	415,05
523,774	427,34
523,974	480,59
524,175	443,73
524,375	423,25
524,576	345,42
524,776	447,82
524,977	427,34
525,177	456,01
525,378	451,92
525,578	429,39
525,778	423,25
525,979	550,22
526,179	470,35
526,38	423,25
526,58	361,81
526,78	363,86
526,981	562,51
527,181	460,11
527,381	316,75
527,582	523,6
527,782	468,3
527,982	451,92
528,182	374,1
528,383	355,66
528,583	509,26
528,783	370
528,983	425,29
529,183	347,47
529,384	419,15
529,584	542,03
529,784	550,22
529,984	492,88
530,184	314,7
530,384	345,42
530,584	249,17
530,784	443,73
530,984	370
531,185	451,92
531,385	410,96
531,585	462,16
531,785	443,73
531,985	304,46
532,185	413,01
532,385	351,57
532,585	419,15
532,785	304,46
532,984	345,42
533,184	482,64
533,384	419,15
533,584	427,34
533,784	392,53
533,984	413,01
534,184	355,66
534,384	296,27
534,583	468,3
534,783	427,34
534,983	429,39
535,183	410,96
535,383	345,42
535,582	453,97
535,782	462,16
535,982	542,03
536,182	460,11
536,381	353,62
536,581	329,04
536,781	451,92
536,98	492,88
537,18	443,73
537,38	480,59
537,579	359,76
537,779	390,48
537,979	451,92
538,178	337,23
538,378	517,45
538,577	367,95
538,777	404,82
538,976	345,42
539,176	376,14
539,376	415,05
539,575	402,77
539,774	419,15
539,974	380,24
540,173	445,77
540,373	427,34
540,572	357,71
540,772	339,28
540,971	413,01
541,171	480,59
541,37	505,17
541,569	451,92
541,769	462,16
541,968	425,29
542,167	468,3
542,367	443,73
542,566	435,53
542,765	470,35
542,965	527,69
543,164	607,56
543,363	558,41
543,562	566,6
543,761	611,66
543,961	877,9
544,16	1207,62
544,359	3282,21
544,558	6511,86
544,757	11328,68
544,957	17110,1
545,156	24830,94
545,355	32998,24
545,554	40456,94
545,753	48616,05
545,952	53197,35
546,151	57999,84
546,35	59070,93
546,549	57418,22
546,748	52986,41
546,947	47350,4
547,146	41204,45
547,345	33882,96
547,544	27986,86
547,743	22094,85
547,942	16528,47
548,141	11502,76
548,34	7242,98
548,539	4277,52
548,738	2563,37
548,937	1822,01
549,135	1213,76
549,334	888,14
549,533	779,59
549,732	626
549,931	648,52
550,13	607,56
550,328	503,12
550,527	607,56
550,726	509,26
550,925	445,77
551,123	423,25
551,322	431,44
551,521	484,69
551,72	374,1
551,918	490,83
552,117	431,44
552,315	419,15
552,514	480,59
552,713	402,77
552,911	329,04
553,11	206,16
553,309	365,9
553,507	394,58
553,706	378,19
553,904	349,52
554,103	386,38
554,301	320,85
554,5	380,24
554,698	361,81
554,897	281,94
555,095	206,16
555,294	279,89
555,492	281,94
555,69	410,96
555,889	230,74
556,087	267,6
556,286	351,57
556,484	324,94
556,682	351,57
556,881	271,7
557,079	345,42
557,277	314,7
557,476	337,23
557,674	281,94
557,872	386,38
558,07	304,46
558,269	255,31
558,467	279,89
558,665	222,55
558,863	230,74
559,062	277,84
559,26	279,89
559,458	238,93
559,656	290,13
559,854	312,66
560,052	238,93
560,25	296,27
560,449	476,49
560,647	247,12
560,845	210,26
561,043	249,17
561,241	423,25
561,439	337,23
561,637	259,41
561,835	281,94
562,033	384,34
562,231	189,78
562,429	226,64
562,627	304,46
562,825	275,79
563,023	304,46
563,221	273,75
563,418	255,31
563,616	324,94
563,814	402,77
564,012	308,56
564,21	257,36
564,408	222,55
564,605	314,7
564,803	234,83
565,001	533,84
565,199	197,97
565,397	271,7
565,594	345,42
565,792	329,04
565,99	232,79
566,188	218,45
566,385	238,93
566,583	259,41
566,781	372,05
566,978	335,18
567,176	408,91
567,373	335,18
567,571	357,71
567,769	304,46
567,966	152,91
568,164	470,35
568,361	337,23
568,559	316,75
568,756	263,51
568,954	298,32
569,151	355,66
569,349	347,47
569,546	232,79
569,744	324,94
569,941	353,62
570,139	345,42
570,336	247,12
570,534	316,75
570,731	224,59
570,928	200,02
571,126	419,15
571,323	320,85
571,52	197,97
571,718	390,48
571,915	329,04
572,112	206,16
572,31	308,56
572,507	382,29
572,704	279,89
572,901	218,45
573,099	345,42
573,296	378,19
573,493	257,36
573,69	316,75
573,887	247,12
574,085	431,44
574,282	357,71
574,479	273,75
574,676	492,88
574,873	361,81
575,07	353,62
575,267	490,83
575,464	902,47
575,661	1516,86
575,858	2147,64
576,055	2831,66
576,252	3867,93
576,449	4803,85
576,646	5614,85
576,843	6100,22
577,04	6556,91
577,237	6700,27
577,434	6681,84
577,631	6956,27
577,828	6857,96
578,025	6833,39
578,222	7345,38
578,419	7656,67
578,615	8154,33
578,812	8305,88
579,009	8365,27
579,206	8137,95
579,403	8039,64
579,599	7038,19
579,796	6530,29
579,993	5807,36
580,19	4990,22
580,386	4361,49
580,583	3894,55
580,78	2962,73
580,976	2417,97
581,173	1799,48
581,37	1420,61
581,566	910,66
581,763	623,95
581,96	519,5
582,156	394,58
582,353	476,49
582,549	560,46
582,746	302,42
582,942	347,47
583,139	337,23
583,335	349,52
583,532	370
583,728	378,19
583,925	378,19
584,121	386,38
584,318	390,48
584,514	402,77
584,711	431,44
584,907	388,43
585,103	331,09
585,3	406,86
585,496	388,43
585,693	347,47
585,889	396,62
586,085	337,23
586,281	361,81
586,478	394,58
586,674	322,9
586,87	353,62
587,067	306,51
587,263	419,15
587,459	386,38
587,655	341,33
587,851	410,96
588,048	494,93
588,244	406,86
588,44	355,66
588,636	363,86
588,832	427,34
589,028	560,46
589,224	337,23
589,42	345,42
589,617	388,43
589,813	402,77
590,009	333,14
590,205	398,67
590,401	406,86
590,597	374,1
590,793	382,29
590,989	335,18
591,185	388,43
591,38	347,47
591,576	281,94
591,772	314,7
591,968	238,93
592,164	333,14
592,36	402,77
592,556	279,89
592,752	345,42
592,948	324,94
593,143	220,5
593,339	296,27
593,535	355,66
593,731	359,76
593,926	386,38
594,122	363,86
594,318	329,04
594,514	425,29
594,709	320,85
594,905	365,9
595,101	396,62
595,296	304,46
595,492	439,63
595,688	349,52
595,883	427,34
596,079	378,19
596,275	279,89
596,47	376,14
596,666	281,94
596,861	249,17
597,057	214,35
597,252	232,79
597,448	263,51
597,643	370
597,839	329,04
598,034	283,98
598,23	281,94
598,425	292,18
598,621	310,61
598,816	388,43
599,011	337,23
599,207	329,04
599,402	320,85
599,597	402,77
599,793	415,05
599,988	288,08
600,183	353,62
600,379	437,58
600,574	326,99
600,769	380,24
600,965	324,94
601,16	443,73
601,355	320,85
601,55	351,57
601,745	326,99
601,941	365,9
602,136	386,38
602,331	406,86
602,526	329,04
602,721	290,13
602,916	224,59
603,111	355,66
603,307	288,08
603,502	382,29
603,697	243,03
603,892	339,28
604,087	329,04
604,282	478,54
604,477	357,71
604,672	365,9
604,867	345,42
605,062	267,6
605,257	425,29
605,452	443,73
605,646	439,63
605,841	312,66
606,036	259,41
606,231	234,83
606,426	370
606,621	240,98
606,816	238,93
607,01	349,52
607,205	238,93
607,4	271,7
607,595	300,37
607,79	222,55
607,984	288,08
608,179	267,6
608,374	214,35
608,569	193,87
608,763	183,63
608,958	148,82
609,153	255,31
609,347	220,5
609,542	177,49
609,736	279,89
609,931	251,22
610,126	216,4
610,32	208,21
610,515	175,44
610,709	488,78
610,904	267,6
611,098	126,29
611,293	136,53
611,487	197,97
611,682	177,49
611,876	185,68
612,071	183,63
612,265	294,22
612,46	206,16
612,654	304,46
612,848	210,26
613,043	216,4
613,237	232,79
613,432	152,91
613,626	77,14
613,82	103,76
614,014	271,7
614,209	240,98
614,403	124,24
614,597	210,26
614,792	257,36
614,986	183,63
615,18	304,46
615,374	230,74
615,568	150,87
615,763	210,26
615,957	214,35
616,151	169,3
616,345	165,2
616,539	103,76
616,733	154,96
616,927	105,81
617,121	222,55
617,316	197,97
617,51	177,49
617,704	232,79
617,898	232,79
618,092	140,63
618,286	101,72
618,48	148,82
618,674	224,59
618,868	212,31
619,061	44,37
619,255	173,39
619,449	118,1
619,643	36,18
619,837	281,94
620,031	167,25
620,225	189,78
620,419	99,67
620,612	224,59
620,806	197,97
621	210,26
621,194	132,44
621,388	107,86
621,581	193,87
621,775	204,11
621,969	142,68
622,162	189,78
622,356	144,72
622,55	189,78
622,743	148,82
622,937	185,68
623,131	238,93
623,324	238,93
623,518	157,01
623,712	218,45
623,905	126,29
624,099	175,44
624,292	193,87
624,486	179,54
624,679	83,28
624,873	126,29
625,066	206,16
625,26	130,39
625,453	99,67
625,647	197,97
625,84	175,44
626,034	271,7
626,227	85,33
626,42	296,27
626,614	77,14
626,807	238,93
627	222,55
627,194	191,83
627,387	181,59
627,58	120,15
627,774	116,05
627,967	183,63
628,16	243,03
628,353	243,03
628,547	249,17
628,74	269,65
628,933	183,63
629,126	191,83
629,319	210,26
629,513	189,78
629,706	124,24
629,899	306,51
630,092	157,01
630,285	136,53
630,478	173,39
630,671	273,75
630,864	275,79
631,057	216,4
631,25	269,65
631,443	204,11
631,636	157,01
631,829	249,17
632,022	306,51
632,215	214,35
632,408	140,63
632,601	255,31
632,794	152,91
632,987	220,5
633,18	238,93
633,373	265,55
633,566	91,48
633,758	116,05
633,951	200,02
634,144	288,08
634,337	187,73
634,53	193,87
634,722	240,98
634,915	222,55
635,108	191,83
635,301	265,55
635,493	265,55
635,686	370
635,879	251,22
636,071	197,97
636,264	345,42
636,457	312,66
636,649	189,78
636,842	304,46
637,034	329,04
637,227	435,53
637,42	404,82
637,612	243,03
637,805	279,89
637,997	298,32
638,19	275,79
638,382	206,16
638,575	353,62
638,767	308,56
638,96	308,56
639,152	281,94
639,344	370
639,537	232,79
639,729	249,17
639,922	259,41
640,114	314,7
640,306	271,7
640,499	290,13
640,691	290,13
640,883	140,63
641,075	310,61
641,268	314,7
641,46	226,64
641,652	263,51
641,844	232,79
642,037	273,75
642,229	216,4
642,421	347,47
642,613	255,31
642,805	314,7
642,998	331,09
643,19	331,09
643,382	402,77
643,574	410,96
643,766	359,76
643,958	470,35
644,15	378,19
644,342	476,49
644,534	517,45
644,726	312,66
644,918	445,77
645,11	382,29
645,302	437,58
645,494	378,19
645,686	398,67
645,878	271,7
646,07	476,49
646,262	380,24
646,453	427,34
646,645	390,48
646,837	361,81
647,029	288,08
647,221	322,9
647,413	365,9
647,604	343,38
647,796	386,38
647,988	314,7
648,18	292,18
648,371	333,14
648,563	283,98
648,755	353,62
648,947	339,28
649,138	298,32
649,33	345,42
649,521	372,05
649,713	310,61
649,905	306,51
650,096	384,34
650,288	320,85
650,479	329,04
650,671	404,82
650,863	413,01
651,054	462,16
651,246	451,92
651,437	447,82
651,629	470,35
651,82	429,39
652,011	419,15
652,203	527,69
652,394	472,4
652,586	417,1
652,777	535,89
652,968	447,82
653,16	480,59
653,351	460,11
653,542	515,41
653,734	474,45
653,925	320,85
654,116	443,73
654,308	392,53
654,499	470,35
654,69	396,62
654,881	320,85
655,073	294,22
655,264	382,29
655,455	251,22
655,646	372,05
655,837	435,53
656,028	415,05
656,219	329,04
656,411	331,09
656,602	279,89
656,793	312,66
656,984	316,75
657,175	333,14
657,366	378,19
657,557	398,67
657,748	308,56
657,939	367,95
658,13	355,66
658,321	398,67
658,512	462,16
658,703	394,58
658,894	451,92
659,084	478,54
659,275	427,34
659,466	525,65
659,657	496,97
659,848	558,41
660,039	517,45
660,23	443,73
660,42	410,96
660,611	427,34
660,802	374,1
660,993	486,73
661,183	423,25
661,374	484,69
661,565	492,88
661,755	394,58
661,946	370
662,137	441,68
662,327	380,24
662,518	361,81
662,709	324,94
662,899	322,9
663,09	312,66
663,28	296,27
663,471	259,41
663,662	419,15
663,852	257,36
664,043	224,59
664,233	275,79
664,424	296,27
664,614	148,82
664,804	212,31
664,995	339,28
665,185	281,94
665,376	214,35
665,566	394,58
665,756	263,51
665,947	314,7
666,137	247,12
666,328	423,25
666,518	290,13
666,708	320,85
666,898	247,12
667,089	425,29
667,279	372,05
667,469	343,38
667,659	335,18
667,85	357,71
668,04	370
668,23	345,42
668,42	298,32
668,61	347,47
668,8	408,91
668,991	304,46
669,181	558,41
669,371	300,37
669,561	349,52
669,751	378,19
669,941	380,24
670,131	298,32
670,321	304,46
670,511	281,94
670,701	263,51
670,891	281,94
671,081	218,45
671,271	232,79
671,461	134,48
671,651	259,41
671,841	208,21
672,03	251,22
672,22	193,87
672,41	226,64
672,6	247,12
672,79	257,36
672,98	218,45
673,169	150,87
673,359	167,25
673,549	208,21
673,739	107,86
673,928	214,35
674,118	189,78
674,308	263,51
674,497	187,73
674,687	204,11
674,877	238,93
675,066	177,49
675,256	181,59
675,446	308,56
675,635	240,98
675,825	214,35
676,014	333,14
676,204	255,31
676,393	337,23
676,583	298,32
676,772	363,86
676,962	273,75
677,151	257,36
677,341	234,83
677,53	265,55
677,72	243,03
677,909	247,12
678,099	279,89
678,288	116,05
678,477	263,51
678,667	257,36
678,856	306,51
679,045	243,03
679,235	251,22
679,424	189,78
679,613	263,51
679,802	173,39
679,992	230,74
680,181	165,2
680,37	107,86
680,559	161,11
680,748	238,93
680,938	126,29
681,127	109,91
681,316	124,24
681,505	144,72
681,694	79,19
681,883	165,2
682,072	66,9
682,261	101,72
682,45	34,13
682,639	101,72
682,828	181,59
683,017	146,77
683,206	208,21
683,395	148,82
683,584	165,2
683,773	148,82
683,962	58,71
684,151	-15,02
684,34	101,72
684,529	142,68
684,718	173,39
684,907	25,94
685,095	204,11
685,284	214,35
685,473	157,01
685,662	99,67
685,851	165,2
686,039	109,91
686,228	159,06
686,417	38,23
686,606	185,68
686,794	150,87
686,983	-23,21
687,172	124,24
687,36	132,44
687,549	181,59
687,738	60,76
687,926	13,65
688,115	120,15
688,303	77,14
688,492	146,77
688,68	-15,02
688,869	42,32
689,057	56,66
689,246	-31,4
689,434	93,52
689,623	99,67
689,811	148,82
690	148,82
690,188	124,24
690,377	165,2
690,565	210,26
690,753	189,78
690,942	179,54
691,13	148,82
691,318	114
691,507	142,68
691,695	255,31
691,883	116,05
692,072	91,48
692,26	175,44
692,448	173,39
692,636	91,48
692,824	50,52
693,013	148,82
693,201	161,11
693,389	-23,21
693,577	66,9
693,765	140,63
693,953	50,52
694,141	101,72
694,329	38,23
694,518	50,52
694,706	30,04
694,894	103,76
695,082	68,95
695,27	148,82
695,458	157,01
695,646	134,48
695,834	200,02
696,022	191,83
696,209	253,27
696,397	257,36
696,585	267,6
696,773	216,4
696,961	212,31
697,149	140,63
697,337	267,6
697,525	206,16
697,712	193,87
697,9	226,64
698,088	224,59
698,276	232,79
698,463	128,34
698,651	140,63
698,839	11,61
699,027	206,16
699,214	140,63
699,402	124,24
699,59	73,04
699,777	11,61
699,965	75,09
700,152	109,91
700,34	9,56
700,528	50,52
700,715	50,52
700,903	105,81
701,09	200,02
701,278	9,56
701,465	148,82
701,653	111,96
701,84	-4,78
702,028	101,72
702,215	126,29
702,402	34,13
702,59	150,87
702,777	152,91
702,965	-23,21
703,152	107,86
703,339	181,59
703,527	87,38
703,714	36,18
703,901	93,52
704,088	75,09
704,276	42,32
704,463	99,67
704,65	64,85
704,837	7,51
705,025	148,82
705,212	142,68
705,399	66,9
705,586	36,18
705,773	132,44
705,96	120,15
706,147	116,05
706,335	144,72
706,522	193,87
706,709	128,34
706,896	189,78
707,083	152,91
707,27	111,96
707,457	167,25
707,644	91,48
707,831	148,82
708,018	75,09
708,205	165,2
708,392	107,86
708,578	224,59
708,765	85,33
708,952	21,84
709,139	101,72
709,326	19,8
709,513	89,43
709,7	109,91
709,886	208,21
710,073	152,91
710,26	189,78
710,447	120,15
710,633	66,9
710,82	73,04
711,007	101,72
711,193	25,94
711,38	73,04
711,567	142,68
711,753	56,66
711,94	116,05
712,127	126,29
712,313	138,58
712,5	99,67
712,686	91,48
712,873	124,24
713,059	107,86
713,246	142,68
713,432	114
713,619	99,67
713,805	60,76
713,992	140,63
714,178	56,66
714,365	144,72
714,551	142,68
714,737	120,15
714,924	79,19
715,11	101,72
715,297	138,58
715,483	66,9
715,669	126,29
715,855	83,28
716,042	197,97
716,228	50,52
716,414	157,01
716,6	126,29
716,787	87,38
716,973	58,71
717,159	197,97
717,345	9,56
717,531	93,52
717,718	99,67
717,904	118,1
718,09	34,13
718,276	75,09
718,462	71
718,648	107,86
718,834	-6,83
719,02	124,24
719,206	116,05
719,392	77,14
719,578	124,24
719,764	50,52
719,95	42,32
720,136	165,2
720,322	46,42
720,508	68,95
720,694	44,37
720,879	50,52
721,065	161,11
721,251	46,42
721,437	95,57
721,623	152,91
721,809	107,86
721,994	116,05
722,18	-12,97
722,366	148,82
722,552	140,63
722,737	134,48
722,923	163,15
723,109	165,2
723,294	142,68
723,48	208,21
723,666	177,49
723,851	157,01
724,037	208,21
724,222	197,97
724,408	238,93
724,593	144,72
724,779	148,82
724,965	140,63
725,15	140,63
725,336	177,49
725,521	243,03
725,706	181,59
725,892	165,2
726,077	91,48
726,263	140,63
726,448	234,83
726,634	210,26
726,819	320,85
727,004	279,89
727,19	185,68
727,375	206,16
727,56	206,16
727,745	107,86
727,931	206,16
728,116	25,94
728,301	157,01
728,486	177,49
728,672	85,33
728,857	165,2
729,042	66,9
729,227	66,9
729,412	161,11
729,597	140,63
729,783	75,09
729,968	99,67
730,153	134,48
730,338	66,9
730,523	185,68
730,708	132,44
730,893	99,67
731,078	206,16
731,263	150,87
731,448	34,13
731,633	105,81
731,818	17,75
732,003	83,28
732,187	68,95
732,372	71
732,557	161,11
732,742	116,05
732,927	140,63
733,112	159,06
733,297	193,87
733,481	161,11
733,666	247,12
733,851	165,2
734,036	148,82
734,22	230,74
734,405	304,46
734,59	116,05
734,774	150,87
734,959	169,3
735,144	281,94
735,328	265,55
735,513	152,91
735,698	148,82
735,882	197,97
736,067	322,9
736,251	150,87
736,436	183,63
736,62	89,43
736,805	152,91
736,989	265,55
737,174	218,45
737,358	132,44
737,543	263,51
737,727	298,32
737,911	326,99
738,096	255,31
738,28	312,66
738,465	238,93
738,649	320,85
738,833	265,55
739,018	263,51
739,202	132,44
739,386	202,07
739,57	243,03
739,755	206,16
739,939	238,93
740,123	85,33
740,307	95,57
740,491	142,68
740,676	91,48
740,86	214,35
741,044	83,28
741,228	122,2
741,412	21,84
741,596	105,81
741,78	-17,07
741,964	77,14
742,148	83,28
742,332	150,87
742,516	66,9
742,7	134,48
742,884	183,63
743,068	68,95
743,252	89,43
743,436	109,91
743,62	73,04
743,804	283,98
743,988	255,31
744,172	161,11
744,356	116,05
744,539	210,26
744,723	107,86
744,907	161,11
745,091	240,98
745,275	238,93
745,458	306,51
745,642	247,12
745,826	255,31
746,009	316,75
746,193	263,51
746,377	251,22
746,56	279,89
746,744	347,47
746,928	339,28
747,111	318,8
747,295	298,32
747,478	261,46
747,662	238,93
747,846	353,62
748,029	263,51
748,213	243,03
748,396	353,62
748,58	296,27
748,763	265,55
748,946	183,63
749,13	337,23
749,313	208,21
749,497	361,81
749,68	337,23
749,863	380,24
750,047	220,5
750,23	345,42
750,413	421,2
750,597	460,11
750,78	378,19
750,963	478,54
751,146	331,09
751,33	451,92
751,513	402,77
751,696	355,66
751,879	238,93
752,062	210,26
752,246	312,66
752,429	275,79
752,612	230,74
752,795	191,83
752,978	122,2
753,161	130,39
753,344	142,68
753,527	83,28
753,71	107,86
753,893	167,25
754,076	23,89
754,259	161,11
754,442	1,37
754,625	54,61
754,808	120,15
754,991	107,86
755,174	93,52
755,357	97,62
755,539	122,2
755,722	183,63
755,905	91,48
756,088	105,81
756,271	56,66
756,453	197,97
756,636	109,91
756,819	91,48
757,002	68,95
757,184	232,79
757,367	132,44
757,55	136,53
757,732	202,07
757,915	95,57
758,098	183,63
758,28	220,5
758,463	175,44
758,645	197,97
758,828	234,83
759,011	275,79
759,193	116,05
759,376	238,93
759,558	97,62
759,741	167,25
759,923	109,91
760,105	177,49
760,288	251,22
760,47	111,96
760,653	99,67
760,835	236,88
761,017	195,92
761,2	157,01
761,382	331,09
761,564	142,68
761,747	238,93
761,929	193,87
762,111	288,08
762,294	222,55
762,476	456,01
762,658	425,29
762,84	654,67
763,022	673,1
763,205	738,63
763,387	795,98
763,569	937,29
763,751	812,36
763,933	681,29
764,115	726,35
764,297	658,76
764,479	685,39
764,661	576,84
764,843	570,7
765,025	333,14
765,207	378,19
765,389	271,7
765,571	197,97
765,753	312,66
765,935	296,27
766,117	312,66
766,299	337,23
766,481	324,94
766,663	157,01
766,845	144,72
767,026	165,2
767,208	161,11
767,39	85,33
767,572	109,91
767,753	132,44
767,935	157,01
768,117	105,81
768,299	181,59
768,48	159,06
768,662	167,25
768,844	126,29
769,025	288,08
769,207	103,76
769,389	116,05
769,57	167,25
769,752	175,44
769,933	173,39
770,115	206,16
770,296	206,16
770,478	298,32
770,659	150,87
770,841	370
771,022	234,83
771,204	281,94
771,385	312,66
771,567	433,49
771,748	390,48
771,929	396,62
772,111	484,69
772,292	460,11
772,473	542,03
772,655	445,77
772,836	419,15
773,017	585,04
773,199	468,3
773,38	374,1
773,561	306,51
773,742	279,89
773,923	349,52
774,105	415,05
774,286	214,35
774,467	167,25
774,648	255,31
774,829	240,98
775,01	175,44
775,191	134,48
775,372	288,08
775,553	116,05
775,734	179,54
775,915	130,39
776,096	197,97
776,277	267,6
776,458	234,83
776,639	398,67
776,82	623,95
777,001	585,04
777,182	595,28
777,363	634,19
777,544	697,67
777,725	634,19
777,906	531,79
778,086	472,4
778,267	431,44
778,448	404,82
778,629	259,41
778,809	349,52
778,99	197,97
779,171	173,39
779,352	175,44
779,532	148,82
779,713	38,23
779,894	169,3
780,074	161,11
780,255	81,24
780,435	148,82
780,616	169,3
780,797	116,05
780,977	27,99
781,158	-23,21
781,338	-4,78
781,519	83,28
781,699	163,15
781,88	9,56
782,06	118,1
782,241	-51,88
782,421	13,65
782,601	36,18
782,782	152,91
782,962	52,56
783,142	-12,97
783,323	19,8
783,503	93,52
783,683	91,48
783,864	124,24
784,044	25,94
784,224	163,15
784,404	68,95
784,585	116,05
784,765	71
784,945	87,38
785,125	-15,02
785,305	132,44
785,485	91,48
785,666	85,33
785,846	95,57
786,026	25,94
786,206	9,56
786,386	95,57
786,566	75,09
786,746	77,14
786,926	83,28
787,106	111,96
787,286	42,32
787,466	107,86
787,646	54,61
787,826	107,86
788,006	50,52
788,185	75,09
788,365	-23,21
788,545	120,15
788,725	77,14
788,905	116,05
789,085	134,48
789,264	118,1
789,444	19,8
789,624	60,76
789,804	34,13
789,983	52,56
790,163	25,94
790,343	27,99
790,522	25,94
790,702	64,85
790,882	75,09
791,061	87,38
791,241	85,33
791,42	120,15
791,6	101,72
791,78	60,76
791,959	25,94
792,139	93,52
792,318	-23,21
792,498	99,67
792,677	75,09
792,856	-4,78
793,036	58,71
793,215	-43,69
793,395	101,72
793,574	36,18
793,753	93,52
793,933	173,39
794,112	173,39
794,291	181,59
794,471	230,74
794,65	175,44
794,829	107,86
795,008	146,77
795,188	193,87
795,367	197,97
795,546	77,14
795,725	140,63
795,904	173,39
796,084	68,95
796,263	116,05
796,442	87,38
796,621	75,09
796,8	118,1
796,979	183,63
797,158	5,46
797,337	75,09
797,516	99,67
797,695	103,76
797,874	109,91
798,053	189,78
798,232	1,37
798,411	75,09
798,59	-62,12
798,769	27,99
798,947	62,8
799,126	75,09
799,305	-6,83
799,484	91,48
799,663	56,66
799,842	95,57
800,02	140,63
800,199	73,04
800,378	273,75
800,557	148,82
800,735	114
800,914	128,34
801,093	234,83
801,271	197,97
801,45	167,25
801,628	337,23
801,807	126,29
801,986	148,82
802,164	165,2
802,343	66,9
802,521	-21,16
802,7	75,09
802,878	130,39
803,057	62,8
803,235	42,32
803,414	75,09
803,592	118,1
803,771	79,19
803,949	99,67
804,127	17,75
804,306	103,76
804,484	34,13
804,662	157,01
804,841	-4,78
805,019	11,61
805,197	83,28
805,375	66,9
805,554	-0,68
805,732	54,61
805,91	73,04
806,088	-6,83
806,266	-15,02
806,445	-31,4
806,623	68,95
806,801	21,84
806,979	27,99
807,157	-6,83
807,335	-31,4
807,513	30,04
807,691	107,86
807,869	-15,02
808,047	15,7
808,225	-68,27
808,403	136,53
808,581	9,56
808,759	175,44
808,937	107,86
809,115	50,52
809,293	136,53
809,471	116,05
809,649	99,67
809,826	99,67
810,004	216,4
810,182	152,91
810,36	165,2
810,538	337,23
810,715	306,51
810,893	370
811,071	488,78
811,248	578,89
811,426	562,51
811,604	492,88
811,781	511,31
811,959	451,92
812,137	333,14
812,314	189,78
812,492	308,56
812,669	263,51
812,847	173,39
813,024	97,62
813,202	273,75
813,379	218,45
813,557	136,53
813,734	249,17
813,912	99,67
814,089	124,24
814,267	161,11
814,444	167,25
814,621	120,15
814,799	46,42
814,976	66,9
815,153	79,19
815,331	81,24
815,508	9,56
815,685	-21,16
815,862	54,61
816,04	19,8
816,217	-55,98
816,394	75,09
816,571	140,63
816,748	193,87
816,926	99,67
817,103	304,46
817,28	42,32
817,457	23,89
817,634	107,86
817,811	-86,7
817,988	17,75
818,165	34,13
818,342	38,23
818,519	-15,02
818,696	-31,4
818,873	36,18
819,05	25,94
819,227	-39,59
819,404	42,32
819,581	73,04
819,758	-19,11
819,934	46,42
820,111	-47,79
820,288	5,46
820,465	71
820,642	118,1
820,818	128,34
820,995	-41,64
821,172	60,76
821,349	36,18
821,525	-6,83
821,702	66,9
821,879	-53,93
822,055	-6,83
822,232	-68,27
822,409	-19,11
822,585	66,9
822,762	83,28
822,938	40,28
823,115	-15,02
823,291	1,37
823,468	58,71
823,644	1,37
823,821	75,09
823,997	-51,88
824,174	-53,93
824,35	-0,68
824,527	34,13
824,703	-10,92
824,879	-17,07
825,056	17,75
825,232	66,9
825,408	5,46
825,585	27,99
825,761	38,23
825,937	95,57
826,113	38,23
826,29	87,38
826,466	62,8
826,642	435,53
826,818	52,56
826,994	-21,16
827,17	77,14
827,347	42,32
827,523	-10,92
827,699	116,05
827,875	-6,83
828,051	40,28
828,227	46,42
828,403	87,38
828,579	118,1
828,755	120,15
828,931	-27,31
829,107	91,48
829,283	95,57
829,459	-41,64
829,635	27,99
829,811	21,84
829,986	42,32
830,162	42,32
830,338	-2,73
830,514	-78,51
830,69	-19,11
830,865	-25,26
831,041	36,18
831,217	-37,55
831,393	-19,11
831,568	15,7
831,744	66,9
831,92	-72,36
832,095	-23,21
832,271	11,61
832,447	25,94
832,622	128,34
832,798	32,08
832,973	1,37
833,149	58,71
833,325	-19,11
833,5	75,09
833,676	79,19
833,851	95,57
834,027	-23,21
834,202	52,56
834,377	36,18
834,553	30,04
834,728	-21,16
834,904	-64,17
835,079	3,41
835,254	-45,74
835,43	-72,36
835,605	-23,21
835,78	-4,78
835,955	46,42
836,131	-19,11
836,306	-49,83
836,481	-39,59
836,656	62,8
836,832	85,33
837,007	-51,88
837,182	-78,51
837,357	34,13
837,532	-29,35
837,707	34,13
837,882	81,24
838,057	15,7
838,232	144,72
838,407	64,85
838,582	-68,27
838,757	9,56
838,932	83,28
839,107	-27,31
839,282	-55,98
839,457	36,18
839,632	83,28
839,807	-12,97
839,982	23,89
840,157	34,13
840,332	111,96
840,506	50,52
840,681	75,09
840,856	46,42
841,031	19,8
841,205	64,85
841,38	146,77
841,555	95,57
841,73	91,48
841,904	140,63
842,079	208,21
842,254	218,45
842,428	116,05
842,603	144,72
842,777	52,56
842,952	134,48
843,126	42,32
843,301	140,63
843,476	83,28
843,65	91,48
843,825	177,49
843,999	230,74
844,173	79,19
844,348	91,48
844,522	173,39
844,697	105,81
844,871	130,39
845,045	116,05
845,22	177,49
845,394	148,82
845,568	60,76
845,743	148,82
845,917	36,18
846,091	27,99
846,265	17,75
846,44	60,76
846,614	83,28
846,788	13,65
846,962	54,61
847,136	34,13
847,31	36,18
847,485	101,72
847,659	-64,17
847,833	99,67
848,007	62,8
848,181	140,63
848,355	-25,26
848,529	42,32
848,703	36,18
848,877	11,61
849,051	91,48
849,225	38,23
849,399	66,9
849,573	11,61
849,746	-70,31
849,92	25,94
850,094	36,18
850,268	27,99
850,442	99,67
850,616	5,46
850,789	7,51
850,963	-47,79
851,137	21,84
851,311	200,02
851,484	109,91
851,658	50,52
851,832	-49,83
852,005	-43,69
852,179	58,71
852,352	34,13
852,526	17,75
852,7	27,99
852,873	79,19
853,047	107,86
853,22	85,33
853,394	-4,78
853,567	36,18
853,741	13,65
853,914	9,56
854,088	36,18
854,261	73,04
854,434	3,41
854,608	-55,98
854,781	-72,36
854,955	36,18
855,128	109,91
855,301	50,52
855,475	56,66
855,648	1,37
855,821	66,9
855,994	9,56
856,168	19,8
856,341	91,48
856,514	-55,98
856,687	-8,87
856,86	150,87
857,033	-2,73
857,207	36,18
857,38	50,52
857,553	177,49
857,726	44,37
857,899	107,86
858,072	-101,03
858,245	-72,36
858,418	-80,55
858,591	-62,12
858,764	34,13
858,937	75,09
859,11	42,32
859,283	-10,92
859,455	-55,98
859,628	-6,83
859,801	66,9
859,974	13,65
860,147	-72,36
860,32	5,46
860,492	11,61
860,665	-107,18
860,838	34,13
861,011	21,84
861,183	52,56
861,356	83,28
861,529	99,67
861,701	3,41
861,874	-6,83
862,047	79,19
862,219	58,71
862,392	85,33
862,564	-15,02
862,737	60,76
862,909	77,14
863,082	-29,35
863,254	-29,35
863,427	17,75
863,599	136,53
863,772	-21,16
863,944	77,14
864,117	60,76
864,289	-23,21
864,461	-31,4
864,634	58,71
864,806	-23,21
864,978	13,65
865,151	-80,55
865,323	152,91
865,495	75,09
865,667	27,99
865,84	167,25
866,012	-35,5
866,184	42,32
866,356	-4,78
866,528	-6,83
866,7	-2,73
866,873	34,13
867,045	1,37
867,217	-25,26
867,389	54,61
867,561	-29,35
867,733	11,61
867,905	21,84
868,077	42,32
868,249	7,51
868,421	85,33
868,593	-6,83
868,765	124,24
868,936	-25,26
869,108	17,75
869,28	116,05
869,452	7,51
869,624	-47,79
869,796	66,9
869,968	58,71
870,139	50,52
870,311	-19,11
870,483	23,89
870,654	-35,5
870,826	27,99
870,998	-15,02
871,17	34,13
871,341	-10,92
871,513	138,58
871,684	9,56
871,856	48,47
872,028	46,42
872,199	1,37
872,371	-47,79
872,542	68,95
872,714	111,96
872,885	91,48
873,057	34,13
873,228	17,75
873,4	46,42
873,571	167,25
873,742	-19,11
873,914	19,8
874,085	-68,27
874,256	5,46
874,428	-84,65
874,599	11,61
874,77	132,44
874,942	-103,08
875,113	36,18
875,284	-76,46
875,455	9,56
875,626	5,46
875,798	-12,97
875,969	9,56
876,14	66,9
876,311	62,8
876,482	177,49
876,653	99,67
876,824	50,52
876,995	118,1
877,166	52,56
877,337	27,99
877,508	-10,92
877,679	-47,79
877,85	-105,13
878,021	-107,18
878,192	75,09
878,363	-10,92
878,534	-2,73
878,705	1,37
878,876	1,37
879,047	42,32
879,217	-49,83
879,388	81,24
879,559	42,32
879,73	109,91
879,9	-23,21
880,071	42,32
880,242	60,76
880,413	1,37
880,583	36,18
880,754	42,32
880,924	-15,02
881,095	-31,4
881,266	-29,35
881,436	71
881,607	68,95
881,777	42,32
881,948	-64,17
882,118	75,09
882,289	-47,79
882,459	11,61
882,63	9,56
882,8	60,76
882,971	109,91
883,141	83,28
883,311	1,37
883,482	126,29
883,652	-4,78
883,822	27,99
883,993	-15,02
884,163	23,89
884,333	101,72
884,504	11,61
884,674	93,52
884,844	15,7
885,014	42,32
885,184	-41,64
885,355	19,8
885,525	21,84
885,695	52,56
885,865	132,44
886,035	36,18
886,205	1,37
886,375	95,57
886,545	34,13
886,715	-19,11
886,885	36,18
887,055	9,56
887,225	-47,79
887,395	109,91
887,565	128,34
887,735	116,05
887,905	42,32
888,075	50,52
888,244	17,75
888,414	75,09
888,584	60,76
888,754	38,23
888,924	66,9
889,093	283,98
889,263	-78,51
889,433	27,99
889,603	97,62
889,772	1,37
889,942	66,9
890,111	46,42
890,281	128,34
890,451	-23,21
890,62	46,42
890,79	17,75
890,959	1,37
891,129	38,23
891,298	54,61
891,468	-31,4
891,637	19,8
891,807	30,04
891,976	36,18
892,146	-23,21
892,315	21,84
892,485	50,52
892,654	9,56
892,823	-33,45
892,993	54,61
893,162	46,42
893,331	75,09
893,501	-6,83
893,67	-29,35
893,839	11,61
894,008	-60,07
894,177	-19,11
894,347	5,46
894,516	116,05
894,685	50,52
894,854	-94,89
895,023	54,61
895,192	25,94
