Data from mercure_USB4F104161__1__11-31-52-693.txt Node

Date: Tue Apr 14 11:31:52 EDT 2026
User: LaboPhy
Spectrometer: USB4F10416
Trigger mode: 4
Integration Time (sec): 1,000000E-1
Scans to average: 1
Electric dark correction enabled: true
Nonlinearity correction enabled: false
Boxcar width: 0
XAxis mode: Wavelengths
Number of Pixels in Spectrum: 3648
>>>>>Begin Spectral Data<<<<<
177,847	-138,41
178,066	-138,41
178,284	-138,41
178,502	-138,41
178,72	-201,9
178,939	0,85
179,157	41,81
179,375	-36,01
179,593	-31,91
179,812	41,81
180,03	66,39
180,248	-38,06
180,466	0,85
180,685	9,05
180,903	-17,58
181,121	-38,06
181,339	0,85
181,557	35,67
181,775	-7,34
181,994	23,38
182,212	-31,91
182,43	74,58
182,648	9,05
182,866	27,48
183,084	125,78
183,302	-52,39
183,52	0,85
183,739	82,77
183,957	133,97
184,175	-3,24
184,393	-9,39
184,611	-27,82
184,829	-29,87
185,047	-27,82
185,265	70,48
185,483	9,05
185,701	58,2
185,919	25,43
186,137	50
186,355	25,43
186,573	-48,3
186,791	133,97
187,009	99,16
187,227	29,52
187,445	74,58
187,663	11,09
187,881	33,62
188,098	-23,72
188,316	15,19
188,534	66,39
188,752	31,57
188,97	-119,98
189,188	2,9
189,406	35,67
189,624	76,63
189,841	88,92
190,059	-68,78
190,277	41,81
190,495	-17,58
190,713	82,77
190,931	166,74
191,148	119,64
191,366	0,85
191,584	-13,48
191,802	25,43
192,019	84,82
192,237	-7,34
192,455	74,58
192,673	62,29
192,89	-25,77
193,108	33,62
193,326	-72,87
193,543	27,48
193,761	50
193,979	70,48
194,196	-64,68
194,414	62,29
194,632	70,48
194,849	17,24
195,067	-40,11
195,285	97,11
195,502	-136,36
195,72	-105,64
195,937	27,48
196,155	33,62
196,373	-15,53
196,59	25,43
196,808	52,05
197,025	90,96
197,243	318,29
197,46	52,05
197,678	99,16
197,895	54,1
198,113	-64,68
198,33	-21,67
198,548	50
198,765	25,43
198,983	107,35
199,2	-87,21
199,418	99,16
199,635	-33,96
199,853	-29,87
200,07	-40,11
200,288	39,76
200,505	-62,63
200,722	109,4
200,94	31,57
201,157	52,05
201,375	50
201,592	-15,53
201,809	-11,43
202,027	125,78
202,244	41,81
202,461	66,39
202,679	93,01
202,896	21,33
203,113	-68,78
203,331	33,62
203,548	-33,96
203,765	0,85
203,982	95,06
204,2	54,1
204,417	29,52
204,634	164,69
204,851	-5,29
205,069	37,72
205,286	58,2
205,503	62,29
205,72	17,24
205,937	25,43
206,155	-7,34
206,372	131,92
206,589	-54,44
206,806	50
207,023	43,86
207,24	90,96
207,458	-42,15
207,675	25,43
207,892	82,77
208,109	4,95
208,326	0,85
208,543	-7,34
208,76	-13,48
208,977	115,54
209,194	68,44
209,411	-44,2
209,628	11,09
209,845	0,85
210,062	2,9
210,279	-89,26
210,496	-64,68
210,713	2,9
210,93	19,29
211,147	107,35
211,364	43,86
211,581	82,77
211,798	168,79
212,015	9,05
212,232	-21,67
212,449	43,86
212,666	-83,11
212,883	4,95
213,1	11,09
213,317	41,81
213,533	84,82
213,75	-31,91
213,967	-7,34
214,184	-64,68
214,401	17,24
214,618	-76,97
214,835	-70,83
215,051	29,52
215,268	50
215,485	35,67
215,702	-13,48
215,919	-15,53
216,135	90,96
216,352	50
216,569	84,82
216,786	76,63
217,002	25,43
217,219	35,67
217,436	-40,11
217,652	41,81
217,869	25,43
218,086	123,73
218,302	29,52
218,519	33,62
218,736	29,52
218,952	-70,83
219,169	78,68
219,386	54,1
219,602	4,95
219,819	29,52
220,036	35,67
220,252	123,73
220,469	-44,2
220,685	93,01
220,902	127,83
221,118	107,35
221,335	-7,34
221,552	-5,29
221,768	74,58
221,985	25,43
222,201	127,83
222,418	74,58
222,634	-29,87
222,851	-79,02
223,067	9,05
223,284	-5,29
223,5	-13,48
223,716	41,81
223,933	21,33
224,149	-7,34
224,366	17,24
224,582	41,81
224,799	68,44
225,015	39,76
225,231	17,24
225,448	-38,06
225,664	25,43
225,88	-146,6
226,097	43,86
226,313	-54,44
226,529	58,2
226,746	41,81
226,962	-44,2
227,178	2,9
227,395	-46,25
227,611	-31,91
227,827	66,39
228,044	74,58
228,26	58,2
228,476	4,95
228,692	33,62
228,909	29,52
229,125	84,82
229,341	25,43
229,557	-31,91
229,773	-72,87
229,99	133,97
230,206	-38,06
230,422	-21,67
230,638	-68,78
230,854	-64,68
231,07	-64,68
231,286	90,96
231,503	-7,34
231,719	4,95
231,935	-3,24
232,151	0,85
232,367	95,06
232,583	95,06
232,799	37,72
233,015	74,58
233,231	-5,29
233,447	-23,72
233,663	-15,53
233,879	17,24
234,095	25,43
234,311	111,44
234,527	50
234,743	84,82
234,959	9,05
235,175	-17,58
235,391	-5,29
235,607	64,34
235,823	99,16
236,039	-15,53
236,255	-56,49
236,471	33,62
236,687	19,29
236,903	37,72
237,118	35,67
237,334	-76,97
237,55	119,64
237,766	-87,21
237,982	37,72
238,198	82,77
238,413	-19,63
238,629	-7,34
238,845	50
239,061	-5,29
239,277	17,24
239,492	-50,35
239,708	-66,73
239,924	-29,87
240,14	90,96
240,355	99,16
240,571	39,76
240,787	-21,67
241,003	58,2
241,218	13,14
241,434	62,29
241,65	50
241,865	-46,25
242,081	74,58
242,297	-76,97
242,512	52,05
242,728	43,86
242,944	15,19
243,159	80,72
243,375	0,85
243,59	76,63
243,806	103,25
244,022	2,9
244,237	-40,11
244,453	17,24
244,668	119,64
244,884	156,5
245,099	-56,49
245,315	115,54
245,53	80,72
245,746	127,83
245,961	80,72
246,177	60,24
246,392	99,16
246,608	37,72
246,823	52,05
247,039	-76,97
247,254	0,85
247,47	95,06
247,685	13,14
247,9	0,85
248,116	58,2
248,331	9,05
248,547	2,9
248,762	-38,06
248,977	21,33
249,193	58,2
249,408	107,35
249,623	95,06
249,839	-19,63
250,054	-27,82
250,269	43,86
250,485	78,68
250,7	-1,19
250,915	101,2
251,13	52,05
251,346	33,62
251,561	95,06
251,776	123,73
251,991	-23,72
252,207	117,59
252,422	54,1
252,637	-7,34
252,852	25,43
253,067	25,43
253,283	-7,34
253,498	37,72
253,713	-40,11
253,928	13,14
254,143	52,05
254,358	-29,87
254,573	19,29
254,788	-36,01
255,004	60,24
255,219	0,85
255,434	-25,77
255,649	-23,72
255,864	56,15
256,079	33,62
256,294	-17,58
256,509	-5,29
256,724	82,77
256,939	-40,11
257,154	45,91
257,369	17,24
257,584	123,73
257,799	0,85
258,014	27,48
258,229	62,29
258,444	9,05
258,659	17,24
258,874	66,39
259,089	58,2
259,304	50
259,518	-40,11
259,733	-33,96
259,948	0,85
260,163	76,63
260,378	37,72
260,593	-21,67
260,808	19,29
261,022	-27,82
261,237	86,87
261,452	-48,3
261,667	-7,34
261,882	17,24
262,096	47,96
262,311	64,34
262,526	66,39
262,741	62,29
262,955	-15,53
263,17	56,15
263,385	70,48
263,6	4,95
263,814	15,19
264,029	2,9
264,244	58,2
264,458	27,48
264,673	9,05
264,888	146,26
265,102	31,57
265,317	13,14
265,532	68,44
265,746	29,52
265,961	84,82
266,175	62,29
266,39	68,44
266,605	-40,11
266,819	74,58
267,034	2,9
267,248	-79,02
267,463	9,05
267,677	-38,06
267,892	35,67
268,106	-72,87
268,321	66,39
268,535	74,58
268,75	123,73
268,964	9,05
269,179	99,16
269,393	58,2
269,608	113,49
269,822	-29,87
270,036	-48,3
270,251	0,85
270,465	19,29
270,68	17,24
270,894	-23,72
271,108	138,07
271,323	58,2
271,537	50
271,752	-3,24
271,966	27,48
272,18	9,05
272,394	-1,19
272,609	78,68
272,823	-15,53
273,037	-40,11
273,252	45,91
273,466	-15,53
273,68	90,96
273,894	95,06
274,109	66,39
274,323	109,4
274,537	9,05
274,751	-54,44
274,966	47,96
275,18	-64,68
275,394	-38,06
275,608	-56,49
275,822	-70,83
276,036	45,91
276,25	27,48
276,465	-36,01
276,679	60,24
276,893	-44,2
277,107	68,44
277,321	17,24
277,535	35,67
277,749	88,92
277,963	74,58
278,177	-103,59
278,391	45,91
278,605	-115,88
278,819	33,62
279,033	-97,45
279,247	-15,53
279,461	21,33
279,675	74,58
279,889	74,58
280,103	19,29
280,317	35,67
280,531	27,48
280,745	93,01
280,959	33,62
281,173	74,58
281,387	80,72
281,601	25,43
281,815	58,2
282,029	27,48
282,242	-31,91
282,456	41,81
282,67	72,53
282,884	-7,34
283,098	9,05
283,312	-7,34
283,525	58,2
283,739	52,05
283,953	19,29
284,167	35,67
284,381	78,68
284,594	17,24
284,808	43,86
285,022	-7,34
285,235	-13,48
285,449	107,35
285,663	-7,34
285,877	-23,72
286,09	39,76
286,304	7
286,518	19,29
286,731	-7,34
286,945	70,48
287,159	-44,2
287,372	66,39
287,586	-40,11
287,799	-11,43
288,013	25,43
288,227	-40,11
288,44	267,09
288,654	66,39
288,867	25,43
289,081	21,33
289,294	50
289,508	41,81
289,721	47,96
289,935	-48,3
290,148	43,86
290,362	119,64
290,575	45,91
290,789	-5,29
291,002	41,81
291,216	47,96
291,429	50
291,643	-3,24
291,856	-109,74
292,069	-21,67
292,283	-89,26
292,496	50
292,71	58,2
292,923	27,48
293,136	-17,58
293,35	-5,29
293,563	-19,63
293,776	11,09
293,99	4,95
294,203	72,53
294,416	115,54
294,63	33,62
294,843	107,35
295,056	99,16
295,269	-15,53
295,483	-89,26
295,696	82,77
295,909	-17,58
296,122	39,76
296,335	90,96
296,549	-9,39
296,762	15,19
296,975	41,81
297,188	11,09
297,401	60,24
297,615	74,58
297,828	4,95
298,041	174,93
298,254	-11,43
298,467	-13,48
298,68	13,14
298,893	-29,87
299,106	19,29
299,319	13,14
299,532	111,44
299,745	-31,91
299,958	-27,82
300,171	-15,53
300,384	-7,34
300,598	-72,87
300,81	35,67
301,023	-27,82
301,236	-56,49
301,449	76,63
301,662	-33,96
301,875	9,05
302,088	41,81
302,301	109,4
302,514	31,57
302,727	76,63
302,94	-15,53
303,153	29,52
303,366	-9,39
303,579	0,85
303,791	11,09
304,004	-29,87
304,217	82,77
304,43	99,16
304,643	-33,96
304,855	-62,63
305,068	148,31
305,281	140,12
305,494	37,72
305,707	-3,24
305,919	158,55
306,132	107,35
306,345	2,9
306,558	76,63
306,77	-15,53
306,983	54,1
307,196	62,29
307,408	52,05
307,621	84,82
307,834	11,09
308,046	58,2
308,259	25,43
308,472	19,29
308,684	160,59
308,897	95,06
309,109	9,05
309,322	-3,24
309,535	43,86
309,747	160,59
309,96	119,64
310,172	172,88
310,385	140,12
310,597	156,5
310,81	174,93
311,022	121,68
311,235	156,5
311,447	254,8
311,66	369,49
311,872	574,28
312,085	648,01
312,297	803,66
312,51	848,71
312,722	1012,55
312,934	1090,37
313,147	1090,37
313,359	1098,56
313,572	934,73
313,784	922,44
313,996	619,34
314,209	623,44
314,421	275,28
314,633	199,51
314,846	191,31
315,058	289,62
315,27	185,17
315,483	60,24
315,695	82,77
315,907	125,78
316,119	58,2
316,332	9,05
316,544	148,31
316,756	99,16
316,968	-7,34
317,181	13,14
317,393	-52,39
317,605	37,72
317,817	66,39
318,029	66,39
318,241	58,2
318,454	68,44
318,666	82,77
318,878	-72,87
319,09	-7,34
319,302	50
319,514	109,4
319,726	90,96
319,938	205,65
320,15	172,88
320,362	80,72
320,574	0,85
320,786	4,95
320,999	-5,29
321,211	117,59
321,423	140,12
321,635	-7,34
321,847	29,52
322,058	33,62
322,27	95,06
322,482	117,59
322,694	152,4
322,906	56,15
323,118	70,48
323,33	82,77
323,542	25,43
323,754	27,48
323,966	-64,68
324,178	148,31
324,389	33,62
324,601	150,36
324,813	11,09
325,025	76,63
325,237	115,54
325,449	68,44
325,66	58,2
325,872	127,83
326,084	33,62
326,296	66,39
326,507	-23,72
326,719	86,87
326,931	-48,3
327,143	99,16
327,354	138,07
327,566	121,68
327,778	133,97
327,989	107,35
328,201	115,54
328,413	103,25
328,624	164,69
328,836	60,24
329,048	-23,72
329,259	72,53
329,471	93,01
329,682	82,77
329,894	123,73
330,106	60,24
330,317	148,31
330,529	62,29
330,74	117,59
330,952	82,77
331,163	41,81
331,375	70,48
331,586	131,92
331,798	50
332,009	99,16
332,221	166,74
332,432	213,84
332,644	187,22
332,855	158,55
333,067	238,42
333,278	240,47
333,489	295,76
333,701	172,88
333,912	185,17
334,124	346,96
334,335	289,62
334,546	336,72
334,758	377,68
334,969	590,67
335,18	385,87
335,392	414,54
335,603	525,13
335,814	611,15
336,025	357,2
336,237	449,36
336,448	418,64
336,659	467,79
336,87	527,18
337,082	510,8
337,293	330,58
337,504	353,1
337,715	279,38
337,926	314,19
338,138	224,08
338,349	168,79
338,56	217,94
338,771	162,64
338,982	219,99
339,193	197,46
339,404	217,94
339,616	93,01
339,827	248,66
340,038	4,95
340,249	174,93
340,46	113,49
340,671	136,02
340,882	236,37
341,093	181,07
341,304	90,96
341,515	54,1
341,726	76,63
341,937	27,48
342,148	123,73
342,359	33,62
342,57	58,2
342,781	254,8
342,992	125,78
343,203	80,72
343,414	166,74
343,624	58,2
343,835	74,58
344,046	123,73
344,257	150,36
344,468	82,77
344,679	95,06
344,89	82,77
345,1	105,3
345,311	23,38
345,522	187,22
345,733	90,96
345,944	127,83
346,154	181,07
346,365	207,7
346,576	140,12
346,787	109,4
346,997	148,31
347,208	160,59
347,419	74,58
347,629	189,27
347,84	201,55
348,051	62,29
348,261	176,98
348,472	117,59
348,683	133,97
348,893	84,82
349,104	97,11
349,315	131,92
349,525	152,4
349,736	205,65
349,946	115,54
350,157	181,07
350,368	228,18
350,578	68,44
350,789	238,42
350,999	172,88
351,21	238,42
351,42	99,16
351,631	115,54
351,841	140,12
352,052	240,47
352,262	205,65
352,472	224,08
352,683	140,12
352,893	191,31
353,104	238,42
353,314	324,43
353,525	568,14
353,735	287,57
353,945	271,19
354,156	265,04
354,366	260,95
354,576	371,54
354,787	174,93
354,997	258,9
355,207	191,31
355,418	283,47
355,628	246,61
355,838	316,24
356,048	353,1
356,259	435,02
356,469	402,26
356,679	480,08
356,889	529,23
357,1	529,23
357,31	529,23
357,52	494,41
357,73	416,59
357,94	568,14
358,15	410,45
358,361	480,08
358,571	387,92
358,781	394,06
358,991	238,42
359,201	275,28
359,411	201,55
359,621	203,6
359,831	250,71
360,041	213,84
360,251	181,07
360,461	234,32
360,672	160,59
360,882	199,51
361,092	152,4
361,302	250,71
361,512	181,07
361,721	193,36
361,931	183,12
362,141	230,23
362,351	230,23
362,561	242,51
362,771	508,75
362,981	957,25
363,191	1264,45
363,401	2323,25
363,611	3207,97
363,821	4272,92
364,03	5800,7
364,24	7258,85
364,45	9036,49
364,66	11676,32
364,87	13531,78
365,08	14314,11
365,289	14938,74
365,499	14037,63
365,709	12452,5
365,919	10386,1
366,128	8053,47
366,338	6791,92
366,548	5397,25
366,758	4485,9
366,967	3500,83
367,177	2628,4
367,387	1794,87
367,596	1147,72
367,806	918,34
368,016	674,64
368,225	478,03
368,435	500,56
368,644	275,28
368,854	172,88
369,064	271,19
369,273	287,57
369,483	330,58
369,692	230,23
369,902	172,88
370,111	303,95
370,321	209,75
370,53	230,23
370,74	201,55
370,949	287,57
371,159	336,72
371,368	303,95
371,578	209,75
371,787	232,27
371,997	289,62
372,206	271,19
372,416	222,03
372,625	183,12
372,834	168,79
373,044	285,52
373,253	242,51
373,462	406,35
373,672	271,19
373,881	373,58
374,09	375,63
374,3	338,77
374,509	367,44
374,718	316,24
374,928	435,02
375,137	312,14
375,346	385,87
375,555	467,79
375,765	295,76
375,974	346,96
376,183	289,62
376,392	248,66
376,601	226,13
376,811	256,85
377,02	271,19
377,229	324,43
377,438	303,95
377,647	230,23
377,856	213,84
378,065	205,65
378,275	271,19
378,484	338,77
378,693	281,43
378,902	369,49
379,111	385,87
379,32	369,49
379,529	324,43
379,738	426,83
379,947	377,68
380,156	455,5
380,365	492,37
380,574	488,27
380,783	346,96
380,992	375,63
381,201	369,49
381,41	281,43
381,619	265,04
381,828	394,06
382,037	379,73
382,245	559,95
382,454	537,42
382,663	533,33
382,872	463,69
383,081	568,14
383,29	770,89
383,499	697,16
383,707	869,19
383,916	951,11
384,125	1002,31
384,334	1061,7
384,542	1256,26
384,751	1200,96
384,96	1418,05
385,169	1477,44
385,377	1684,28
385,586	1749,82
385,795	2024,25
386,004	2257,71
386,212	2229,04
386,421	2450,22
386,63	2560,81
386,838	2796,33
387,047	2863,91
387,255	2755,37
387,464	2958,12
387,673	2941,74
387,881	2892,59
388,09	2974,5
388,298	2515,76
388,507	2204,47
388,715	1993,53
388,924	1696,57
389,133	1166,15
389,341	930,63
389,55	715,59
389,758	551,76
389,967	617,29
390,175	455,5
390,383	484,17
390,592	496,46
390,8	279,38
391,009	330,58
391,217	328,53
391,426	441,17
391,634	242,51
391,842	283,47
392,051	234,32
392,259	324,43
392,467	324,43
392,676	320,34
392,884	256,85
393,092	336,72
393,301	267,09
393,509	248,66
393,717	418,64
393,925	334,67
394,134	254,8
394,342	351,06
394,55	394,06
394,758	400,21
394,967	283,47
395,175	179,03
395,383	371,54
395,591	213,84
395,799	254,8
396,007	361,3
396,216	387,92
396,424	355,15
396,632	207,7
396,84	222,03
397,048	330,58
397,256	330,58
397,464	230,23
397,672	330,58
397,88	312,14
398,088	297,81
398,296	355,15
398,504	328,53
398,712	334,67
398,92	506,7
399,128	312,14
399,336	344,91
399,544	387,92
399,752	320,34
399,96	349,01
400,168	406,35
400,376	322,38
400,584	314,19
400,792	346,96
401	322,38
401,207	275,28
401,415	297,81
401,623	338,77
401,831	271,19
402,039	353,1
402,247	283,47
402,454	619,34
402,662	922,44
402,87	1413,95
403,078	2253,62
403,285	2923,3
403,493	3904,28
403,701	5088,01
403,909	6480,63
404,116	7938,78
404,324	9609,92
404,532	12092,06
404,739	12995,22
404,947	13054,61
405,155	12706,45
405,362	10396,34
405,57	8184,54
405,778	5876,48
405,985	4457,23
406,193	3435,3
406,4	2675,5
406,608	2327,35
406,816	1848,12
407,023	1411,9
407,231	1354,56
407,438	1528,64
407,646	1803,07
407,853	1817,4
408,061	1729,34
408,268	1858,36
408,476	1456,96
408,683	1264,45
408,89	1065,8
409,098	789,32
409,305	650,06
409,513	570,19
409,72	451,41
409,927	418,64
410,135	422,73
410,342	287,57
410,55	355,15
410,757	207,7
410,964	181,07
411,172	234,32
411,379	256,85
411,586	275,28
411,793	269,14
412,001	226,13
412,208	314,19
412,415	361,3
412,622	414,54
412,83	361,3
413,037	437,07
413,244	377,68
413,451	394,06
413,658	437,07
413,866	418,64
414,073	420,69
414,28	516,94
414,487	394,06
414,694	435,02
414,901	453,45
415,108	435,02
415,315	371,54
415,522	510,8
415,73	410,45
415,937	371,54
416,144	361,3
416,351	478,03
416,558	445,26
416,765	371,54
416,972	402,26
417,179	418,64
417,386	500,56
417,593	394,06
417,8	394,06
418,006	533,33
418,213	453,45
418,42	525,13
418,627	494,41
418,834	451,41
419,041	533,33
419,248	424,78
419,455	500,56
419,661	566,09
419,868	545,61
420,075	553,8
420,282	484,17
420,489	484,17
420,696	451,41
420,902	475,98
421,109	500,56
421,316	494,41
421,523	549,71
421,729	453,45
421,936	443,21
422,143	461,65
422,349	377,68
422,556	267,09
422,763	361,3
422,969	295,76
423,176	207,7
423,383	320,34
423,589	551,76
423,796	344,91
424,002	248,66
424,209	346,96
424,416	322,38
424,622	205,65
424,829	271,19
425,035	256,85
425,242	265,04
425,448	185,17
425,655	377,68
425,861	246,61
426,068	336,72
426,274	465,74
426,481	312,14
426,687	381,78
426,894	379,73
427,1	320,34
427,306	269,14
427,513	299,86
427,719	344,91
427,926	351,06
428,132	340,82
428,338	371,54
428,545	228,18
428,751	279,38
428,957	396,11
429,163	279,38
429,37	357,2
429,576	369,49
429,782	396,11
429,989	330,58
430,195	371,54
430,401	357,2
430,607	371,54
430,813	297,81
431,02	314,19
431,226	398,16
431,432	295,76
431,638	353,1
431,844	242,51
432,05	213,84
432,257	420,69
432,463	422,73
432,669	521,04
432,875	451,41
433,081	471,89
433,287	607,05
433,493	609,1
433,699	1409,86
433,905	2372,4
434,111	4195,09
434,317	6263,54
434,523	9482,95
434,729	12501,65
434,935	16130,66
435,141	20523,55
435,347	23785,96
435,553	30392,71
435,759	35027,26
435,965	37366,04
436,171	36630,82
436,377	33046,88
436,582	28817,82
436,788	22327,81
436,994	16810,58
437,2	12022,43
437,406	9102,03
437,612	6114,04
437,818	4490
438,023	2646,83
438,229	1663,8
438,435	1061,7
438,641	811,85
438,846	584,52
439,052	541,52
439,258	516,94
439,464	420,69
439,669	379,73
439,875	336,72
440,081	420,69
440,286	287,57
440,492	328,53
440,698	369,49
440,903	355,15
441,109	453,45
441,314	271,19
441,52	281,43
441,726	336,72
441,931	181,07
442,137	328,53
442,342	174,93
442,548	324,43
442,753	330,58
442,959	271,19
443,164	236,37
443,37	289,62
443,575	254,8
443,781	240,47
443,986	398,16
444,192	242,51
444,397	346,96
444,602	181,07
444,808	248,66
445,013	230,23
445,219	222,03
445,424	383,82
445,629	228,18
445,835	435,02
446,04	238,42
446,245	191,31
446,451	285,52
446,656	234,32
446,861	246,61
447,066	262,99
447,272	295,76
447,477	230,23
447,682	205,65
447,887	246,61
448,093	332,62
448,298	371,54
448,503	287,57
448,708	254,8
448,913	254,8
449,118	332,62
449,324	344,91
449,529	357,2
449,734	269,14
449,939	320,34
450,144	377,68
450,349	402,26
450,554	197,46
450,759	308,05
450,964	367,44
451,169	287,57
451,374	271,19
451,579	299,86
451,784	312,14
451,989	330,58
452,194	355,15
452,399	353,1
452,604	248,66
452,809	238,42
453,014	283,47
453,219	291,66
453,424	381,78
453,629	265,04
453,833	279,38
454,038	256,85
454,243	273,23
454,448	287,57
454,653	334,67
454,858	322,38
455,062	258,9
455,267	281,43
455,472	344,91
455,677	271,19
455,882	248,66
456,086	369,49
456,291	355,15
456,496	205,65
456,7	256,85
456,905	346,96
457,11	377,68
457,314	279,38
457,519	267,09
457,724	297,81
457,928	295,76
458,133	353,1
458,338	308,05
458,542	353,1
458,747	297,81
458,951	222,03
459,156	238,42
459,36	248,66
459,565	404,3
459,769	281,43
459,974	367,44
460,178	230,23
460,383	224,08
460,587	308,05
460,792	322,38
460,996	336,72
461,201	293,71
461,405	281,43
461,61	262,99
461,814	385,87
462,018	238,42
462,223	271,19
462,427	242,51
462,631	273,23
462,836	295,76
463,04	226,13
463,244	353,1
463,449	287,57
463,653	324,43
463,857	283,47
464,062	285,52
464,266	238,42
464,47	365,39
464,674	303,95
464,878	295,76
465,083	187,22
465,287	426,83
465,491	234,32
465,695	267,09
465,899	254,8
466,104	287,57
466,308	240,47
466,512	273,23
466,716	324,43
466,92	336,72
467,124	297,81
467,328	369,49
467,532	363,34
467,736	256,85
467,94	273,23
468,144	254,8
468,348	320,34
468,552	377,68
468,756	271,19
468,96	355,15
469,164	271,19
469,368	262,99
469,572	262,99
469,776	312,14
469,98	330,58
470,184	306
470,388	299,86
470,591	271,19
470,795	377,68
470,999	344,91
471,203	254,8
471,407	273,23
471,611	279,38
471,814	299,86
472,018	187,22
472,222	381,78
472,426	414,54
472,63	330,58
472,833	361,3
473,037	242,51
473,241	271,19
473,444	361,3
473,648	746,31
473,852	279,38
474,055	277,33
474,259	295,76
474,463	320,34
474,666	260,95
474,87	340,82
475,074	336,72
475,277	402,26
475,481	375,63
475,684	256,85
475,888	355,15
476,091	328,53
476,295	199,51
476,498	248,66
476,702	265,04
476,905	353,1
477,109	371,54
477,312	330,58
477,516	197,46
477,719	351,06
477,923	279,38
478,126	369,49
478,329	369,49
478,533	306
478,736	504,65
478,94	367,44
479,143	248,66
479,346	412,5
479,55	308,05
479,753	322,38
479,956	262,99
480,159	340,82
480,363	361,3
480,566	357,2
480,769	336,72
480,972	369,49
481,176	334,67
481,379	410,45
481,582	447,31
481,785	271,19
481,988	312,14
482,192	453,45
482,395	379,73
482,598	418,64
482,801	418,64
483,004	447,31
483,207	396,11
483,41	398,16
483,613	369,49
483,817	453,45
484,02	351,06
484,223	289,62
484,426	355,15
484,629	330,58
484,832	402,26
485,035	389,97
485,238	346,96
485,441	486,22
485,644	432,97
485,846	475,98
486,049	451,41
486,252	332,62
486,455	316,24
486,658	410,45
486,861	422,73
487,064	516,94
487,267	398,16
487,47	428,88
487,672	410,45
487,875	428,88
488,078	420,69
488,281	418,64
488,484	439,12
488,686	437,07
488,889	394,06
489,092	426,83
489,295	465,74
489,497	535,37
489,7	369,49
489,903	371,54
490,105	394,06
490,308	502,61
490,511	459,6
490,713	502,61
490,916	566,09
491,118	682,83
491,321	525,13
491,524	541,52
491,726	625,48
491,929	619,34
492,131	598,86
492,334	600,91
492,536	502,61
492,739	459,6
492,941	611,15
493,144	453,45
493,346	471,89
493,549	475,98
493,751	492,37
493,954	430,93
494,156	502,61
494,359	426,83
494,561	265,04
494,763	439,12
494,966	371,54
495,168	387,92
495,37	303,95
495,573	418,64
495,775	381,78
495,977	488,27
496,18	369,49
496,382	488,27
496,584	467,79
496,787	443,21
496,989	412,5
497,191	385,87
497,393	459,6
497,595	320,34
497,798	363,34
498	465,74
498,202	414,54
498,404	420,69
498,606	414,54
498,808	492,37
499,011	426,83
499,213	518,99
499,415	394,06
499,617	488,27
499,819	445,26
500,021	496,46
500,223	320,34
500,425	424,78
500,627	369,49
500,829	402,26
501,031	422,73
501,233	394,06
501,435	459,6
501,637	488,27
501,839	500,56
502,041	402,26
502,243	430,93
502,445	365,39
502,647	336,72
502,848	353,1
503,05	361,3
503,252	361,3
503,454	457,55
503,656	435,02
503,858	435,02
504,059	502,61
504,261	371,54
504,463	572,24
504,665	420,69
504,867	492,37
505,068	475,98
505,27	381,78
505,472	527,18
505,673	467,79
505,875	344,91
506,077	455,5
506,278	392,02
506,48	365,39
506,682	518,99
506,883	459,6
507,085	426,83
507,287	365,39
507,488	447,31
507,69	494,41
507,891	420,69
508,093	623,44
508,294	410,45
508,496	441,17
508,697	355,15
508,899	402,26
509,1	363,34
509,302	379,73
509,503	367,44
509,705	402,26
509,906	508,75
510,108	381,78
510,309	394,06
510,51	381,78
510,712	392,02
510,913	271,19
511,114	363,34
511,316	312,14
511,517	488,27
511,718	385,87
511,92	394,06
512,121	453,45
512,322	504,65
512,524	531,28
512,725	416,59
512,926	486,22
513,127	308,05
513,329	512,85
513,53	349,01
513,731	426,83
513,932	389,97
514,133	428,88
514,334	414,54
514,536	521,04
514,737	572,24
514,938	502,61
515,139	435,02
515,34	344,91
515,541	533,33
515,742	437,07
515,943	504,65
516,144	492,37
516,345	545,61
516,546	435,02
516,747	494,41
516,948	492,37
517,149	467,79
517,35	361,3
517,551	428,88
517,752	537,42
517,953	500,56
518,154	414,54
518,355	492,37
518,556	422,73
518,756	451,41
518,957	488,27
519,158	586,57
519,359	510,8
519,56	418,64
519,761	467,79
519,961	471,89
520,162	596,81
520,363	369,49
520,564	412,5
520,764	566,09
520,965	299,86
521,166	516,94
521,366	400,21
521,567	529,23
521,768	402,26
521,968	387,92
522,169	480,08
522,37	422,73
522,57	306
522,771	367,44
522,972	385,87
523,172	582,48
523,373	443,21
523,573	459,6
523,774	518,99
523,974	549,71
524,175	531,28
524,375	426,83
524,576	426,83
524,776	475,98
524,977	459,6
525,177	555,85
525,378	371,54
525,578	500,56
525,778	557,9
525,979	488,27
526,179	467,79
526,38	422,73
526,58	443,21
526,78	435,02
526,981	492,37
527,181	574,28
527,381	418,64
527,582	473,93
527,782	486,22
527,982	426,83
528,182	484,17
528,383	516,94
528,583	369,49
528,783	435,02
528,983	492,37
529,183	420,69
529,384	439,12
529,584	535,37
529,784	525,13
529,984	422,73
530,184	459,6
530,384	394,06
530,584	381,78
530,784	420,69
530,984	353,1
531,185	533,33
531,385	461,65
531,585	381,78
531,785	471,89
531,985	361,3
532,185	410,45
532,385	426,83
532,585	435,02
532,785	424,78
532,984	451,41
533,184	426,83
533,384	422,73
533,584	308,05
533,784	451,41
533,984	506,7
534,184	336,72
534,384	330,58
534,583	486,22
534,783	430,93
534,983	422,73
535,183	420,69
535,383	349,01
535,582	500,56
535,782	492,37
535,982	518,99
536,182	467,79
536,381	426,83
536,581	443,21
536,781	500,56
536,98	396,11
537,18	435,02
537,38	525,13
537,579	394,06
537,779	453,45
537,979	398,16
538,178	353,1
538,378	545,61
538,577	322,38
538,777	353,1
538,976	377,68
539,176	418,64
539,376	492,37
539,575	418,64
539,774	500,56
539,974	351,06
540,173	463,69
540,373	461,65
540,572	502,61
540,772	346,96
540,971	385,87
541,171	488,27
541,37	422,73
541,569	500,56
541,769	471,89
541,968	439,12
542,167	451,41
542,367	402,26
542,566	502,61
542,765	508,75
542,965	475,98
543,164	576,33
543,363	445,26
543,562	570,19
543,761	664,4
543,961	844,62
544,16	1368,9
544,359	3443,49
544,558	6677,23
544,757	11313,83
544,957	17316,43
545,156	24529,38
545,355	33042,78
545,554	40167,66
545,753	48257,14
545,952	52987,95
546,151	58587,1
546,35	59359,18
546,549	56969,2
546,748	52957,23
546,947	47534,21
547,146	41224,42
547,345	34054,48
547,544	28064,17
547,743	22118,92
547,942	16464,47
548,141	11676,32
548,34	7170,79
548,539	4219,67
548,738	2605,87
548,937	1803,07
549,135	1372,99
549,334	1049,41
549,533	820,04
549,732	748,36
549,931	723,79
550,13	537,42
550,328	496,46
550,527	480,08
550,726	615,24
550,925	443,21
551,123	412,5
551,322	480,08
551,521	533,33
551,72	478,03
551,918	467,79
552,117	469,84
552,315	353,1
552,514	385,87
552,713	451,41
552,911	410,45
553,11	295,76
553,309	412,5
553,507	361,3
553,706	402,26
553,904	426,83
554,103	402,26
554,301	439,12
554,5	332,62
554,698	396,11
554,897	385,87
555,095	355,15
555,294	267,09
555,492	396,11
555,69	467,79
555,889	234,32
556,087	357,2
556,286	496,46
556,484	398,16
556,682	369,49
556,881	353,1
557,079	340,82
557,277	398,16
557,476	295,76
557,674	353,1
557,872	369,49
558,07	273,23
558,269	232,27
558,467	344,91
558,665	308,05
558,863	279,38
559,062	324,43
559,26	246,61
559,458	199,51
559,656	338,77
559,854	289,62
560,052	316,24
560,25	326,48
560,449	502,61
560,647	371,54
560,845	271,19
561,043	285,52
561,241	344,91
561,439	377,68
561,637	265,04
561,835	346,96
562,033	279,38
562,231	207,7
562,429	297,81
562,627	283,47
562,825	273,23
563,023	336,72
563,221	289,62
563,418	404,3
563,616	299,86
563,814	428,88
564,012	312,14
564,21	314,19
564,408	267,09
564,605	330,58
564,803	193,36
565,001	516,94
565,199	273,23
565,397	418,64
565,594	402,26
565,792	254,8
565,99	281,43
566,188	377,68
566,385	373,58
566,583	387,92
566,781	484,17
566,978	416,59
567,176	439,12
567,373	361,3
567,571	332,62
567,769	328,53
567,966	228,18
568,164	392,02
568,361	381,78
568,559	361,3
568,756	287,57
568,954	340,82
569,151	385,87
569,349	447,31
569,546	328,53
569,744	367,44
569,941	369,49
570,139	312,14
570,336	334,67
570,534	349,01
570,731	353,1
570,928	295,76
571,126	373,58
571,323	306
571,52	265,04
571,718	451,41
571,915	363,34
572,112	277,33
572,31	314,19
572,507	344,91
572,704	279,38
572,901	312,14
573,099	346,96
573,296	379,73
573,493	322,38
573,69	291,66
573,887	336,72
574,085	510,8
574,282	404,3
574,479	398,16
574,676	480,08
574,873	373,58
575,07	404,3
575,267	609,1
575,464	977,73
575,661	1524,54
575,858	2069,3
576,055	3040,04
576,252	3846,94
576,449	4735,76
576,646	5407,49
576,843	6255,35
577,04	6578,93
577,237	6529,78
577,434	6767,34
577,631	6879,98
577,828	6824,69
578,025	6996,71
578,222	7156,46
578,419	7645,92
578,615	8164,06
578,812	8334,04
579,009	8276,7
579,206	8155,86
579,403	7844,57
579,599	7230,18
579,796	6423,28
579,993	5968,63
580,19	5178,12
580,386	4494,1
580,583	3713,82
580,78	3089,19
580,976	2476,85
581,173	1833,79
581,37	1340,22
581,566	985,93
581,763	637,77
581,96	566,09
582,156	578,38
582,353	467,79
582,549	451,41
582,746	420,69
582,942	349,01
583,139	385,87
583,335	361,3
583,532	379,73
583,728	308,05
583,925	381,78
584,121	353,1
584,318	455,5
584,514	453,45
584,711	418,64
584,907	369,49
585,103	418,64
585,3	461,65
585,496	336,72
585,693	320,34
585,889	426,83
586,085	328,53
586,281	414,54
586,478	351,06
586,674	455,5
586,87	387,92
587,067	418,64
587,263	377,68
587,459	400,21
587,655	365,39
587,851	447,31
588,048	549,71
588,244	387,92
588,44	365,39
588,636	426,83
588,832	418,64
589,028	582,48
589,224	416,59
589,42	420,69
589,617	502,61
589,813	478,03
590,009	371,54
590,205	410,45
590,401	402,26
590,597	349,01
590,793	363,34
590,989	385,87
591,185	389,97
591,38	418,64
591,576	346,96
591,772	396,11
591,968	377,68
592,164	385,87
592,36	408,4
592,556	355,15
592,752	443,21
592,948	402,26
593,143	340,82
593,339	385,87
593,535	265,04
593,731	451,41
593,926	418,64
594,122	422,73
594,318	435,02
594,514	453,45
594,709	355,15
594,905	355,15
595,101	336,72
595,296	338,77
595,492	410,45
595,688	361,3
595,883	394,06
596,079	435,02
596,275	262,99
596,47	387,92
596,666	258,9
596,861	334,67
597,057	254,8
597,252	250,71
597,448	316,24
597,643	435,02
597,839	389,97
598,034	318,29
598,23	265,04
598,425	312,14
598,621	437,07
598,816	455,5
599,011	338,77
599,207	402,26
599,402	283,47
599,597	406,35
599,793	420,69
599,988	377,68
600,183	324,43
600,379	410,45
600,574	402,26
600,769	426,83
600,965	402,26
601,16	478,03
601,355	398,16
601,55	510,8
601,745	412,5
601,941	426,83
602,136	447,31
602,331	435,02
602,526	283,47
602,721	412,5
602,916	254,8
603,111	283,47
603,307	262,99
603,502	322,38
603,697	379,73
603,892	418,64
604,087	344,91
604,282	455,5
604,477	334,67
604,672	369,49
604,867	303,95
605,062	381,78
605,257	338,77
605,452	398,16
605,646	426,83
605,841	283,47
606,036	285,52
606,231	303,95
606,426	295,76
606,621	197,46
606,816	250,71
607,01	351,06
607,205	338,77
607,4	346,96
607,595	344,91
607,79	269,14
607,984	269,14
608,179	279,38
608,374	238,42
608,569	262,99
608,763	250,71
608,958	226,13
609,153	262,99
609,347	248,66
609,542	189,27
609,736	289,62
609,931	273,23
610,126	189,27
610,32	242,51
610,515	238,42
610,709	426,83
610,904	299,86
611,098	181,07
611,293	107,35
611,487	193,36
611,682	166,74
611,876	224,08
612,071	303,95
612,265	224,08
612,46	164,69
612,654	279,38
612,848	156,5
613,043	187,22
613,237	201,55
613,432	172,88
613,626	170,83
613,82	90,96
614,014	281,43
614,209	219,99
614,403	156,5
614,597	213,84
614,792	213,84
614,986	201,55
615,18	285,52
615,374	271,19
615,568	252,75
615,763	162,64
615,957	187,22
616,151	207,7
616,345	275,28
616,539	301,9
616,733	201,55
616,927	189,27
617,121	185,17
617,316	181,07
617,51	316,24
617,704	222,03
617,898	308,05
618,092	197,46
618,286	168,79
618,48	107,35
618,674	295,76
618,868	232,27
619,061	138,07
619,255	248,66
619,449	156,5
619,643	131,92
619,837	238,42
620,031	246,61
620,225	244,56
620,419	123,73
620,612	246,61
620,806	215,89
621	271,19
621,194	172,88
621,388	172,88
621,581	201,55
621,775	131,92
621,969	215,89
622,162	176,98
622,356	142,16
622,55	262,99
622,743	189,27
622,937	193,36
623,131	183,12
623,324	297,81
623,518	164,69
623,712	195,41
623,905	185,17
624,099	219,99
624,292	168,79
624,486	213,84
624,679	160,59
624,873	217,94
625,066	248,66
625,26	117,59
625,453	189,27
625,647	234,32
625,84	164,69
626,034	205,65
626,227	148,31
626,42	246,61
626,614	166,74
626,807	254,8
627	164,69
627,194	174,93
627,387	131,92
627,58	117,59
627,774	136,02
627,967	328,53
628,16	146,26
628,353	213,84
628,547	189,27
628,74	281,43
628,933	205,65
629,126	230,23
629,319	172,88
629,513	222,03
629,706	172,88
629,899	248,66
630,092	158,55
630,285	123,73
630,478	254,8
630,671	240,47
630,864	271,19
631,057	201,55
631,25	291,66
631,443	265,04
631,636	246,61
631,829	279,38
632,022	279,38
632,215	213,84
632,408	166,74
632,601	265,04
632,794	189,27
632,987	150,36
633,18	189,27
633,373	205,65
633,566	308,05
633,758	156,5
633,951	164,69
634,144	256,85
634,337	314,19
634,53	303,95
634,722	295,76
634,915	197,46
635,108	181,07
635,301	306
635,493	344,91
635,686	361,3
635,879	330,58
636,071	279,38
636,264	346,96
636,457	385,87
636,649	283,47
636,842	340,82
637,034	402,26
637,227	363,34
637,42	334,67
637,612	297,81
637,805	181,07
637,997	355,15
638,19	328,53
638,382	328,53
638,575	312,14
638,767	336,72
638,96	312,14
639,152	344,91
639,344	328,53
639,537	262,99
639,729	271,19
639,922	308,05
640,114	172,88
640,306	361,3
640,499	279,38
640,691	215,89
640,883	230,23
641,075	265,04
641,268	287,57
641,46	279,38
641,652	332,62
641,844	238,42
642,037	162,64
642,229	277,33
642,421	336,72
642,613	416,59
642,805	342,86
642,998	396,11
643,19	377,68
643,382	508,75
643,574	482,13
643,766	330,58
643,958	435,02
644,15	459,6
644,342	535,37
644,534	527,18
644,726	338,77
644,918	475,98
645,11	377,68
645,302	369,49
645,494	469,84
645,686	435,02
645,878	295,76
646,07	459,6
646,262	455,5
646,453	373,58
646,645	449,36
646,837	435,02
647,029	349,01
647,221	375,63
647,413	371,54
647,604	344,91
647,796	428,88
647,988	367,44
648,18	377,68
648,371	340,82
648,563	336,72
648,755	367,44
648,947	275,28
649,138	238,42
649,33	377,68
649,521	351,06
649,713	324,43
649,905	312,14
650,096	414,54
650,288	383,82
650,479	369,49
650,671	369,49
650,863	394,06
651,054	426,83
651,246	451,41
651,437	437,07
651,629	430,93
651,82	478,03
652,011	510,8
652,203	582,48
652,394	496,46
652,586	445,26
652,777	453,45
652,968	516,94
653,16	420,69
653,351	582,48
653,542	590,67
653,734	410,45
653,925	459,6
654,116	469,84
654,308	422,73
654,499	385,87
654,69	412,5
654,881	279,38
655,073	385,87
655,264	463,69
655,455	303,95
655,646	334,67
655,837	418,64
656,028	400,21
656,219	394,06
656,411	443,21
656,602	295,76
656,793	303,95
656,984	385,87
657,175	322,38
657,366	426,83
657,557	396,11
657,748	377,68
657,939	416,59
658,13	381,78
658,321	443,21
658,512	379,73
658,703	537,42
658,894	451,41
659,084	463,69
659,275	459,6
659,466	430,93
659,657	435,02
659,848	426,83
660,039	506,7
660,23	432,97
660,42	420,69
660,611	461,65
660,802	377,68
660,993	502,61
661,183	410,45
661,374	484,17
661,565	525,13
661,755	500,56
661,946	426,83
662,137	385,87
662,327	428,88
662,518	293,71
662,709	301,9
662,899	299,86
663,09	389,97
663,28	344,91
663,471	279,38
663,662	410,45
663,852	355,15
664,043	228,18
664,233	219,99
664,424	265,04
664,614	299,86
664,804	248,66
664,995	310,1
665,185	191,31
665,376	207,7
665,566	410,45
665,756	228,18
665,947	246,61
666,137	295,76
666,328	469,84
666,518	353,1
666,708	303,95
666,898	379,73
667,089	385,87
667,279	394,06
667,469	281,43
667,659	443,21
667,85	486,22
668,04	369,49
668,23	332,62
668,42	328,53
668,61	369,49
668,8	443,21
668,991	369,49
669,181	418,64
669,371	375,63
669,561	346,96
669,751	418,64
669,941	328,53
670,131	396,11
670,321	357,2
670,511	295,76
670,701	297,81
670,891	312,14
671,081	344,91
671,271	262,99
671,461	246,61
671,651	371,54
671,841	222,03
672,03	189,27
672,22	181,07
672,41	258,9
672,6	262,99
672,79	246,61
672,98	119,64
673,169	271,19
673,359	224,08
673,549	281,43
673,739	162,64
673,928	166,74
674,118	295,76
674,308	168,79
674,497	353,1
674,687	299,86
674,877	191,31
675,066	295,76
675,256	287,57
675,446	215,89
675,635	297,81
675,825	271,19
676,014	328,53
676,204	306
676,393	273,23
676,583	324,43
676,772	265,04
676,962	314,19
677,151	238,42
677,341	238,42
677,53	303,95
677,72	230,23
677,909	369,49
678,099	207,7
678,288	213,84
678,477	262,99
678,667	256,85
678,856	222,03
679,045	230,23
679,235	271,19
679,424	262,99
679,613	258,9
679,802	201,55
679,992	142,16
680,181	234,32
680,37	185,17
680,559	174,93
680,748	246,61
680,938	156,5
681,127	115,54
681,316	236,37
681,505	207,7
681,694	125,78
681,883	113,49
682,072	115,54
682,261	146,26
682,45	-15,53
682,639	66,39
682,828	181,07
683,017	273,23
683,206	158,55
683,395	144,21
683,584	166,74
683,773	168,79
683,962	140,12
684,151	68,44
684,34	207,7
684,529	191,31
684,718	164,69
684,907	43,86
685,095	217,94
685,284	205,65
685,473	101,2
685,662	66,39
685,851	271,19
686,039	131,92
686,228	166,74
686,417	90,96
686,606	279,38
686,794	156,5
686,983	-3,24
687,172	152,4
687,36	117,59
687,549	39,76
687,738	41,81
687,926	170,83
688,115	43,86
688,303	125,78
688,492	168,79
688,68	70,48
688,869	45,91
689,057	95,06
689,246	70,48
689,434	62,29
689,623	58,2
689,811	152,4
690	136,02
690,188	99,16
690,377	226,13
690,565	242,51
690,753	213,84
690,942	209,75
691,13	197,46
691,318	254,8
691,507	117,59
691,695	172,88
691,883	72,53
692,072	152,4
692,26	103,25
692,448	187,22
692,636	148,31
692,824	35,67
693,013	258,9
693,201	187,22
693,389	119,64
693,577	93,01
693,765	156,5
693,953	52,05
694,141	9,05
694,329	82,77
694,518	41,81
694,706	144,21
694,894	115,54
695,082	101,2
695,27	181,07
695,458	148,31
695,646	205,65
695,834	262,99
696,022	181,07
696,209	273,23
696,397	230,23
696,585	258,9
696,773	281,43
696,961	260,95
697,149	222,03
697,337	318,29
697,525	250,71
697,712	222,03
697,9	248,66
698,088	230,23
698,276	234,32
698,463	181,07
698,651	238,42
698,839	62,29
699,027	164,69
699,214	172,88
699,402	111,44
699,59	74,58
699,777	136,02
699,965	95,06
700,152	90,96
700,34	93,01
700,528	52,05
700,715	82,77
700,903	111,44
701,09	99,16
701,278	133,97
701,465	60,24
701,653	66,39
701,84	123,73
702,028	205,65
702,215	60,24
702,402	109,4
702,59	99,16
702,777	172,88
702,965	140,12
703,152	107,35
703,339	50
703,527	90,96
703,714	68,44
703,901	43,86
704,088	144,21
704,276	109,4
704,463	195,41
704,65	78,68
704,837	142,16
705,025	125,78
705,212	90,96
705,399	93,01
705,586	76,63
705,773	146,26
705,96	86,87
706,147	246,61
706,335	199,51
706,522	201,55
706,709	230,23
706,896	156,5
707,083	109,4
707,27	84,82
707,457	199,51
707,644	148,31
707,831	195,41
708,018	125,78
708,205	144,21
708,392	189,27
708,578	211,79
708,765	68,44
708,952	97,11
709,139	90,96
709,326	78,68
709,513	131,92
709,7	66,39
709,886	217,94
710,073	207,7
710,26	185,17
710,447	0,85
710,633	123,73
710,82	41,81
711,007	109,4
711,193	119,64
711,38	123,73
711,567	189,27
711,753	62,29
711,94	82,77
712,127	213,84
712,313	213,84
712,5	58,2
712,686	152,4
712,873	119,64
713,059	62,29
713,246	140,12
713,432	140,12
713,619	-7,34
713,805	95,06
713,992	111,44
714,178	78,68
714,365	133,97
714,551	252,75
714,737	84,82
714,924	29,52
715,11	109,4
715,297	148,31
715,483	160,59
715,669	84,82
715,855	60,24
716,042	107,35
716,228	74,58
716,414	209,75
716,6	64,34
716,787	107,35
716,973	140,12
717,159	115,54
717,345	78,68
717,531	25,43
717,718	41,81
717,904	123,73
718,09	21,33
718,276	54,1
718,462	82,77
718,648	164,69
718,834	41,81
719,02	70,48
719,206	136,02
719,392	52,05
719,578	41,81
719,764	58,2
719,95	74,58
720,136	187,22
720,322	156,5
720,508	99,16
720,694	60,24
720,879	25,43
721,065	164,69
721,251	9,05
721,437	70,48
721,623	252,75
721,809	172,88
721,994	156,5
722,18	60,24
722,366	150,36
722,552	136,02
722,737	203,6
722,923	224,08
723,109	140,12
723,294	131,92
723,48	166,74
723,666	189,27
723,851	144,21
724,037	172,88
724,222	254,8
724,408	262,99
724,593	140,12
724,779	140,12
724,965	166,74
725,15	109,4
725,336	211,79
725,521	234,32
725,706	140,12
725,892	117,59
726,077	140,12
726,263	144,21
726,448	326,48
726,634	222,03
726,819	242,51
727,004	213,84
727,19	230,23
727,375	295,76
727,56	215,89
727,745	123,73
727,931	224,08
728,116	156,5
728,301	240,47
728,486	289,62
728,672	90,96
728,857	244,56
729,042	164,69
729,227	140,12
729,412	197,46
729,597	115,54
729,783	129,88
729,968	70,48
730,153	172,88
730,338	140,12
730,523	189,27
730,708	115,54
730,893	109,4
731,078	115,54
731,263	66,39
731,448	66,39
731,633	107,35
731,818	117,59
732,003	99,16
732,187	129,88
732,372	107,35
732,557	162,64
732,742	109,4
732,927	156,5
733,112	324,43
733,297	222,03
733,481	219,99
733,666	224,08
733,851	158,55
734,036	222,03
734,22	27,48
734,405	297,81
734,59	170,83
734,774	224,08
734,959	265,04
735,144	232,27
735,328	203,6
735,513	142,16
735,698	236,37
735,882	271,19
736,067	191,31
736,251	246,61
736,436	164,69
736,62	209,75
736,805	144,21
736,989	254,8
737,174	197,46
737,358	176,98
737,543	232,27
737,727	246,61
737,911	357,2
738,096	328,53
738,28	340,82
738,465	287,57
738,649	385,87
738,833	303,95
739,018	199,51
739,202	205,65
739,386	246,61
739,57	271,19
739,755	199,51
739,939	324,43
740,123	156,5
740,307	242,51
740,491	234,32
740,676	115,54
740,86	144,21
741,044	125,78
741,228	201,55
741,412	74,58
741,596	62,29
741,78	156,5
741,964	133,97
742,148	164,69
742,332	101,2
742,516	-5,29
742,7	172,88
742,884	121,68
743,068	168,79
743,252	103,25
743,436	183,12
743,62	74,58
743,804	320,34
743,988	246,61
744,172	230,23
744,356	205,65
744,539	189,27
744,723	205,65
744,907	238,42
745,091	222,03
745,275	262,99
745,458	172,88
745,642	240,47
745,826	303,95
746,009	256,85
746,193	357,2
746,377	332,62
746,56	258,9
746,744	357,2
746,928	281,43
747,111	316,24
747,295	248,66
747,478	240,47
747,662	254,8
747,846	322,38
748,029	250,71
748,213	240,47
748,396	256,85
748,58	250,71
748,763	256,85
748,946	273,23
749,13	279,38
749,313	224,08
749,497	404,3
749,68	402,26
749,863	355,15
750,047	361,3
750,23	353,1
750,413	426,83
750,597	449,36
750,78	369,49
750,963	502,61
751,146	398,16
751,33	480,08
751,513	428,88
751,696	344,91
751,879	322,38
752,062	303,95
752,246	332,62
752,429	314,19
752,612	256,85
752,795	283,47
752,978	191,31
753,161	35,67
753,344	217,94
753,527	164,69
753,71	115,54
753,893	125,78
754,076	107,35
754,259	93,01
754,442	76,63
754,625	74,58
754,808	209,75
754,991	103,25
755,174	25,43
755,357	66,39
755,539	150,36
755,722	246,61
755,905	197,46
756,088	168,79
756,271	144,21
756,453	172,88
756,636	136,02
756,819	76,63
757,002	222,03
757,184	271,19
757,367	197,46
757,55	203,6
757,732	312,14
757,915	228,18
758,098	222,03
758,28	250,71
758,463	156,5
758,645	265,04
758,828	256,85
759,011	240,47
759,193	314,19
759,376	279,38
759,558	156,5
759,741	193,36
759,923	179,03
760,105	172,88
760,288	209,75
760,47	82,77
760,653	144,21
760,835	174,93
761,017	205,65
761,2	156,5
761,382	332,62
761,564	172,88
761,747	271,19
761,929	189,27
762,111	240,47
762,294	256,85
762,476	549,71
762,658	492,37
762,84	672,59
763,022	768,84
763,205	879,43
763,387	901,96
763,569	893,77
763,751	797,51
763,933	830,28
764,115	705,35
764,297	672,59
764,479	672,59
764,661	361,3
764,843	471,89
765,025	369,49
765,207	412,5
765,389	289,62
765,571	213,84
765,753	295,76
765,935	295,76
766,117	381,78
766,299	379,73
766,481	328,53
766,663	234,32
766,845	127,83
767,026	136,02
767,208	115,54
767,39	144,21
767,572	133,97
767,753	254,8
767,935	197,46
768,117	107,35
768,299	273,23
768,48	148,31
768,662	197,46
768,844	148,31
769,025	172,88
769,207	209,75
769,389	74,58
769,57	191,31
769,752	215,89
769,933	121,68
770,115	238,42
770,296	238,42
770,478	322,38
770,659	197,46
770,841	373,58
771,022	230,23
771,204	287,57
771,385	285,52
771,567	402,26
771,748	408,4
771,929	334,67
772,111	502,61
772,292	539,47
772,473	594,76
772,655	492,37
772,836	488,27
773,017	535,37
773,199	475,98
773,38	445,26
773,561	361,3
773,742	340,82
773,923	236,37
774,105	510,8
774,286	248,66
774,467	248,66
774,648	246,61
774,829	277,33
775,01	174,93
775,191	217,94
775,372	256,85
775,553	242,51
775,734	125,78
775,915	170,83
776,096	156,5
776,277	275,28
776,458	295,76
776,639	385,87
776,82	639,82
777,001	586,57
777,182	633,68
777,363	641,87
777,544	688,97
777,725	639,82
777,906	598,86
778,086	521,04
778,267	492,37
778,448	320,34
778,629	248,66
778,809	322,38
778,99	181,07
779,171	181,07
779,352	152,4
779,532	41,81
779,713	172,88
779,894	111,44
780,074	189,27
780,255	172,88
780,435	152,4
780,616	232,27
780,797	115,54
780,977	74,58
781,158	93,01
781,338	25,43
781,519	115,54
781,699	183,12
781,88	140,12
782,06	140,12
782,241	66,39
782,421	-5,29
782,601	115,54
782,782	117,59
782,962	82,77
783,142	27,48
783,323	17,24
783,503	162,64
783,683	125,78
783,864	107,35
784,044	86,87
784,224	174,93
784,404	78,68
784,585	103,25
784,765	66,39
784,945	183,12
785,125	-7,34
785,305	62,29
785,485	183,12
785,666	164,69
785,846	33,62
786,026	131,92
786,206	90,96
786,386	47,96
786,566	107,35
786,746	115,54
786,926	105,3
787,106	66,39
787,286	99,16
787,466	123,73
787,646	58,2
787,826	39,76
788,006	84,82
788,185	90,96
788,365	62,29
788,545	166,74
788,725	99,16
788,905	99,16
789,085	115,54
789,264	70,48
789,444	142,16
789,624	66,39
789,804	103,25
789,983	107,35
790,163	41,81
790,343	144,21
790,522	103,25
790,702	123,73
790,882	-7,34
791,061	205,65
791,241	62,29
791,42	113,49
791,6	109,4
791,78	54,1
791,959	76,63
792,139	0,85
792,318	107,35
792,498	111,44
792,677	107,35
792,856	148,31
793,036	70,48
793,215	115,54
793,395	174,93
793,574	17,24
793,753	66,39
793,933	193,36
794,112	199,51
794,291	189,27
794,471	289,62
794,65	123,73
794,829	187,22
795,008	193,36
795,188	140,12
795,367	205,65
795,546	76,63
795,725	90,96
795,904	119,64
796,084	181,07
796,263	115,54
796,442	144,21
796,621	136,02
796,8	160,59
796,979	33,62
797,158	86,87
797,337	58,2
797,516	74,58
797,695	82,77
797,874	95,06
798,053	82,77
798,232	99,16
798,411	-3,24
798,59	-33,96
798,769	58,2
798,947	27,48
799,126	33,62
799,305	129,88
799,484	74,58
799,663	2,9
799,842	86,87
800,02	242,51
800,199	41,81
800,378	209,75
800,557	58,2
800,735	115,54
800,914	160,59
801,093	156,5
801,271	213,84
801,45	172,88
801,628	254,8
801,807	148,31
801,986	246,61
802,164	107,35
802,343	86,87
802,521	0,85
802,7	99,16
802,878	168,79
803,057	86,87
803,235	131,92
803,414	107,35
803,592	181,07
803,771	86,87
803,949	119,64
804,127	131,92
804,306	205,65
804,484	60,24
804,662	41,81
804,841	-54,44
805,019	52,05
805,197	127,83
805,375	164,69
805,554	90,96
805,732	21,33
805,91	78,68
806,088	74,58
806,266	-5,29
806,445	-5,29
806,623	66,39
806,801	-3,24
806,979	107,35
807,157	62,29
807,335	-1,19
807,513	41,81
807,691	0,85
807,869	76,63
808,047	13,14
808,225	-70,83
808,403	82,77
808,581	54,1
808,759	162,64
808,937	-5,29
809,115	156,5
809,293	133,97
809,471	74,58
809,649	156,5
809,826	246,61
810,004	254,8
810,182	93,01
810,36	226,13
810,538	262,99
810,715	443,21
810,893	447,31
811,071	551,76
811,248	582,48
811,426	576,33
811,604	680,78
811,781	652,11
811,959	463,69
812,137	402,26
812,314	271,19
812,492	299,86
812,669	387,92
812,847	199,51
813,024	156,5
813,202	260,95
813,379	158,55
813,557	199,51
813,734	265,04
813,912	244,56
814,089	138,07
814,267	160,59
814,444	127,83
814,621	107,35
814,799	107,35
814,976	131,92
815,153	45,91
815,331	144,21
815,508	164,69
815,685	29,52
815,862	35,67
816,04	21,33
816,217	-31,91
816,394	25,43
816,571	107,35
816,748	131,92
816,926	133,97
817,103	250,71
817,28	39,76
817,457	-15,53
817,634	117,59
817,811	11,09
817,988	-48,3
818,165	62,29
818,342	60,24
818,519	115,54
818,696	60,24
818,873	-21,67
819,05	70,48
819,227	47,96
819,404	25,43
819,581	9,05
819,758	11,09
819,934	35,67
820,111	-31,91
820,288	35,67
820,465	95,06
820,642	76,63
820,818	68,44
820,995	31,57
821,172	115,54
821,349	60,24
821,525	39,76
821,702	101,2
821,879	21,33
822,055	-5,29
822,232	11,09
822,409	11,09
822,585	140,12
822,762	97,11
822,938	39,76
823,115	-15,53
823,291	0,85
823,468	183,12
823,644	-23,72
823,821	93,01
823,997	-25,77
824,174	15,19
824,35	-33,96
824,527	107,35
824,703	0,85
824,879	41,81
825,056	0,85
825,232	176,98
825,408	50
825,585	78,68
825,761	66,39
825,937	82,77
826,113	76,63
826,29	125,78
826,466	76,63
826,642	426,83
826,818	123,73
826,994	45,91
827,17	33,62
827,347	-21,67
827,523	29,52
827,699	133,97
827,875	33,62
828,051	117,59
828,227	58,2
828,403	74,58
828,579	158,55
828,755	99,16
828,931	41,81
829,107	133,97
829,283	156,5
829,459	-23,72
829,635	33,62
829,811	68,44
829,986	47,96
830,162	80,72
830,338	95,06
830,514	62,29
830,69	0,85
830,865	-48,3
831,041	97,11
831,217	-9,39
831,393	72,53
831,568	-11,43
831,744	62,29
831,92	45,91
832,095	19,29
832,271	29,52
832,447	64,34
832,622	115,54
832,798	58,2
832,973	21,33
833,149	117,59
833,325	41,81
833,5	0,85
833,676	82,77
833,851	156,5
834,027	11,09
834,202	17,24
834,377	101,2
834,553	74,58
834,728	56,15
834,904	33,62
835,079	-9,39
835,254	13,14
835,43	2,9
835,605	-40,11
835,78	9,05
835,955	0,85
836,131	62,29
836,306	-113,83
836,481	17,24
836,656	54,1
836,832	86,87
837,007	-113,83
837,182	9,05
837,357	-11,43
837,532	25,43
837,707	58,2
837,882	21,33
838,057	90,96
838,232	74,58
838,407	76,63
838,582	-40,11
838,757	37,72
838,932	90,96
839,107	-31,91
839,282	7
839,457	9,05
839,632	101,2
839,807	107,35
839,982	131,92
840,157	119,64
840,332	129,88
840,506	80,72
840,681	21,33
840,856	136,02
841,031	27,48
841,205	103,25
841,38	70,48
841,555	209,75
841,73	136,02
841,904	117,59
842,079	209,75
842,254	154,45
842,428	191,31
842,603	52,05
842,777	121,68
842,952	172,88
843,126	111,44
843,301	181,07
843,476	68,44
843,65	144,21
843,825	125,78
843,999	156,5
844,173	176,98
844,348	99,16
844,522	260,95
844,697	123,73
844,871	68,44
845,045	246,61
845,22	166,74
845,394	205,65
845,568	150,36
845,743	131,92
845,917	156,5
846,091	90,96
846,265	33,62
846,44	60,24
846,614	4,95
846,788	25,43
846,962	93,01
847,136	131,92
847,31	29,52
847,485	150,36
847,659	-9,39
847,833	197,46
848,007	123,73
848,181	43,86
848,355	25,43
848,529	62,29
848,703	107,35
848,877	-44,2
849,051	95,06
849,225	-3,24
849,399	68,44
849,573	-15,53
849,746	25,43
849,92	9,05
850,094	90,96
850,268	-15,53
850,442	90,96
850,616	43,86
850,789	0,85
850,963	-11,43
851,137	-29,87
851,311	199,51
851,484	113,49
851,658	66,39
851,832	-7,34
852,005	103,25
852,179	21,33
852,352	82,77
852,526	2,9
852,7	58,2
852,873	68,44
853,047	47,96
853,22	17,24
853,394	152,4
853,567	101,2
853,741	11,09
853,914	103,25
854,088	47,96
854,261	115,54
854,434	-7,34
854,608	0,85
854,781	52,05
854,955	15,19
855,128	33,62
855,301	17,24
855,475	43,86
855,648	58,2
855,821	99,16
855,994	168,79
856,168	66,39
856,341	82,77
856,514	-64,68
856,687	21,33
856,86	33,62
857,033	62,29
857,207	148,31
857,38	2,9
857,553	123,73
857,726	21,33
857,899	115,54
858,072	-7,34
858,245	37,72
858,418	39,76
858,591	-7,34
858,764	-11,43
858,937	99,16
859,11	13,14
859,283	35,67
859,455	19,29
859,628	4,95
859,801	-21,67
859,974	197,46
860,147	-17,58
860,32	84,82
860,492	33,62
860,665	-107,69
860,838	37,72
861,011	9,05
861,183	17,24
861,356	33,62
861,529	58,2
861,701	-81,07
861,874	35,67
862,047	123,73
862,219	50
862,392	123,73
862,564	27,48
862,737	52,05
862,909	115,54
863,082	2,9
863,254	41,81
863,427	111,44
863,599	152,4
863,772	29,52
863,944	86,87
864,117	43,86
864,289	107,35
864,461	-23,72
864,634	50
864,806	-72,87
864,978	62,29
865,151	13,14
865,323	119,64
865,495	140,12
865,667	17,24
865,84	209,75
866,012	-103,59
866,184	109,4
866,356	17,24
866,528	50
866,7	-36,01
866,873	25,43
867,045	-7,34
867,217	-3,24
867,389	72,53
867,561	21,33
867,733	66,39
867,905	-13,48
868,077	66,39
868,249	41,81
868,421	68,44
868,593	66,39
868,765	101,2
868,936	-15,53
869,108	93,01
869,28	123,73
869,452	23,38
869,624	-15,53
869,796	107,35
869,968	74,58
870,139	78,68
870,311	41,81
870,483	127,83
870,654	50
870,826	127,83
870,998	93,01
871,17	101,2
871,341	64,34
871,513	82,77
871,684	-13,48
871,856	-3,24
872,028	62,29
872,199	41,81
872,371	-44,2
872,542	58,2
872,714	37,72
872,885	191,31
873,057	-7,34
873,228	43,86
873,4	76,63
873,571	60,24
873,742	21,33
873,914	101,2
874,085	9,05
874,256	-38,06
874,428	0,85
874,599	93,01
874,77	191,31
874,942	-44,2
875,113	15,19
875,284	-40,11
875,455	-64,68
875,626	21,33
875,798	-44,2
875,969	41,81
876,14	115,54
876,311	164,69
876,482	156,5
876,653	-31,91
876,824	9,05
876,995	45,91
877,166	78,68
877,337	115,54
877,508	25,43
877,679	-19,63
877,85	9,05
878,021	-33,96
878,192	84,82
878,363	-9,39
878,534	-7,34
878,705	74,58
878,876	-54,44
879,047	82,77
879,217	-64,68
879,388	41,81
879,559	76,63
879,73	11,09
879,9	13,14
880,071	-13,48
880,242	23,38
880,413	54,1
880,583	17,24
880,754	74,58
880,924	21,33
881,095	-79,02
881,266	-31,91
881,436	0,85
881,607	115,54
881,777	-7,34
881,948	-15,53
882,118	43,86
882,289	0,85
882,459	45,91
882,63	52,05
882,8	25,43
882,971	33,62
883,141	33,62
883,311	95,06
883,482	97,11
883,652	-21,67
883,822	-21,67
883,993	25,43
884,163	101,2
884,333	15,19
884,504	125,78
884,674	68,44
884,844	37,72
885,014	-31,91
885,184	33,62
885,355	50
885,525	-7,34
885,695	111,44
885,865	129,88
886,035	86,87
886,205	13,14
886,375	52,05
886,545	95,06
886,715	-31,91
886,885	43,86
887,055	-5,29
887,225	0,85
887,395	50
887,565	224,08
887,735	19,29
887,905	39,76
888,075	17,24
888,244	121,68
888,414	41,81
888,584	90,96
888,754	47,96
888,924	47,96
889,093	174,93
889,263	58,2
889,433	84,82
889,603	74,58
889,772	131,92
889,942	84,82
890,111	11,09
890,281	58,2
890,451	37,72
890,62	103,25
890,79	2,9
890,959	82,77
891,129	58,2
891,298	56,15
891,468	-31,91
891,637	43,86
891,807	86,87
891,976	103,25
892,146	-62,63
892,315	70,48
892,485	156,5
892,654	25,43
892,823	-40,11
892,993	-56,49
893,162	76,63
893,331	111,44
893,501	21,33
893,67	74,58
893,839	11,09
894,008	52,05
894,177	52,05
894,347	62,29
894,516	70,48
894,685	62,29
894,854	-3,24
895,023	58,2
895,192	93,01
