Data from mercure_USB4F104161__5__11-31-53-056.txt Node

Date: Tue Apr 14 11:31:53 EDT 2026
User: LaboPhy
Spectrometer: USB4F10416
Trigger mode: 4
Integration Time (sec): 1,000000E-1
Scans to average: 1
Electric dark correction enabled: true
Nonlinearity correction enabled: false
Boxcar width: 0
XAxis mode: Wavelengths
Number of Pixels in Spectrum: 3648
>>>>>Begin Spectral Data<<<<<
177,847	-216,23
178,066	-216,23
178,284	-216,23
178,502	-74,92
178,72	-140,46
178,939	37,72
179,157	4,95
179,375	-23,72
179,593	54,1
179,812	-60,59
180,03	-31,91
180,248	50
180,466	-1,19
180,685	45,91
180,903	-19,63
181,121	-42,15
181,339	-13,48
181,557	-74,92
181,775	45,91
181,994	64,34
182,212	-44,2
182,43	21,33
182,648	-1,19
182,866	82,77
183,084	99,16
183,302	-23,72
183,52	33,62
183,739	50
183,957	62,29
184,175	-66,73
184,393	-3,24
184,611	129,88
184,829	-25,77
185,047	4,95
185,265	78,68
185,483	4,95
185,701	-3,24
185,919	25,43
186,137	86,87
186,355	-1,19
186,573	64,34
186,791	37,72
187,009	60,24
187,227	43,86
187,445	37,72
187,663	-1,19
187,881	-11,43
188,098	4,95
188,316	7
188,534	99,16
188,752	68,44
188,97	21,33
189,188	39,76
189,406	86,87
189,624	60,24
189,841	58,2
190,059	-105,64
190,277	-11,43
190,495	-11,43
190,713	62,29
190,931	146,26
191,148	68,44
191,366	4,95
191,584	0,85
191,802	31,57
192,019	62,29
192,237	31,57
192,455	45,91
192,673	64,34
192,89	-9,39
193,108	78,68
193,326	-40,11
193,543	33,62
193,761	-44,2
193,979	43,86
194,196	-76,97
194,414	37,72
194,632	66,39
194,849	-72,87
195,067	-91,31
195,285	37,72
195,502	-52,39
195,72	29,52
195,937	13,14
196,155	29,52
196,373	52,05
196,59	-48,3
196,808	-11,43
197,025	78,68
197,243	185,17
197,46	17,24
197,678	70,48
197,895	62,29
198,113	-33,96
198,33	58,2
198,548	-9,39
198,765	-83,11
198,983	54,1
199,2	-44,2
199,418	121,68
199,635	-36,01
199,853	64,34
200,07	41,81
200,288	62,29
200,505	13,14
200,722	164,69
200,94	78,68
201,157	-25,77
201,375	95,06
201,592	9,05
201,809	78,68
202,027	125,78
202,244	-64,68
202,461	-25,77
202,679	95,06
202,896	99,16
203,113	-25,77
203,331	37,72
203,548	23,38
203,765	45,91
203,982	45,91
204,2	-44,2
204,417	45,91
204,634	156,5
204,851	119,64
205,069	43,86
205,286	-17,58
205,503	23,38
205,72	-5,29
205,937	78,68
206,155	-50,35
206,372	144,21
206,589	-19,63
206,806	-25,77
207,023	21,33
207,24	-31,91
207,458	-72,87
207,675	-60,59
207,892	54,1
208,109	-21,67
208,326	13,14
208,543	23,38
208,76	-1,19
208,977	90,96
209,194	-19,63
209,411	54,1
209,628	15,19
209,845	21,33
210,062	0,85
210,279	-64,68
210,496	-76,97
210,713	-21,67
210,93	17,24
211,147	95,06
211,364	25,43
211,581	13,14
211,798	136,02
212,015	-44,2
212,232	0,85
212,449	29,52
212,666	17,24
212,883	-19,63
213,1	-23,72
213,317	-25,77
213,533	35,67
213,75	-17,58
213,967	64,34
214,184	-74,92
214,401	31,57
214,618	-101,55
214,835	-17,58
215,051	97,11
215,268	29,52
215,485	39,76
215,702	-52,39
215,919	-17,58
216,135	119,64
216,352	-23,72
216,569	39,76
216,786	64,34
217,002	21,33
217,219	7
217,436	31,57
217,652	4,95
217,869	47,96
218,086	105,3
218,302	64,34
218,519	127,83
218,736	13,14
218,952	-85,16
219,169	56,15
219,386	45,91
219,602	29,52
219,819	-9,39
220,036	23,38
220,252	136,02
220,469	47,96
220,685	-11,43
220,902	-11,43
221,118	9,05
221,335	45,91
221,552	33,62
221,768	37,72
221,985	58,2
222,201	15,19
222,418	47,96
222,634	54,1
222,851	-81,07
223,067	23,38
223,284	-46,25
223,5	117,59
223,716	4,95
223,933	23,38
224,149	-3,24
224,366	19,29
224,582	-58,54
224,799	-60,59
225,015	-3,24
225,231	43,86
225,448	4,95
225,664	41,81
225,88	9,05
226,097	142,16
226,313	-17,58
226,529	84,82
226,746	47,96
226,962	45,91
227,178	7
227,395	-74,92
227,611	29,52
227,827	19,29
228,044	82,77
228,26	39,76
228,476	23,38
228,692	133,97
228,909	37,72
229,125	2,9
229,341	-27,82
229,557	54,1
229,773	-109,74
229,99	131,92
230,206	21,33
230,422	47,96
230,638	-44,2
230,854	17,24
231,07	-3,24
231,286	70,48
231,503	35,67
231,719	-25,77
231,935	29,52
232,151	33,62
232,367	95,06
232,583	4,95
232,799	23,38
233,015	113,49
233,231	-3,24
233,447	23,38
233,663	-23,72
233,879	37,72
234,095	-50,35
234,311	45,91
234,527	33,62
234,743	4,95
234,959	56,15
235,175	39,76
235,391	-60,59
235,607	-19,63
235,823	-25,77
236,039	15,19
236,255	50
236,471	29,52
236,687	-52,39
236,903	82,77
237,118	15,19
237,334	0,85
237,55	45,91
237,766	-48,3
237,982	25,43
238,198	88,92
238,413	-40,11
238,629	105,3
238,845	62,29
239,061	-60,59
239,277	-19,63
239,492	-1,19
239,708	-3,24
239,924	-33,96
240,14	-9,39
240,355	107,35
240,571	-27,82
240,787	-19,63
241,003	80,72
241,218	-1,19
241,434	60,24
241,65	-9,39
241,865	21,33
242,081	76,63
242,297	7
242,512	31,57
242,728	13,14
242,944	23,38
243,159	29,52
243,375	39,76
243,59	15,19
243,806	78,68
244,022	-13,48
244,237	-27,82
244,453	13,14
244,668	58,2
244,884	103,25
245,099	31,57
245,315	4,95
245,53	62,29
245,746	78,68
245,961	52,05
246,177	-17,58
246,392	97,11
246,608	72,53
246,823	13,14
247,039	45,91
247,254	4,95
247,47	86,87
247,685	-1,19
247,9	27,48
248,116	-56,49
248,331	-42,15
248,547	64,34
248,762	-3,24
248,977	33,62
249,193	-7,34
249,408	152,4
249,623	21,33
249,839	-50,35
250,054	-56,49
250,269	-79,02
250,485	119,64
250,7	7
250,915	68,44
251,13	54,1
251,346	31,57
251,561	76,63
251,776	66,39
251,991	-48,3
252,207	123,73
252,422	7
252,637	60,24
252,852	35,67
253,067	21,33
253,283	68,44
253,498	-27,82
253,713	-60,59
253,928	-19,63
254,143	54,1
254,358	21,33
254,573	-1,19
254,788	2,9
255,004	-11,43
255,219	15,19
255,434	2,9
255,649	-44,2
255,864	-29,87
256,079	7
256,294	21,33
256,509	-15,53
256,724	21,33
256,939	-11,43
257,154	2,9
257,369	70,48
257,584	41,81
257,799	-74,92
258,014	11,09
258,229	4,95
258,444	7
258,659	39,76
258,874	54,1
259,089	105,3
259,304	103,25
259,518	-68,78
259,733	37,72
259,948	29,52
260,163	86,87
260,378	41,81
260,593	-36,01
260,808	88,92
261,022	-56,49
261,237	99,16
261,452	39,76
261,667	54,1
261,882	29,52
262,096	31,57
262,311	80,72
262,526	-9,39
262,741	41,81
262,955	-58,54
263,17	99,16
263,385	4,95
263,6	-7,34
263,814	-11,43
264,029	-25,77
264,244	39,76
264,458	68,44
264,673	-5,29
264,888	74,58
265,102	45,91
265,317	-36,01
265,532	29,52
265,746	54,1
265,961	78,68
266,175	52,05
266,39	45,91
266,605	13,14
266,819	88,92
267,034	107,35
267,248	-1,19
267,463	2,9
267,677	-9,39
267,892	39,76
268,106	-113,83
268,321	-44,2
268,535	68,44
268,75	74,58
268,964	17,24
269,179	66,39
269,393	56,15
269,608	62,29
269,822	7
270,036	17,24
270,251	-19,63
270,465	17,24
270,68	-3,24
270,894	84,82
271,108	215,89
271,323	62,29
271,537	21,33
271,752	-7,34
271,966	70,48
272,18	-25,77
272,394	-91,31
272,609	45,91
272,823	-9,39
273,037	-27,82
273,252	-1,19
273,466	41,81
273,68	54,1
273,894	72,53
274,109	-9,39
274,323	-11,43
274,537	2,9
274,751	17,24
274,966	21,33
275,18	-89,26
275,394	-60,59
275,608	-76,97
275,822	-25,77
276,036	-5,29
276,25	45,91
276,465	-3,24
276,679	62,29
276,893	-64,68
277,107	97,11
277,321	-31,91
277,535	64,34
277,749	70,48
277,963	23,38
278,177	-76,97
278,391	47,96
278,605	-44,2
278,819	56,15
279,033	-1,19
279,247	-3,24
279,461	111,44
279,675	45,91
279,889	23,38
280,103	45,91
280,317	54,1
280,531	35,67
280,745	-31,91
280,959	-29,87
281,173	47,96
281,387	62,29
281,601	90,96
281,815	119,64
282,029	-40,11
282,242	29,52
282,456	-19,63
282,67	4,95
282,884	-9,39
283,098	-27,82
283,312	4,95
283,525	43,86
283,739	31,57
283,953	-9,39
284,167	62,29
284,381	-15,53
284,594	21,33
284,808	-19,63
285,022	-52,39
285,235	9,05
285,449	29,52
285,663	31,57
285,877	-52,39
286,09	-36,01
286,304	168,79
286,518	-25,77
286,731	-19,63
286,945	13,14
287,159	-33,96
287,372	-48,3
287,586	47,96
287,799	21,33
288,013	-91,31
288,227	50
288,44	283,47
288,654	152,4
288,867	86,87
289,081	47,96
289,294	-7,34
289,508	74,58
289,721	-11,43
289,935	70,48
290,148	144,21
290,362	45,91
290,575	62,29
290,789	-85,16
291,002	-60,59
291,216	78,68
291,429	-15,53
291,643	9,05
291,856	21,33
292,069	-36,01
292,283	-44,2
292,496	-3,24
292,71	17,24
292,923	23,38
293,136	-3,24
293,35	21,33
293,563	23,38
293,776	82,77
293,99	23,38
294,203	31,57
294,416	-50,35
294,63	15,19
294,843	15,19
295,056	111,44
295,269	54,1
295,483	-60,59
295,696	111,44
295,909	47,96
296,122	86,87
296,335	64,34
296,549	74,58
296,762	121,68
296,975	64,34
297,188	80,72
297,401	0,85
297,615	66,39
297,828	33,62
298,041	176,98
298,254	-68,78
298,467	90,96
298,68	-9,39
298,893	-9,39
299,106	4,95
299,319	54,1
299,532	58,2
299,745	78,68
299,958	31,57
300,171	27,48
300,384	-21,67
300,598	-19,63
300,81	101,2
301,023	-48,3
301,236	4,95
301,449	-36,01
301,662	11,09
301,875	52,05
302,088	56,15
302,301	-17,58
302,514	-29,87
302,727	64,34
302,94	-36,01
303,153	41,81
303,366	-7,34
303,579	-40,11
303,791	47,96
304,004	-50,35
304,217	37,72
304,43	50
304,643	123,73
304,855	-1,19
305,068	103,25
305,281	39,76
305,494	62,29
305,707	23,38
305,919	164,69
306,132	0,85
306,345	29,52
306,558	78,68
306,77	-56,49
306,983	15,19
307,196	103,25
307,408	-9,39
307,621	29,52
307,834	4,95
308,046	-3,24
308,259	64,34
308,472	25,43
308,684	86,87
308,897	29,52
309,109	56,15
309,322	56,15
309,535	146,26
309,747	170,83
309,96	133,97
310,172	176,98
310,385	105,3
310,597	47,96
310,81	176,98
311,022	95,06
311,235	189,27
311,447	226,13
311,66	410,45
311,872	572,24
312,085	660,3
312,297	799,56
312,51	811,85
312,722	992,07
312,934	1225,54
313,147	1110,85
313,359	1012,55
313,572	994,12
313,784	904,01
313,996	605
314,209	551,76
314,421	308,05
314,633	148,31
314,846	185,17
315,058	148,31
315,27	37,72
315,483	54,1
315,695	105,3
315,907	82,77
316,119	70,48
316,332	56,15
316,544	144,21
316,756	111,44
316,968	95,06
317,181	45,91
317,393	29,52
317,605	35,67
317,817	-15,53
318,029	168,79
318,241	7
318,454	56,15
318,666	37,72
318,878	-31,91
319,09	37,72
319,302	138,07
319,514	76,63
319,726	82,77
319,938	78,68
320,15	144,21
320,362	119,64
320,574	-56,49
320,786	-9,39
320,999	23,38
321,211	95,06
321,423	101,2
321,635	-38,06
321,847	62,29
322,058	80,72
322,27	129,88
322,482	172,88
322,694	105,3
322,906	2,9
323,118	70,48
323,33	60,24
323,542	25,43
323,754	15,19
323,966	-70,83
324,178	84,82
324,389	131,92
324,601	152,4
324,813	7
325,025	45,91
325,237	80,72
325,449	54,1
325,66	88,92
325,872	56,15
326,084	21,33
326,296	68,44
326,507	56,15
326,719	-3,24
326,931	7
327,143	127,83
327,354	162,64
327,566	131,92
327,778	127,83
327,989	152,4
328,201	-13,48
328,413	105,3
328,624	64,34
328,836	82,77
329,048	45,91
329,259	123,73
329,471	68,44
329,682	21,33
329,894	43,86
330,106	37,72
330,317	74,58
330,529	109,4
330,74	-1,19
330,952	86,87
331,163	37,72
331,375	129,88
331,586	152,4
331,798	86,87
332,009	62,29
332,221	152,4
332,432	152,4
332,644	168,79
332,855	176,98
333,067	242,51
333,278	340,82
333,489	217,94
333,701	154,45
333,912	295,76
334,124	250,71
334,335	308,05
334,546	353,1
334,758	463,69
334,969	545,61
335,18	369,49
335,392	361,3
335,603	500,56
335,814	512,85
336,025	455,5
336,237	424,78
336,448	457,55
336,659	555,85
336,87	424,78
337,082	586,57
337,293	385,87
337,504	344,91
337,715	322,38
337,926	283,47
338,138	310,1
338,349	226,13
338,56	277,33
338,771	154,45
338,982	144,21
339,193	133,97
339,404	168,79
339,616	197,46
339,827	181,07
340,038	7
340,249	170,83
340,46	86,87
340,671	152,4
340,882	205,65
341,093	64,34
341,304	97,11
341,515	17,24
341,726	47,96
341,937	78,68
342,148	54,1
342,359	37,72
342,57	82,77
342,781	224,08
342,992	129,88
343,203	105,3
343,414	170,83
343,624	17,24
343,835	78,68
344,046	125,78
344,257	82,77
344,468	-36,01
344,679	80,72
344,89	37,72
345,1	70,48
345,311	64,34
345,522	162,64
345,733	74,58
345,944	99,16
346,154	86,87
346,365	86,87
346,576	72,53
346,787	31,57
346,997	166,74
347,208	136,02
347,419	43,86
347,629	207,7
347,84	308,05
348,051	138,07
348,261	193,36
348,472	131,92
348,683	121,68
348,893	45,91
349,104	185,17
349,315	80,72
349,525	156,5
349,736	211,79
349,946	185,17
350,157	213,84
350,368	226,13
350,578	99,16
350,789	146,26
350,999	277,33
351,21	170,83
351,42	62,29
351,631	201,55
351,841	156,5
352,052	121,68
352,262	258,9
352,472	185,17
352,683	172,88
352,893	250,71
353,104	195,41
353,314	283,47
353,525	643,92
353,735	359,25
353,945	205,65
354,156	256,85
354,366	275,28
354,576	330,58
354,787	258,9
354,997	217,94
355,207	226,13
355,418	250,71
355,628	306
355,838	289,62
356,048	367,44
356,259	496,46
356,469	457,55
356,679	449,36
356,889	465,74
357,1	480,08
357,31	504,65
357,52	525,13
357,73	461,65
357,94	521,04
358,15	439,12
358,361	392,02
358,571	385,87
358,781	295,76
358,991	242,51
359,201	203,6
359,411	195,41
359,621	238,42
359,831	285,52
360,041	140,12
360,251	258,9
360,461	195,41
360,672	152,4
360,882	150,36
361,092	213,84
361,302	189,27
361,512	258,9
361,721	164,69
361,931	236,37
362,141	279,38
362,351	222,03
362,561	326,48
362,771	394,06
362,981	938,82
363,191	1514,3
363,401	2327,35
363,611	3250,98
363,821	4258,58
364,03	5729,02
364,24	7232,23
364,45	8747,73
364,66	11506,34
364,87	13103,76
365,08	14062,21
365,289	14692,98
365,499	13830,79
365,709	12182,17
365,919	10105,53
366,128	7623,39
366,338	6497,01
366,548	4989,71
366,758	4317,97
366,967	3373,86
367,177	2495,28
367,387	1692,48
367,596	1112,9
367,806	949,06
368,016	682,83
368,225	496,46
368,435	416,59
368,644	316,24
368,854	262,99
369,064	310,1
369,273	322,38
369,483	303,95
369,692	242,51
369,902	326,48
370,111	320,34
370,321	228,18
370,53	252,75
370,74	242,51
370,949	254,8
371,159	332,62
371,368	320,34
371,578	250,71
371,787	224,08
371,997	258,9
372,206	269,14
372,416	234,32
372,625	209,75
372,834	197,46
373,044	267,09
373,253	344,91
373,462	283,47
373,672	349,01
373,881	312,14
374,09	320,34
374,3	285,52
374,509	279,38
374,718	392,02
374,928	408,4
375,137	463,69
375,346	400,21
375,555	484,17
375,765	303,95
375,974	303,95
376,183	275,28
376,392	211,79
376,601	324,43
376,811	379,73
377,02	340,82
377,229	342,86
377,438	295,76
377,647	301,9
377,856	197,46
378,065	195,41
378,275	226,13
378,484	226,13
378,693	301,9
378,902	275,28
379,111	377,68
379,32	283,47
379,529	373,58
379,738	375,63
379,947	424,78
380,156	521,04
380,365	351,06
380,574	416,59
380,783	334,67
380,992	381,78
381,201	301,9
381,41	357,2
381,619	367,44
381,828	299,86
382,037	394,06
382,245	480,08
382,454	529,23
382,663	445,26
382,872	445,26
383,081	580,43
383,29	695,11
383,499	631,63
383,707	793,42
383,916	908,1
384,125	959,3
384,334	992,07
384,542	1227,59
384,751	1309,51
384,96	1360,7
385,169	1440,58
385,377	1708,86
385,586	1758,01
385,795	1971
386,004	2079,54
386,212	2118,45
386,421	2382,64
386,63	2523,95
386,838	2638,64
387,047	2724,65
387,255	2700,08
387,464	2753,32
387,673	2562,86
387,881	2700,08
388,09	2736,94
388,298	2466,61
388,507	2231,09
388,715	1925,94
388,924	1643,32
389,133	1137,48
389,341	947,01
389,55	734,03
389,758	633,68
389,967	512,85
390,175	512,85
390,383	465,74
390,592	463,69
390,8	312,14
391,009	299,86
391,217	451,41
391,426	457,55
391,634	236,37
391,842	271,19
392,051	301,9
392,259	365,39
392,467	295,76
392,676	242,51
392,884	279,38
393,092	258,9
393,301	361,3
393,509	195,41
393,717	349,01
393,925	254,8
394,134	193,36
394,342	377,68
394,55	344,91
394,758	396,11
394,967	262,99
395,175	324,43
395,383	353,1
395,591	232,27
395,799	258,9
396,007	295,76
396,216	389,97
396,424	275,28
396,632	275,28
396,84	142,16
397,048	285,52
397,256	301,9
397,464	271,19
397,672	414,54
397,88	209,75
398,088	291,66
398,296	299,86
398,504	303,95
398,712	389,97
398,92	400,21
399,128	334,67
399,336	385,87
399,544	439,12
399,752	363,34
399,96	398,16
400,168	361,3
400,376	318,29
400,584	383,82
400,792	316,24
401	295,76
401,207	303,95
401,415	293,71
401,623	295,76
401,831	336,72
402,039	340,82
402,247	299,86
402,454	537,42
402,662	852,81
402,87	1430,34
403,078	2177,84
403,285	2855,72
403,493	3914,52
403,701	5100,3
403,909	6339,32
404,116	7873,25
404,324	9489,09
404,532	11809,44
404,739	12538,52
404,947	12769,94
405,155	12376,73
405,362	10148,54
405,57	8080,09
405,778	5718,78
405,985	4264,72
406,193	3279,65
406,4	2626,35
406,608	2300,72
406,816	1807,16
407,023	1459,01
407,231	1309,51
407,438	1614,65
407,646	1735,48
407,853	1774,39
408,061	1831,74
408,268	1727,29
408,476	1454,91
408,683	1176,39
408,89	977,73
409,098	895,82
409,305	717,64
409,513	562
409,72	447,31
409,927	389,97
410,135	488,27
410,342	287,57
410,55	310,1
410,757	344,91
410,964	209,75
411,172	279,38
411,379	295,76
411,586	281,43
411,793	285,52
412,001	242,51
412,208	328,53
412,415	303,95
412,622	389,97
412,83	275,28
413,037	416,59
413,244	357,2
413,451	389,97
413,658	422,73
413,866	414,54
414,073	383,82
414,28	549,71
414,487	357,2
414,694	435,02
414,901	398,16
415,108	426,83
415,315	394,06
415,522	480,08
415,73	435,02
415,937	422,73
416,144	326,48
416,351	381,78
416,558	344,91
416,765	432,97
416,972	375,63
417,179	389,97
417,386	506,7
417,593	439,12
417,8	430,93
418,006	512,85
418,213	504,65
418,42	443,21
418,627	619,34
418,834	377,68
419,041	400,21
419,248	441,17
419,455	553,8
419,661	533,33
419,868	447,31
420,075	531,28
420,282	508,75
420,489	414,54
420,696	488,27
420,902	465,74
421,109	570,19
421,316	439,12
421,523	498,51
421,729	465,74
421,936	426,83
422,143	467,79
422,349	430,93
422,556	215,89
422,763	349,01
422,969	234,32
423,176	250,71
423,383	301,9
423,589	523,09
423,796	250,71
424,002	262,99
424,209	316,24
424,416	369,49
424,622	191,31
424,829	303,95
425,035	162,64
425,242	392,02
425,448	308,05
425,655	359,25
425,861	398,16
426,068	365,39
426,274	379,73
426,481	332,62
426,687	303,95
426,894	308,05
427,1	375,63
427,306	318,29
427,513	271,19
427,719	291,66
427,926	308,05
428,132	330,58
428,338	228,18
428,545	293,71
428,751	373,58
428,957	406,35
429,163	291,66
429,37	469,84
429,576	279,38
429,782	254,8
429,989	285,52
430,195	365,39
430,401	299,86
430,607	324,43
430,813	275,28
431,02	328,53
431,226	357,2
431,432	318,29
431,638	342,86
431,844	383,82
432,05	283,47
432,257	326,48
432,463	406,35
432,669	410,45
432,875	383,82
433,081	432,97
433,287	506,7
433,493	613,2
433,699	1299,27
433,905	2480,94
434,111	4111,13
434,317	6206,2
434,523	9126,6
434,729	12225,18
434,935	15856,23
435,141	20177,44
435,347	23486,96
435,553	29735,31
435,759	33995,09
435,965	36446,51
436,171	35699
436,377	32280,94
436,582	28096,94
436,788	21723,66
436,994	16128,61
437,2	11786,91
437,406	8686,29
437,612	6210,29
437,818	4274,96
438,023	2511,66
438,229	1743,67
438,435	975,69
438,641	738,12
438,846	562
439,052	521,04
439,258	490,32
439,464	359,25
439,669	422,73
439,875	457,55
440,081	342,86
440,286	349,01
440,492	363,34
440,698	361,3
440,903	398,16
441,109	392,02
441,314	246,61
441,52	209,75
441,726	357,2
441,931	267,09
442,137	357,2
442,342	285,52
442,548	308,05
442,753	398,16
442,959	287,57
443,164	291,66
443,37	369,49
443,575	252,75
443,781	185,17
443,986	385,87
444,192	250,71
444,397	234,32
444,602	215,89
444,808	236,37
445,013	316,24
445,219	219,99
445,424	351,06
445,629	275,28
445,835	373,58
446,04	258,9
446,245	318,29
446,451	252,75
446,656	242,51
446,861	287,57
447,066	254,8
447,272	340,82
447,477	369,49
447,682	258,9
447,887	201,55
448,093	283,47
448,298	473,93
448,503	316,24
448,708	269,14
448,913	244,56
449,118	367,44
449,324	330,58
449,529	418,64
449,734	203,6
449,939	283,47
450,144	357,2
450,349	406,35
450,554	228,18
450,759	367,44
450,964	340,82
451,169	234,32
451,374	209,75
451,579	308,05
451,784	217,94
451,989	349,01
452,194	357,2
452,399	277,33
452,604	238,42
452,809	244,56
453,014	318,29
453,219	234,32
453,424	383,82
453,629	262,99
453,833	242,51
454,038	310,1
454,243	332,62
454,448	340,82
454,653	383,82
454,858	201,55
455,062	332,62
455,267	230,23
455,472	375,63
455,677	250,71
455,882	246,61
456,086	308,05
456,291	410,45
456,496	201,55
456,7	254,8
456,905	246,61
457,11	381,78
457,314	152,4
457,519	254,8
457,724	228,18
457,928	271,19
458,133	242,51
458,338	324,43
458,542	324,43
458,747	242,51
458,951	246,61
459,156	267,09
459,36	299,86
459,565	285,52
459,769	258,9
459,974	398,16
460,178	205,65
460,383	244,56
460,587	250,71
460,792	295,76
460,996	316,24
461,201	303,95
461,405	269,14
461,61	189,27
461,814	267,09
462,018	187,22
462,223	283,47
462,427	379,73
462,631	209,75
462,836	349,01
463,04	283,47
463,244	445,26
463,449	271,19
463,653	443,21
463,857	226,13
464,062	250,71
464,266	217,94
464,47	228,18
464,674	293,71
464,878	316,24
465,083	279,38
465,287	357,2
465,491	271,19
465,695	303,95
465,899	299,86
466,104	336,72
466,308	324,43
466,512	283,47
466,716	361,3
466,92	410,45
467,124	367,44
467,328	293,71
467,532	344,91
467,736	291,66
467,94	361,3
468,144	269,14
468,348	297,81
468,552	381,78
468,756	246,61
468,96	250,71
469,164	215,89
469,368	324,43
469,572	258,9
469,776	248,66
469,98	297,81
470,184	326,48
470,388	293,71
470,591	289,62
470,795	367,44
470,999	349,01
471,203	351,06
471,407	293,71
471,611	244,56
471,814	277,33
472,018	242,51
472,222	322,38
472,426	406,35
472,63	299,86
472,833	299,86
473,037	301,9
473,241	357,2
473,444	336,72
473,648	836,42
473,852	332,62
474,055	242,51
474,259	320,34
474,463	230,23
474,666	308,05
474,87	299,86
475,074	238,42
475,277	361,3
475,481	398,16
475,684	285,52
475,888	349,01
476,091	301,9
476,295	310,1
476,498	330,58
476,702	353,1
476,905	381,78
477,109	389,97
477,312	312,14
477,516	244,56
477,719	328,53
477,923	318,29
478,126	330,58
478,329	308,05
478,533	365,39
478,736	371,54
478,94	250,71
479,143	301,9
479,346	381,78
479,55	299,86
479,753	279,38
479,956	318,29
480,159	283,47
480,363	416,59
480,566	328,53
480,769	308,05
480,972	361,3
481,176	357,2
481,379	484,17
481,582	392,02
481,785	260,95
481,988	435,02
482,192	471,89
482,395	381,78
482,598	355,15
482,801	349,01
483,004	498,51
483,207	277,33
483,41	441,17
483,613	375,63
483,817	498,51
484,02	406,35
484,223	326,48
484,426	383,82
484,629	332,62
484,832	447,31
485,035	416,59
485,238	445,26
485,441	316,24
485,644	357,2
485,846	435,02
486,049	222,03
486,252	389,97
486,455	328,53
486,658	340,82
486,861	389,97
487,064	492,37
487,267	369,49
487,47	504,65
487,672	406,35
487,875	375,63
488,078	418,64
488,281	531,28
488,484	465,74
488,686	381,78
488,889	463,69
489,092	488,27
489,295	482,13
489,497	422,73
489,7	480,08
489,903	457,55
490,105	482,13
490,308	447,31
490,511	512,85
490,713	416,59
490,916	570,19
491,118	588,62
491,321	555,85
491,524	578,38
491,726	619,34
491,929	506,7
492,131	590,67
492,334	617,29
492,536	510,8
492,739	598,86
492,941	455,5
493,144	484,17
493,346	416,59
493,549	490,32
493,751	424,78
493,954	447,31
494,156	414,54
494,359	416,59
494,561	406,35
494,763	394,06
494,966	408,4
495,168	508,75
495,37	297,81
495,573	449,36
495,775	435,02
495,977	455,5
496,18	310,1
496,382	555,85
496,584	373,58
496,787	457,55
496,989	367,44
497,191	381,78
497,393	437,07
497,595	432,97
497,798	422,73
498	361,3
498,202	392,02
498,404	371,54
498,606	432,97
498,808	480,08
499,011	443,21
499,213	422,73
499,415	389,97
499,617	426,83
499,819	439,12
500,021	512,85
500,223	312,14
500,425	389,97
500,627	383,82
500,829	410,45
501,031	422,73
501,233	353,1
501,435	455,5
501,637	488,27
501,839	394,06
502,041	400,21
502,243	439,12
502,445	359,25
502,647	414,54
502,848	373,58
503,05	422,73
503,252	480,08
503,454	410,45
503,656	439,12
503,858	426,83
504,059	402,26
504,261	441,17
504,463	555,85
504,665	447,31
504,867	389,97
505,068	367,44
505,27	365,39
505,472	406,35
505,673	480,08
505,875	381,78
506,077	422,73
506,278	426,83
506,48	471,89
506,682	443,21
506,883	365,39
507,085	467,79
507,287	344,91
507,488	457,55
507,69	437,07
507,891	324,43
508,093	602,96
508,294	408,4
508,496	430,93
508,697	363,34
508,899	414,54
509,1	373,58
509,302	459,6
509,503	473,93
509,705	275,28
509,906	455,5
510,108	381,78
510,309	445,26
510,51	447,31
510,712	363,34
510,913	357,2
511,114	375,63
511,316	234,32
511,517	451,41
511,718	459,6
511,92	359,25
512,121	392,02
512,322	408,4
512,524	480,08
512,725	475,98
512,926	488,27
513,127	426,83
513,329	432,97
513,53	449,36
513,731	424,78
513,932	443,21
514,133	410,45
514,334	381,78
514,536	498,51
514,737	492,37
514,938	482,13
515,139	420,69
515,34	432,97
515,541	467,79
515,742	529,23
515,943	516,94
516,144	545,61
516,345	459,6
516,546	447,31
516,747	535,37
516,948	430,93
517,149	332,62
517,35	383,82
517,551	457,55
517,752	375,63
517,953	461,65
518,154	465,74
518,355	498,51
518,556	463,69
518,756	402,26
518,957	412,5
519,158	535,37
519,359	439,12
519,56	439,12
519,761	465,74
519,961	475,98
520,162	562
520,363	365,39
520,564	426,83
520,764	492,37
520,965	383,82
521,166	406,35
521,366	463,69
521,567	484,17
521,768	416,59
521,968	416,59
522,169	465,74
522,37	316,24
522,57	439,12
522,771	389,97
522,972	365,39
523,172	549,71
523,373	443,21
523,573	441,17
523,774	484,17
523,974	539,47
524,175	508,75
524,375	357,2
524,576	365,39
524,776	412,5
524,977	447,31
525,177	521,04
525,378	353,1
525,578	508,75
525,778	488,27
525,979	539,47
526,179	377,68
526,38	389,97
526,58	416,59
526,78	367,44
526,981	506,7
527,181	463,69
527,381	336,72
527,582	525,13
527,782	508,75
527,982	531,28
528,182	365,39
528,383	435,02
528,583	443,21
528,783	373,58
528,983	471,89
529,183	451,41
529,384	365,39
529,584	566,09
529,784	525,13
529,984	389,97
530,184	414,54
530,384	428,88
530,584	279,38
530,784	439,12
530,984	392,02
531,185	443,21
531,385	414,54
531,585	457,55
531,785	482,13
531,985	353,1
532,185	404,3
532,385	369,49
532,585	430,93
532,785	455,5
532,984	353,1
533,184	467,79
533,384	344,91
533,584	402,26
533,784	439,12
533,984	414,54
534,184	351,06
534,384	344,91
534,583	480,08
534,783	344,91
534,983	508,75
535,183	385,87
535,383	377,68
535,582	465,74
535,782	447,31
535,982	572,24
536,182	439,12
536,381	443,21
536,581	383,82
536,781	369,49
536,98	406,35
537,18	531,28
537,38	504,65
537,579	447,31
537,779	375,63
537,979	490,32
538,178	406,35
538,378	457,55
538,577	408,4
538,777	475,98
538,976	539,47
539,176	504,65
539,376	308,05
539,575	396,11
539,774	482,13
539,974	414,54
540,173	465,74
540,373	484,17
540,572	367,44
540,772	439,12
540,971	389,97
541,171	490,32
541,37	422,73
541,569	420,69
541,769	504,65
541,968	498,51
542,167	480,08
542,367	531,28
542,566	506,7
542,765	492,37
542,965	467,79
543,164	516,94
543,363	467,79
543,562	594,76
543,761	637,77
543,961	822,09
544,16	1350,46
544,359	3418,91
544,558	6699,76
544,757	11188,91
544,957	16888,4
545,156	24240,61
545,355	32584,04
545,554	39487,74
545,753	47403,14
545,952	52052,03
546,151	57450,47
546,35	58185,69
546,549	56260,6
546,748	51941,44
546,947	46573,71
547,146	40734,95
547,345	33493,33
547,544	27570,61
547,743	21684,75
547,942	16274,01
548,141	11131,56
548,34	6937,32
548,539	4191
548,738	2470,7
548,937	1749,82
549,135	1336,13
549,334	979,78
549,533	832,33
549,732	680,78
549,931	598,86
550,13	553,8
550,328	570,19
550,527	504,65
550,726	430,93
550,925	365,39
551,123	484,17
551,322	447,31
551,521	496,46
551,72	435,02
551,918	502,61
552,117	475,98
552,315	459,6
552,514	408,4
552,713	426,83
552,911	396,11
553,11	316,24
553,309	447,31
553,507	424,78
553,706	359,25
553,904	389,97
554,103	430,93
554,301	406,35
554,5	316,24
554,698	361,3
554,897	381,78
555,095	326,48
555,294	291,66
555,492	355,15
555,69	385,87
555,889	318,29
556,087	367,44
556,286	463,69
556,484	377,68
556,682	349,01
556,881	349,01
557,079	412,5
557,277	383,82
557,476	330,58
557,674	373,58
557,872	381,78
558,07	277,33
558,269	242,51
558,467	260,95
558,665	336,72
558,863	285,52
559,062	375,63
559,26	293,71
559,458	172,88
559,656	201,55
559,854	375,63
560,052	279,38
560,25	324,43
560,449	496,46
560,647	299,86
560,845	299,86
561,043	287,57
561,241	406,35
561,439	275,28
561,637	254,8
561,835	301,9
562,033	357,2
562,231	226,13
562,429	326,48
562,627	308,05
562,825	187,22
563,023	260,95
563,221	291,66
563,418	299,86
563,616	267,09
563,814	439,12
564,012	328,53
564,21	308,05
564,408	297,81
564,605	349,01
564,803	258,9
565,001	471,89
565,199	301,9
565,397	367,44
565,594	299,86
565,792	357,2
565,99	332,62
566,188	369,49
566,385	365,39
566,583	303,95
566,781	349,01
566,978	353,1
567,176	471,89
567,373	359,25
567,571	367,44
567,769	365,39
567,966	238,42
568,164	357,2
568,361	279,38
568,559	359,25
568,756	310,1
568,954	404,3
569,151	414,54
569,349	342,86
569,546	271,19
569,744	340,82
569,941	414,54
570,139	301,9
570,336	252,75
570,534	338,77
570,731	275,28
570,928	267,09
571,126	365,39
571,323	410,45
571,52	299,86
571,718	258,9
571,915	439,12
572,112	254,8
572,31	289,62
572,507	340,82
572,704	324,43
572,901	291,66
573,099	310,1
573,296	500,56
573,493	267,09
573,69	279,38
573,887	353,1
574,085	480,08
574,282	367,44
574,479	353,1
574,676	318,29
574,873	480,08
575,07	408,4
575,267	447,31
575,464	987,97
575,661	1567,55
575,858	2046,77
576,055	2947,88
576,252	3848,99
576,449	4698,89
576,646	5315,33
576,843	6062,84
577,04	6466,29
577,237	6677,23
577,434	6681,33
577,631	6673,14
577,828	6777,58
578,025	7027,43
578,222	7246,57
578,419	7631,58
578,615	7996,12
578,812	8254,17
579,009	8028,89
579,206	7920,35
579,403	7750,37
579,599	7117,54
579,796	6458,1
579,993	5647,1
580,19	4944,65
580,386	4262,68
580,583	3748,64
580,78	3091,24
580,976	2323,25
581,173	1768,25
581,37	1219,39
581,566	893,77
581,763	693,07
581,96	432,97
582,156	506,7
582,353	492,37
582,549	480,08
582,746	394,06
582,942	287,57
583,139	455,5
583,335	373,58
583,532	469,84
583,728	326,48
583,925	373,58
584,121	443,21
584,318	484,17
584,514	463,69
584,711	318,29
584,907	394,06
585,103	406,35
585,3	373,58
585,496	353,1
585,693	326,48
585,889	373,58
586,085	373,58
586,281	353,1
586,478	402,26
586,674	396,11
586,87	336,72
587,067	377,68
587,263	392,02
587,459	428,88
587,655	287,57
587,851	473,93
588,048	553,8
588,244	316,24
588,44	346,96
588,636	432,97
588,832	449,36
589,028	553,8
589,224	365,39
589,42	301,9
589,617	400,21
589,813	518,99
590,009	402,26
590,205	422,73
590,401	357,2
590,597	365,39
590,793	369,49
590,989	367,44
591,185	439,12
591,38	326,48
591,576	342,86
591,772	346,96
591,968	308,05
592,164	299,86
592,36	365,39
592,556	365,39
592,752	439,12
592,948	416,59
593,143	332,62
593,339	297,81
593,535	316,24
593,731	326,48
593,926	441,17
594,122	338,77
594,318	367,44
594,514	465,74
594,709	334,67
594,905	357,2
595,101	316,24
595,296	344,91
595,492	414,54
595,688	353,1
595,883	336,72
596,079	418,64
596,275	328,53
596,47	351,06
596,666	308,05
596,861	365,39
597,057	217,94
597,252	170,83
597,448	299,86
597,643	359,25
597,839	375,63
598,034	283,47
598,23	275,28
598,425	357,2
598,621	373,58
598,816	367,44
599,011	342,86
599,207	336,72
599,402	357,2
599,597	428,88
599,793	381,78
599,988	447,31
600,183	334,67
600,379	430,93
600,574	389,97
600,769	406,35
600,965	385,87
601,16	408,4
601,355	320,34
601,55	457,55
601,745	426,83
601,941	363,34
602,136	435,02
602,331	365,39
602,526	318,29
602,721	406,35
602,916	316,24
603,111	365,39
603,307	342,86
603,502	349,01
603,697	242,51
603,892	269,14
604,087	367,44
604,282	394,06
604,477	389,97
604,672	324,43
604,867	340,82
605,062	355,15
605,257	273,23
605,452	383,82
605,646	455,5
605,841	340,82
606,036	361,3
606,231	295,76
606,426	389,97
606,621	275,28
606,816	312,14
607,01	379,73
607,205	295,76
607,4	291,66
607,595	351,06
607,79	226,13
607,984	299,86
608,179	379,73
608,374	271,19
608,569	312,14
608,763	158,55
608,958	209,75
609,153	203,6
609,347	211,79
609,542	275,28
609,736	353,1
609,931	205,65
610,126	144,21
610,32	236,37
610,515	172,88
610,709	467,79
610,904	308,05
611,098	181,07
611,293	160,59
611,487	174,93
611,682	193,36
611,876	234,32
612,071	258,9
612,265	226,13
612,46	103,25
612,654	291,66
612,848	160,59
613,043	201,55
613,237	283,47
613,432	201,55
613,626	127,83
613,82	201,55
614,014	250,71
614,209	252,75
614,403	148,31
614,597	279,38
614,792	230,23
614,986	183,12
615,18	195,41
615,374	246,61
615,568	193,36
615,763	226,13
615,957	160,59
616,151	275,28
616,345	242,51
616,539	176,98
616,733	160,59
616,927	260,95
617,121	222,03
617,316	168,79
617,51	262,99
617,704	168,79
617,898	226,13
618,092	99,16
618,286	111,44
618,48	88,92
618,674	295,76
618,868	121,68
619,061	90,96
619,255	168,79
619,449	172,88
619,643	131,92
619,837	334,67
620,031	267,09
620,225	275,28
620,419	156,5
620,612	252,75
620,806	291,66
621	230,23
621,194	107,35
621,388	176,98
621,581	176,98
621,775	119,64
621,969	258,9
622,162	90,96
622,356	176,98
622,55	193,36
622,743	119,64
622,937	275,28
623,131	172,88
623,324	234,32
623,518	136,02
623,712	140,12
623,905	258,9
624,099	308,05
624,292	197,46
624,486	127,83
624,679	160,59
624,873	168,79
625,066	267,09
625,26	185,17
625,453	144,21
625,647	176,98
625,84	203,6
626,034	213,84
626,227	144,21
626,42	185,17
626,614	226,13
626,807	199,51
627	86,87
627,194	189,27
627,387	197,46
627,58	158,55
627,774	179,03
627,967	193,36
628,16	230,23
628,353	242,51
628,547	185,17
628,74	238,42
628,933	226,13
629,126	215,89
629,319	213,84
629,513	318,29
629,706	152,4
629,899	320,34
630,092	195,41
630,285	174,93
630,478	219,99
630,671	230,23
630,864	252,75
631,057	205,65
631,25	275,28
631,443	226,13
631,636	250,71
631,829	267,09
632,022	236,37
632,215	234,32
632,408	197,46
632,601	201,55
632,794	285,52
632,987	211,79
633,18	234,32
633,373	211,79
633,566	154,45
633,758	78,68
633,951	211,79
634,144	158,55
634,337	111,44
634,53	314,19
634,722	324,43
634,915	246,61
635,108	160,59
635,301	287,57
635,493	228,18
635,686	455,5
635,879	254,8
636,071	193,36
636,264	312,14
636,457	340,82
636,649	250,71
636,842	301,9
637,034	389,97
637,227	396,11
637,42	308,05
637,612	234,32
637,805	230,23
637,997	408,4
638,19	422,73
638,382	252,75
638,575	195,41
638,767	299,86
638,96	316,24
639,152	275,28
639,344	416,59
639,537	213,84
639,729	334,67
639,922	312,14
640,114	271,19
640,306	262,99
640,499	258,9
640,691	258,9
640,883	170,83
641,075	242,51
641,268	353,1
641,46	322,38
641,652	301,9
641,844	277,33
642,037	230,23
642,229	193,36
642,421	361,3
642,613	324,43
642,805	342,86
642,998	389,97
643,19	435,02
643,382	430,93
643,574	408,4
643,766	377,68
643,958	422,73
644,15	527,18
644,342	512,85
644,534	492,37
644,726	389,97
644,918	498,51
645,11	357,2
645,302	428,88
645,494	365,39
645,686	406,35
645,878	443,21
646,07	447,31
646,262	400,21
646,453	340,82
646,645	498,51
646,837	394,06
647,029	492,37
647,221	467,79
647,413	332,62
647,604	353,1
647,796	363,34
647,988	404,3
648,18	328,53
648,371	357,2
648,563	365,39
648,755	277,33
648,947	308,05
649,138	303,95
649,33	449,36
649,521	332,62
649,713	381,78
649,905	293,71
650,096	353,1
650,288	312,14
650,479	365,39
650,671	324,43
650,863	478,03
651,054	447,31
651,246	500,56
651,437	406,35
651,629	559,95
651,82	516,94
652,011	480,08
652,203	439,12
652,394	488,27
652,586	373,58
652,777	478,03
652,968	463,69
653,16	385,87
653,351	518,99
653,542	545,61
653,734	373,58
653,925	422,73
654,116	547,66
654,308	473,93
654,499	381,78
654,69	365,39
654,881	463,69
655,073	430,93
655,264	471,89
655,455	357,2
655,646	408,4
655,837	392,02
656,028	355,15
656,219	398,16
656,411	346,96
656,602	430,93
656,793	340,82
656,984	351,06
657,175	340,82
657,366	349,01
657,557	463,69
657,748	373,58
657,939	349,01
658,13	359,25
658,321	418,64
658,512	439,12
658,703	490,32
658,894	496,46
659,084	562
659,275	508,75
659,466	451,41
659,657	547,66
659,848	508,75
660,039	498,51
660,23	365,39
660,42	340,82
660,611	471,89
660,802	416,59
660,993	465,74
661,183	398,16
661,374	471,89
661,565	545,61
661,755	367,44
661,946	398,16
662,137	361,3
662,327	373,58
662,518	289,62
662,709	324,43
662,899	303,95
663,09	373,58
663,28	283,47
663,471	262,99
663,662	389,97
663,852	353,1
664,043	211,79
664,233	179,03
664,424	308,05
664,614	351,06
664,804	297,81
664,995	301,9
665,185	320,34
665,376	279,38
665,566	303,95
665,756	308,05
665,947	287,57
666,137	226,13
666,328	398,16
666,518	349,01
666,708	308,05
666,898	277,33
667,089	439,12
667,279	383,82
667,469	381,78
667,659	365,39
667,85	480,08
668,04	408,4
668,23	308,05
668,42	420,69
668,61	326,48
668,8	377,68
668,991	381,78
669,181	480,08
669,371	295,76
669,561	381,78
669,751	463,69
669,941	398,16
670,131	422,73
670,321	283,47
670,511	387,92
670,701	279,38
670,891	279,38
671,081	217,94
671,271	246,61
671,461	242,51
671,651	238,42
671,841	219,99
672,03	287,57
672,22	217,94
672,41	236,37
672,6	285,52
672,79	275,28
672,98	258,9
673,169	181,07
673,359	170,83
673,549	353,1
673,739	181,07
673,928	222,03
674,118	242,51
674,308	244,56
674,497	308,05
674,687	170,83
674,877	303,95
675,066	230,23
675,256	250,71
675,446	365,39
675,635	240,47
675,825	258,9
676,014	252,75
676,204	271,19
676,393	377,68
676,583	275,28
676,772	228,18
676,962	236,37
677,151	275,28
677,341	334,67
677,53	219,99
677,72	373,58
677,909	398,16
678,099	222,03
678,288	209,75
678,477	285,52
678,667	234,32
678,856	285,52
679,045	230,23
679,235	267,09
679,424	279,38
679,613	373,58
679,802	226,13
679,992	162,64
680,181	168,79
680,37	187,22
680,559	176,98
680,748	256,85
680,938	144,21
681,127	101,2
681,316	244,56
681,505	189,27
681,694	97,11
681,883	144,21
682,072	181,07
682,261	138,07
682,45	9,05
682,639	70,48
682,828	144,21
683,017	224,08
683,206	129,88
683,395	168,79
683,584	156,5
683,773	197,46
683,962	86,87
684,151	80,72
684,34	121,68
684,529	152,4
684,718	95,06
684,907	129,88
685,095	152,4
685,284	234,32
685,473	80,72
685,662	156,5
685,851	176,98
686,039	226,13
686,228	154,45
686,417	54,1
686,606	260,95
686,794	148,31
686,983	66,39
687,172	103,25
687,36	152,4
687,549	4,95
687,738	152,4
687,926	97,11
688,115	185,17
688,303	80,72
688,492	103,25
688,68	45,91
688,869	62,29
689,057	82,77
689,246	105,3
689,434	78,68
689,623	54,1
689,811	111,44
690	29,52
690,188	43,86
690,377	168,79
690,565	185,17
690,753	176,98
690,942	154,45
691,13	211,79
691,318	140,12
691,507	119,64
691,695	170,83
691,883	219,99
692,072	156,5
692,26	207,7
692,448	152,4
692,636	131,92
692,824	0,85
693,013	154,45
693,201	95,06
693,389	76,63
693,577	176,98
693,765	154,45
693,953	131,92
694,141	37,72
694,329	64,34
694,518	115,54
694,706	82,77
694,894	162,64
695,082	88,92
695,27	127,83
695,458	213,84
695,646	203,6
695,834	226,13
696,022	293,71
696,209	262,99
696,397	230,23
696,585	308,05
696,773	318,29
696,961	285,52
697,149	203,6
697,337	277,33
697,525	242,51
697,712	189,27
697,9	217,94
698,088	254,8
698,276	289,62
698,463	127,83
698,651	174,93
698,839	70,48
699,027	86,87
699,214	152,4
699,402	99,16
699,59	86,87
699,777	23,38
699,965	70,48
700,152	47,96
700,34	70,48
700,528	25,43
700,715	101,2
700,903	41,81
701,09	142,16
701,278	86,87
701,465	144,21
701,653	13,14
701,84	41,81
702,028	168,79
702,215	15,19
702,402	131,92
702,59	140,12
702,777	181,07
702,965	201,55
703,152	195,41
703,339	136,02
703,527	111,44
703,714	95,06
703,901	21,33
704,088	-7,34
704,276	136,02
704,463	105,3
704,65	76,63
704,837	140,12
705,025	86,87
705,212	64,34
705,399	154,45
705,586	37,72
705,773	127,83
705,96	80,72
706,147	162,64
706,335	152,4
706,522	140,12
706,709	86,87
706,896	150,36
707,083	99,16
707,27	226,13
707,457	250,71
707,644	119,64
707,831	152,4
708,018	54,1
708,205	76,63
708,392	90,96
708,578	168,79
708,765	136,02
708,952	72,53
709,139	144,21
709,326	185,17
709,513	172,88
709,7	146,26
709,886	148,31
710,073	170,83
710,26	209,75
710,447	50
710,633	115,54
710,82	103,25
711,007	152,4
711,193	72,53
711,38	111,44
711,567	86,87
711,753	54,1
711,94	144,21
712,127	121,68
712,313	144,21
712,5	164,69
712,686	156,5
712,873	136,02
713,059	29,52
713,246	66,39
713,432	97,11
713,619	138,07
713,805	66,39
713,992	209,75
714,178	70,48
714,365	121,68
714,551	158,55
714,737	127,83
714,924	21,33
715,11	148,31
715,297	86,87
715,483	90,96
715,669	93,01
715,855	119,64
716,042	176,98
716,228	66,39
716,414	197,46
716,6	140,12
716,787	74,58
716,973	39,76
717,159	88,92
717,345	80,72
717,531	97,11
717,718	119,64
717,904	148,31
718,09	23,38
718,276	113,49
718,462	144,21
718,648	136,02
718,834	7
719,02	127,83
719,206	66,39
719,392	29,52
719,578	103,25
719,764	39,76
719,95	29,52
720,136	146,26
720,322	125,78
720,508	78,68
720,694	86,87
720,879	37,72
721,065	238,42
721,251	97,11
721,437	41,81
721,623	176,98
721,809	136,02
721,994	113,49
722,18	103,25
722,366	162,64
722,552	119,64
722,737	179,03
722,923	187,22
723,109	164,69
723,294	123,73
723,48	217,94
723,666	217,94
723,851	193,36
724,037	260,95
724,222	234,32
724,408	224,08
724,593	113,49
724,779	144,21
724,965	226,13
725,15	183,12
725,336	160,59
725,521	242,51
725,706	160,59
725,892	201,55
726,077	209,75
726,263	193,36
726,448	326,48
726,634	195,41
726,819	203,6
727,004	195,41
727,19	140,12
727,375	283,47
727,56	172,88
727,745	189,27
727,931	260,95
728,116	183,12
728,301	181,07
728,486	269,14
728,672	181,07
728,857	230,23
729,042	103,25
729,227	86,87
729,412	105,3
729,597	154,45
729,783	78,68
729,968	74,58
730,153	90,96
730,338	52,05
730,523	115,54
730,708	152,4
730,893	125,78
731,078	181,07
731,263	193,36
731,448	152,4
731,633	115,54
731,818	105,3
732,003	39,76
732,187	113,49
732,372	160,59
732,557	138,07
732,742	101,2
732,927	74,58
733,112	154,45
733,297	183,12
733,481	191,31
733,666	201,55
733,851	201,55
734,036	185,17
734,22	160,59
734,405	357,2
734,59	101,2
734,774	168,79
734,959	131,92
735,144	254,8
735,328	244,56
735,513	176,98
735,698	181,07
735,882	252,75
736,067	187,22
736,251	203,6
736,436	162,64
736,62	183,12
736,805	197,46
736,989	334,67
737,174	179,03
737,358	156,5
737,543	260,95
737,727	299,86
737,911	377,68
738,096	250,71
738,28	308,05
738,465	293,71
738,649	334,67
738,833	342,86
739,018	275,28
739,202	324,43
739,386	183,12
739,57	201,55
739,755	267,09
739,939	279,38
740,123	125,78
740,307	279,38
740,491	226,13
740,676	144,21
740,86	176,98
741,044	152,4
741,228	168,79
741,412	88,92
741,596	109,4
741,78	99,16
741,964	103,25
742,148	144,21
742,332	119,64
742,516	107,35
742,7	121,68
742,884	144,21
743,068	144,21
743,252	191,31
743,436	168,79
743,62	119,64
743,804	217,94
743,988	262,99
744,172	172,88
744,356	193,36
744,539	209,75
744,723	146,26
744,907	148,31
745,091	176,98
745,275	224,08
745,458	349,01
745,642	338,77
745,826	275,28
746,009	359,25
746,193	275,28
746,377	258,9
746,56	324,43
746,744	295,76
746,928	287,57
747,111	291,66
747,295	291,66
747,478	267,09
747,662	226,13
747,846	301,9
748,029	254,8
748,213	320,34
748,396	291,66
748,58	275,28
748,763	267,09
748,946	195,41
749,13	250,71
749,313	226,13
749,497	340,82
749,68	351,06
749,863	381,78
750,047	357,2
750,23	406,35
750,413	473,93
750,597	422,73
750,78	351,06
750,963	471,89
751,146	389,97
751,33	392,02
751,513	357,2
751,696	332,62
751,879	340,82
752,062	258,9
752,246	324,43
752,429	308,05
752,612	209,75
752,795	152,4
752,978	95,06
753,161	162,64
753,344	138,07
753,527	162,64
753,71	103,25
753,893	168,79
754,076	88,92
754,259	164,69
754,442	78,68
754,625	123,73
754,808	230,23
754,991	121,68
755,174	72,53
755,357	115,54
755,539	131,92
755,722	197,46
755,905	123,73
756,088	168,79
756,271	58,2
756,453	164,69
756,636	88,92
756,819	197,46
757,002	168,79
757,184	283,47
757,367	166,74
757,55	168,79
757,732	250,71
757,915	193,36
758,098	191,31
758,28	226,13
758,463	129,88
758,645	246,61
758,828	199,51
759,011	217,94
759,193	222,03
759,376	226,13
759,558	154,45
759,741	287,57
759,923	127,83
760,105	160,59
760,288	242,51
760,47	111,44
760,653	201,55
760,835	250,71
761,017	203,6
761,2	244,56
761,382	238,42
761,564	230,23
761,747	312,14
761,929	246,61
762,111	205,65
762,294	336,72
762,476	510,8
762,658	430,93
762,84	602,96
763,022	654,16
763,205	791,37
763,387	938,82
763,569	897,86
763,751	815,94
763,933	742,22
764,115	660,3
764,297	654,16
764,479	713,55
764,661	424,78
764,843	523,09
765,025	389,97
765,207	432,97
765,389	260,95
765,571	326,48
765,753	308,05
765,935	236,37
766,117	252,75
766,299	369,49
766,481	308,05
766,663	193,36
766,845	170,83
767,026	111,44
767,208	236,37
767,39	158,55
767,572	-1,19
767,753	267,09
767,935	160,59
768,117	123,73
768,299	357,2
768,48	152,4
768,662	252,75
768,844	70,48
769,025	308,05
769,207	136,02
769,389	88,92
769,57	209,75
769,752	262,99
769,933	201,55
770,115	240,47
770,296	176,98
770,478	299,86
770,659	62,29
770,841	447,31
771,022	250,71
771,204	287,57
771,385	344,91
771,567	426,83
771,748	488,27
771,929	414,54
772,111	424,78
772,292	467,79
772,473	469,84
772,655	500,56
772,836	496,46
773,017	518,99
773,199	381,78
773,38	432,97
773,561	424,78
773,742	365,39
773,923	238,42
774,105	328,53
774,286	316,24
774,467	244,56
774,648	236,37
774,829	267,09
775,01	242,51
775,191	174,93
775,372	213,84
775,553	226,13
775,734	154,45
775,915	168,79
776,096	219,99
776,277	203,6
776,458	269,14
776,639	430,93
776,82	607,05
777,001	564,04
777,182	588,62
777,363	695,11
777,544	721,74
777,725	795,47
777,906	525,13
778,086	514,89
778,267	465,74
778,448	310,1
778,629	242,51
778,809	320,34
778,99	224,08
779,171	148,31
779,352	213,84
779,532	29,52
779,713	95,06
779,894	150,36
780,074	271,19
780,255	250,71
780,435	181,07
780,616	234,32
780,797	185,17
780,977	37,72
781,158	86,87
781,338	54,1
781,519	13,14
781,699	219,99
781,88	62,29
782,06	72,53
782,241	-29,87
782,421	-25,77
782,601	17,24
782,782	58,2
782,962	129,88
783,142	13,14
783,323	74,58
783,503	80,72
783,683	99,16
783,864	152,4
784,044	160,59
784,224	80,72
784,404	56,15
784,585	113,49
784,765	86,87
784,945	127,83
785,125	72,53
785,305	111,44
785,485	50
785,666	150,36
785,846	-1,19
786,026	111,44
786,206	54,1
786,386	64,34
786,566	88,92
786,746	131,92
786,926	74,58
787,106	15,19
787,286	54,1
787,466	84,82
787,646	90,96
787,826	142,16
788,006	176,98
788,185	103,25
788,365	64,34
788,545	168,79
788,725	86,87
788,905	127,83
789,085	66,39
789,264	103,25
789,444	64,34
789,624	144,21
789,804	86,87
789,983	144,21
790,163	140,12
790,343	123,73
790,522	127,83
790,702	107,35
790,882	15,19
791,061	197,46
791,241	78,68
791,42	123,73
791,6	168,79
791,78	72,53
791,959	113,49
792,139	84,82
792,318	45,91
792,498	144,21
792,677	7
792,856	64,34
793,036	-40,11
793,215	103,25
793,395	168,79
793,574	47,96
793,753	78,68
793,933	133,97
794,112	244,56
794,291	109,4
794,471	283,47
794,65	217,94
794,829	144,21
795,008	224,08
795,188	236,37
795,367	228,18
795,546	144,21
795,725	127,83
795,904	121,68
796,084	74,58
796,263	95,06
796,442	162,64
796,621	78,68
796,8	66,39
796,979	88,92
797,158	33,62
797,337	84,82
797,516	176,98
797,695	176,98
797,874	133,97
798,053	144,21
798,232	7
798,411	13,14
798,59	47,96
798,769	-11,43
798,947	70,48
799,126	31,57
799,305	121,68
799,484	162,64
799,663	25,43
799,842	121,68
800,02	66,39
800,199	99,16
800,378	203,6
800,557	82,77
800,735	95,06
800,914	187,22
801,093	113,49
801,271	299,86
801,45	238,42
801,628	269,14
801,807	254,8
801,986	226,13
802,164	146,26
802,343	62,29
802,521	13,14
802,7	144,21
802,878	162,64
803,057	78,68
803,235	127,83
803,414	68,44
803,592	80,72
803,771	113,49
803,949	66,39
804,127	-1,19
804,306	113,49
804,484	29,52
804,662	140,12
804,841	-68,78
805,019	109,4
805,197	0,85
805,375	82,77
805,554	45,91
805,732	47,96
805,91	41,81
806,088	31,57
806,266	-7,34
806,445	-23,72
806,623	-23,72
806,801	60,24
806,979	72,53
807,157	25,43
807,335	-97,45
807,513	47,96
807,691	62,29
807,869	33,62
808,047	25,43
808,225	-99,5
808,403	74,58
808,581	-5,29
808,759	271,19
808,937	47,96
809,115	136,02
809,293	146,26
809,471	80,72
809,649	144,21
809,826	193,36
810,004	168,79
810,182	160,59
810,36	209,75
810,538	340,82
810,715	408,4
810,893	400,21
811,071	553,8
811,248	598,86
811,426	619,34
811,604	602,96
811,781	547,66
811,959	484,17
812,137	455,5
812,314	242,51
812,492	219,99
812,669	301,9
812,847	236,37
813,024	176,98
813,202	176,98
813,379	285,52
813,557	160,59
813,734	217,94
813,912	164,69
814,089	150,36
814,267	222,03
814,444	228,18
814,621	82,77
814,799	123,73
814,976	152,4
815,153	176,98
815,331	99,16
815,508	70,48
815,685	-56,49
815,862	70,48
816,04	-60,59
816,217	-19,63
816,394	17,24
816,571	66,39
816,748	140,12
816,926	70,48
817,103	301,9
817,28	123,73
817,457	9,05
817,634	168,79
817,811	27,48
817,988	-25,77
818,165	68,44
818,342	54,1
818,519	80,72
818,696	54,1
818,873	0,85
819,05	138,07
819,227	-58,54
819,404	-19,63
819,581	41,81
819,758	15,19
819,934	25,43
820,111	37,72
820,288	68,44
820,465	176,98
820,642	56,15
820,818	70,48
820,995	17,24
821,172	129,88
821,349	76,63
821,525	29,52
821,702	58,2
821,879	-52,39
822,055	111,44
822,232	54,1
822,409	7
822,585	41,81
822,762	21,33
822,938	45,91
823,115	-1,19
823,291	23,38
823,468	152,4
823,644	-3,24
823,821	97,11
823,997	-29,87
824,174	4,95
824,35	4,95
824,527	64,34
824,703	11,09
824,879	27,48
825,056	21,33
825,232	138,07
825,408	88,92
825,585	21,33
825,761	66,39
825,937	88,92
826,113	152,4
826,29	88,92
826,466	105,3
826,642	535,37
826,818	138,07
826,994	127,83
827,17	29,52
827,347	50
827,523	-11,43
827,699	99,16
827,875	47,96
828,051	72,53
828,227	-17,58
828,403	127,83
828,579	123,73
828,755	154,45
828,931	37,72
829,107	152,4
829,283	72,53
829,459	41,81
829,635	129,88
829,811	78,68
829,986	41,81
830,162	70,48
830,338	56,15
830,514	15,19
830,69	39,76
830,865	50
831,041	82,77
831,217	7
831,393	-50,35
831,568	127,83
831,744	111,44
831,92	7
832,095	-52,39
832,271	-19,63
832,447	58,2
832,622	154,45
832,798	95,06
832,973	37,72
833,149	17,24
833,325	-11,43
833,5	154,45
833,676	52,05
833,851	23,38
834,027	-9,39
834,202	127,83
834,377	41,81
834,553	62,29
834,728	-3,24
834,904	37,72
835,079	29,52
835,254	-27,82
835,43	70,48
835,605	15,19
835,78	31,57
835,955	86,87
836,131	17,24
836,306	-5,29
836,481	62,29
836,656	21,33
836,832	70,48
837,007	-31,91
837,182	11,09
837,357	-27,82
837,532	-3,24
837,707	11,09
837,882	62,29
838,057	31,57
838,232	105,3
838,407	88,92
838,582	29,52
838,757	29,52
838,932	45,91
839,107	21,33
839,282	-27,82
839,457	52,05
839,632	103,25
839,807	15,19
839,982	66,39
840,157	72,53
840,332	111,44
840,506	45,91
840,681	123,73
840,856	21,33
841,031	82,77
841,205	50
841,38	70,48
841,555	129,88
841,73	162,64
841,904	172,88
842,079	146,26
842,254	203,6
842,428	172,88
842,603	127,83
842,777	86,87
842,952	160,59
843,126	41,81
843,301	193,36
843,476	148,31
843,65	160,59
843,825	201,55
843,999	179,03
844,173	168,79
844,348	203,6
844,522	236,37
844,697	168,79
844,871	152,4
845,045	224,08
845,22	170,83
845,394	179,03
845,568	86,87
845,743	185,17
845,917	144,21
846,091	45,91
846,265	58,2
846,44	107,35
846,614	88,92
846,788	37,72
846,962	97,11
847,136	115,54
847,31	-44,2
847,485	125,78
847,659	13,14
847,833	99,16
848,007	111,44
848,181	-50,35
848,355	17,24
848,529	23,38
848,703	86,87
848,877	-1,19
849,051	111,44
849,225	45,91
849,399	23,38
849,573	-52,39
849,746	37,72
849,92	31,57
850,094	78,68
850,268	29,52
850,442	88,92
850,616	21,33
850,789	-17,58
850,963	-64,68
851,137	41,81
851,311	154,45
851,484	76,63
851,658	4,95
851,832	-3,24
852,005	33,62
852,179	37,72
852,352	19,29
852,526	88,92
852,7	103,25
852,873	23,38
853,047	95,06
853,22	21,33
853,394	99,16
853,567	93,01
853,741	-7,34
853,914	99,16
854,088	76,63
854,261	45,91
854,434	-36,01
854,608	13,14
854,781	-44,2
854,955	23,38
855,128	19,29
855,301	70,48
855,475	15,19
855,648	-5,29
855,821	66,39
855,994	37,72
856,168	-19,63
856,341	133,97
856,514	-70,83
856,687	29,52
856,86	29,52
857,033	113,49
857,207	0,85
857,38	78,68
857,553	144,21
857,726	103,25
857,899	78,68
858,072	-1,19
858,245	-27,82
858,418	29,52
858,591	-9,39
858,764	37,72
858,937	50
859,11	152,4
859,283	88,92
859,455	45,91
859,628	-17,58
859,801	64,34
859,974	21,33
860,147	7
860,32	78,68
860,492	70,48
860,665	50
860,838	-17,58
861,011	39,76
861,183	78,68
861,356	115,54
861,529	140,12
861,701	45,91
861,874	29,52
862,047	29,52
862,219	-1,19
862,392	43,86
862,564	9,05
862,737	-17,58
862,909	60,24
863,082	-11,43
863,254	66,39
863,427	21,33
863,599	103,25
863,772	-19,63
863,944	133,97
864,117	121,68
864,289	131,92
864,461	31,57
864,634	62,29
864,806	-5,29
864,978	39,76
865,151	29,52
865,323	146,26
865,495	168,79
865,667	115,54
865,84	205,65
866,012	-9,39
866,184	88,92
866,356	21,33
866,528	29,52
866,7	-3,24
866,873	-7,34
867,045	25,43
867,217	4,95
867,389	29,52
867,561	29,52
867,733	88,92
867,905	23,38
868,077	47,96
868,249	107,35
868,421	111,44
868,593	29,52
868,765	111,44
868,936	0,85
869,108	64,34
869,28	123,73
869,452	58,2
869,624	-25,77
869,796	131,92
869,968	13,14
870,139	144,21
870,311	25,43
870,483	170,83
870,654	-11,43
870,826	113,49
870,998	70,48
871,17	31,57
871,341	13,14
871,513	99,16
871,684	68,44
871,856	-19,63
872,028	99,16
872,199	13,14
872,371	39,76
872,542	-13,48
872,714	29,52
872,885	179,03
873,057	80,72
873,228	41,81
873,4	64,34
873,571	136,02
873,742	-76,97
873,914	62,29
874,085	29,52
874,256	54,1
874,428	-93,35
874,599	13,14
874,77	111,44
874,942	74,58
875,113	56,15
875,284	-52,39
875,455	-76,97
875,626	45,91
875,798	-23,72
875,969	-58,54
876,14	13,14
876,311	117,59
876,482	70,48
876,653	56,15
876,824	23,38
876,995	54,1
877,166	9,05
877,337	95,06
877,508	37,72
877,679	-17,58
877,85	-52,39
878,021	-1,19
878,192	33,62
878,363	-5,29
878,534	-56,49
878,705	45,91
878,876	-58,54
879,047	-3,24
879,217	-33,96
879,388	58,2
879,559	29,52
879,73	127,83
879,9	-33,96
880,071	33,62
880,242	66,39
880,413	2,9
880,583	62,29
880,754	111,44
880,924	-13,48
881,095	-23,72
881,266	-19,63
881,436	115,54
881,607	86,87
881,777	109,4
881,948	-17,58
882,118	74,58
882,289	-9,39
882,459	-1,19
882,63	13,14
882,8	54,1
882,971	144,21
883,141	-19,63
883,311	21,33
883,482	152,4
883,652	9,05
883,822	-9,39
883,993	39,76
884,163	45,91
884,333	-3,24
884,504	127,83
884,674	123,73
884,844	11,09
885,014	13,14
885,184	-27,82
885,355	101,2
885,525	86,87
885,695	39,76
885,865	217,94
886,035	88,92
886,205	-1,19
886,375	176,98
886,545	129,88
886,715	-27,82
886,885	82,77
887,055	29,52
887,225	62,29
887,395	68,44
887,565	185,17
887,735	56,15
887,905	113,49
888,075	7
888,244	127,83
888,414	29,52
888,584	66,39
888,754	-27,82
888,924	78,68
889,093	226,13
889,263	95,06
889,433	29,52
889,603	31,57
889,772	105,3
889,942	88,92
890,111	107,35
890,281	119,64
890,451	70,48
890,62	64,34
890,79	21,33
890,959	29,52
891,129	21,33
891,298	62,29
891,468	138,07
891,637	111,44
891,807	70,48
891,976	47,96
892,146	7
892,315	82,77
892,485	105,3
892,654	54,1
892,823	70,48
892,993	13,14
893,162	74,58
893,331	86,87
893,501	35,67
893,67	33,62
893,839	72,53
894,008	54,1
894,177	54,1
894,347	-19,63
894,516	136,02
894,685	47,96
894,854	-25,77
895,023	107,35
895,192	29,52
