Data from mercure_USB4F104161__3__11-31-52-891.txt Node

Date: Tue Apr 14 11:31:52 EDT 2026
User: LaboPhy
Spectrometer: USB4F10416
Trigger mode: 4
Integration Time (sec): 1,000000E-1
Scans to average: 1
Electric dark correction enabled: true
Nonlinearity correction enabled: false
Boxcar width: 0
XAxis mode: Wavelengths
Number of Pixels in Spectrum: 3648
>>>>>Begin Spectral Data<<<<<
177,847	-140,12
178,066	-140,12
178,284	-140,12
178,502	-224,08
178,72	-84,82
178,939	-70,48
179,157	81,07
179,375	54,44
179,593	-7
179,812	38,06
180,03	-11,09
180,248	-21,33
180,466	33,96
180,685	56,49
180,903	-23,38
181,121	-146,26
181,339	15,53
181,557	-17,24
181,775	-84,82
181,994	-107,35
182,212	95,4
182,43	103,59
182,648	11,43
182,866	31,91
183,084	83,11
183,302	-17,24
183,52	-19,29
183,739	179,37
183,957	103,59
184,175	-41,81
184,393	1,19
184,611	74,92
184,829	54,44
185,047	38,06
185,265	-17,24
185,483	52,39
185,701	85,16
185,919	13,48
186,137	-7
186,355	38,06
186,573	-11,09
186,791	79,02
187,009	62,63
187,227	64,68
187,445	33,96
187,663	44,2
187,881	74,92
188,098	105,64
188,316	17,58
188,534	70,83
188,752	31,91
188,97	-2,9
189,188	-2,9
189,406	-15,19
189,624	177,32
189,841	46,25
190,059	-41,81
190,277	54,44
190,495	87,21
190,713	122,02
190,931	119,98
191,148	103,59
191,366	64,68
191,584	29,87
191,802	85,16
192,019	99,5
192,237	33,96
192,455	74,92
192,673	54,44
192,89	-35,67
193,108	42,15
193,326	17,58
193,543	117,93
193,761	-27,48
193,979	25,77
194,196	-21,33
194,414	152,74
194,632	97,45
194,849	-33,62
195,067	-76,63
195,285	87,21
195,502	-105,3
195,72	-27,48
195,937	48,3
196,155	72,87
196,373	-41,81
196,59	15,53
196,808	21,67
197,025	72,87
197,243	345,25
197,46	72,87
197,678	81,07
197,895	31,91
198,113	33,96
198,33	19,63
198,548	95,4
198,765	29,87
198,983	79,02
199,2	-52,05
199,418	9,39
199,635	-19,29
199,853	31,91
200,07	-52,05
200,288	79,02
200,505	23,72
200,722	136,36
200,94	1,19
201,157	21,67
201,375	130,22
201,592	-21,33
201,809	93,35
202,027	185,51
202,244	3,24
202,461	17,58
202,679	87,21
202,896	87,21
203,113	-43,86
203,331	5,29
203,548	-0,85
203,765	48,3
203,982	13,48
204,2	-11,09
204,417	-35,67
204,634	122,02
204,851	87,21
205,069	89,26
205,286	79,02
205,503	79,02
205,72	29,87
205,937	119,98
206,155	-17,24
206,372	146,6
206,589	33,96
206,806	113,83
207,023	42,15
207,24	56,49
207,458	31,91
207,675	-35,67
207,892	97,45
208,109	-23,38
208,326	33,96
208,543	72,87
208,76	23,72
208,977	201,9
209,194	38,06
209,411	122,02
209,628	91,31
209,845	29,87
210,062	-11,09
210,279	21,67
210,496	29,87
210,713	62,63
210,93	-35,67
211,147	119,98
211,364	79,02
211,581	-2,9
211,798	124,07
212,015	-60,24
212,232	-52,05
212,449	5,29
212,666	46,25
212,883	-0,85
213,1	-13,14
213,317	70,83
213,533	68,78
213,75	56,49
213,967	70,83
214,184	-23,38
214,401	48,3
214,618	23,72
214,835	62,63
215,051	87,21
215,268	76,97
215,485	33,96
215,702	62,63
215,919	-2,9
216,135	171,18
216,352	5,29
216,569	33,96
216,786	70,83
217,002	38,06
217,219	64,68
217,436	21,67
217,652	87,21
217,869	42,15
218,086	146,6
218,302	36,01
218,519	62,63
218,736	7,34
218,952	27,82
219,169	64,68
219,386	21,67
219,602	15,53
219,819	19,63
220,036	-2,9
220,252	56,49
220,469	-2,9
220,685	36,01
220,902	68,78
221,118	46,25
221,335	-0,85
221,552	40,11
221,768	33,96
221,985	-2,9
222,201	-27,48
222,418	46,25
222,634	15,53
222,851	5,29
223,067	50,35
223,284	-0,85
223,5	-2,9
223,716	15,53
223,933	33,96
224,149	23,72
224,366	38,06
224,582	33,96
224,799	-2,9
225,015	54,44
225,231	9,39
225,448	-76,63
225,664	-29,52
225,88	23,72
226,097	128,17
226,313	-29,52
226,529	79,02
226,746	128,17
226,962	62,63
227,178	15,53
227,395	-43,86
227,611	38,06
227,827	3,24
228,044	13,48
228,26	152,74
228,476	42,15
228,692	64,68
228,909	44,2
229,125	109,74
229,341	56,49
229,557	-52,05
229,773	-60,24
229,99	122,02
230,206	11,43
230,422	38,06
230,638	-35,67
230,854	17,58
231,07	-2,9
231,286	95,4
231,503	48,3
231,719	-2,9
231,935	13,48
232,151	7,34
232,367	169,13
232,583	97,45
232,799	115,88
233,015	-0,85
233,231	-7
233,447	38,06
233,663	-35,67
233,879	29,87
234,095	-23,38
234,311	62,63
234,527	42,15
234,743	124,07
234,959	21,67
235,175	91,31
235,391	-11,09
235,607	-17,24
235,823	83,11
236,039	5,29
236,255	119,98
236,471	-86,87
236,687	-9,05
236,903	23,72
237,118	66,73
237,334	-2,9
237,55	15,53
237,766	-52,05
237,982	81,07
238,198	105,64
238,413	7,34
238,629	66,73
238,845	5,29
239,061	21,67
239,277	-88,92
239,492	-15,19
239,708	1,19
239,924	11,43
240,14	21,67
240,355	144,55
240,571	13,48
240,787	25,77
241,003	50,35
241,218	-19,29
241,434	-52,05
241,65	79,02
241,865	-47,96
242,081	115,88
242,297	-76,63
242,512	83,11
242,728	7,34
242,944	21,67
243,159	54,44
243,375	-15,19
243,59	64,68
243,806	40,11
244,022	13,48
244,237	33,96
244,453	72,87
244,668	42,15
244,884	119,98
245,099	95,4
245,315	74,92
245,53	56,49
245,746	136,36
245,961	97,45
246,177	50,35
246,392	146,6
246,608	7,34
246,823	46,25
247,039	-19,29
247,254	54,44
247,47	140,46
247,685	46,25
247,9	-52,05
248,116	-9,05
248,331	-2,9
248,547	101,55
248,762	-15,19
248,977	79,02
249,193	21,67
249,408	46,25
249,623	50,35
249,839	36,01
250,054	-15,19
250,269	36,01
250,485	134,31
250,7	17,58
250,915	27,82
251,13	130,22
251,346	66,73
251,561	103,59
251,776	134,31
251,991	-21,33
252,207	31,91
252,422	19,63
252,637	1,19
252,852	-2,9
253,067	5,29
253,283	29,87
253,498	83,11
253,713	25,77
253,928	-35,67
254,143	21,67
254,358	25,77
254,573	13,48
254,788	9,39
255,004	68,78
255,219	-23,38
255,434	29,87
255,649	17,58
255,864	38,06
256,079	38,06
256,294	-2,9
256,509	7,34
256,724	62,63
256,939	-84,82
257,154	-35,67
257,369	-74,58
257,584	160,94
257,799	5,29
258,014	-25,43
258,229	87,21
258,444	21,67
258,659	40,11
258,874	103,59
259,089	111,78
259,304	11,43
259,518	-9,05
259,733	81,07
259,948	15,53
260,163	40,11
260,378	87,21
260,593	54,44
260,808	11,43
261,022	-109,4
261,237	21,67
261,452	64,68
261,667	13,48
261,882	103,59
262,096	87,21
262,311	115,88
262,526	-23,38
262,741	-19,29
262,955	29,87
263,17	105,64
263,385	13,48
263,6	15,53
263,814	13,48
264,029	23,72
264,244	79,02
264,458	13,48
264,673	5,29
264,888	62,63
265,102	72,87
265,317	-11,09
265,532	72,87
265,746	46,25
265,961	74,92
266,175	70,83
266,39	7,34
266,605	25,77
266,819	62,63
267,034	76,97
267,248	-107,35
267,463	64,68
267,677	-11,09
267,892	48,3
268,106	-35,67
268,321	70,83
268,535	130,22
268,75	105,64
268,964	11,43
269,179	-21,33
269,393	48,3
269,608	-17,24
269,822	-23,38
270,036	-58,2
270,251	122,02
270,465	5,29
270,68	38,06
270,894	99,5
271,108	107,69
271,323	-19,29
271,537	103,59
271,752	58,54
271,966	58,54
272,18	-31,57
272,394	31,91
272,609	33,96
272,823	1,19
273,037	91,31
273,252	-27,48
273,466	64,68
273,68	122,02
273,894	25,77
274,109	-84,82
274,323	56,49
274,537	-7
274,751	-2,9
274,966	-41,81
275,18	-43,86
275,394	-43,86
275,608	-0,85
275,822	-133,97
276,036	74,92
276,25	40,11
276,465	81,07
276,679	5,29
276,893	-39,76
277,107	136,36
277,321	42,15
277,535	23,72
277,749	101,55
277,963	40,11
278,177	-41,81
278,391	46,25
278,605	-88,92
278,819	101,55
279,033	-23,38
279,247	23,72
279,461	46,25
279,675	70,83
279,889	15,53
280,103	56,49
280,317	111,78
280,531	-52,05
280,745	72,87
280,959	-39,76
281,173	13,48
281,387	130,22
281,601	79,02
281,815	103,59
282,029	-35,67
282,242	54,44
282,456	3,24
282,67	54,44
282,884	-19,29
283,098	48,3
283,312	7,34
283,525	46,25
283,739	-31,57
283,953	38,06
284,167	81,07
284,381	-58,2
284,594	62,63
284,808	13,48
285,022	5,29
285,235	17,58
285,449	-2,9
285,663	95,4
285,877	29,87
286,09	62,63
286,304	144,55
286,518	97,45
286,731	-82,77
286,945	29,87
287,159	-72,53
287,372	15,53
287,586	46,25
287,799	56,49
288,013	-35,67
288,227	23,72
288,44	298,15
288,654	46,25
288,867	13,48
289,081	17,58
289,294	42,15
289,508	107,69
289,721	-27,48
289,935	11,43
290,148	93,35
290,362	70,83
290,575	70,83
290,789	-19,29
291,002	-0,85
291,216	66,73
291,429	79,02
291,643	13,48
291,856	-11,09
292,069	56,49
292,283	15,53
292,496	89,26
292,71	79,02
292,923	46,25
293,136	13,48
293,35	-4,95
293,563	13,48
293,776	46,25
293,99	-11,09
294,203	21,67
294,416	48,3
294,63	-0,85
294,843	87,21
295,056	109,74
295,269	79,02
295,483	-101,2
295,696	40,11
295,909	-7
296,122	144,55
296,335	7,34
296,549	19,63
296,762	-19,29
296,975	70,83
297,188	46,25
297,401	140,46
297,615	58,54
297,828	70,83
298,041	95,4
298,254	-52,05
298,467	-19,29
298,68	13,48
298,893	-11,09
299,106	27,82
299,319	111,78
299,532	152,74
299,745	-60,24
299,958	-41,81
300,171	1,19
300,384	42,15
300,598	-76,63
300,81	79,02
301,023	13,48
301,236	-15,19
301,449	21,67
301,662	-9,05
301,875	74,92
302,088	132,26
302,301	105,64
302,514	38,06
302,727	62,63
302,94	70,83
303,153	97,45
303,366	81,07
303,579	1,19
303,791	38,06
304,004	-2,9
304,217	99,5
304,43	3,24
304,643	23,72
304,855	-47,96
305,068	54,44
305,281	38,06
305,494	91,31
305,707	87,21
305,919	72,87
306,132	54,44
306,345	103,59
306,558	91,31
306,77	-19,29
306,983	50,35
307,196	199,85
307,408	48,3
307,621	52,39
307,834	87,21
308,046	81,07
308,259	97,45
308,472	124,07
308,684	152,74
308,897	42,15
309,109	25,77
309,322	7,34
309,535	54,44
309,747	162,98
309,96	128,17
310,172	119,98
310,385	122,02
310,597	44,2
310,81	122,02
311,022	115,88
311,235	294,05
311,447	296,1
311,66	369,83
311,872	548
312,085	631,97
312,297	783,52
312,51	881,82
312,722	1070,23
312,934	1236,12
313,147	1180,82
313,359	1062,04
313,572	955,55
313,784	832,67
313,996	670,88
314,209	566,43
314,421	371,88
314,633	261,29
314,846	230,57
315,058	234,66
315,27	140,46
315,483	81,07
315,695	189,61
315,907	38,06
316,119	40,11
316,332	44,2
316,544	79,02
316,756	162,98
316,968	64,68
317,181	95,4
317,393	46,25
317,605	81,07
317,817	40,11
318,029	165,03
318,241	54,44
318,454	64,68
318,666	81,07
318,878	38,06
319,09	62,63
319,302	79,02
319,514	66,73
319,726	89,26
319,938	144,55
320,15	146,6
320,362	103,59
320,574	-0,85
320,786	40,11
320,999	46,25
321,211	128,17
321,423	111,78
321,635	25,77
321,847	70,83
322,058	5,29
322,27	138,41
322,482	224,42
322,694	162,98
322,906	70,83
323,118	111,78
323,33	79,02
323,542	62,63
323,754	111,78
323,966	-27,48
324,178	109,74
324,389	56,49
324,601	115,88
324,813	124,07
325,025	103,59
325,237	56,49
325,449	50,35
325,66	111,78
325,872	66,73
326,084	109,74
326,296	87,21
326,507	46,25
326,719	152,74
326,931	-27,48
327,143	103,59
327,354	191,66
327,566	62,63
327,778	87,21
327,989	199,85
328,201	122,02
328,413	79,02
328,624	185,51
328,836	29,87
329,048	5,29
329,259	83,11
329,471	95,4
329,682	60,59
329,894	21,67
330,106	103,59
330,317	101,55
330,529	160,94
330,74	7,34
330,952	152,74
331,163	187,56
331,375	156,84
331,586	91,31
331,798	72,87
332,009	122,02
332,221	119,98
332,432	187,56
332,644	48,3
332,855	126,12
333,067	154,79
333,278	226,47
333,489	320,68
333,701	189,61
333,912	320,68
334,124	355,49
334,335	343,21
334,546	439,46
334,758	414,88
334,969	550,05
335,18	457,89
335,392	472,23
335,603	556,19
335,814	509,09
336,025	308,39
336,237	457,89
336,448	416,93
336,659	513,19
336,87	539,81
337,082	550,05
337,293	322,73
337,504	378,02
337,715	332,97
337,926	244,9
338,138	300,2
338,349	253,09
338,56	275,62
338,771	87,21
338,982	255,14
339,193	111,78
339,404	326,82
339,616	162,98
339,827	156,84
340,038	46,25
340,249	195,75
340,46	122,02
340,671	195,75
340,882	201,9
341,093	152,74
341,304	119,98
341,515	87,21
341,726	48,3
341,937	95,4
342,148	85,16
342,359	29,87
342,57	79,02
342,781	179,37
342,992	126,12
343,203	48,3
343,414	173,22
343,624	107,69
343,835	152,74
344,046	89,26
344,257	171,18
344,468	111,78
344,679	105,64
344,89	79,02
345,1	46,25
345,311	150,7
345,522	111,78
345,733	68,78
345,944	113,83
346,154	185,51
346,365	195,75
346,576	126,12
346,787	91,31
346,997	130,22
347,208	228,52
347,419	11,43
347,629	173,22
347,84	238,76
348,051	103,59
348,261	179,37
348,472	38,06
348,683	152,74
348,893	56,49
349,104	156,84
349,315	165,03
349,525	152,74
349,736	128,17
349,946	160,94
350,157	234,66
350,368	162,98
350,578	124,07
350,789	160,94
350,999	185,51
351,21	136,36
351,42	38,06
351,631	205,99
351,841	177,32
352,052	214,18
352,262	328,87
352,472	195,75
352,683	226,47
352,893	271,53
353,104	173,22
353,314	345,25
353,525	717,98
353,735	351,4
353,945	251,05
354,156	242,85
354,366	226,47
354,576	357,54
354,787	302,25
354,997	216,23
355,207	181,42
355,418	271,53
355,628	351,4
355,838	316,58
356,048	361,64
356,259	515,23
356,469	500,9
356,679	548
356,889	513,19
357,1	455,84
357,31	504,99
357,52	545,95
357,73	490,66
357,94	472,23
358,15	406,69
358,361	468,13
358,571	386,21
358,781	367,78
358,991	232,62
359,201	259,24
359,411	271,53
359,621	160,94
359,831	259,24
360,041	185,51
360,251	320,68
360,461	246,95
360,672	203,94
360,882	130,22
361,092	138,41
361,302	230,57
361,512	201,9
361,721	212,14
361,931	201,9
362,141	330,92
362,351	244,9
362,561	341,16
362,771	423,08
362,981	908,44
363,191	1324,18
363,401	2153,61
363,611	3232,89
363,821	4213,87
364,03	5600,34
364,24	7199,8
364,45	8791,08
364,66	11592,7
364,87	13016,04
365,08	13757,4
365,289	14410,7
365,499	13974,49
365,709	12235,76
365,919	10146,83
366,128	7937,07
366,338	6452,3
366,548	5094,49
366,758	4351,08
366,967	3404,92
367,177	2634,88
367,387	1733,78
367,596	1021,08
367,806	890,01
368,016	564,39
368,225	478,37
368,435	521,38
368,644	341,16
368,854	236,71
369,064	263,33
369,273	292,01
369,483	277,67
369,692	281,77
369,902	283,81
370,111	246,95
370,321	214,18
370,53	201,9
370,74	265,38
370,949	318,63
371,159	314,53
371,368	308,39
371,578	199,85
371,787	324,77
371,997	283,81
372,206	275,62
372,416	285,86
372,625	201,9
372,834	263,33
373,044	251,05
373,253	318,63
373,462	263,33
373,672	365,73
373,881	308,39
374,09	373,92
374,3	341,16
374,509	373,92
374,718	332,97
374,928	431,27
375,137	447,65
375,346	287,91
375,555	496,8
375,765	404,64
375,974	373,92
376,183	429,22
376,392	238,76
376,601	310,44
376,811	353,45
377,02	361,64
377,229	275,62
377,438	312,49
377,647	238,76
377,856	285,86
378,065	292,01
378,275	222,38
378,484	294,05
378,693	365,73
378,902	341,16
379,111	488,61
379,32	384,16
379,529	398,5
379,738	394,4
379,947	394,4
380,156	496,8
380,365	572,58
380,574	416,93
380,783	306,34
380,992	349,35
381,201	373,92
381,41	326,82
381,619	386,21
381,828	343,21
382,037	316,58
382,245	416,93
382,454	472,23
382,663	443,56
382,872	472,23
383,081	570,53
383,29	685,22
383,499	654,5
383,707	922,78
383,916	900,25
384,125	980,12
384,334	1031,32
384,542	1193,11
384,751	1260,7
384,96	1318,04
385,169	1447,06
385,377	1662,1
385,586	1746,06
385,795	2045,07
386,004	2219,14
386,212	2208,9
386,421	2552,96
386,63	2604,16
386,838	2815,1
387,047	2749,57
387,255	2909,31
387,464	2937,98
387,673	2765,95
387,881	2817,15
388,09	2954,37
388,298	2540,68
388,507	2303,11
388,715	1805,46
388,924	1631,38
389,133	1236,12
389,341	906,4
389,55	726,18
389,758	728,22
389,967	668,83
390,175	451,75
390,383	464,04
390,592	533,67
390,8	316,58
391,009	388,26
391,217	433,32
391,426	402,6
391,634	316,58
391,842	277,67
392,051	238,76
392,259	365,73
392,467	236,71
392,676	255,14
392,884	359,59
393,092	394,4
393,301	312,49
393,509	283,81
393,717	423,08
393,925	332,97
394,134	357,54
394,342	414,88
394,55	386,21
394,758	375,97
394,967	304,29
395,175	326,82
395,383	234,66
395,591	275,62
395,799	384,16
396,007	265,38
396,216	365,73
396,424	316,58
396,632	300,2
396,84	218,28
397,048	341,16
397,256	416,93
397,464	318,63
397,672	408,74
397,88	300,2
398,088	265,38
398,296	369,83
398,504	361,64
398,712	431,27
398,92	408,74
399,128	390,31
399,336	488,61
399,544	464,04
399,752	365,73
399,96	390,31
400,168	398,5
400,376	365,73
400,584	414,88
400,792	382,12
401	308,39
401,207	263,33
401,415	220,33
401,623	337,06
401,831	287,91
402,039	406,69
402,247	414,88
402,454	521,38
402,662	828,57
402,87	1334,42
403,078	2294,92
403,285	2952,32
403,493	3863,66
403,701	5135,45
403,909	6370,38
404,116	7951,41
404,324	9626,65
404,532	11852,79
404,739	12899,3
404,947	12549,1
405,155	12465,13
405,362	10060,82
405,57	7992,37
405,778	5758,03
405,985	4199,53
406,193	3380,34
406,4	2831,49
406,608	2432,13
406,816	1877,13
407,023	1455,25
407,231	1430,68
407,438	1488,02
407,646	1799,31
407,853	1801,36
408,061	1662,1
408,268	1707,15
408,476	1498,26
408,683	1184,92
408,89	949,4
409,098	787,61
409,305	666,78
409,513	627,87
409,72	416,93
409,927	378,02
410,135	427,17
410,342	222,38
410,55	439,46
410,757	292,01
410,964	261,29
411,172	259,24
411,379	238,76
411,586	332,97
411,793	234,66
412,001	259,24
412,208	335,01
412,415	294,05
412,622	345,25
412,83	345,25
413,037	433,32
413,244	328,87
413,451	437,41
413,658	378,02
413,866	386,21
414,073	382,12
414,28	525,47
414,487	378,02
414,694	433,32
414,901	439,46
415,108	507,04
415,315	310,44
415,522	494,76
415,73	373,92
415,937	425,12
416,144	439,46
416,351	388,26
416,558	351,4
416,765	406,69
416,972	423,08
417,179	504,99
417,386	402,6
417,593	398,5
417,8	380,07
418,006	447,65
418,213	472,23
418,42	464,04
418,627	504,99
418,834	341,16
419,041	472,23
419,248	468,13
419,455	525,47
419,661	513,19
419,868	406,69
420,075	517,28
420,282	490,66
420,489	525,47
420,696	472,23
420,902	537,76
421,109	509,09
421,316	451,75
421,523	468,13
421,729	431,27
421,936	435,36
422,143	390,31
422,349	400,55
422,556	320,68
422,763	312,49
422,969	300,2
423,176	210,09
423,383	373,92
423,589	578,72
423,796	316,58
424,002	232,62
424,209	296,1
424,416	431,27
424,622	242,85
424,829	339,11
425,035	199,85
425,242	312,49
425,448	277,67
425,655	365,73
425,861	292,01
426,068	359,59
426,274	472,23
426,481	242,85
426,687	359,59
426,894	312,49
427,1	251,05
427,306	269,48
427,513	318,63
427,719	310,44
427,926	310,44
428,132	365,73
428,338	339,11
428,545	314,53
428,751	304,29
428,957	302,25
429,163	330,92
429,37	369,83
429,576	277,67
429,782	427,17
429,989	365,73
430,195	292,01
430,401	320,68
430,607	373,92
430,813	308,39
431,02	341,16
431,226	341,16
431,432	341,16
431,638	312,49
431,844	318,63
432,05	253,09
432,257	382,12
432,463	390,31
432,669	502,95
432,875	425,12
433,081	441,51
433,287	513,19
433,493	640,16
433,699	1293,46
433,905	2366,6
434,111	4002,93
434,317	6300,75
434,523	9313,31
434,729	12243,95
434,935	15631,29
435,141	20235,13
435,347	23778,11
435,553	30194,4
435,759	34335,39
435,965	36786,81
436,171	35979,91
436,377	32817,85
436,582	28308,22
436,788	21652,32
436,994	16464,82
437,2	12080,11
437,406	8541,22
437,612	6308,94
437,818	4416,62
438,023	2602,11
438,229	1782,93
438,435	1086,62
438,641	709,79
438,846	576,67
439,052	562,34
439,258	519,33
439,464	414,88
439,669	431,27
439,875	427,17
440,081	351,4
440,286	349,35
440,492	308,39
440,698	355,49
440,903	390,31
441,109	416,93
441,314	177,32
441,52	226,47
441,726	361,64
441,931	267,43
442,137	375,97
442,342	285,86
442,548	296,1
442,753	320,68
442,959	222,38
443,164	312,49
443,37	341,16
443,575	275,62
443,781	216,23
443,986	367,78
444,192	244,9
444,397	242,85
444,602	189,61
444,808	312,49
445,013	242,85
445,219	371,88
445,424	371,88
445,629	232,62
445,835	349,35
446,04	324,77
446,245	234,66
446,451	222,38
446,656	253,09
446,861	351,4
447,066	341,16
447,272	289,96
447,477	234,66
447,682	226,47
447,887	324,77
448,093	296,1
448,298	308,39
448,503	277,67
448,708	283,81
448,913	318,63
449,118	312,49
449,324	310,44
449,529	244,9
449,734	326,82
449,939	324,77
450,144	351,4
450,349	384,16
450,554	257,19
450,759	308,39
450,964	328,87
451,169	304,29
451,374	259,24
451,579	308,39
451,784	263,33
451,989	357,54
452,194	271,53
452,399	251,05
452,604	316,58
452,809	171,18
453,014	236,71
453,219	277,67
453,424	365,73
453,629	193,7
453,833	263,33
454,038	238,76
454,243	316,58
454,448	279,72
454,653	375,97
454,858	285,86
455,062	279,72
455,267	275,62
455,472	359,59
455,677	238,76
455,882	330,92
456,086	392,36
456,291	343,21
456,496	312,49
456,7	373,92
456,905	320,68
457,11	369,83
457,314	197,8
457,519	332,97
457,724	296,1
457,928	292,01
458,133	292,01
458,338	292,01
458,542	310,44
458,747	300,2
458,951	267,43
459,156	384,16
459,36	269,48
459,565	386,21
459,769	322,73
459,974	310,44
460,178	279,72
460,383	236,71
460,587	208,04
460,792	408,74
460,996	283,81
461,201	300,2
461,405	349,35
461,61	187,56
461,814	267,43
462,018	197,8
462,223	226,47
462,427	308,39
462,631	259,24
462,836	292,01
463,04	277,67
463,244	400,55
463,449	279,72
463,653	431,27
463,857	283,81
464,062	337,06
464,266	294,05
464,47	283,81
464,674	283,81
464,878	337,06
465,083	271,53
465,287	423,08
465,491	271,53
465,695	300,2
465,899	351,4
466,104	277,67
466,308	275,62
466,512	285,86
466,716	316,58
466,92	324,77
467,124	359,59
467,328	292,01
467,532	357,54
467,736	246,95
467,94	392,36
468,144	335,01
468,348	337,06
468,552	427,17
468,756	300,2
468,96	326,82
469,164	162,98
469,368	267,43
469,572	316,58
469,776	390,31
469,98	365,73
470,184	259,24
470,388	394,4
470,591	289,96
470,795	382,12
470,999	285,86
471,203	400,55
471,407	359,59
471,611	326,82
471,814	406,69
472,018	197,8
472,222	328,87
472,426	390,31
472,63	296,1
472,833	328,87
473,037	341,16
473,241	285,86
473,444	375,97
473,648	849,05
473,852	332,97
474,055	310,44
474,259	339,11
474,463	367,78
474,666	263,33
474,87	308,39
475,074	343,21
475,277	335,01
475,481	324,77
475,684	259,24
475,888	242,85
476,091	285,86
476,295	296,1
476,498	201,9
476,702	292,01
476,905	390,31
477,109	392,36
477,312	337,06
477,516	310,44
477,719	382,12
477,923	353,45
478,126	341,16
478,329	310,44
478,533	246,95
478,736	416,93
478,94	316,58
479,143	326,82
479,346	304,29
479,55	400,55
479,753	287,91
479,956	271,53
480,159	283,81
480,363	361,64
480,566	279,72
480,769	232,62
480,972	271,53
481,176	369,83
481,379	406,69
481,582	480,42
481,785	287,91
481,988	451,75
482,192	447,65
482,395	406,69
482,598	402,6
482,801	466,08
483,004	439,46
483,207	349,35
483,41	447,65
483,613	400,55
483,817	351,4
484,02	345,25
484,223	322,73
484,426	310,44
484,629	431,27
484,832	496,8
485,035	386,21
485,238	416,93
485,441	466,08
485,644	439,46
485,846	414,88
486,049	320,68
486,252	365,73
486,455	359,59
486,658	468,13
486,861	410,79
487,064	523,43
487,267	337,06
487,47	509,09
487,672	459,94
487,875	441,51
488,078	423,08
488,281	492,71
488,484	441,51
488,686	513,19
488,889	439,46
489,092	378,02
489,295	431,27
489,497	496,8
489,7	363,69
489,903	517,28
490,105	435,36
490,308	433,32
490,511	578,72
490,713	472,23
490,916	631,97
491,118	621,73
491,321	638,11
491,524	652,45
491,726	646,3
491,929	611,49
492,131	646,3
492,334	578,72
492,536	572,58
492,739	480,42
492,941	578,72
493,144	498,85
493,346	414,88
493,549	455,84
493,751	421,03
493,954	425,12
494,156	423,08
494,359	351,4
494,561	328,87
494,763	541,86
494,966	470,18
495,168	504,99
495,37	353,45
495,573	406,69
495,775	418,98
495,977	464,04
496,18	433,32
496,382	455,84
496,584	416,93
496,787	451,75
496,989	414,88
497,191	353,45
497,393	459,94
497,595	400,55
497,798	439,46
498	382,12
498,202	353,45
498,404	398,5
498,606	447,65
498,808	482,47
499,011	464,04
499,213	398,5
499,415	449,7
499,617	425,12
499,819	564,39
500,021	447,65
500,223	447,65
500,425	441,51
500,627	328,87
500,829	466,08
501,031	455,84
501,233	429,22
501,435	425,12
501,637	494,76
501,839	461,99
502,041	441,51
502,243	451,75
502,445	447,65
502,647	408,74
502,848	400,55
503,05	357,54
503,252	507,04
503,454	427,17
503,656	498,85
503,858	394,4
504,059	410,79
504,261	449,7
504,463	521,38
504,665	431,27
504,867	476,32
505,068	459,94
505,27	513,19
505,472	517,28
505,673	425,12
505,875	400,55
506,077	482,47
506,278	384,16
506,48	431,27
506,682	453,8
506,883	472,23
507,085	504,99
507,287	455,84
507,488	502,95
507,69	464,04
507,891	443,56
508,093	629,92
508,294	396,45
508,496	443,56
508,697	447,65
508,899	373,92
509,1	474,28
509,302	410,79
509,503	435,36
509,705	410,79
509,906	437,41
510,108	371,88
510,309	414,88
510,51	390,31
510,712	349,35
510,913	373,92
511,114	398,5
511,316	343,21
511,517	447,65
511,718	355,49
511,92	433,32
512,121	457,89
512,322	429,22
512,524	480,42
512,725	480,42
512,926	521,38
513,127	482,47
513,329	537,76
513,53	427,17
513,731	492,71
513,932	427,17
514,133	472,23
514,334	382,12
514,536	486,56
514,737	529,57
514,938	425,12
515,139	447,65
515,34	421,03
515,541	451,75
515,742	464,04
515,943	496,8
516,144	496,8
516,345	451,75
516,546	410,79
516,747	586,91
516,948	437,41
517,149	513,19
517,35	478,37
517,551	472,23
517,752	472,23
517,953	486,56
518,154	459,94
518,355	521,38
518,556	509,09
518,756	548
518,957	554,15
519,158	586,91
519,359	455,84
519,56	494,76
519,761	496,8
519,961	504,99
520,162	603,3
520,363	324,77
520,564	472,23
520,764	552,1
520,965	378,02
521,166	447,65
521,366	455,84
521,567	466,08
521,768	431,27
521,968	455,84
522,169	355,49
522,37	457,89
522,57	378,02
522,771	375,97
522,972	341,16
523,172	619,68
523,373	461,99
523,573	418,98
523,774	402,6
523,974	537,76
524,175	455,84
524,375	523,43
524,576	390,31
524,776	414,88
524,977	453,8
525,177	504,99
525,378	537,76
525,578	498,85
525,778	550,05
525,979	365,73
526,179	480,42
526,38	566,43
526,58	310,44
526,78	431,27
526,981	498,85
527,181	523,43
527,381	431,27
527,582	531,62
527,782	562,34
527,982	498,85
528,182	478,37
528,383	416,93
528,583	439,46
528,783	384,16
528,983	468,13
529,183	337,06
529,384	402,6
529,584	466,08
529,784	529,57
529,984	482,47
530,184	406,69
530,384	410,79
530,584	367,78
530,784	386,21
530,984	406,69
531,185	435,36
531,385	390,31
531,585	443,56
531,785	455,84
531,985	353,45
532,185	433,32
532,385	398,5
532,585	472,23
532,785	390,31
532,984	414,88
533,184	396,45
533,384	378,02
533,584	326,82
533,784	423,08
533,984	484,52
534,184	402,6
534,384	359,59
534,583	451,75
534,783	373,92
534,983	427,17
535,183	427,17
535,383	351,4
535,582	480,42
535,782	472,23
535,982	507,04
536,182	400,55
536,381	488,61
536,581	412,84
536,781	523,43
536,98	486,56
537,18	513,19
537,38	423,08
537,579	447,65
537,779	482,47
537,979	504,99
538,178	423,08
538,378	515,23
538,577	373,92
538,777	416,93
538,976	507,04
539,176	488,61
539,376	394,4
539,575	388,26
539,774	529,57
539,974	472,23
540,173	496,8
540,373	459,94
540,572	455,84
540,772	488,61
540,971	408,74
541,171	537,76
541,37	513,19
541,569	529,57
541,769	451,75
541,968	480,42
542,167	476,32
542,367	490,66
542,566	439,46
542,765	496,8
542,965	537,76
543,164	449,7
543,363	533,67
543,562	636,06
543,761	603,3
543,961	838,81
544,16	1266,84
544,359	3382,39
544,558	6671,43
544,757	11416,57
544,957	16966,57
545,156	24425,27
545,355	32809,65
545,554	39752,27
545,753	47505,88
545,952	52511,11
546,151	56738,12
546,35	58157,36
546,549	56281,42
546,748	52040,08
546,947	46787,04
547,146	40790,59
547,345	33524,4
547,544	27499,27
547,743	22092,63
547,942	16587,69
548,141	11453,44
548,34	7140,41
548,539	4228,2
548,738	2622,59
548,937	1854,61
549,135	1309,85
549,334	890,01
549,533	808,09
549,732	693,41
549,931	720,03
550,13	693,41
550,328	591,01
550,527	478,37
550,726	529,57
550,925	390,31
551,123	474,28
551,322	386,21
551,521	523,43
551,72	504,99
551,918	435,36
552,117	494,76
552,315	416,93
552,514	398,5
552,713	435,36
552,911	339,11
553,11	337,06
553,309	410,79
553,507	392,36
553,706	312,49
553,904	513,19
554,103	398,5
554,301	400,55
554,5	441,51
554,698	396,45
554,897	414,88
555,095	400,55
555,294	259,24
555,492	398,5
555,69	353,45
555,889	365,73
556,087	447,65
556,286	509,09
556,484	363,69
556,682	357,54
556,881	304,29
557,079	312,49
557,277	365,73
557,476	349,35
557,674	357,54
557,872	326,82
558,07	300,2
558,269	283,81
558,467	320,68
558,665	380,07
558,863	318,63
559,062	287,91
559,26	326,82
559,458	205,99
559,656	310,44
559,854	300,2
560,052	335,01
560,25	251,05
560,449	554,15
560,647	265,38
560,845	312,49
561,043	304,29
561,241	400,55
561,439	443,56
561,637	275,62
561,835	281,77
562,033	416,93
562,231	324,77
562,429	261,29
562,627	259,24
562,825	230,57
563,023	439,46
563,221	193,7
563,418	251,05
563,616	326,82
563,814	384,16
564,012	302,25
564,21	349,35
564,408	375,97
564,605	365,73
564,803	210,09
565,001	611,49
565,199	294,05
565,397	357,54
565,594	472,23
565,792	474,28
565,99	349,35
566,188	441,51
566,385	392,36
566,583	324,77
566,781	406,69
566,978	400,55
567,176	410,79
567,373	382,12
567,571	349,35
567,769	394,4
567,966	283,81
568,164	382,12
568,361	341,16
568,559	414,88
568,756	345,25
568,954	324,77
569,151	351,4
569,349	461,99
569,546	367,78
569,744	390,31
569,941	267,43
570,139	398,5
570,336	242,85
570,534	365,73
570,731	271,53
570,928	300,2
571,126	480,42
571,323	347,3
571,52	296,1
571,718	380,07
571,915	482,47
572,112	277,67
572,31	357,54
572,507	390,31
572,704	324,77
572,901	359,59
573,099	322,73
573,296	486,56
573,493	208,04
573,69	308,39
573,887	357,54
574,085	402,6
574,282	433,32
574,479	365,73
574,676	390,31
574,873	455,84
575,07	410,79
575,267	480,42
575,464	914,59
575,661	1528,98
575,858	2020,49
576,055	2880,64
576,252	3849,33
576,449	4772,96
576,646	5512,28
576,843	6044,75
577,04	6566,98
577,237	6493,26
577,434	6743,11
577,631	6732,87
577,828	6771,78
578,025	7044,16
578,222	7099,45
578,419	7648,31
578,615	7898,16
578,812	8107,05
579,009	7902,26
579,206	7922,74
579,403	7808,05
579,599	7150,65
579,796	6343,75
579,993	5801,04
580,19	5127,26
580,386	4389,99
580,583	3632,24
580,78	2989,18
580,976	2448,52
581,173	1846,41
581,37	1406,1
581,566	879,77
581,763	711,84
581,96	515,23
582,156	541,86
582,353	394,4
582,549	496,8
582,746	461,99
582,942	447,65
583,139	431,27
583,335	353,45
583,532	412,84
583,728	480,42
583,925	369,83
584,121	384,16
584,318	521,38
584,514	439,46
584,711	388,26
584,907	472,23
585,103	400,55
585,3	427,17
585,496	390,31
585,693	382,12
585,889	402,6
586,085	349,35
586,281	433,32
586,478	375,97
586,674	332,97
586,87	457,89
587,067	451,75
587,263	464,04
587,459	468,13
587,655	375,97
587,851	423,08
588,048	586,91
588,244	390,31
588,44	480,42
588,636	470,18
588,832	394,4
589,028	525,47
589,224	429,22
589,42	367,78
589,617	466,08
589,813	523,43
590,009	484,52
590,205	488,61
590,401	447,65
590,597	279,72
590,793	423,08
590,989	341,16
591,185	406,69
591,38	390,31
591,576	345,25
591,772	375,97
591,968	308,39
592,164	353,45
592,36	357,54
592,556	373,92
592,752	513,19
592,948	353,45
593,143	292,01
593,339	386,21
593,535	382,12
593,731	437,41
593,926	398,5
594,122	464,04
594,318	390,31
594,514	464,04
594,709	351,4
594,905	464,04
595,101	373,92
595,296	414,88
595,492	464,04
595,688	455,84
595,883	398,5
596,079	251,05
596,275	349,35
596,47	439,46
596,666	332,97
596,861	300,2
597,057	292,01
597,252	275,62
597,448	365,73
597,643	416,93
597,839	365,73
598,034	285,86
598,23	355,49
598,425	375,97
598,621	382,12
598,816	382,12
599,011	431,27
599,207	308,39
599,402	464,04
599,597	468,13
599,793	396,45
599,988	322,73
600,183	476,32
600,379	472,23
600,574	427,17
600,769	492,71
600,965	394,4
601,16	398,5
601,355	361,64
601,55	472,23
601,745	361,64
601,941	373,92
602,136	390,31
602,331	484,52
602,526	259,24
602,721	435,36
602,916	365,73
603,111	281,77
603,307	388,26
603,502	296,1
603,697	353,45
603,892	380,07
604,087	375,97
604,282	386,21
604,477	433,32
604,672	353,45
604,867	382,12
605,062	353,45
605,257	382,12
605,452	560,29
605,646	449,7
605,841	373,92
606,036	398,5
606,231	310,44
606,426	294,05
606,621	308,39
606,816	320,68
607,01	406,69
607,205	445,6
607,4	326,82
607,595	345,25
607,79	308,39
607,984	261,29
608,179	269,48
608,374	242,85
608,569	251,05
608,763	222,38
608,958	234,66
609,153	285,86
609,347	341,16
609,542	242,85
609,736	220,33
609,931	283,81
610,126	226,47
610,32	214,18
610,515	251,05
610,709	488,61
610,904	269,48
611,098	242,85
611,293	160,94
611,487	152,74
611,682	191,66
611,876	124,07
612,071	304,29
612,265	238,76
612,46	222,38
612,654	259,24
612,848	165,03
613,043	154,79
613,237	193,7
613,432	105,64
613,626	181,42
613,82	111,78
614,014	218,28
614,209	292,01
614,403	181,42
614,597	144,55
614,792	201,9
614,986	169,13
615,18	228,52
615,374	226,47
615,568	212,14
615,763	203,94
615,957	171,18
616,151	341,16
616,345	234,66
616,539	187,56
616,733	296,1
616,927	214,18
617,121	113,83
617,316	259,24
617,51	289,96
617,704	251,05
617,898	304,29
618,092	171,18
618,286	214,18
618,48	162,98
618,674	292,01
618,868	302,25
619,061	160,94
619,255	271,53
619,449	156,84
619,643	115,88
619,837	316,58
620,031	210,09
620,225	193,7
620,419	259,24
620,612	179,37
620,806	122,02
621	289,96
621,194	169,13
621,388	226,47
621,581	236,71
621,775	179,37
621,969	281,77
622,162	240,81
622,356	177,32
622,55	208,04
622,743	154,79
622,937	181,42
623,131	185,51
623,324	326,82
623,518	234,66
623,712	193,7
623,905	177,32
624,099	205,99
624,292	222,38
624,486	226,47
624,679	310,44
624,873	124,07
625,066	269,48
625,26	162,98
625,453	210,09
625,647	173,22
625,84	175,27
626,034	249
626,227	181,42
626,42	236,71
626,614	160,94
626,807	249
627	158,89
627,194	271,53
627,387	105,64
627,58	128,17
627,774	138,41
627,967	253,09
628,16	255,14
628,353	287,91
628,547	169,13
628,74	306,34
628,933	169,13
629,126	261,29
629,319	193,7
629,513	238,76
629,706	205,99
629,899	226,47
630,092	238,76
630,285	193,7
630,478	310,44
630,671	242,85
630,864	238,76
631,057	228,52
631,25	351,4
631,443	277,67
631,636	269,48
631,829	335,01
632,022	304,29
632,215	119,98
632,408	242,85
632,601	271,53
632,794	193,7
632,987	201,9
633,18	228,52
633,373	222,38
633,566	222,38
633,758	140,46
633,951	181,42
634,144	195,75
634,337	181,42
634,53	218,28
634,722	332,97
634,915	154,79
635,108	130,22
635,301	380,07
635,493	259,24
635,686	435,36
635,879	232,62
636,071	195,75
636,264	351,4
636,457	464,04
636,649	177,32
636,842	349,35
637,034	400,55
637,227	408,74
637,42	365,73
637,612	332,97
637,805	337,06
637,997	396,45
638,19	308,39
638,382	332,97
638,575	283,81
638,767	318,63
638,96	394,4
639,152	351,4
639,344	361,64
639,537	193,7
639,729	234,66
639,922	328,87
640,114	341,16
640,306	332,97
640,499	246,95
640,691	302,25
640,883	189,61
641,075	355,49
641,268	332,97
641,46	277,67
641,652	271,53
641,844	263,33
642,037	365,73
642,229	283,81
642,421	384,16
642,613	330,92
642,805	386,21
642,998	349,35
643,19	398,5
643,382	498,85
643,574	425,12
643,766	345,25
643,958	390,31
644,15	447,65
644,342	586,91
644,534	480,42
644,726	382,12
644,918	384,16
645,11	382,12
645,302	486,56
645,494	554,15
645,686	357,54
645,878	335,01
646,07	564,39
646,262	457,89
646,453	423,08
646,645	441,51
646,837	470,18
647,029	398,5
647,221	441,51
647,413	400,55
647,604	392,36
647,796	400,55
647,988	408,74
648,18	330,92
648,371	373,92
648,563	388,26
648,755	343,21
648,947	326,82
649,138	300,2
649,33	423,08
649,521	267,43
649,713	312,49
649,905	316,58
650,096	492,71
650,288	349,35
650,479	349,35
650,671	349,35
650,863	398,5
651,054	414,88
651,246	425,12
651,437	539,81
651,629	496,8
651,82	535,71
652,011	509,09
652,203	535,71
652,394	548
652,586	488,61
652,777	468,13
652,968	545,95
653,16	418,98
653,351	548
653,542	668,83
653,734	480,42
653,925	431,27
654,116	529,57
654,308	447,65
654,499	464,04
654,69	416,93
654,881	416,93
655,073	365,73
655,264	455,84
655,455	359,59
655,646	349,35
655,837	388,26
656,028	365,73
656,219	369,83
656,411	435,36
656,602	382,12
656,793	400,55
656,984	427,17
657,175	390,31
657,366	326,82
657,557	392,36
657,748	406,69
657,939	332,97
658,13	341,16
658,321	466,08
658,512	404,64
658,703	515,23
658,894	435,36
659,084	486,56
659,275	486,56
659,466	504,99
659,657	517,28
659,848	410,79
660,039	447,65
660,23	437,41
660,42	369,83
660,611	476,32
660,802	418,98
660,993	457,89
661,183	451,75
661,374	435,36
661,565	621,73
661,755	449,7
661,946	330,92
662,137	396,45
662,327	390,31
662,518	365,73
662,709	318,63
662,899	257,19
663,09	312,49
663,28	275,62
663,471	279,72
663,662	441,51
663,852	310,44
664,043	234,66
664,233	210,09
664,424	320,68
664,614	205,99
664,804	205,99
664,995	400,55
665,185	318,63
665,376	332,97
665,566	365,73
665,756	324,77
665,947	275,62
666,137	236,71
666,328	425,12
666,518	335,01
666,708	373,92
666,898	398,5
667,089	384,16
667,279	382,12
667,469	357,54
667,659	312,49
667,85	539,81
668,04	349,35
668,23	398,5
668,42	392,36
668,61	386,21
668,8	390,31
668,991	455,84
669,181	441,51
669,371	324,77
669,561	341,16
669,751	439,46
669,941	337,06
670,131	423,08
670,321	367,78
670,511	357,54
670,701	335,01
670,891	324,77
671,081	332,97
671,271	177,32
671,461	283,81
671,651	283,81
671,841	306,34
672,03	353,45
672,22	226,47
672,41	242,85
672,6	296,1
672,79	240,81
672,98	302,25
673,169	269,48
673,359	236,71
673,549	253,09
673,739	242,85
673,928	251,05
674,118	234,66
674,308	228,52
674,497	345,25
674,687	193,7
674,877	384,16
675,066	343,21
675,256	228,52
675,446	341,16
675,635	246,95
675,825	195,75
676,014	267,43
676,204	287,91
676,393	353,45
676,583	228,52
676,772	332,97
676,962	326,82
677,151	316,58
677,341	228,52
677,53	259,24
677,72	345,25
677,909	332,97
678,099	271,53
678,288	220,33
678,477	263,33
678,667	302,25
678,856	373,92
679,045	292,01
679,235	222,38
679,424	285,86
679,613	228,52
679,802	203,94
679,992	124,07
680,181	171,18
680,37	201,9
680,559	218,28
680,748	275,62
680,938	210,09
681,127	154,79
681,316	169,13
681,505	195,75
681,694	136,36
681,883	246,95
682,072	173,22
682,261	81,07
682,45	52,39
682,639	50,35
682,828	193,7
683,017	236,71
683,206	171,18
683,395	146,6
683,584	169,13
683,773	244,9
683,962	160,94
684,151	119,98
684,34	255,14
684,529	187,56
684,718	136,36
684,907	111,78
685,095	195,75
685,284	279,72
685,473	173,22
685,662	111,78
685,851	210,09
686,039	193,7
686,228	189,61
686,417	148,65
686,606	201,9
686,794	160,94
686,983	76,97
687,172	95,4
687,36	128,17
687,549	113,83
687,738	62,63
687,926	72,87
688,115	115,88
688,303	103,59
688,492	218,28
688,68	13,48
688,869	85,16
689,057	54,44
689,246	48,3
689,434	136,36
689,623	79,02
689,811	140,46
690	158,89
690,188	169,13
690,377	152,74
690,565	259,24
690,753	201,9
690,942	152,74
691,13	242,85
691,318	136,36
691,507	187,56
691,695	173,22
691,883	136,36
692,072	197,8
692,26	160,94
692,448	197,8
692,636	103,59
692,824	56,49
693,013	193,7
693,201	148,65
693,389	107,69
693,577	64,68
693,765	201,9
693,953	66,73
694,141	56,49
694,329	48,3
694,518	91,31
694,706	132,26
694,894	179,37
695,082	130,22
695,27	99,5
695,458	154,79
695,646	187,56
695,834	263,33
696,022	296,1
696,209	302,25
696,397	330,92
696,585	253,09
696,773	275,62
696,961	296,1
697,149	287,91
697,337	306,34
697,525	320,68
697,712	251,05
697,9	205,99
698,088	189,61
698,276	246,95
698,463	195,75
698,651	253,09
698,839	128,17
699,027	128,17
699,214	189,61
699,402	91,31
699,59	144,55
699,777	74,92
699,965	191,66
700,152	89,26
700,34	124,07
700,528	46,25
700,715	79,02
700,903	132,26
701,09	138,41
701,278	160,94
701,465	162,98
701,653	162,98
701,84	40,11
702,028	107,69
702,215	64,68
702,402	130,22
702,59	169,13
702,777	128,17
702,965	160,94
703,152	103,59
703,339	140,46
703,527	103,59
703,714	95,4
703,901	79,02
704,088	144,55
704,276	179,37
704,463	128,17
704,65	195,75
704,837	85,16
705,025	201,9
705,212	79,02
705,399	115,88
705,586	103,59
705,773	95,4
705,96	156,84
706,147	111,78
706,335	107,69
706,522	210,09
706,709	160,94
706,896	218,28
707,083	132,26
707,27	236,71
707,457	257,19
707,644	128,17
707,831	87,21
708,018	74,92
708,205	111,78
708,392	154,79
708,578	169,13
708,765	185,51
708,952	72,87
709,139	187,56
709,326	119,98
709,513	95,4
709,7	95,4
709,886	148,65
710,073	130,22
710,26	253,09
710,447	128,17
710,633	105,64
710,82	103,59
711,007	171,18
711,193	74,92
711,38	210,09
711,567	126,12
711,753	160,94
711,94	115,88
712,127	95,4
712,313	214,18
712,5	152,74
712,686	242,85
712,873	95,4
713,059	74,92
713,246	177,32
713,432	185,51
713,619	-9,05
713,805	99,5
713,992	210,09
714,178	50,35
714,365	144,55
714,551	214,18
714,737	187,56
714,924	107,69
715,11	142,5
715,297	179,37
715,483	50,35
715,669	87,21
715,855	115,88
716,042	152,74
716,228	89,26
716,414	130,22
716,6	144,55
716,787	140,46
716,973	103,59
717,159	111,78
717,345	144,55
717,531	64,68
717,718	128,17
717,904	122,02
718,09	109,74
718,276	136,36
718,462	148,65
718,648	81,07
718,834	9,39
719,02	148,65
719,206	72,87
719,392	13,48
719,578	136,36
719,764	-29,52
719,95	58,54
720,136	218,28
720,322	95,4
720,508	81,07
720,694	148,65
720,879	140,46
721,065	185,51
721,251	144,55
721,437	132,26
721,623	140,46
721,809	128,17
721,994	169,13
722,18	5,29
722,366	95,4
722,552	132,26
722,737	214,18
722,923	193,7
723,109	185,51
723,294	144,55
723,48	259,24
723,666	255,14
723,851	119,98
724,037	246,95
724,222	244,9
724,408	230,57
724,593	249
724,779	136,36
724,965	185,51
725,15	210,09
725,336	226,47
725,521	232,62
725,706	195,75
725,892	158,89
726,077	79,02
726,263	203,94
726,448	234,66
726,634	236,71
726,819	189,61
727,004	263,33
727,19	128,17
727,375	367,78
727,56	220,33
727,745	154,79
727,931	312,49
728,116	113,83
728,301	259,24
728,486	230,57
728,672	138,41
728,857	222,38
729,042	162,98
729,227	144,55
729,412	199,85
729,597	119,98
729,783	132,26
729,968	130,22
730,153	148,65
730,338	195,75
730,523	160,94
730,708	146,6
730,893	154,79
731,078	179,37
731,263	193,7
731,448	29,87
731,633	119,98
731,818	48,3
732,003	99,5
732,187	177,32
732,372	46,25
732,557	212,14
732,742	66,73
732,927	130,22
733,112	154,79
733,297	154,79
733,481	183,46
733,666	261,29
733,851	218,28
734,036	169,13
734,22	119,98
734,405	267,43
734,59	195,75
734,774	259,24
734,959	169,13
735,144	292,01
735,328	228,52
735,513	189,61
735,698	177,32
735,882	384,16
736,067	281,77
736,251	292,01
736,436	203,94
736,62	103,59
736,805	220,33
736,989	355,49
737,174	173,22
737,358	177,32
737,543	236,71
737,727	318,63
737,911	433,32
738,096	269,48
738,28	402,6
738,465	267,43
738,649	421,03
738,833	259,24
739,018	310,44
739,202	183,46
739,386	275,62
739,57	242,85
739,755	208,04
739,939	316,58
740,123	156,84
740,307	199,85
740,491	218,28
740,676	156,84
740,86	210,09
741,044	253,09
741,228	144,55
741,412	138,41
741,596	87,21
741,78	111,78
741,964	130,22
742,148	177,32
742,332	179,37
742,516	124,07
742,7	226,47
742,884	152,74
743,068	162,98
743,252	113,83
743,436	242,85
743,62	89,26
743,804	238,76
743,988	353,45
744,172	277,67
744,356	191,66
744,539	195,75
744,723	148,65
744,907	193,7
745,091	253,09
745,275	205,99
745,458	298,15
745,642	382,12
745,826	267,43
746,009	439,46
746,193	320,68
746,377	302,25
746,56	296,1
746,744	449,7
746,928	285,86
747,111	310,44
747,295	300,2
747,478	275,62
747,662	283,81
747,846	308,39
748,029	398,5
748,213	271,53
748,396	302,25
748,58	349,35
748,763	326,82
748,946	156,84
749,13	294,05
749,313	210,09
749,497	433,32
749,68	423,08
749,863	423,08
750,047	326,82
750,23	345,25
750,413	398,5
750,597	375,97
750,78	488,61
750,963	545,95
751,146	408,74
751,33	464,04
751,513	455,84
751,696	367,78
751,879	373,92
752,062	246,95
752,246	300,2
752,429	308,39
752,612	283,81
752,795	273,57
752,978	138,41
753,161	64,68
753,344	95,4
753,527	177,32
753,71	160,94
753,893	81,07
754,076	124,07
754,259	136,36
754,442	81,07
754,625	68,78
754,808	230,57
754,991	97,45
755,174	89,26
755,357	79,02
755,539	212,14
755,722	238,76
755,905	91,31
756,088	232,62
756,271	79,02
756,453	152,74
756,636	130,22
756,819	210,09
757,002	119,98
757,184	220,33
757,367	230,57
757,55	249
757,732	185,51
757,915	165,03
758,098	160,94
758,28	316,58
758,463	185,51
758,645	267,43
758,828	283,81
759,011	275,62
759,193	177,32
759,376	341,16
759,558	210,09
759,741	234,66
759,923	119,98
760,105	238,76
760,288	152,74
760,47	152,74
760,653	212,14
760,835	228,52
761,017	201,9
761,2	193,7
761,382	341,16
761,564	269,48
761,747	255,14
761,929	214,18
762,111	222,38
762,294	320,68
762,476	529,57
762,658	373,92
762,84	652,45
763,022	799,9
763,205	705,7
763,387	930,97
763,569	988,32
763,751	775,33
763,933	752,8
764,115	668,83
764,297	660,64
764,479	615,59
764,661	529,57
764,843	492,71
765,025	423,08
765,207	431,27
765,389	312,49
765,571	332,97
765,753	384,16
765,935	238,76
766,117	269,48
766,299	314,53
766,481	341,16
766,663	146,6
766,845	169,13
767,026	242,85
767,208	105,64
767,39	220,33
767,572	81,07
767,753	197,8
767,935	136,36
768,117	169,13
768,299	283,81
768,48	130,22
768,662	238,76
768,844	242,85
769,025	292,01
769,207	177,32
769,389	175,27
769,57	210,09
769,752	320,68
769,933	201,9
770,115	259,24
770,296	246,95
770,478	365,73
770,659	169,13
770,841	441,51
771,022	244,9
771,204	324,77
771,385	316,58
771,567	447,65
771,748	404,64
771,929	445,6
772,111	408,74
772,292	533,67
772,473	486,56
772,655	564,39
772,836	570,53
773,017	490,66
773,199	472,23
773,38	382,12
773,561	392,36
773,742	328,87
773,923	212,14
774,105	466,08
774,286	392,36
774,467	312,49
774,648	289,96
774,829	318,63
775,01	265,38
775,191	214,18
775,372	255,14
775,553	212,14
775,734	167,08
775,915	132,26
776,096	267,43
776,277	283,81
776,458	318,63
776,639	441,51
776,82	609,44
777,001	603,3
777,182	711,84
777,363	625,83
777,544	517,28
777,725	693,41
777,906	636,06
778,086	464,04
778,267	484,52
778,448	367,78
778,629	314,53
778,809	343,21
778,99	181,42
779,171	218,28
779,352	152,74
779,532	148,65
779,713	185,51
779,894	91,31
780,074	189,61
780,255	160,94
780,435	193,7
780,616	130,22
780,797	203,94
780,977	87,21
781,158	7,34
781,338	29,87
781,519	1,19
781,699	162,98
781,88	42,15
782,06	119,98
782,241	-19,29
782,421	1,19
782,601	154,79
782,782	158,89
782,962	97,45
783,142	-7
783,323	29,87
783,503	128,17
783,683	138,41
783,864	95,4
784,044	70,83
784,224	128,17
784,404	105,64
784,585	87,21
784,765	128,17
784,945	320,68
785,125	21,67
785,305	142,5
785,485	201,9
785,666	162,98
785,846	81,07
786,026	111,78
786,206	7,34
786,386	111,78
786,566	29,87
786,746	25,77
786,926	95,4
787,106	17,58
787,286	19,63
787,466	165,03
787,646	144,55
787,826	214,18
788,006	191,66
788,185	105,64
788,365	21,67
788,545	113,83
788,725	87,21
788,905	156,84
789,085	124,07
789,264	83,11
789,444	99,5
789,624	146,6
789,804	109,74
789,983	228,52
790,163	138,41
790,343	124,07
790,522	173,22
790,702	122,02
790,882	46,25
791,061	187,56
791,241	48,3
791,42	48,3
791,6	228,52
791,78	111,78
791,959	40,11
792,139	-15,19
792,318	79,02
792,498	146,6
792,677	46,25
792,856	111,78
793,036	58,54
793,215	160,94
793,395	152,74
793,574	5,29
793,753	74,92
793,933	244,9
794,112	195,75
794,291	146,6
794,471	267,43
794,65	193,7
794,829	230,57
795,008	224,42
795,188	283,81
795,367	212,14
795,546	154,79
795,725	181,42
795,904	240,81
796,084	115,88
796,263	193,7
796,442	193,7
796,621	66,73
796,8	187,56
796,979	152,74
797,158	46,25
797,337	38,06
797,516	76,97
797,695	115,88
797,874	130,22
798,053	136,36
798,232	160,94
798,411	21,67
798,59	5,29
798,769	13,48
798,947	54,44
799,126	124,07
799,305	99,5
799,484	128,17
799,663	93,35
799,842	169,13
800,02	136,36
800,199	56,49
800,378	265,38
800,557	140,46
800,735	210,09
800,914	171,18
801,093	210,09
801,271	171,18
801,45	255,14
801,628	218,28
801,807	162,98
801,986	177,32
802,164	240,81
802,343	31,91
802,521	44,2
802,7	105,64
802,878	142,5
803,057	128,17
803,235	50,35
803,414	56,49
803,592	148,65
803,771	169,13
803,949	195,75
804,127	40,11
804,306	142,5
804,484	62,63
804,662	148,65
804,841	29,87
805,019	62,63
805,197	115,88
805,375	111,78
805,554	46,25
805,732	52,39
805,91	128,17
806,088	95,4
806,266	87,21
806,445	13,48
806,623	70,83
806,801	46,25
806,979	70,83
807,157	113,83
807,335	-60,24
807,513	36,01
807,691	95,4
807,869	-4,95
808,047	17,58
808,225	-43,86
808,403	103,59
808,581	173,22
808,759	177,32
808,937	3,24
809,115	99,5
809,293	119,98
809,471	48,3
809,649	160,94
809,826	222,38
810,004	218,28
810,182	185,51
810,36	275,62
810,538	332,97
810,715	392,36
810,893	443,56
811,071	521,38
811,248	660,64
811,426	564,39
811,604	611,49
811,781	679,07
811,959	476,32
812,137	353,45
812,314	302,25
812,492	255,14
812,669	292,01
812,847	230,57
813,024	234,66
813,202	222,38
813,379	122,02
813,557	212,14
813,734	259,24
813,912	158,89
814,089	197,8
814,267	279,72
814,444	119,98
814,621	181,42
814,799	95,4
814,976	210,09
815,153	99,5
815,331	48,3
815,508	74,92
815,685	-25,43
815,862	195,75
816,04	13,48
816,217	-62,29
816,394	52,39
816,571	95,4
816,748	191,66
816,926	142,5
817,103	249
817,28	64,68
817,457	48,3
817,634	111,78
817,811	27,82
817,988	56,49
818,165	-0,85
818,342	13,48
818,519	25,77
818,696	29,87
818,873	-52,05
819,05	140,46
819,227	42,15
819,404	-19,29
819,581	124,07
819,758	87,21
819,934	64,68
820,111	89,26
820,288	-11,09
820,465	160,94
820,642	91,31
820,818	101,55
820,995	62,63
821,172	130,22
821,349	89,26
821,525	97,45
821,702	52,39
821,879	-43,86
822,055	111,78
822,232	40,11
822,409	54,44
822,585	99,5
822,762	42,15
822,938	89,26
823,115	46,25
823,291	62,63
823,468	115,88
823,644	87,21
823,821	97,45
823,997	21,67
824,174	-7
824,35	126,12
824,527	91,31
824,703	-2,9
824,879	95,4
825,056	17,58
825,232	210,09
825,408	15,53
825,585	60,59
825,761	66,73
825,937	56,49
826,113	152,74
826,29	181,42
826,466	91,31
826,642	435,36
826,818	64,68
826,994	46,25
827,17	95,4
827,347	-41,81
827,523	95,4
827,699	148,65
827,875	38,06
828,051	31,91
828,227	60,59
828,403	54,44
828,579	177,32
828,755	91,31
828,931	70,83
829,107	76,97
829,283	208,04
829,459	25,77
829,635	38,06
829,811	95,4
829,986	91,31
830,162	-2,9
830,338	62,63
830,514	19,63
830,69	152,74
830,865	48,3
831,041	103,59
831,217	25,77
831,393	7,34
831,568	-15,19
831,744	107,69
831,92	17,58
832,095	17,58
832,271	31,91
832,447	54,44
832,622	128,17
832,798	87,21
832,973	-2,9
833,149	62,63
833,325	17,58
833,5	128,17
833,676	1,19
833,851	74,92
834,027	62,63
834,202	38,06
834,377	48,3
834,553	36,01
834,728	122,02
834,904	29,87
835,079	-13,14
835,254	46,25
835,43	95,4
835,605	5,29
835,78	17,58
835,955	36,01
836,131	95,4
836,306	-35,67
836,481	66,73
836,656	40,11
836,832	95,4
837,007	21,67
837,182	-0,85
837,357	66,73
837,532	36,01
837,707	-7
837,882	58,54
838,057	40,11
838,232	124,07
838,407	25,77
838,582	-35,67
838,757	46,25
838,932	113,83
839,107	-27,48
839,282	-68,44
839,457	103,59
839,632	124,07
839,807	48,3
839,982	40,11
840,157	105,64
840,332	177,32
840,506	138,41
840,681	152,74
840,856	105,64
841,031	42,15
841,205	74,92
841,38	117,93
841,555	169,13
841,73	97,45
841,904	144,55
842,079	228,52
842,254	242,85
842,428	140,46
842,603	113,83
842,777	160,94
842,952	111,78
843,126	56,49
843,301	234,66
843,476	128,17
843,65	244,9
843,825	203,94
843,999	201,9
844,173	154,79
844,348	128,17
844,522	253,09
844,697	199,85
844,871	128,17
845,045	177,32
845,22	253,09
845,394	173,22
845,568	81,07
845,743	195,75
845,917	31,91
846,091	48,3
846,265	140,46
846,44	140,46
846,614	158,89
846,788	-11,09
846,962	81,07
847,136	64,68
847,31	62,63
847,485	183,46
847,659	17,58
847,833	58,54
848,007	79,02
848,181	91,31
848,355	38,06
848,529	27,82
848,703	150,7
848,877	-0,85
849,051	56,49
849,225	89,26
849,399	15,53
849,573	13,48
849,746	64,68
849,92	23,72
850,094	38,06
850,268	-17,24
850,442	115,88
850,616	-52,05
850,789	54,44
850,963	23,72
851,137	-27,48
851,311	238,76
851,484	64,68
851,658	193,7
851,832	5,29
852,005	128,17
852,179	52,39
852,352	-0,85
852,526	89,26
852,7	79,02
852,873	-7
853,047	111,78
853,22	15,53
853,394	72,87
853,567	95,4
853,741	-11,09
853,914	-50
854,088	91,31
854,261	87,21
854,434	5,29
854,608	25,77
854,781	7,34
854,955	60,59
855,128	111,78
855,301	3,24
855,475	95,4
855,648	76,97
855,821	-11,09
855,994	152,74
856,168	146,6
856,341	119,98
856,514	-84,82
856,687	38,06
856,86	105,64
857,033	91,31
857,207	19,63
857,38	7,34
857,553	154,79
857,726	36,01
857,899	48,3
858,072	-0,85
858,245	-27,48
858,418	-17,24
858,591	-0,85
858,764	66,73
858,937	144,55
859,11	81,07
859,283	54,44
859,455	99,5
859,628	54,44
859,801	87,21
859,974	95,4
860,147	-19,29
860,32	48,3
860,492	-2,9
860,665	-60,24
860,838	48,3
861,011	42,15
861,183	128,17
861,356	122,02
861,529	66,73
861,701	-23,38
861,874	40,11
862,047	50,35
862,219	87,21
862,392	79,02
862,564	9,39
862,737	91,31
862,909	107,69
863,082	74,92
863,254	7,34
863,427	160,94
863,599	79,02
863,772	-2,9
863,944	40,11
864,117	124,07
864,289	117,93
864,461	-50
864,634	93,35
864,806	70,83
864,978	87,21
865,151	87,21
865,323	105,64
865,495	109,74
865,667	128,17
865,84	165,03
866,012	21,67
866,184	140,46
866,356	46,25
866,528	46,25
866,7	144,55
866,873	15,53
867,045	38,06
867,217	31,91
867,389	72,87
867,561	62,63
867,733	140,46
867,905	46,25
868,077	48,3
868,249	21,67
868,421	95,4
868,593	50,35
868,765	197,8
868,936	-11,09
869,108	105,64
869,28	154,79
869,452	50,35
869,624	15,53
869,796	165,03
869,968	40,11
870,139	199,85
870,311	15,53
870,483	95,4
870,654	33,96
870,826	40,11
870,998	5,29
871,17	40,11
871,341	9,39
871,513	169,13
871,684	29,87
871,856	81,07
872,028	165,03
872,199	1,19
872,371	-13,14
872,542	48,3
872,714	91,31
872,885	210,09
873,057	72,87
873,228	15,53
873,4	79,02
873,571	242,85
873,742	-17,24
873,914	130,22
874,085	105,64
874,256	-17,24
874,428	-2,9
874,599	1,19
874,77	152,74
874,942	23,72
875,113	48,3
875,284	-39,76
875,455	3,24
875,626	13,48
875,798	23,72
875,969	15,53
876,14	36,01
876,311	128,17
876,482	134,31
876,653	64,68
876,824	91,31
876,995	95,4
877,166	89,26
877,337	56,49
877,508	38,06
877,679	50,35
877,85	23,72
878,021	33,96
878,192	152,74
878,363	70,83
878,534	7,34
878,705	-11,09
878,876	21,67
879,047	111,78
879,217	-2,9
879,388	62,63
879,559	15,53
879,73	85,16
879,9	25,77
880,071	70,83
880,242	103,59
880,413	101,55
880,583	68,78
880,754	95,4
880,924	105,64
881,095	7,34
881,266	66,73
881,436	132,26
881,607	193,7
881,777	154,79
881,948	-15,19
882,118	148,65
882,289	-11,09
882,459	38,06
882,63	117,93
882,8	79,02
882,971	152,74
883,141	52,39
883,311	113,83
883,482	111,78
883,652	48,3
883,822	62,63
883,993	-11,09
884,163	70,83
884,333	140,46
884,504	113,83
884,674	103,59
884,844	119,98
885,014	13,48
885,184	70,83
885,355	23,72
885,525	7,34
885,695	46,25
885,865	124,07
886,035	203,94
886,205	19,63
886,375	210,09
886,545	87,21
886,715	-23,38
886,885	72,87
887,055	33,96
887,225	31,91
887,395	79,02
887,565	210,09
887,735	91,31
887,905	136,36
888,075	23,72
888,244	165,03
888,414	89,26
888,584	93,35
888,754	128,17
888,924	38,06
889,093	177,32
889,263	124,07
889,433	89,26
889,603	79,02
889,772	21,67
889,942	177,32
890,111	79,02
890,281	79,02
890,451	68,78
890,62	87,21
890,79	7,34
890,959	33,96
891,129	36,01
891,298	158,89
891,468	58,54
891,637	64,68
891,807	70,83
891,976	48,3
892,146	-0,85
892,315	144,55
892,485	175,27
892,654	-11,09
892,823	-39,76
892,993	-19,29
893,162	38,06
893,331	128,17
893,501	119,98
893,67	19,63
893,839	50,35
894,008	-2,9
894,177	70,83
894,347	70,83
894,516	111,78
894,685	113,83
894,854	33,96
895,023	23,72
895,192	58,54
