Data from mercure_USB4F104161__4__11-31-52-967.txt Node

Date: Tue Apr 14 11:31:52 EDT 2026
User: LaboPhy
Spectrometer: USB4F10416
Trigger mode: 4
Integration Time (sec): 1,000000E-1
Scans to average: 1
Electric dark correction enabled: true
Nonlinearity correction enabled: false
Boxcar width: 0
XAxis mode: Wavelengths
Number of Pixels in Spectrum: 3648
>>>>>Begin Spectral Data<<<<<
177,847	-143,7
178,066	-143,7
178,284	-143,7
178,502	-250,19
178,72	-209,23
178,939	-8,53
179,157	32,43
179,375	-12,63
179,593	38,57
179,812	7,85
180,03	7,85
180,248	32,43
180,466	-82,26
180,685	36,52
180,903	-2,39
181,121	-86,36
181,339	36,52
181,557	57
181,775	100,01
181,994	36,52
182,212	13,99
182,43	-12,63
182,648	54,95
182,866	61,1
183,084	102,06
183,302	-33,11
183,52	36,52
183,739	61,1
183,957	151,21
184,175	67,24
184,393	11,95
184,611	95,91
184,829	87,72
185,047	-20,82
185,265	59,05
185,483	71,34
185,701	46,76
185,919	85,67
186,137	26,28
186,355	48,81
186,573	124,58
186,791	110,25
187,009	87,72
187,227	61,1
187,445	46,76
187,663	-59,73
187,881	-10,58
188,098	22,19
188,316	57
188,534	71,34
188,752	52,91
188,97	34,47
189,188	-72,02
189,406	145,06
189,624	77,48
189,841	104,11
190,059	-76,12
190,277	11,95
190,495	-2,39
190,713	81,58
190,931	216,74
191,148	128,68
191,366	-0,34
191,584	-4,44
191,802	77,48
192,019	145,06
192,237	11,95
192,455	38,57
192,673	85,67
192,89	24,23
193,108	54,95
193,326	3,75
193,543	65,19
193,761	46,76
193,979	38,57
194,196	71,34
194,414	57
194,632	50,86
194,849	5,8
195,067	-65,88
195,285	143,02
195,502	-45,4
195,72	-53,59
195,937	-20,82
196,155	34,47
196,373	44,71
196,59	-4,44
196,808	54,95
197,025	155,3
197,243	298,66
197,46	173,74
197,678	93,87
197,895	54,95
198,113	28,33
198,33	3,75
198,548	71,34
198,765	20,14
198,983	77,48
199,2	40,62
199,418	30,38
199,635	26,28
199,853	93,87
200,07	16,04
200,288	16,04
200,505	-31,06
200,722	87,72
200,94	42,67
201,157	93,87
201,375	110,25
201,592	30,38
201,809	120,49
202,027	79,53
202,244	3,75
202,461	-0,34
202,679	26,28
202,896	30,38
203,113	-69,97
203,331	110,25
203,548	16,04
203,765	-18,77
203,982	52,91
204,2	52,91
204,417	26,28
204,634	196,26
204,851	89,77
205,069	61,1
205,286	44,71
205,503	24,23
205,72	44,71
205,937	85,67
206,155	48,81
206,372	110,25
206,589	52,91
206,806	44,71
207,023	-12,63
207,24	102,06
207,458	-37,2
207,675	52,91
207,892	-8,53
208,109	-12,63
208,326	28,33
208,543	-8,53
208,76	24,23
208,977	95,91
209,194	108,2
209,411	-24,92
209,628	18,09
209,845	22,19
210,062	13,99
210,279	-4,44
210,496	24,23
210,713	-2,39
210,93	-33,11
211,147	159,4
211,364	-29,01
211,581	36,52
211,798	177,83
212,015	-67,92
212,232	16,04
212,449	69,29
212,666	54,95
212,883	-4,44
213,1	52,91
213,317	36,52
213,533	24,23
213,75	-4,44
213,967	20,14
214,184	63,15
214,401	42,67
214,618	-61,78
214,835	30,38
215,051	44,71
215,268	97,96
215,485	69,29
215,702	26,28
215,919	40,62
216,135	186,02
216,352	-119,12
216,569	-20,82
216,786	22,19
217,002	93,87
217,219	93,87
217,436	32,43
217,652	54,95
217,869	42,67
218,086	167,59
218,302	44,71
218,519	89,77
218,736	-14,68
218,952	-12,63
219,169	159,4
219,386	79,53
219,602	87,72
219,819	36,52
220,036	-45,4
220,252	126,63
220,469	75,43
220,685	32,43
220,902	22,19
221,118	32,43
221,335	3,75
221,552	-4,44
221,768	63,15
221,985	44,71
222,201	71,34
222,418	5,8
222,634	-51,54
222,851	104,11
223,067	-37,2
223,284	54,95
223,5	69,29
223,716	38,57
223,933	65,19
224,149	65,19
224,366	50,86
224,582	-10,58
224,799	-37,2
225,015	30,38
225,231	20,14
225,448	-8,53
225,664	73,39
225,88	-33,11
226,097	-4,44
226,313	16,04
226,529	124,58
226,746	40,62
226,962	-4,44
227,178	65,19
227,395	-51,54
227,611	61,1
227,827	11,95
228,044	20,14
228,26	167,59
228,476	145,06
228,692	61,1
228,909	85,67
229,125	5,8
229,341	48,81
229,557	-8,53
229,773	22,19
229,99	65,19
230,206	-84,31
230,422	75,43
230,638	28,33
230,854	3,75
231,07	20,14
231,286	93,87
231,503	61,1
231,719	-76,12
231,935	54,95
232,151	-10,58
232,367	171,69
232,583	128,68
232,799	36,52
233,015	85,67
233,231	59,05
233,447	40,62
233,663	54,95
233,879	128,68
234,095	11,95
234,311	75,43
234,527	93,87
234,743	95,91
234,959	136,87
235,175	-22,87
235,391	5,8
235,607	32,43
235,823	93,87
236,039	5,8
236,255	7,85
236,471	83,63
236,687	11,95
236,903	69,29
237,118	20,14
237,334	77,48
237,55	54,95
237,766	-53,59
237,982	44,71
238,198	128,68
238,413	46,76
238,629	102,06
238,845	13,99
239,061	-2,39
239,277	-4,44
239,492	-69,97
239,708	20,14
239,924	11,95
240,14	3,75
240,355	114,34
240,571	61,1
240,787	52,91
241,003	63,15
241,218	7,85
241,434	126,63
241,65	149,16
241,865	-0,34
242,081	128,68
242,297	5,8
242,512	95,91
242,728	48,81
242,944	79,53
243,159	-20,82
243,375	3,75
243,59	3,75
243,806	79,53
244,022	30,38
244,237	11,95
244,453	69,29
244,668	50,86
244,884	128,68
245,099	18,09
245,315	110,25
245,53	65,19
245,746	77,48
245,961	-6,49
246,177	-2,39
246,392	79,53
246,608	159,4
246,823	-8,53
247,039	-41,3
247,254	-37,2
247,47	110,25
247,685	-57,68
247,9	30,38
248,116	83,63
248,331	32,43
248,547	36,52
248,762	-49,49
248,977	48,81
249,193	93,87
249,408	138,92
249,623	44,71
249,839	36,52
250,054	13,99
250,269	3,75
250,485	102,06
250,7	5,8
250,915	71,34
251,13	71,34
251,346	-0,34
251,561	20,14
251,776	151,21
251,991	-33,11
252,207	110,25
252,422	48,81
252,637	46,76
252,852	3,75
253,067	-12,63
253,283	59,05
253,498	54,95
253,713	3,75
253,928	-43,35
254,143	13,99
254,358	52,91
254,573	24,23
254,788	24,23
255,004	30,38
255,219	-94,55
255,434	-55,64
255,649	22,19
255,864	24,23
256,079	-37,2
256,294	110,25
256,509	16,04
256,724	61,1
256,939	28,33
257,154	69,29
257,369	-10,58
257,584	112,3
257,799	13,99
258,014	-0,34
258,229	87,72
258,444	52,91
258,659	61,1
258,874	145,06
259,089	46,76
259,304	-41,3
259,518	-43,35
259,733	32,43
259,948	57
260,163	130,73
260,378	-12,63
260,593	52,91
260,808	44,71
261,022	-76,12
261,237	36,52
261,452	-2,39
261,667	87,72
261,882	61,1
262,096	77,48
262,311	143,02
262,526	-20,82
262,741	-37,2
262,955	-10,58
263,17	110,25
263,385	18,09
263,6	-26,96
263,814	46,76
264,029	36,52
264,244	54,95
264,458	34,47
264,673	7,85
264,888	46,76
265,102	-43,35
265,317	-57,68
265,532	-20,82
265,746	5,8
265,961	71,34
266,175	93,87
266,39	-35,16
266,605	-8,53
266,819	13,99
267,034	48,81
267,248	-45,4
267,463	38,57
267,677	13,99
267,892	28,33
268,106	-10,58
268,321	30,38
268,535	97,96
268,75	7,85
268,964	28,33
269,179	87,72
269,393	106,15
269,608	61,1
269,822	-29,01
270,036	-86,36
270,251	-37,2
270,465	61,1
270,68	13,99
270,894	79,53
271,108	145,06
271,323	28,33
271,537	22,19
271,752	44,71
271,966	136,87
272,18	-76,12
272,394	13,99
272,609	-29,01
272,823	40,62
273,037	16,04
273,252	-8,53
273,466	36,52
273,68	57
273,894	73,39
274,109	63,15
274,323	-4,44
274,537	63,15
274,751	13,99
274,966	-24,92
275,18	-59,73
275,394	5,8
275,608	-20,82
275,822	32,43
276,036	30,38
276,25	36,52
276,465	93,87
276,679	89,77
276,893	20,14
277,107	130,73
277,321	36,52
277,535	77,48
277,749	44,71
277,963	71,34
278,177	7,85
278,391	97,96
278,605	-61,78
278,819	147,11
279,033	-45,4
279,247	-16,73
279,461	108,2
279,675	-12,63
279,889	-16,73
280,103	138,92
280,317	128,68
280,531	-80,21
280,745	36,52
280,959	16,04
281,173	83,63
281,387	61,1
281,601	-14,68
281,815	87,72
282,029	-4,44
282,242	44,71
282,456	-4,44
282,67	20,14
282,884	3,75
283,098	28,33
283,312	36,52
283,525	61,1
283,739	79,53
283,953	73,39
284,167	5,8
284,381	22,19
284,594	91,82
284,808	13,99
285,022	-35,16
285,235	77,48
285,449	-0,34
285,663	28,33
285,877	-20,82
286,09	20,14
286,304	151,21
286,518	93,87
286,731	-94,55
286,945	143,02
287,159	-26,96
287,372	48,81
287,586	-8,53
287,799	52,91
288,013	-8,53
288,227	52,91
288,44	261,8
288,654	48,81
288,867	36,52
289,081	-10,58
289,294	30,38
289,508	52,91
289,721	52,91
289,935	57
290,148	102,06
290,362	93,87
290,575	136,87
290,789	-92,5
291,002	-16,73
291,216	20,14
291,429	22,19
291,643	38,57
291,856	-18,77
292,069	36,52
292,283	-12,63
292,496	79,53
292,71	63,15
292,923	79,53
293,136	52,91
293,35	7,85
293,563	-20,82
293,776	44,71
293,99	79,53
294,203	-12,63
294,416	34,47
294,63	24,23
294,843	97,96
295,056	69,29
295,269	85,67
295,483	24,23
295,696	46,76
295,909	46,76
296,122	63,15
296,335	159,4
296,549	34,47
296,762	136,87
296,975	5,8
297,188	69,29
297,401	54,95
297,615	-2,39
297,828	77,48
298,041	155,3
298,254	20,14
298,467	81,58
298,68	-20,82
298,893	61,1
299,106	104,11
299,319	97,96
299,532	145,06
299,745	3,75
299,958	61,1
300,171	-55,64
300,384	7,85
300,598	91,82
300,81	106,15
301,023	11,95
301,236	-51,54
301,449	44,71
301,662	-67,92
301,875	-29,01
302,088	102,06
302,301	110,25
302,514	-10,58
302,727	1,71
302,94	44,71
303,153	69,29
303,366	67,24
303,579	52,91
303,791	61,1
304,004	108,2
304,217	87,72
304,43	52,91
304,643	83,63
304,855	-29,01
305,068	143,02
305,281	91,82
305,494	3,75
305,707	-18,77
305,919	163,5
306,132	22,19
306,345	3,75
306,558	169,64
306,77	-4,44
306,983	34,47
307,196	85,67
307,408	16,04
307,621	110,25
307,834	7,85
308,046	34,47
308,259	-4,44
308,472	167,59
308,684	140,97
308,897	32,43
309,109	-35,16
309,322	-8,53
309,535	110,25
309,747	151,21
309,96	104,11
310,172	143,02
310,385	167,59
310,597	116,39
310,81	126,63
311,022	65,19
311,235	218,79
311,447	310,95
311,66	308,9
311,872	435,88
312,085	675,49
312,297	790,17
312,51	839,33
312,722	1107,61
312,934	1070,75
313,147	1185,43
313,359	1224,34
313,572	968,35
313,784	939,68
313,996	718,5
314,209	577,19
314,421	335,53
314,633	226,98
314,846	269,99
315,058	163,5
315,27	143,02
315,483	77,48
315,695	120,49
315,907	67,24
316,119	93,87
316,332	77,48
316,544	69,29
316,756	177,83
316,968	120,49
317,181	46,76
317,393	52,91
317,605	44,71
317,817	13,99
318,029	143,02
318,241	91,82
318,454	71,34
318,666	52,91
318,878	-31,06
319,09	11,95
319,302	97,96
319,514	85,67
319,726	104,11
319,938	143,02
320,15	71,34
320,362	112,3
320,574	-16,73
320,786	-12,63
320,999	-4,44
321,211	93,87
321,423	54,95
321,635	52,91
321,847	151,21
322,058	22,19
322,27	104,11
322,482	198,31
322,694	120,49
322,906	-12,63
323,118	153,26
323,33	138,92
323,542	52,91
323,754	85,67
323,966	-26,96
324,178	93,87
324,389	44,71
324,601	120,49
324,813	-39,25
325,025	75,43
325,237	18,09
325,449	79,53
325,66	126,63
325,872	93,87
326,084	110,25
326,296	61,1
326,507	11,95
326,719	110,25
326,931	48,81
327,143	179,88
327,354	167,59
327,566	112,3
327,778	54,95
327,989	202,41
328,201	93,87
328,413	93,87
328,624	175,78
328,836	44,71
329,048	69,29
329,259	110,25
329,471	7,85
329,682	134,82
329,894	-4,44
330,106	-20,82
330,317	130,73
330,529	85,67
330,74	89,77
330,952	106,15
331,163	61,1
331,375	114,34
331,586	87,72
331,798	50,86
332,009	126,63
332,221	75,43
332,432	143,02
332,644	126,63
332,855	77,48
333,067	186,02
333,278	200,36
333,489	341,67
333,701	151,21
333,912	294,57
334,124	345,77
334,335	331,43
334,546	333,48
334,758	386,72
334,969	626,34
335,18	450,21
335,392	425,64
335,603	546,47
335,814	478,88
336,025	403,11
336,237	431,78
336,448	466,6
336,659	579,23
336,87	562,85
337,082	515,75
337,293	325,29
337,504	353,96
337,715	302,76
337,926	284,33
338,138	274,09
338,349	267,94
338,56	200,36
338,771	126,63
338,982	167,59
339,193	145,06
339,404	274,09
339,616	161,45
339,827	151,21
340,038	54,95
340,249	147,11
340,46	153,26
340,671	200,36
340,882	175,78
341,093	220,84
341,304	75,43
341,515	73,39
341,726	130,73
341,937	224,94
342,148	132,78
342,359	95,91
342,57	79,53
342,781	245,41
342,992	136,87
343,203	63,15
343,414	235,18
343,624	93,87
343,835	118,44
344,046	138,92
344,257	128,68
344,468	73,39
344,679	11,95
344,89	120,49
345,1	-20,82
345,311	83,63
345,522	171,69
345,733	128,68
345,944	118,44
346,154	138,92
346,365	183,98
346,576	28,33
346,787	87,72
346,997	177,83
347,208	190,12
347,419	132,78
347,629	134,82
347,84	284,33
348,051	118,44
348,261	177,83
348,472	155,3
348,683	63,15
348,893	77,48
349,104	110,25
349,315	145,06
349,525	177,83
349,736	122,54
349,946	132,78
350,157	323,24
350,368	263,85
350,578	110,25
350,789	204,46
350,999	147,11
351,21	210,6
351,42	93,87
351,631	112,3
351,841	183,98
352,052	210,6
352,262	200,36
352,472	110,25
352,683	175,78
352,893	220,84
353,104	233,13
353,314	331,43
353,525	724,64
353,735	267,94
353,945	335,53
354,156	284,33
354,366	216,74
354,576	356,01
354,787	253,61
354,997	208,55
355,207	319,14
355,418	267,94
355,628	282,28
355,838	331,43
356,048	298,66
356,259	513,7
356,469	456,36
356,679	464,55
356,889	564,9
357,1	442,02
357,31	454,31
357,52	552,61
357,73	474,79
357,94	530,08
358,15	437,92
358,361	491,17
358,571	360,1
358,781	372,39
358,991	200,36
359,201	306,85
359,411	196,26
359,621	265,89
359,831	274,09
360,041	206,5
360,251	192,17
360,461	200,36
360,672	95,91
360,882	128,68
361,092	276,13
361,302	171,69
361,512	245,41
361,721	140,97
361,931	284,33
362,141	231,08
362,351	177,83
362,561	292,52
362,771	448,16
362,981	806,56
363,191	1361,56
363,401	2172,55
363,611	3346,04
363,821	4269,67
364,03	5869,14
364,24	7550,52
364,45	9082,4
364,66	11832,82
364,87	13583,84
365,08	14376,4
365,289	14796,23
365,499	14202,32
365,709	12498,41
365,919	10550,79
366,128	8162,86
366,338	6899,27
366,548	5363,29
366,758	4603,49
366,967	3505,78
367,177	2799,23
367,387	1691,28
367,596	1203,86
367,806	759,46
368,016	607,91
368,225	528,03
368,435	464,55
368,644	396,96
368,854	286,37
369,064	267,94
369,273	292,52
369,483	315,05
369,692	220,84
369,902	261,8
370,111	319,14
370,321	204,46
370,53	208,55
370,74	249,51
370,949	245,41
371,159	399,01
371,368	257,7
371,578	298,66
371,787	308,9
371,997	224,94
372,206	231,08
372,416	274,09
372,625	294,57
372,834	216,74
373,044	274,09
373,253	399,01
373,462	257,7
373,672	290,47
373,881	356,01
374,09	364,2
374,3	437,92
374,509	372,39
374,718	319,14
374,928	511,65
375,137	411,3
375,346	403,11
375,555	560,8
375,765	399,01
375,974	313
376,183	341,67
376,392	274,09
376,601	382,63
376,811	374,44
377,02	339,62
377,229	315,05
377,438	298,66
377,647	292,52
377,856	241,32
378,065	343,72
378,275	257,7
378,484	257,7
378,693	405,16
378,902	315,05
379,111	413,35
379,32	349,86
379,529	396,96
379,738	425,64
379,947	437,92
380,156	544,42
380,365	286,37
380,574	462,5
380,783	358,05
380,992	306,85
381,201	333,48
381,41	241,32
381,619	409,25
381,828	423,59
382,037	362,15
382,245	519,84
382,454	446,12
382,663	470,69
382,872	503,46
383,081	544,42
383,29	702,11
383,499	671,39
383,707	833,18
383,916	872,09
384,125	1044,12
384,334	1093,27
384,542	1187,48
384,751	1238,68
384,96	1441,43
385,169	1498,77
385,377	1707,66
385,586	1838,73
385,795	1912,46
386,004	2272,9
386,212	2213,51
386,421	2385,54
386,63	2473,6
386,838	2858,62
387,047	2719,36
387,255	2821,76
387,464	2930,3
387,673	2944,64
387,881	2905,73
388,09	2979,45
388,298	2494,08
388,507	2281,1
388,715	1822,35
388,924	1674,9
389,133	1191,58
389,341	958,11
389,55	732,83
389,758	593,57
389,967	585,38
390,175	429,73
390,383	466,6
390,592	493,22
390,8	345,77
391,009	339,62
391,217	358,05
391,426	448,16
391,634	300,71
391,842	313
392,051	290,47
392,259	317,09
392,467	259,75
392,676	226,98
392,884	347,81
393,092	198,31
393,301	368,29
393,509	290,47
393,717	431,78
393,925	356,01
394,134	306,85
394,342	333,48
394,55	351,91
394,758	366,25
394,967	282,28
395,175	253,61
395,383	282,28
395,591	200,36
395,799	315,05
396,007	235,18
396,216	298,66
396,424	347,81
396,632	331,43
396,84	267,94
397,048	274,09
397,256	306,85
397,464	298,66
397,672	358,05
397,88	304,81
398,088	343,72
398,296	364,2
398,504	349,86
398,712	388,77
398,92	429,73
399,128	437,92
399,336	407,2
399,544	335,53
399,752	376,48
399,96	456,36
400,168	374,44
400,376	380,58
400,584	396,96
400,792	390,82
401	356,01
401,207	290,47
401,415	325,29
401,623	315,05
401,831	265,89
402,039	356,01
402,247	378,53
402,454	581,28
402,662	876,19
402,87	1384,09
403,078	2272,9
403,285	3038,84
403,493	3882,61
403,701	5228,12
403,909	6334,03
404,116	8295,98
404,324	9774,61
404,532	12232,18
404,739	13006,31
404,947	12828,13
405,155	12688,87
405,362	10472,97
405,57	8183,34
405,778	5885,52
405,985	4435,56
406,193	3387
406,4	2723,46
406,608	2446,98
406,816	1736,34
407,023	1515,16
407,231	1455,76
407,438	1560,21
407,646	1799,82
407,853	1908,37
408,061	1728,14
408,268	1742,48
408,476	1513,11
408,683	1298,07
408,89	1054,36
409,098	843,42
409,305	595,62
409,513	593,57
409,72	503,46
409,927	462,5
410,135	448,16
410,342	360,1
410,55	433,83
410,757	341,67
410,964	243,37
411,172	282,28
411,379	339,62
411,586	251,56
411,793	323,24
412,001	274,09
412,208	286,37
412,415	323,24
412,622	358,05
412,83	323,24
413,037	388,77
413,244	298,66
413,451	374,44
413,658	415,4
413,866	407,2
414,073	380,58
414,28	554,66
414,487	349,86
414,694	505,51
414,901	523,94
415,108	439,97
415,315	454,31
415,522	485,03
415,73	399,01
415,937	339,62
416,144	356,01
416,351	446,12
416,558	399,01
416,765	405,16
416,972	380,58
417,179	435,88
417,386	474,79
417,593	474,79
417,8	487,08
418,006	458,4
418,213	585,38
418,42	401,06
418,627	474,79
418,834	462,5
419,041	552,61
419,248	409,25
419,455	503,46
419,661	560,8
419,868	437,92
420,075	519,84
420,282	460,45
420,489	470,69
420,696	568,99
420,902	431,78
421,109	519,84
421,316	423,59
421,523	497,32
421,729	503,46
421,936	429,73
422,143	503,46
422,349	433,83
422,556	343,72
422,763	317,09
422,969	282,28
423,176	212,65
423,383	278,18
423,589	452,26
423,796	315,05
424,002	282,28
424,209	319,14
424,416	356,01
424,622	200,36
424,829	290,47
425,035	222,89
425,242	347,81
425,448	282,28
425,655	388,77
425,861	218,79
426,068	472,74
426,274	470,69
426,481	276,13
426,687	364,2
426,894	409,25
427,1	282,28
427,306	308,9
427,513	345,77
427,719	317,09
427,926	257,7
428,132	347,81
428,338	282,28
428,545	300,71
428,751	294,57
428,957	347,81
429,163	343,72
429,37	366,25
429,576	358,05
429,782	390,82
429,989	267,94
430,195	405,16
430,401	313
430,607	259,75
430,813	349,86
431,02	382,63
431,226	343,72
431,432	292,52
431,638	325,29
431,844	325,29
432,05	282,28
432,257	376,48
432,463	366,25
432,669	462,5
432,875	429,73
433,081	431,78
433,287	552,61
433,493	634,53
433,699	1347,22
433,905	2510,47
434,111	4216,43
434,317	6530,63
434,523	9535
434,729	12336,62
434,935	16414,13
435,141	20516,21
435,347	24345,91
435,553	30639,32
435,759	34989,2
435,965	37807,21
436,171	36576,38
436,377	33529
436,582	28896,5
436,788	22138,2
436,994	16821,67
437,2	12211,7
437,406	9197,09
437,612	6485,58
437,818	4574,82
438,023	2727,55
438,229	1818,25
438,435	1042,07
438,641	806,56
438,846	568,99
439,052	554,66
439,258	577,19
439,464	388,77
439,669	493,22
439,875	456,36
440,081	341,67
440,286	265,89
440,492	421,54
440,698	339,62
440,903	265,89
441,109	417,44
441,314	267,94
441,52	243,37
441,726	339,62
441,931	280,23
442,137	413,35
442,342	278,18
442,548	388,77
442,753	358,05
442,959	315,05
443,164	286,37
443,37	323,24
443,575	300,71
443,781	272,04
443,986	249,51
444,192	286,37
444,397	329,38
444,602	290,47
444,808	140,97
445,013	323,24
445,219	306,85
445,424	388,77
445,629	278,18
445,835	366,25
446,04	339,62
446,245	202,41
446,451	288,42
446,656	306,85
446,861	257,7
447,066	282,28
447,272	413,35
447,477	261,8
447,682	269,99
447,887	300,71
448,093	349,86
448,298	433,83
448,503	263,85
448,708	274,09
448,913	255,65
449,118	325,29
449,324	374,44
449,529	247,46
449,734	341,67
449,939	259,75
450,144	382,63
450,349	364,2
450,554	319,14
450,759	372,39
450,964	267,94
451,169	290,47
451,374	298,66
451,579	339,62
451,784	313
451,989	331,43
452,194	323,24
452,399	257,7
452,604	315,05
452,809	233,13
453,014	276,13
453,219	294,57
453,424	290,47
453,629	290,47
453,833	216,74
454,038	364,2
454,243	319,14
454,448	335,53
454,653	333,48
454,858	323,24
455,062	235,18
455,267	327,33
455,472	392,87
455,677	261,8
455,882	347,81
456,086	358,05
456,291	323,24
456,496	315,05
456,7	364,2
456,905	224,94
457,11	401,06
457,314	333,48
457,519	308,9
457,724	331,43
457,928	308,9
458,133	269,99
458,338	358,05
458,542	444,07
458,747	296,61
458,951	294,57
459,156	276,13
459,36	235,18
459,565	415,4
459,769	276,13
459,974	300,71
460,178	278,18
460,383	245,41
460,587	274,09
460,792	329,38
460,996	304,81
461,201	261,8
461,405	177,83
461,61	290,47
461,814	257,7
462,018	177,83
462,223	331,43
462,427	347,81
462,631	282,28
462,836	347,81
463,04	315,05
463,244	331,43
463,449	255,65
463,653	407,2
463,857	276,13
464,062	333,48
464,266	267,94
464,47	290,47
464,674	333,48
464,878	368,29
465,083	308,9
465,287	323,24
465,491	276,13
465,695	302,76
465,899	255,65
466,104	390,82
466,308	317,09
466,512	372,39
466,716	259,75
466,92	347,81
467,124	372,39
467,328	313
467,532	382,63
467,736	255,65
467,94	224,94
468,144	421,54
468,348	302,76
468,552	392,87
468,756	317,09
468,96	241,32
469,164	331,43
469,368	290,47
469,572	349,86
469,776	446,12
469,98	276,13
470,184	339,62
470,388	437,92
470,591	327,33
470,795	310,95
470,999	405,16
471,203	366,25
471,407	259,75
471,611	282,28
471,814	257,7
472,018	171,69
472,222	347,81
472,426	339,62
472,63	267,94
472,833	366,25
473,037	302,76
473,241	405,16
473,444	399,01
473,648	734,88
473,852	298,66
474,055	366,25
474,259	282,28
474,463	356,01
474,666	356,01
474,87	315,05
475,074	380,58
475,277	317,09
475,481	308,9
475,684	263,85
475,888	345,77
476,091	308,9
476,295	325,29
476,498	282,28
476,702	356,01
476,905	442,02
477,109	380,58
477,312	343,72
477,516	325,29
477,719	388,77
477,923	280,23
478,126	331,43
478,329	306,85
478,533	265,89
478,736	407,2
478,94	331,43
479,143	347,81
479,346	310,95
479,55	405,16
479,753	353,96
479,956	290,47
480,159	323,24
480,363	439,97
480,566	388,77
480,769	339,62
480,972	276,13
481,176	339,62
481,379	401,06
481,582	325,29
481,785	401,06
481,988	487,08
482,192	446,12
482,395	368,29
482,598	366,25
482,801	423,59
483,004	429,73
483,207	345,77
483,41	388,77
483,613	401,06
483,817	392,87
484,02	327,33
484,223	368,29
484,426	419,49
484,629	413,35
484,832	394,92
485,035	421,54
485,238	482,98
485,441	454,31
485,644	456,36
485,846	405,16
486,049	372,39
486,252	427,68
486,455	472,74
486,658	501,41
486,861	409,25
487,064	403,11
487,267	364,2
487,47	495,27
487,672	470,69
487,875	478,88
488,078	423,59
488,281	511,65
488,484	306,85
488,686	386,72
488,889	380,58
489,092	421,54
489,295	478,88
489,497	536,23
489,7	405,16
489,903	487,08
490,105	437,92
490,308	390,82
490,511	597,67
490,713	595,62
490,916	536,23
491,118	548,51
491,321	644,77
491,524	585,38
491,726	691,87
491,929	562,85
492,131	595,62
492,334	603,81
492,536	603,81
492,739	562,85
492,941	454,31
493,144	511,65
493,346	480,93
493,549	423,59
493,751	482,98
493,954	339,62
494,156	351,91
494,359	405,16
494,561	294,57
494,763	458,4
494,966	431,78
495,168	540,32
495,37	431,78
495,573	327,33
495,775	335,53
495,977	562,85
496,18	439,97
496,382	517,79
496,584	380,58
496,787	480,93
496,989	382,63
497,191	364,2
497,393	448,16
497,595	356,01
497,798	388,77
498	407,2
498,202	394,92
498,404	349,86
498,606	413,35
498,808	437,92
499,011	411,3
499,213	437,92
499,415	396,96
499,617	511,65
499,819	435,88
500,021	482,98
500,223	407,2
500,425	431,78
500,627	460,45
500,829	423,59
501,031	380,58
501,233	347,81
501,435	503,46
501,637	554,66
501,839	503,46
502,041	421,54
502,243	401,06
502,445	331,43
502,647	425,64
502,848	519,84
503,05	349,86
503,252	409,25
503,454	495,27
503,656	519,84
503,858	460,45
504,059	421,54
504,261	478,88
504,463	538,27
504,665	421,54
504,867	433,83
505,068	456,36
505,27	388,77
505,472	544,42
505,673	433,83
505,875	372,39
506,077	437,92
506,278	446,12
506,48	454,31
506,682	427,68
506,883	480,93
507,085	472,74
507,287	343,72
507,488	433,83
507,69	548,51
507,891	399,01
508,093	597,67
508,294	302,76
508,496	462,5
508,697	403,11
508,899	507,55
509,1	394,92
509,302	491,17
509,503	413,35
509,705	399,01
509,906	415,4
510,108	442,02
510,309	413,35
510,51	466,6
510,712	421,54
510,913	380,58
511,114	392,87
511,316	366,25
511,517	472,74
511,718	390,82
511,92	399,01
512,121	378,53
512,322	462,5
512,524	577,19
512,725	493,22
512,926	454,31
513,127	446,12
513,329	513,7
513,53	534,18
513,731	474,79
513,932	468,64
514,133	425,64
514,334	464,55
514,536	519,84
514,737	544,42
514,938	491,17
515,139	470,69
515,34	491,17
515,541	515,75
515,742	421,54
515,943	503,46
516,144	470,69
516,345	525,99
516,546	552,61
516,747	542,37
516,948	437,92
517,149	511,65
517,35	513,7
517,551	423,59
517,752	528,03
517,953	530,08
518,154	413,35
518,355	505,51
518,556	503,46
518,756	439,97
518,957	454,31
519,158	523,94
519,359	478,88
519,56	435,88
519,761	554,66
519,961	540,32
520,162	599,71
520,363	419,49
520,564	388,77
520,764	618,15
520,965	380,58
521,166	497,32
521,366	380,58
521,567	528,03
521,768	421,54
521,968	405,16
522,169	396,96
522,37	372,39
522,57	423,59
522,771	487,08
522,972	368,29
523,172	603,81
523,373	538,27
523,573	437,92
523,774	476,84
523,974	462,5
524,175	536,23
524,375	556,71
524,576	450,21
524,776	405,16
524,977	413,35
525,177	507,55
525,378	530,08
525,578	392,87
525,778	487,08
525,979	462,5
526,179	405,16
526,38	431,78
526,58	390,82
526,78	364,2
526,981	571,04
527,181	456,36
527,381	448,16
527,582	462,5
527,782	421,54
527,982	437,92
528,182	470,69
528,383	519,84
528,583	378,53
528,783	513,7
528,983	507,55
529,183	439,97
529,384	372,39
529,584	505,51
529,784	566,95
529,984	372,39
530,184	421,54
530,384	360,1
530,584	446,12
530,784	439,97
530,984	423,59
531,185	532,13
531,385	579,23
531,585	437,92
531,785	425,64
531,985	356,01
532,185	505,51
532,385	349,86
532,585	511,65
532,785	407,2
532,984	405,16
533,184	462,5
533,384	448,16
533,584	267,94
533,784	480,93
533,984	442,02
534,184	325,29
534,384	386,72
534,583	460,45
534,783	323,24
534,983	511,65
535,183	433,83
535,383	323,24
535,582	472,74
535,782	413,35
535,982	472,74
536,182	493,22
536,381	487,08
536,581	515,75
536,781	462,5
536,98	509,6
537,18	538,27
537,38	472,74
537,579	325,29
537,779	421,54
537,979	454,31
538,178	360,1
538,378	446,12
538,577	382,63
538,777	491,17
538,976	491,17
539,176	468,64
539,376	466,6
539,575	446,12
539,774	511,65
539,974	439,97
540,173	562,85
540,373	396,96
540,572	480,93
540,772	536,23
540,971	380,58
541,171	499,36
541,37	505,51
541,569	499,36
541,769	521,89
541,968	505,51
542,167	530,08
542,367	423,59
542,566	544,42
542,765	536,23
542,965	544,42
543,164	530,08
543,363	601,76
543,562	552,61
543,761	718,5
543,961	874,14
544,16	1199,77
544,359	3391,09
544,558	6717
544,757	11441,66
544,957	17147,3
545,156	24841,52
545,355	33492,14
545,554	40830,01
545,753	48987,07
545,952	53361,53
546,151	57961,27
546,35	59024,17
546,549	57176,9
546,748	53001,09
546,947	47750,1
547,146	41991,21
547,345	34399,39
547,544	28007,68
547,743	22766,93
547,942	16915,88
548,141	11679,22
548,34	7298,62
548,539	4314,73
548,738	2600,58
548,937	1818,25
549,135	1279,64
549,334	986,78
549,533	861,85
549,732	736,93
549,931	650,91
550,13	593,57
550,328	579,23
550,527	607,91
550,726	487,08
550,925	458,4
551,123	546,47
551,322	468,64
551,521	472,74
551,72	493,22
551,918	480,93
552,117	495,27
552,315	382,63
552,514	421,54
552,713	364,2
552,911	315,05
553,11	347,81
553,309	390,82
553,507	427,68
553,706	353,96
553,904	499,36
554,103	356,01
554,301	349,86
554,5	448,16
554,698	439,97
554,897	364,2
555,095	433,83
555,294	177,83
555,492	343,72
555,69	437,92
555,889	339,62
556,087	370,34
556,286	491,17
556,484	421,54
556,682	278,18
556,881	325,29
557,079	269,99
557,277	356,01
557,476	358,05
557,674	376,48
557,872	331,43
558,07	274,09
558,269	257,7
558,467	372,39
558,665	358,05
558,863	339,62
559,062	360,1
559,26	421,54
559,458	192,17
559,656	298,66
559,854	290,47
560,052	177,83
560,25	327,33
560,449	530,08
560,647	302,76
560,845	278,18
561,043	282,28
561,241	392,87
561,439	306,85
561,637	325,29
561,835	335,53
562,033	364,2
562,231	292,52
562,429	364,2
562,627	317,09
562,825	274,09
563,023	388,77
563,221	255,65
563,418	294,57
563,616	298,66
563,814	437,92
564,012	300,71
564,21	431,78
564,408	343,72
564,605	323,24
564,803	265,89
565,001	507,55
565,199	235,18
565,397	315,05
565,594	478,88
565,792	347,81
565,99	335,53
566,188	337,57
566,385	374,44
566,583	315,05
566,781	376,48
566,978	405,16
567,176	364,2
567,373	347,81
567,571	323,24
567,769	454,31
567,966	306,85
568,164	339,62
568,361	368,29
568,559	372,39
568,756	478,88
568,954	339,62
569,151	349,86
569,349	315,05
569,546	282,28
569,744	485,03
569,941	337,57
570,139	306,85
570,336	317,09
570,534	296,61
570,731	317,09
570,928	329,38
571,126	523,94
571,323	347,81
571,52	331,43
571,718	403,11
571,915	405,16
572,112	337,57
572,31	339,62
572,507	405,16
572,704	356,01
572,901	323,24
573,099	364,2
573,296	423,59
573,493	360,1
573,69	415,4
573,887	241,32
574,085	464,55
574,282	339,62
574,479	368,29
574,676	413,35
574,873	450,21
575,07	392,87
575,267	644,77
575,464	949,92
575,661	1527,44
575,858	2109,07
576,055	2881,15
576,252	3993,2
576,449	4927,07
576,646	5516,89
576,843	6116,94
577,04	6733,38
577,237	6712,9
577,434	6762,05
577,631	6852,16
577,828	6927,94
578,025	7228,99
578,222	7394,87
578,419	7896,63
578,615	8201,77
578,812	8384,04
579,009	8326,7
579,206	8183,34
579,403	7913,01
579,599	7325,24
579,796	6409,8
579,993	6047,31
580,19	5090,91
580,386	4542,05
580,583	3657,33
580,78	3001,98
580,976	2526,85
581,173	1902,22
581,37	1343,13
581,566	970,4
581,763	646,82
581,96	480,93
582,156	577,19
582,353	417,44
582,549	544,42
582,746	374,44
582,942	396,96
583,139	448,16
583,335	401,06
583,532	429,73
583,728	405,16
583,925	384,68
584,121	480,93
584,318	489,12
584,514	507,55
584,711	407,2
584,907	458,4
585,103	366,25
585,3	487,08
585,496	433,83
585,693	323,24
585,889	360,1
586,085	380,58
586,281	396,96
586,478	421,54
586,674	380,58
586,87	356,01
587,067	429,73
587,263	489,12
587,459	413,35
587,655	429,73
587,851	530,08
588,048	540,32
588,244	386,72
588,44	462,5
588,636	489,12
588,832	462,5
589,028	511,65
589,224	415,4
589,42	507,55
589,617	415,4
589,813	429,73
590,009	343,72
590,205	505,51
590,401	462,5
590,597	339,62
590,793	448,16
590,989	392,87
591,185	396,96
591,38	374,44
591,576	341,67
591,772	413,35
591,968	343,72
592,164	388,77
592,36	399,01
592,556	388,77
592,752	413,35
592,948	356,01
593,143	331,43
593,339	331,43
593,535	454,31
593,731	423,59
593,926	507,55
594,122	388,77
594,318	442,02
594,514	515,75
594,709	421,54
594,905	439,97
595,101	327,33
595,296	341,67
595,492	446,12
595,688	329,38
595,883	427,68
596,079	376,48
596,275	216,74
596,47	405,16
596,666	349,86
596,861	396,96
597,057	331,43
597,252	202,41
597,448	298,66
597,643	431,78
597,839	362,15
598,034	302,76
598,23	317,09
598,425	462,5
598,621	380,58
598,816	376,48
599,011	399,01
599,207	339,62
599,402	333,48
599,597	435,88
599,793	437,92
599,988	396,96
600,183	505,51
600,379	495,27
600,574	366,25
600,769	446,12
600,965	388,77
601,16	388,77
601,355	364,2
601,55	396,96
601,745	454,31
601,941	429,73
602,136	491,17
602,331	310,95
602,526	431,78
602,721	298,66
602,916	380,58
603,111	331,43
603,307	415,4
603,502	306,85
603,697	409,25
603,892	333,48
604,087	310,95
604,282	423,59
604,477	458,4
604,672	403,11
604,867	446,12
605,062	331,43
605,257	257,7
605,452	409,25
605,646	450,21
605,841	388,77
606,036	450,21
606,231	253,61
606,426	421,54
606,621	265,89
606,816	317,09
607,01	360,1
607,205	335,53
607,4	313
607,595	298,66
607,79	243,37
607,984	335,53
608,179	292,52
608,374	235,18
608,569	194,22
608,763	216,74
608,958	212,65
609,153	331,43
609,347	304,81
609,542	306,85
609,736	259,75
609,931	298,66
610,126	241,32
610,32	282,28
610,515	229,03
610,709	470,69
610,904	265,89
611,098	237,22
611,293	192,17
611,487	261,8
611,682	269,99
611,876	200,36
612,071	192,17
612,265	292,52
612,46	259,75
612,654	282,28
612,848	136,87
613,043	200,36
613,237	216,74
613,432	134,82
613,626	245,41
613,82	153,26
614,014	313
614,209	315,05
614,403	202,41
614,597	220,84
614,792	222,89
614,986	249,51
615,18	226,98
615,374	298,66
615,568	259,75
615,763	202,41
615,957	177,83
616,151	171,69
616,345	282,28
616,539	194,22
616,733	214,7
616,927	208,55
617,121	186,02
617,316	331,43
617,51	245,41
617,704	159,4
617,898	327,33
618,092	212,65
618,286	175,78
618,48	169,64
618,674	274,09
618,868	194,22
619,061	151,21
619,255	186,02
619,449	126,63
619,643	83,63
619,837	331,43
620,031	249,51
620,225	263,85
620,419	171,69
620,612	239,27
620,806	208,55
621	290,47
621,194	212,65
621,388	229,03
621,581	220,84
621,775	251,56
621,969	259,75
622,162	202,41
622,356	280,23
622,55	226,98
622,743	159,4
622,937	216,74
623,131	218,79
623,324	267,94
623,518	136,87
623,712	298,66
623,905	216,74
624,099	226,98
624,292	233,13
624,486	263,85
624,679	210,6
624,873	181,93
625,066	296,61
625,26	233,13
625,453	153,26
625,647	202,41
625,84	167,59
626,034	226,98
626,227	192,17
626,42	290,47
626,614	253,61
626,807	302,76
627	235,18
627,194	200,36
627,387	216,74
627,58	183,98
627,774	200,36
627,967	241,32
628,16	192,17
628,353	243,37
628,547	183,98
628,74	286,37
628,933	200,36
629,126	241,32
629,319	274,09
629,513	239,27
629,706	177,83
629,899	319,14
630,092	216,74
630,285	143,02
630,478	202,41
630,671	300,71
630,864	331,43
631,057	245,41
631,25	380,58
631,443	243,37
631,636	241,32
631,829	405,16
632,022	331,43
632,215	290,47
632,408	257,7
632,601	310,95
632,794	200,36
632,987	218,79
633,18	241,32
633,373	265,89
633,566	163,5
633,758	120,49
633,951	224,94
634,144	321,19
634,337	249,51
634,53	347,81
634,722	317,09
634,915	163,5
635,108	216,74
635,301	226,98
635,493	327,33
635,686	372,39
635,879	308,9
636,071	177,83
636,264	421,54
636,457	349,86
636,649	335,53
636,842	462,5
637,034	413,35
637,227	323,24
637,42	282,28
637,612	345,77
637,805	323,24
637,997	411,3
638,19	360,1
638,382	323,24
638,575	315,05
638,767	341,67
638,96	409,25
639,152	356,01
639,344	358,05
639,537	243,37
639,729	235,18
639,922	294,57
640,114	343,72
640,306	396,96
640,499	347,81
640,691	269,99
640,883	286,37
641,075	298,66
641,268	298,66
641,46	331,43
641,652	241,32
641,844	282,28
642,037	446,12
642,229	272,04
642,421	337,57
642,613	390,82
642,805	380,58
642,998	405,16
643,19	429,73
643,382	505,51
643,574	474,79
643,766	446,12
643,958	460,45
644,15	493,22
644,342	495,27
644,534	503,46
644,726	442,02
644,918	419,49
645,11	431,78
645,302	415,4
645,494	571,04
645,686	325,29
645,878	405,16
646,07	511,65
646,262	386,72
646,453	429,73
646,645	464,55
646,837	497,32
647,029	401,06
647,221	429,73
647,413	407,2
647,604	478,88
647,796	470,69
647,988	401,06
648,18	380,58
648,371	282,28
648,563	345,77
648,755	331,43
648,947	237,22
649,138	335,53
649,33	384,68
649,521	349,86
649,713	325,29
649,905	349,86
650,096	388,77
650,288	403,11
650,479	280,23
650,671	401,06
650,863	478,88
651,054	396,96
651,246	468,64
651,437	421,54
651,629	513,7
651,82	562,85
652,011	505,51
652,203	519,84
652,394	462,5
652,586	491,17
652,777	478,88
652,968	450,21
653,16	433,83
653,351	454,31
653,542	669,34
653,734	456,36
653,925	413,35
654,116	507,55
654,308	489,12
654,499	415,4
654,69	341,67
654,881	456,36
655,073	390,82
655,264	446,12
655,455	347,81
655,646	442,02
655,837	532,13
656,028	343,72
656,219	364,2
656,411	374,44
656,602	323,24
656,793	388,77
656,984	394,92
657,175	276,13
657,366	437,92
657,557	374,44
657,748	396,96
657,939	384,68
658,13	396,96
658,321	429,73
658,512	491,17
658,703	454,31
658,894	458,4
659,084	415,4
659,275	388,77
659,466	431,78
659,657	523,94
659,848	534,18
660,039	579,23
660,23	396,96
660,42	454,31
660,611	487,08
660,802	497,32
660,993	485,03
661,183	511,65
661,374	382,63
661,565	579,23
661,755	446,12
661,946	480,93
662,137	421,54
662,327	390,82
662,518	421,54
662,709	417,44
662,899	331,43
663,09	358,05
663,28	323,24
663,471	290,47
663,662	462,5
663,852	313
664,043	286,37
664,233	210,6
664,424	288,42
664,614	226,98
664,804	181,93
664,995	241,32
665,185	372,39
665,376	278,18
665,566	347,81
665,756	177,83
665,947	274,09
666,137	257,7
666,328	413,35
666,518	380,58
666,708	308,9
666,898	333,48
667,089	470,69
667,279	446,12
667,469	341,67
667,659	431,78
667,85	442,02
668,04	347,81
668,23	337,57
668,42	394,92
668,61	388,77
668,8	366,25
668,991	358,05
669,181	548,51
669,371	388,77
669,561	315,05
669,751	452,26
669,941	405,16
670,131	347,81
670,321	394,92
670,511	376,48
670,701	331,43
670,891	372,39
671,081	284,33
671,271	339,62
671,461	267,94
671,651	233,13
671,841	269,99
672,03	341,67
672,22	280,23
672,41	192,17
672,6	224,94
672,79	267,94
672,98	196,26
673,169	269,99
673,359	265,89
673,549	220,84
673,739	114,34
673,928	243,37
674,118	267,94
674,308	243,37
674,497	356,01
674,687	155,3
674,877	282,28
675,066	241,32
675,256	192,17
675,446	233,13
675,635	265,89
675,825	274,09
676,014	325,29
676,204	315,05
676,393	313
676,583	249,51
676,772	325,29
676,962	257,7
677,151	290,47
677,341	265,89
677,53	298,66
677,72	319,14
677,909	306,85
678,099	241,32
678,288	235,18
678,477	282,28
678,667	353,96
678,856	294,57
679,045	267,94
679,235	294,57
679,424	220,84
679,613	360,1
679,802	208,55
679,992	288,42
680,181	159,4
680,37	257,7
680,559	134,82
680,748	175,78
680,938	220,84
681,127	222,89
681,316	208,55
681,505	177,83
681,694	79,53
681,883	237,22
682,072	134,82
682,261	134,82
682,45	67,24
682,639	52,91
682,828	218,79
683,017	265,89
683,206	253,61
683,395	61,1
683,584	249,51
683,773	145,06
683,962	179,88
684,151	161,45
684,34	169,64
684,529	186,02
684,718	102,06
684,907	104,11
685,095	257,7
685,284	224,94
685,473	85,67
685,662	136,87
685,851	278,18
686,039	222,89
686,228	171,69
686,417	93,87
686,606	192,17
686,794	161,45
686,983	95,91
687,172	149,16
687,36	147,11
687,549	104,11
687,738	130,73
687,926	38,57
688,115	143,02
688,303	120,49
688,492	138,92
688,68	77,48
688,869	71,34
689,057	-12,63
689,246	13,99
689,434	128,68
689,623	143,02
689,811	138,92
690	134,82
690,188	104,11
690,377	165,54
690,565	274,09
690,753	218,79
690,942	235,18
691,13	282,28
691,318	108,2
691,507	120,49
691,695	118,44
691,883	235,18
692,072	134,82
692,26	145,06
692,448	177,83
692,636	151,21
692,824	75,43
693,013	192,17
693,201	106,15
693,389	130,73
693,577	138,92
693,765	104,11
693,953	69,29
694,141	143,02
694,329	46,76
694,518	128,68
694,706	57
694,894	233,13
695,082	54,95
695,27	112,3
695,458	216,74
695,646	259,75
695,834	229,03
696,022	210,6
696,209	364,2
696,397	294,57
696,585	294,57
696,773	204,46
696,961	358,05
697,149	224,94
697,337	233,13
697,525	290,47
697,712	224,94
697,9	204,46
698,088	183,98
698,276	186,02
698,463	235,18
698,651	233,13
698,839	118,44
699,027	163,5
699,214	186,02
699,402	136,87
699,59	163,5
699,777	118,44
699,965	145,06
700,152	110,25
700,34	36,52
700,528	42,67
700,715	122,54
700,903	118,44
701,09	194,22
701,278	102,06
701,465	134,82
701,653	77,48
701,84	34,47
702,028	114,34
702,215	153,26
702,402	110,25
702,59	136,87
702,777	95,91
702,965	89,77
703,152	183,98
703,339	218,79
703,527	134,82
703,714	77,48
703,901	79,53
704,088	143,02
704,276	208,55
704,463	153,26
704,65	93,87
704,837	122,54
705,025	102,06
705,212	134,82
705,399	83,63
705,586	112,3
705,773	116,39
705,96	120,49
706,147	151,21
706,335	233,13
706,522	202,41
706,709	100,01
706,896	192,17
707,083	208,55
707,27	110,25
707,457	151,21
707,644	151,21
707,831	161,45
708,018	48,81
708,205	134,82
708,392	97,96
708,578	216,74
708,765	112,3
708,952	87,72
709,139	151,21
709,326	95,91
709,513	155,3
709,7	196,26
709,886	161,45
710,073	194,22
710,26	222,89
710,447	85,67
710,633	128,68
710,82	126,63
711,007	128,68
711,193	149,16
711,38	134,82
711,567	169,64
711,753	177,83
711,94	151,21
712,127	167,59
712,313	167,59
712,5	134,82
712,686	202,41
712,873	71,34
713,059	81,58
713,246	128,68
713,432	95,91
713,619	-10,58
713,805	85,67
713,992	257,7
714,178	67,24
714,365	161,45
714,551	155,3
714,737	71,34
714,924	65,19
715,11	171,69
715,297	241,32
715,483	50,86
715,669	57
715,855	171,69
716,042	183,98
716,228	63,15
716,414	229,03
716,6	134,82
716,787	114,34
716,973	77,48
717,159	140,97
717,345	67,24
717,531	89,77
717,718	93,87
717,904	128,68
718,09	112,3
718,276	95,91
718,462	167,59
718,648	79,53
718,834	28,33
719,02	120,49
719,206	110,25
719,392	46,76
719,578	93,87
719,764	136,87
719,95	91,82
720,136	161,45
720,322	89,77
720,508	151,21
720,694	69,29
720,879	28,33
721,065	194,22
721,251	114,34
721,437	186,02
721,623	241,32
721,809	161,45
721,994	120,49
722,18	71,34
722,366	116,39
722,552	40,62
722,737	48,81
722,923	249,51
723,109	126,63
723,294	157,35
723,48	272,04
723,666	216,74
723,851	102,06
724,037	177,83
724,222	302,76
724,408	290,47
724,593	177,83
724,779	97,96
724,965	200,36
725,15	151,21
725,336	167,59
725,521	306,85
725,706	222,89
725,892	93,87
726,077	155,3
726,263	159,4
726,448	306,85
726,634	251,56
726,819	177,83
727,004	341,67
727,19	77,48
727,375	216,74
727,56	200,36
727,745	163,5
727,931	267,94
728,116	159,4
728,301	233,13
728,486	218,79
728,672	102,06
728,857	200,36
729,042	128,68
729,227	136,87
729,412	241,32
729,597	155,3
729,783	192,17
729,968	87,72
730,153	241,32
730,338	155,3
730,523	145,06
730,708	183,98
730,893	155,3
731,078	151,21
731,263	97,96
731,448	126,63
731,633	198,31
731,818	159,4
732,003	100,01
732,187	93,87
732,372	81,58
732,557	188,07
732,742	73,39
732,927	52,91
733,112	224,94
733,297	134,82
733,481	274,09
733,666	186,02
733,851	235,18
734,036	165,54
734,22	134,82
734,405	331,43
734,59	200,36
734,774	208,55
734,959	165,54
735,144	255,65
735,328	206,5
735,513	163,5
735,698	138,92
735,882	325,29
736,067	331,43
736,251	229,03
736,436	259,75
736,62	224,94
736,805	216,74
736,989	302,76
737,174	145,06
737,358	218,79
737,543	306,85
737,727	388,77
737,911	388,77
738,096	317,09
738,28	362,15
738,465	306,85
738,649	382,63
738,833	409,25
739,018	259,75
739,202	218,79
739,386	200,36
739,57	218,79
739,755	278,18
739,939	194,22
740,123	128,68
740,307	200,36
740,491	233,13
740,676	143,02
740,86	151,21
741,044	202,41
741,228	149,16
741,412	212,65
741,596	44,71
741,78	69,29
741,964	147,11
742,148	102,06
742,332	186,02
742,516	20,14
742,7	159,4
742,884	81,58
743,068	134,82
743,252	126,63
743,436	204,46
743,62	118,44
743,804	274,09
743,988	308,9
744,172	153,26
744,356	237,22
744,539	85,67
744,723	192,17
744,907	140,97
745,091	183,98
745,275	294,57
745,458	261,8
745,642	278,18
745,826	339,62
746,009	405,16
746,193	343,72
746,377	294,57
746,56	388,77
746,744	341,67
746,928	243,37
747,111	296,61
747,295	351,91
747,478	335,53
747,662	175,78
747,846	356,01
748,029	331,43
748,213	343,72
748,396	308,9
748,58	292,52
748,763	274,09
748,946	224,94
749,13	327,33
749,313	347,81
749,497	446,12
749,68	364,2
749,863	423,59
750,047	364,2
750,23	399,01
750,413	503,46
750,597	470,69
750,78	325,29
750,963	464,55
751,146	315,05
751,33	417,44
751,513	474,79
751,696	421,54
751,879	317,09
752,062	292,52
752,246	259,75
752,429	364,2
752,612	267,94
752,795	300,71
752,978	204,46
753,161	118,44
753,344	169,64
753,527	229,03
753,71	151,21
753,893	179,88
754,076	36,52
754,259	118,44
754,442	104,11
754,625	112,3
754,808	265,89
754,991	134,82
755,174	188,07
755,357	116,39
755,539	237,22
755,722	179,88
755,905	93,87
756,088	179,88
756,271	97,96
756,453	169,64
756,636	63,15
756,819	151,21
757,002	93,87
757,184	249,51
757,367	333,48
757,55	233,13
757,732	251,56
757,915	272,04
758,098	237,22
758,28	143,02
758,463	241,32
758,645	331,43
758,828	241,32
759,011	274,09
759,193	243,37
759,376	224,94
759,558	200,36
759,741	233,13
759,923	167,59
760,105	263,85
760,288	315,05
760,47	204,46
760,653	183,98
760,835	194,22
761,017	183,98
761,2	183,98
761,382	341,67
761,564	186,02
761,747	319,14
761,929	202,41
762,111	229,03
762,294	298,66
762,476	460,45
762,658	462,5
762,84	634,53
763,022	691,87
763,205	855,71
763,387	962,2
763,569	1003,16
763,751	851,61
763,933	749,22
764,115	704,16
764,297	698,02
764,479	620,19
764,661	532,13
764,843	538,27
765,025	394,92
765,207	384,68
765,389	276,13
765,571	306,85
765,753	269,99
765,935	300,71
766,117	300,71
766,299	448,16
766,481	364,2
766,663	179,88
766,845	177,83
767,026	233,13
767,208	206,5
767,39	89,77
767,572	118,44
767,753	159,4
767,935	122,54
768,117	134,82
768,299	284,33
768,48	196,26
768,662	177,83
768,844	130,73
769,025	183,98
769,207	118,44
769,389	143,02
769,57	202,41
769,752	259,75
769,933	126,63
770,115	298,66
770,296	235,18
770,478	267,94
770,659	136,87
770,841	415,4
771,022	183,98
771,204	233,13
771,385	265,89
771,567	413,35
771,748	478,88
771,929	282,28
772,111	405,16
772,292	511,65
772,473	595,62
772,655	480,93
772,836	577,19
773,017	505,51
773,199	480,93
773,38	433,83
773,561	380,58
773,742	315,05
773,923	364,2
774,105	364,2
774,286	417,44
774,467	251,56
774,648	263,85
774,829	257,7
775,01	233,13
775,191	112,3
775,372	243,37
775,553	188,07
775,734	163,5
775,915	134,82
776,096	249,51
776,277	323,24
776,458	310,95
776,639	478,88
776,82	532,13
777,001	544,42
777,182	732,83
777,363	720,54
777,544	802,46
777,725	745,12
777,906	620,19
778,086	560,8
778,267	511,65
778,448	374,44
778,629	284,33
778,809	261,8
778,99	216,74
779,171	274,09
779,352	194,22
779,532	167,59
779,713	192,17
779,894	163,5
780,074	284,33
780,255	145,06
780,435	167,59
780,616	118,44
780,797	233,13
780,977	97,96
781,158	24,23
781,338	132,78
781,519	63,15
781,699	204,46
781,88	118,44
782,06	128,68
782,241	30,38
782,421	-53,59
782,601	52,91
782,782	46,76
782,962	85,67
783,142	73,39
783,323	124,58
783,503	36,52
783,683	93,87
783,864	110,25
784,044	198,31
784,224	186,02
784,404	52,91
784,585	100,01
784,765	36,52
784,945	239,27
785,125	97,96
785,305	120,49
785,485	177,83
785,666	85,67
785,846	151,21
786,026	134,82
786,206	-59,73
786,386	57
786,566	134,82
786,746	40,62
786,926	147,11
787,106	102,06
787,286	95,91
787,466	122,54
787,646	110,25
787,826	97,96
788,006	122,54
788,185	118,44
788,365	32,43
788,545	171,69
788,725	177,83
788,905	77,48
789,085	155,3
789,264	44,71
789,444	175,78
789,624	208,55
789,804	100,01
789,983	151,21
790,163	87,72
790,343	179,88
790,522	63,15
790,702	67,24
790,882	52,91
791,061	192,17
791,241	134,82
791,42	85,67
791,6	126,63
791,78	61,1
791,959	11,95
792,139	18,09
792,318	93,87
792,498	140,97
792,677	134,82
792,856	159,4
793,036	128,68
793,215	102,06
793,395	145,06
793,574	61,1
793,753	104,11
793,933	192,17
794,112	251,56
794,291	163,5
794,471	249,51
794,65	204,46
794,829	192,17
795,008	126,63
795,188	218,79
795,367	208,55
795,546	122,54
795,725	177,83
795,904	104,11
796,084	102,06
796,263	192,17
796,442	159,4
796,621	143,02
796,8	237,22
796,979	161,45
797,158	93,87
797,337	91,82
797,516	218,79
797,695	136,87
797,874	106,15
798,053	147,11
798,232	65,19
798,411	44,71
798,59	38,57
798,769	93,87
798,947	110,25
799,126	112,3
799,305	149,16
799,484	102,06
799,663	147,11
799,842	145,06
800,02	233,13
800,199	36,52
800,378	202,41
800,557	202,41
800,735	278,18
800,914	173,74
801,093	247,46
801,271	282,28
801,45	247,46
801,628	233,13
801,807	118,44
801,986	267,94
802,164	159,4
802,343	81,58
802,521	83,63
802,7	153,26
802,878	175,78
803,057	114,34
803,235	106,15
803,414	106,15
803,592	179,88
803,771	132,78
803,949	151,21
804,127	106,15
804,306	159,4
804,484	122,54
804,662	71,34
804,841	-57,68
805,019	69,29
805,197	114,34
805,375	63,15
805,554	9,9
805,732	67,24
805,91	102,06
806,088	-4,44
806,266	-2,39
806,445	-2,39
806,623	36,52
806,801	63,15
806,979	161,45
807,157	97,96
807,335	-0,34
807,513	100,01
807,691	30,38
807,869	61,1
808,047	-20,82
808,225	28,33
808,403	22,19
808,581	3,75
808,759	140,97
808,937	28,33
809,115	120,49
809,293	112,3
809,471	69,29
809,649	192,17
809,826	241,32
810,004	202,41
810,182	143,02
810,36	282,28
810,538	421,54
810,715	427,68
810,893	405,16
811,071	507,55
811,248	626,34
811,426	626,34
811,604	632,48
811,781	554,66
811,959	548,51
812,137	317,09
812,314	335,53
812,492	302,76
812,669	282,28
812,847	231,08
813,024	249,51
813,202	302,76
813,379	159,4
813,557	216,74
813,734	292,52
813,912	210,6
814,089	118,44
814,267	241,32
814,444	169,64
814,621	202,41
814,799	54,95
814,976	214,7
815,153	171,69
815,331	126,63
815,508	52,91
815,685	-20,82
815,862	52,91
816,04	54,95
816,217	-41,3
816,394	22,19
816,571	95,91
816,748	200,36
816,926	140,97
817,103	304,81
817,28	77,48
817,457	24,23
817,634	147,11
817,811	-86,36
817,988	102,06
818,165	81,58
818,342	77,48
818,519	61,1
818,696	28,33
818,873	-41,3
819,05	61,1
819,227	24,23
819,404	91,82
819,581	77,48
819,758	28,33
819,934	126,63
820,111	-29,01
820,288	65,19
820,465	175,78
820,642	18,09
820,818	28,33
820,995	42,67
821,172	87,72
821,349	11,95
821,525	73,39
821,702	20,14
821,879	7,85
822,055	11,95
822,232	13,99
822,409	-18,77
822,585	104,11
822,762	151,21
822,938	114,34
823,115	44,71
823,291	11,95
823,468	157,35
823,644	13,99
823,821	69,29
823,997	-59,73
824,174	38,57
824,35	126,63
824,527	151,21
824,703	65,19
824,879	40,62
825,056	61,1
825,232	192,17
825,408	126,63
825,585	36,52
825,761	73,39
825,937	110,25
826,113	183,98
826,29	231,08
826,466	89,77
826,642	437,92
826,818	77,48
826,994	79,53
827,17	3,75
827,347	91,82
827,523	40,62
827,699	46,76
827,875	112,3
828,051	134,82
828,227	120,49
828,403	61,1
828,579	138,92
828,755	181,93
828,931	102,06
829,107	161,45
829,283	186,02
829,459	32,43
829,635	97,96
829,811	32,43
829,986	44,71
830,162	102,06
830,338	24,23
830,514	44,71
830,69	22,19
830,865	5,8
831,041	-4,44
831,217	11,95
831,393	54,95
831,568	40,62
831,744	120,49
831,92	30,38
832,095	46,76
832,271	44,71
832,447	83,63
832,622	200,36
832,798	36,52
832,973	36,52
833,149	126,63
833,325	3,75
833,5	73,39
833,676	28,33
833,851	77,48
834,027	36,52
834,202	36,52
834,377	61,1
834,553	-69,97
834,728	110,25
834,904	44,71
835,079	-100,69
835,254	30,38
835,43	40,62
835,605	-2,39
835,78	54,95
835,955	61,1
836,131	36,52
836,306	11,95
836,481	13,99
836,656	108,2
836,832	114,34
837,007	11,95
837,182	-41,3
837,357	102,06
837,532	24,23
837,707	61,1
837,882	71,34
838,057	3,75
838,232	79,53
838,407	5,8
838,582	73,39
838,757	81,58
838,932	95,91
839,107	87,72
839,282	-37,2
839,457	5,8
839,632	110,25
839,807	81,58
839,982	42,67
840,157	85,67
840,332	110,25
840,506	57
840,681	73,39
840,856	118,44
841,031	134,82
841,205	79,53
841,38	161,45
841,555	132,78
841,73	69,29
841,904	126,63
842,079	167,59
842,254	267,94
842,428	171,69
842,603	161,45
842,777	147,11
842,952	155,3
843,126	87,72
843,301	114,34
843,476	28,33
843,65	218,79
843,825	235,18
843,999	173,74
844,173	134,82
844,348	200,36
844,522	161,45
844,697	257,7
844,871	118,44
845,045	226,98
845,22	175,78
845,394	249,51
845,568	106,15
845,743	136,87
845,917	89,77
846,091	85,67
846,265	124,58
846,44	93,87
846,614	97,96
846,788	71,34
846,962	-0,34
847,136	149,16
847,31	87,72
847,485	155,3
847,659	-20,82
847,833	118,44
848,007	108,2
848,181	89,77
848,355	52,91
848,529	38,57
848,703	120,49
848,877	-4,44
849,051	-4,44
849,225	85,67
849,399	110,25
849,573	-12,63
849,746	65,19
849,92	-12,63
850,094	52,91
850,268	126,63
850,442	110,25
850,616	-26,96
850,789	36,52
850,963	-45,4
851,137	-8,53
851,311	173,74
851,484	118,44
851,658	46,76
851,832	61,1
852,005	118,44
852,179	61,1
852,352	73,39
852,526	32,43
852,7	138,92
852,873	32,43
853,047	63,15
853,22	9,9
853,394	120,49
853,567	11,95
853,741	44,71
853,914	52,91
854,088	110,25
854,261	44,71
854,434	-29,01
854,608	54,95
854,781	-4,44
854,955	93,87
855,128	110,25
855,301	32,43
855,475	112,3
855,648	65,19
855,821	36,52
855,994	63,15
856,168	3,75
856,341	34,47
856,514	28,33
856,687	79,53
856,86	61,1
857,033	95,91
857,207	73,39
857,38	18,09
857,553	153,26
857,726	44,71
857,899	85,67
858,072	52,91
858,245	28,33
858,418	102,06
858,591	48,81
858,764	-18,77
858,937	67,24
859,11	69,29
859,283	-24,92
859,455	36,52
859,628	32,43
859,801	71,34
859,974	159,4
860,147	-51,54
860,32	122,54
860,492	-2,39
860,665	-24,92
860,838	67,24
861,011	16,04
861,183	124,58
861,356	59,05
861,529	100,01
861,701	54,95
861,874	52,91
862,047	102,06
862,219	46,76
862,392	116,39
862,564	110,25
862,737	104,11
862,909	122,54
863,082	16,04
863,254	77,48
863,427	61,1
863,599	97,96
863,772	77,48
863,944	93,87
864,117	28,33
864,289	122,54
864,461	-2,39
864,634	38,57
864,806	-61,78
864,978	134,82
865,151	20,14
865,323	167,59
865,495	145,06
865,667	69,29
865,84	220,84
866,012	-37,2
866,184	183,98
866,356	69,29
866,528	114,34
866,7	11,95
866,873	24,23
867,045	93,87
867,217	-4,44
867,389	75,43
867,561	44,71
867,733	81,58
867,905	85,67
868,077	24,23
868,249	93,87
868,421	73,39
868,593	100,01
868,765	132,78
868,936	-57,68
869,108	77,48
869,28	87,72
869,452	57
869,624	7,85
869,796	102,06
869,968	175,78
870,139	93,87
870,311	36,52
870,483	243,37
870,654	-8,53
870,826	124,58
870,998	13,99
871,17	89,77
871,341	5,8
871,513	145,06
871,684	-53,59
871,856	112,3
872,028	77,48
872,199	-47,44
872,371	-22,87
872,542	7,85
872,714	38,57
872,885	102,06
873,057	44,71
873,228	77,48
873,4	85,67
873,571	179,88
873,742	-51,54
873,914	179,88
874,085	28,33
874,256	65,19
874,428	-0,34
874,599	-8,53
874,77	143,02
874,942	-20,82
875,113	110,25
875,284	-12,63
875,455	30,38
875,626	114,34
875,798	3,75
875,969	69,29
876,14	24,23
876,311	153,26
876,482	126,63
876,653	128,68
876,824	69,29
876,995	36,52
877,166	159,4
877,337	-45,4
877,508	28,33
877,679	11,95
877,85	22,19
878,021	-26,96
878,192	93,87
878,363	-12,63
878,534	-4,44
878,705	36,52
878,876	40,62
879,047	46,76
879,217	93,87
879,388	61,1
879,559	110,25
879,73	63,15
879,9	28,33
880,071	65,19
880,242	143,02
880,413	104,11
880,583	85,67
880,754	104,11
880,924	87,72
881,095	-4,44
881,266	18,09
881,436	83,63
881,607	167,59
881,777	93,87
881,948	69,29
882,118	140,97
882,289	-37,2
882,459	69,29
882,63	69,29
882,8	13,99
882,971	69,29
883,141	44,71
883,311	73,39
883,482	93,87
883,652	5,8
883,822	16,04
883,993	126,63
884,163	71,34
884,333	20,14
884,504	220,84
884,674	122,54
884,844	38,57
885,014	26,28
885,184	44,71
885,355	16,04
885,525	28,33
885,695	112,3
885,865	165,54
886,035	153,26
886,205	57
886,375	171,69
886,545	83,63
886,715	-45,4
886,885	136,87
887,055	18,09
887,225	77,48
887,395	38,57
887,565	188,07
887,735	126,63
887,905	118,44
888,075	11,95
888,244	202,41
888,414	149,16
888,584	77,48
888,754	54,95
888,924	24,23
889,093	116,39
889,263	71,34
889,433	52,91
889,603	5,8
889,772	57
889,942	118,44
890,111	81,58
890,281	112,3
890,451	44,71
890,62	61,1
890,79	36,52
890,959	128,68
891,129	77,48
891,298	46,76
891,468	100,01
891,637	46,76
891,807	77,48
891,976	48,81
892,146	32,43
892,315	196,26
892,485	167,59
892,654	-53,59
892,823	20,14
892,993	20,14
893,162	30,38
893,331	67,24
893,501	-20,82
893,67	106,15
893,839	128,68
894,008	22,19
894,177	104,11
894,347	44,71
894,516	165,54
894,685	138,92
894,854	77,48
895,023	52,91
895,192	3,75
