Data from mercure_USB4F104161__9__11-31-53-419.txt Node

Date: Tue Apr 14 11:31:53 EDT 2026
User: LaboPhy
Spectrometer: USB4F10416
Trigger mode: 4
Integration Time (sec): 1,000000E-1
Scans to average: 1
Electric dark correction enabled: true
Nonlinearity correction enabled: false
Boxcar width: 0
XAxis mode: Wavelengths
Number of Pixels in Spectrum: 3648
>>>>>Begin Spectral Data<<<<<
177,847	-135,68
178,066	-135,68
178,284	-135,68
178,502	-160,25
178,72	-176,64
178,939	1,54
179,157	13,82
179,375	11,78
179,593	36,35
179,812	-2,56
180,03	-2,56
180,248	-27,14
180,466	30,21
180,685	-35,33
180,903	3,58
181,121	-57,86
181,339	28,16
181,557	19,97
181,775	-37,38
181,994	-43,52
182,212	-20,99
182,43	-53,76
182,648	-6,66
182,866	36,35
183,084	148,99
183,302	-115,2
183,52	-2,56
183,739	7,68
183,957	13,82
184,175	11,78
184,393	22,02
184,611	85,5
184,829	-51,71
185,047	-53,76
185,265	52,74
185,483	19,97
185,701	3,58
185,919	42,5
186,137	3,58
186,355	-29,18
186,573	-14,85
186,791	48,64
187,009	5,63
187,227	52,74
187,445	-6,66
187,663	-10,75
187,881	-16,9
188,098	-53,76
188,316	40,45
188,534	46,59
188,752	-12,8
188,97	-29,18
189,188	-74,24
189,406	36,35
189,624	134,65
189,841	9,73
190,059	-168,45
190,277	-12,8
190,495	-41,47
190,713	30,21
190,931	89,6
191,148	-12,8
191,366	-57,86
191,584	-0,51
191,802	-43,52
192,019	52,74
192,237	71,17
192,455	-51,71
192,673	62,98
192,89	-43,52
193,108	-12,8
193,326	-35,33
193,543	-4,61
193,761	-68,09
193,979	22,02
194,196	3,58
194,414	24,06
194,632	15,87
194,849	-2,56
195,067	-160,25
195,285	38,4
195,502	-96,77
195,72	-29,18
195,937	-74,24
196,155	19,97
196,373	-68,09
196,59	75,26
196,808	-61,95
197,025	77,31
197,243	136,7
197,46	-8,7
197,678	48,64
197,895	71,17
198,113	-18,94
198,33	-57,86
198,548	13,82
198,765	-16,9
198,983	77,31
199,2	-107,01
199,418	24,06
199,635	19,97
199,853	40,45
200,07	-41,47
200,288	36,35
200,505	36,35
200,722	56,83
200,94	110,08
201,157	-12,8
201,375	26,11
201,592	85,5
201,809	-20,99
202,027	69,12
202,244	-16,9
202,461	79,36
202,679	52,74
202,896	99,84
203,113	-90,62
203,331	38,4
203,548	105,98
203,765	3,58
203,982	38,4
204,2	-86,53
204,417	-70,14
204,634	183,81
204,851	69,12
205,069	40,45
205,286	52,74
205,503	42,5
205,72	67,07
205,937	62,98
206,155	-43,52
206,372	95,74
206,589	-61,95
206,806	5,63
207,023	65,02
207,24	-0,51
207,458	-51,71
207,675	-51,71
207,892	9,73
208,109	-129,53
208,326	-37,38
208,543	24,06
208,76	-102,91
208,977	56,83
209,194	62,98
209,411	-121,34
209,628	-78,33
209,845	7,68
210,062	-45,57
210,279	-119,29
210,496	-4,61
210,713	-86,53
210,93	-37,38
211,147	73,21
211,364	-25,09
211,581	-37,38
211,798	50,69
212,015	-31,23
212,232	19,97
212,449	-2,56
212,666	-68,09
212,883	-20,99
213,1	-78,33
213,317	-27,14
213,533	11,78
213,75	-57,86
213,967	32,26
214,184	-119,29
214,401	40,45
214,618	-27,14
214,835	-16,9
215,051	50,69
215,268	67,07
215,485	-18,94
215,702	-74,24
215,919	-96,77
216,135	126,46
216,352	-35,33
216,569	-18,94
216,786	11,78
217,002	-109,05
217,219	-59,9
217,436	48,64
217,652	-8,7
217,869	-14,85
218,086	83,45
218,302	-70,14
218,519	28,16
218,736	-20,99
218,952	13,82
219,169	11,78
219,386	-20,99
219,602	15,87
219,819	26,11
220,036	30,21
220,252	56,83
220,469	-61,95
220,685	3,58
220,902	-4,61
221,118	7,68
221,335	22,02
221,552	-16,9
221,768	65,02
221,985	9,73
222,201	30,21
222,418	-37,38
222,634	-76,29
222,851	-43,52
223,067	-31,23
223,284	-31,23
223,5	-18,94
223,716	13,82
223,933	-8,7
224,149	-127,49
224,366	19,97
224,582	-82,43
224,799	-47,62
225,015	-78,33
225,231	-29,18
225,448	5,63
225,664	-53,76
225,88	-70,14
226,097	1,54
226,313	-25,09
226,529	-74,24
226,746	36,35
226,962	-2,56
227,178	-20,99
227,395	-35,33
227,611	-29,18
227,827	-64
228,044	13,82
228,26	44,54
228,476	13,82
228,692	122,37
228,909	-6,66
229,125	13,82
229,341	-61,95
229,557	-51,71
229,773	-117,25
229,99	46,59
230,206	-25,09
230,422	-45,57
230,638	-57,86
230,854	-35,33
231,07	-70,14
231,286	28,16
231,503	3,58
231,719	-53,76
231,935	3,58
232,151	19,97
232,367	65,02
232,583	-12,8
232,799	62,98
233,015	22,02
233,231	-84,48
233,447	-66,05
233,663	13,82
233,879	3,58
234,095	-49,66
234,311	54,78
234,527	42,5
234,743	52,74
234,959	50,69
235,175	11,78
235,391	-109,05
235,607	-45,57
235,823	13,82
236,039	-55,81
236,255	-27,14
236,471	54,78
236,687	-16,9
236,903	-8,7
237,118	22,02
237,334	-53,76
237,55	11,78
237,766	-61,95
237,982	-20,99
238,198	62,98
238,413	-29,18
238,629	-33,28
238,845	-18,94
239,061	11,78
239,277	-68,09
239,492	-64
239,708	-0,51
239,924	-86,53
240,14	-27,14
240,355	142,85
240,571	-12,8
240,787	-53,76
241,003	24,06
241,218	-12,8
241,434	58,88
241,65	-37,38
241,865	-37,38
242,081	22,02
242,297	-68,09
242,512	67,07
242,728	36,35
242,944	19,97
243,159	19,97
243,375	46,59
243,59	-29,18
243,806	9,73
244,022	40,45
244,237	-82,43
244,453	-4,61
244,668	97,79
244,884	3,58
245,099	3,58
245,315	28,16
245,53	36,35
245,746	28,16
245,961	15,87
246,177	-4,61
246,392	79,36
246,608	-10,75
246,823	-4,61
247,039	-55,81
247,254	-45,57
247,47	71,17
247,685	-12,8
247,9	-4,61
248,116	28,16
248,331	-66,05
248,547	71,17
248,762	-20,99
248,977	52,74
249,193	-12,8
249,408	-8,7
249,623	79,36
249,839	11,78
250,054	-51,71
250,269	-64
250,485	36,35
250,7	36,35
250,915	-12,8
251,13	69,12
251,346	32,26
251,561	50,69
251,776	103,93
251,991	-86,53
252,207	103,93
252,422	-49,66
252,637	22,02
252,852	-68,09
253,067	-29,18
253,283	38,4
253,498	13,82
253,713	-6,66
253,928	-119,29
254,143	-27,14
254,358	7,68
254,573	44,54
254,788	-125,44
255,004	-4,61
255,219	-98,81
255,434	11,78
255,649	-86,53
255,864	44,54
256,079	19,97
256,294	-68,09
256,509	-72,19
256,724	-16,9
256,939	-20,99
257,154	28,16
257,369	3,58
257,584	38,4
257,799	-49,66
258,014	-37,38
258,229	36,35
258,444	-35,33
258,659	46,59
258,874	71,17
259,089	30,21
259,304	-64
259,518	-29,18
259,733	3,58
259,948	-45,57
260,163	28,16
260,378	71,17
260,593	11,78
260,808	19,97
261,022	-74,24
261,237	56,83
261,452	24,06
261,667	-115,2
261,882	65,02
262,096	44,54
262,311	52,74
262,526	3,58
262,741	-25,09
262,955	-111,1
263,17	-4,61
263,385	-53,76
263,6	-0,51
263,814	-4,61
264,029	-29,18
264,244	-6,66
264,458	-37,38
264,673	-4,61
264,888	65,02
265,102	95,74
265,317	-20,99
265,532	30,21
265,746	87,55
265,961	79,36
266,175	28,16
266,39	42,5
266,605	-74,24
266,819	40,45
267,034	44,54
267,248	-33,28
267,463	-8,7
267,677	-53,76
267,892	5,63
268,106	-135,68
268,321	-57,86
268,535	77,31
268,75	75,26
268,964	-92,67
269,179	71,17
269,393	-20,99
269,608	56,83
269,822	-127,49
270,036	-61,95
270,251	-41,47
270,465	32,26
270,68	1,54
270,894	-16,9
271,108	101,89
271,323	24,06
271,537	-0,51
271,752	48,64
271,966	-70,14
272,18	-86,53
272,394	-8,7
272,609	19,97
272,823	7,68
273,037	1,54
273,252	9,73
273,466	-4,61
273,68	46,59
273,894	-37,38
274,109	-78,33
274,323	11,78
274,537	-0,51
274,751	-86,53
274,966	101,89
275,18	-39,42
275,394	-57,86
275,608	-45,57
275,822	-78,33
276,036	-70,14
276,25	3,58
276,465	-12,8
276,679	36,35
276,893	-27,14
277,107	62,98
277,321	3,58
277,535	36,35
277,749	62,98
277,963	24,06
278,177	-59,9
278,391	26,11
278,605	-129,53
278,819	13,82
279,033	-12,8
279,247	-29,18
279,461	11,78
279,675	32,26
279,889	9,73
280,103	13,82
280,317	71,17
280,531	-74,24
280,745	-76,29
280,959	-86,53
281,173	36,35
281,387	52,74
281,601	101,89
281,815	60,93
282,029	-76,29
282,242	42,5
282,456	38,4
282,67	19,97
282,884	-59,9
283,098	-16,9
283,312	-6,66
283,525	-82,43
283,739	62,98
283,953	-70,14
284,167	36,35
284,381	60,93
284,594	-27,14
284,808	17,92
285,022	-68,09
285,235	-33,28
285,449	36,35
285,663	32,26
285,877	-59,9
286,09	-20,99
286,304	22,02
286,518	-10,75
286,731	-94,72
286,945	-12,8
287,159	-100,86
287,372	-70,14
287,586	-59,9
287,799	13,82
288,013	-27,14
288,227	-0,51
288,44	271,87
288,654	11,78
288,867	-49,66
289,081	-2,56
289,294	-66,05
289,508	101,89
289,721	-2,56
289,935	-59,9
290,148	101,89
290,362	85,5
290,575	46,59
290,789	9,73
291,002	-27,14
291,216	73,21
291,429	-23,04
291,643	36,35
291,856	-8,7
292,069	-29,18
292,283	-72,19
292,496	-35,33
292,71	-16,9
292,923	-61,95
293,136	-68,09
293,35	-76,29
293,563	-90,62
293,776	103,93
293,99	-33,28
294,203	-12,8
294,416	30,21
294,63	-4,61
294,843	56,83
295,056	48,64
295,269	-18,94
295,483	-84,48
295,696	40,45
295,909	54,78
296,122	85,5
296,335	85,5
296,549	69,12
296,762	56,83
296,975	-45,57
297,188	13,82
297,401	9,73
297,615	-25,09
297,828	44,54
298,041	95,74
298,254	-90,62
298,467	28,16
298,68	-12,8
298,893	-18,94
299,106	28,16
299,319	28,16
299,532	44,54
299,745	-8,7
299,958	-33,28
300,171	9,73
300,384	7,68
300,598	-78,33
300,81	44,54
301,023	-70,14
301,236	-18,94
301,449	-35,33
301,662	-61,95
301,875	7,68
302,088	13,82
302,301	60,93
302,514	-20,99
302,727	101,89
302,94	-55,81
303,153	5,63
303,366	19,97
303,579	-27,14
303,791	32,26
304,004	-61,95
304,217	44,54
304,43	19,97
304,643	-35,33
304,855	-20,99
305,068	-2,56
305,281	11,78
305,494	-23,04
305,707	-12,8
305,919	163,33
306,132	54,78
306,345	40,45
306,558	60,93
306,77	-29,18
306,983	-20,99
307,196	114,17
307,408	-53,76
307,621	11,78
307,834	77,31
308,046	91,65
308,259	-49,66
308,472	-10,75
308,684	85,5
308,897	26,11
309,109	13,82
309,322	38,4
309,535	69,12
309,747	60,93
309,96	159,23
310,172	144,89
310,385	65,02
310,597	85,5
310,81	118,27
311,022	103,93
311,235	126,46
311,447	261,63
311,66	355,83
311,872	462,33
312,085	581,11
312,297	720,37
312,51	814,58
312,722	1011,18
312,934	1158,64
313,147	1054,19
313,359	1187,31
313,572	980,47
313,784	835,06
313,996	675,32
314,209	503,29
314,421	341,5
314,633	226,81
314,846	54,78
315,058	171,52
315,27	114,17
315,483	30,21
315,695	144,89
315,907	38,4
316,119	42,5
316,332	36,35
316,544	69,12
316,756	93,69
316,968	155,13
317,181	3,58
317,393	1,54
317,605	22,02
317,817	71,17
318,029	81,41
318,241	46,59
318,454	11,78
318,666	-0,51
318,878	-29,18
319,09	-111,1
319,302	77,31
319,514	15,87
319,726	22,02
319,938	159,23
320,15	95,74
320,362	54,78
320,574	-76,29
320,786	-61,95
320,999	-8,7
321,211	81,41
321,423	87,55
321,635	-33,28
321,847	95,74
322,058	-53,76
322,27	11,78
322,482	69,12
322,694	112,13
322,906	15,87
323,118	69,12
323,33	-35,33
323,542	93,69
323,754	-8,7
323,966	-78,33
324,178	46,59
324,389	46,59
324,601	144,89
324,813	-45,57
325,025	44,54
325,237	-20,99
325,449	52,74
325,66	69,12
325,872	11,78
326,084	36,35
326,296	24,06
326,507	40,45
326,719	62,98
326,931	-20,99
327,143	116,22
327,354	52,74
327,566	87,55
327,778	-12,8
327,989	120,32
328,201	19,97
328,413	69,12
328,624	144,89
328,836	52,74
329,048	-43,52
329,259	79,36
329,471	79,36
329,682	85,5
329,894	13,82
330,106	-29,18
330,317	44,54
330,529	126,46
330,74	69,12
330,952	11,78
331,163	-29,18
331,375	142,85
331,586	112,13
331,798	48,64
332,009	56,83
332,221	97,79
332,432	136,7
332,644	87,55
332,855	101,89
333,067	120,32
333,278	167,42
333,489	284,16
333,701	208,38
333,912	294,4
334,124	318,97
334,335	355,83
334,546	282,11
334,758	290,3
334,969	546,3
335,18	321,02
335,392	392,7
335,603	431,61
335,814	474,62
336,025	421,37
336,237	347,64
336,448	331,26
336,659	400,89
336,87	556,54
337,082	421,37
337,293	290,3
337,504	388,6
337,715	292,35
337,926	251,39
338,138	241,15
338,349	216,57
338,56	153,09
338,771	159,23
338,982	114,17
339,193	87,55
339,404	153,09
339,616	189,95
339,827	62,98
340,038	101,89
340,249	146,94
340,46	85,5
340,671	134,65
340,882	169,47
341,093	69,12
341,304	81,41
341,515	3,58
341,726	62,98
341,937	67,07
342,148	36,35
342,359	42,5
342,57	93,69
342,781	159,23
342,992	36,35
343,203	-20,99
343,414	103,93
343,624	-0,51
343,835	56,83
344,046	85,5
344,257	87,55
344,468	44,54
344,679	38,4
344,89	62,98
345,1	19,97
345,311	153,09
345,522	73,21
345,733	126,46
345,944	138,75
346,154	93,69
346,365	210,43
346,576	-4,61
346,787	85,5
346,997	140,8
347,208	62,98
347,419	28,16
347,629	126,46
347,84	187,9
348,051	52,74
348,261	128,51
348,472	48,64
348,683	192
348,893	7,68
349,104	97,79
349,315	52,74
349,525	62,98
349,736	114,17
349,946	124,41
350,157	204,28
350,368	153,09
350,578	50,69
350,789	185,85
350,999	110,08
351,21	128,51
351,42	40,45
351,631	65,02
351,841	200,19
352,052	183,81
352,262	249,34
352,472	93,69
352,683	167,42
352,893	243,2
353,104	179,71
353,314	316,92
353,525	601,59
353,735	265,72
353,945	187,9
354,156	118,27
354,366	259,58
354,576	372,22
354,787	173,57
354,997	169,47
355,207	151,04
355,418	245,24
355,628	259,58
355,838	359,93
356,048	368,12
356,259	374,27
356,469	349,69
356,679	478,71
356,889	470,52
357,1	450,04
357,31	472,57
357,52	527,86
357,73	409,08
357,94	398,84
358,15	478,71
358,361	382,46
358,571	323,07
358,781	359,93
358,991	224,76
359,201	251,39
359,411	232,96
359,621	187,9
359,831	265,72
360,041	151,04
360,251	169,47
360,461	187,9
360,672	134,65
360,882	73,21
361,092	146,94
361,302	101,89
361,512	265,72
361,721	196,09
361,931	167,42
362,141	120,32
362,351	159,23
362,561	298,49
362,771	415,23
362,981	896,5
363,191	1357,29
363,401	2174,43
363,611	3296,72
363,821	4378,05
364,03	5723,56
364,24	7372,18
364,45	8959,35
364,66	11668,81
364,87	13389,11
365,08	14177,58
365,289	14593,31
365,499	14193,96
365,709	12512,58
365,919	10181,99
366,128	8154,5
366,338	6892,95
366,548	5311,92
366,758	4560,31
366,967	3501,51
367,177	2676,18
367,387	1654,25
367,596	1097,2
367,806	798,2
368,016	611,83
368,225	462,33
368,435	456,19
368,644	220,67
368,854	261,63
369,064	298,49
369,273	192
369,483	159,23
369,692	167,42
369,902	249,34
370,111	263,68
370,321	187,9
370,53	159,23
370,74	228,86
370,949	192
371,159	265,72
371,368	267,77
371,578	245,24
371,787	273,92
371,997	226,81
372,206	138,75
372,416	300,54
372,625	224,76
372,834	161,28
373,044	263,68
373,253	271,87
373,462	312,83
373,672	253,44
373,881	296,44
374,09	355,83
374,3	364,03
374,509	308,73
374,718	298,49
374,928	478,71
375,137	384,51
375,346	388,6
375,555	445,95
375,765	290,3
375,974	267,77
376,183	337,4
376,392	257,53
376,601	257,53
376,811	292,35
377,02	286,2
377,229	302,59
377,438	323,07
377,647	325,12
377,856	196,09
378,065	126,46
378,275	253,44
378,484	282,11
378,693	232,96
378,902	224,76
379,111	400,89
379,32	282,11
379,529	372,22
379,738	394,75
379,947	357,88
380,156	447,99
380,365	335,35
380,574	456,19
380,783	355,83
380,992	331,26
381,201	282,11
381,41	323,07
381,619	232,96
381,828	298,49
382,037	298,49
382,245	552,44
382,454	404,99
382,663	372,22
382,872	402,94
383,081	486,9
383,29	660,98
383,499	622,07
383,707	855,54
383,916	886,26
384,125	972,27
384,334	1043,95
384,542	1201,65
384,751	1273,32
384,96	1439,21
385,169	1490,41
385,377	1691,11
385,586	1629,67
385,795	1897,96
386,004	2235,87
386,212	2239,97
386,421	2414,04
386,63	2477,53
386,838	2907,6
387,047	2682,33
387,255	2727,38
387,464	2964,95
387,673	2741,72
387,881	2862,55
388,09	2862,55
388,298	2534,87
388,507	2239,97
388,715	1830,37
388,924	1813,99
389,133	1142,25
389,341	863,73
389,55	699,89
389,758	566,78
389,967	488,95
390,175	445,95
390,383	474,62
390,592	458,23
390,8	243,2
391,009	265,72
391,217	388,6
391,426	382,46
391,634	245,24
391,842	239,1
392,051	306,68
392,259	257,53
392,467	222,72
392,676	196,09
392,884	261,63
393,092	280,06
393,301	284,16
393,509	265,72
393,717	396,79
393,925	286,2
394,134	214,52
394,342	271,87
394,55	325,12
394,758	314,88
394,967	237,05
395,175	183,81
395,383	282,11
395,591	214,52
395,799	290,3
396,007	118,27
396,216	368,12
396,424	243,2
396,632	284,16
396,84	175,61
397,048	218,62
397,256	335,35
397,464	333,31
397,672	333,31
397,88	232,96
398,088	249,34
398,296	388,6
398,504	308,73
398,712	382,46
398,92	415,23
399,128	413,18
399,336	396,79
399,544	333,31
399,752	347,64
399,96	437,75
400,168	347,64
400,376	296,44
400,584	398,84
400,792	331,26
401	196,09
401,207	192
401,415	163,33
401,623	265,72
401,831	273,92
402,039	327,16
402,247	300,54
402,454	556,54
402,662	798,2
402,87	1373,68
403,078	2256,35
403,285	2973,14
403,493	3954,12
403,701	5266,86
403,909	6256,03
404,116	7875,98
404,324	9821,55
404,532	12105,03
404,739	12946,75
404,947	12899,64
405,155	12631,36
405,362	10186,08
405,57	8398,21
405,778	5920,17
405,985	4404,67
406,193	3515,85
406,4	2706,9
406,608	2348,51
406,816	1867,24
407,023	1453,55
407,231	1437,16
407,438	1514,98
407,646	1748,45
407,853	1836,52
408,061	1637,86
408,268	1609,19
408,476	1400,3
408,683	1185,26
408,89	968,18
409,098	816,63
409,305	620,02
409,513	593,4
409,72	503,29
409,927	400,89
410,135	339,45
410,342	198,14
410,55	400,89
410,757	249,34
410,964	232,96
411,172	224,76
411,379	298,49
411,586	251,39
411,793	290,3
412,001	261,63
412,208	284,16
412,415	292,35
412,622	372,22
412,83	282,11
413,037	400,89
413,244	290,3
413,451	376,31
413,658	454,14
413,866	423,42
414,073	429,56
414,28	452,09
414,487	361,98
414,694	396,79
414,901	404,99
415,108	355,83
415,315	454,14
415,522	480,76
415,73	404,99
415,937	286,2
416,144	413,18
416,351	359,93
416,558	306,68
416,765	421,37
416,972	425,47
417,179	417,27
417,386	486,9
417,593	386,55
417,8	366,07
418,006	394,75
418,213	488,95
418,42	437,75
418,627	519,67
418,834	366,07
419,041	480,76
419,248	409,08
419,455	548,34
419,661	495,1
419,868	392,7
420,075	454,14
420,282	445,95
420,489	421,37
420,696	390,65
420,902	486,9
421,109	511,48
421,316	458,23
421,523	466,42
421,729	388,6
421,936	333,31
422,143	437,75
422,349	347,64
422,556	290,3
422,763	306,68
422,969	169,47
423,176	241,15
423,383	261,63
423,589	445,95
423,796	275,96
424,002	171,52
424,209	314,88
424,416	314,88
424,622	196,09
424,829	257,53
425,035	169,47
425,242	241,15
425,448	314,88
425,655	275,96
425,861	286,2
426,068	374,27
426,274	454,14
426,481	202,24
426,687	273,92
426,894	278,01
427,1	335,35
427,306	232,96
427,513	290,3
427,719	343,55
427,926	361,98
428,132	304,64
428,338	235
428,545	267,77
428,751	269,82
428,957	351,74
429,163	314,88
429,37	339,45
429,576	325,12
429,782	298,49
429,989	232,96
430,195	265,72
430,401	306,68
430,607	323,07
430,813	218,62
431,02	306,68
431,226	333,31
431,432	372,22
431,638	329,21
431,844	208,38
432,05	273,92
432,257	284,16
432,463	306,68
432,669	341,5
432,875	357,88
433,081	384,51
433,287	519,67
433,493	585,21
433,699	1258,99
433,905	2483,67
434,111	4173,25
434,317	6313,38
434,523	9522,54
434,729	12211,53
434,935	16084,23
435,141	20554,95
435,347	24188,05
435,553	30391,34
435,759	34874,35
435,965	37589,95
436,171	36522,96
436,377	33190,92
436,582	29094,98
436,788	22084,78
436,994	16796,93
437,2	12236,1
437,406	8908,15
437,612	6262,18
437,818	4429,24
438,023	2551,26
438,229	1750,5
438,435	1115,63
438,641	722,42
438,846	564,73
439,052	495,1
439,258	527,86
439,464	394,75
439,669	335,35
439,875	421,37
440,081	284,16
440,286	253,44
440,492	339,45
440,698	249,34
440,903	292,35
441,109	409,08
441,314	200,19
441,52	226,81
441,726	339,45
441,931	257,53
442,137	253,44
442,342	151,04
442,548	314,88
442,753	316,92
442,959	159,23
443,164	251,39
443,37	306,68
443,575	173,57
443,781	341,5
443,986	318,97
444,192	241,15
444,397	216,57
444,602	112,13
444,808	257,53
445,013	192
445,219	232,96
445,424	306,68
445,629	278,01
445,835	392,7
446,04	267,77
446,245	232,96
446,451	288,25
446,656	161,28
446,861	185,85
447,066	275,96
447,272	265,72
447,477	275,96
447,682	167,42
447,887	200,19
448,093	280,06
448,298	439,8
448,503	267,77
448,708	249,34
448,913	120,32
449,118	325,12
449,324	306,68
449,529	318,97
449,734	282,11
449,939	194,05
450,144	294,4
450,349	243,2
450,554	284,16
450,759	265,72
450,964	282,11
451,169	237,05
451,374	235
451,579	269,82
451,784	253,44
451,989	273,92
452,194	257,53
452,399	261,63
452,604	192
452,809	183,81
453,014	331,26
453,219	292,35
453,424	314,88
453,629	171,52
453,833	251,39
454,038	226,81
454,243	323,07
454,448	368,12
454,653	284,16
454,858	226,81
455,062	286,2
455,267	243,2
455,472	357,88
455,677	243,2
455,882	206,33
456,086	390,65
456,291	341,5
456,496	196,09
456,7	257,53
456,905	341,5
457,11	232,96
457,314	267,77
457,519	292,35
457,724	347,64
457,928	325,12
458,133	290,3
458,338	273,92
458,542	312,83
458,747	204,28
458,951	183,81
459,156	267,77
459,36	243,2
459,565	349,69
459,769	284,16
459,974	251,39
460,178	265,72
460,383	224,76
460,587	228,86
460,792	314,88
460,996	286,2
461,201	232,96
461,405	187,9
461,61	175,61
461,814	241,15
462,018	208,38
462,223	232,96
462,427	265,72
462,631	245,24
462,836	253,44
463,04	271,87
463,244	357,88
463,449	241,15
463,653	306,68
463,857	226,81
464,062	349,69
464,266	290,3
464,47	269,82
464,674	183,81
464,878	253,44
465,083	232,96
465,287	290,3
465,491	249,34
465,695	202,24
465,899	253,44
466,104	257,53
466,308	284,16
466,512	275,96
466,716	323,07
466,92	278,01
467,124	273,92
467,328	247,29
467,532	347,64
467,736	265,72
467,94	382,46
468,144	331,26
468,348	282,11
468,552	372,22
468,756	300,54
468,96	220,67
469,164	265,72
469,368	296,44
469,572	290,3
469,776	374,27
469,98	265,72
470,184	290,3
470,388	323,07
470,591	218,62
470,795	372,22
470,999	368,12
471,203	318,97
471,407	142,85
471,611	265,72
471,814	179,71
472,018	161,28
472,222	218,62
472,426	327,16
472,63	302,59
472,833	347,64
473,037	323,07
473,241	267,77
473,444	343,55
473,648	740,85
473,852	261,63
474,055	130,56
474,259	241,15
474,463	278,01
474,666	368,12
474,87	273,92
475,074	282,11
475,277	325,12
475,481	372,22
475,684	218,62
475,888	290,3
476,091	267,77
476,295	306,68
476,498	212,48
476,702	216,57
476,905	458,23
477,109	374,27
477,312	290,3
477,516	273,92
477,719	304,64
477,923	282,11
478,126	288,25
478,329	282,11
478,533	232,96
478,736	318,97
478,94	314,88
479,143	380,41
479,346	232,96
479,55	290,3
479,753	337,4
479,956	249,34
480,159	224,76
480,363	417,27
480,566	290,3
480,769	366,07
480,972	278,01
481,176	288,25
481,379	396,79
481,582	390,65
481,785	273,92
481,988	398,84
482,192	480,76
482,395	290,3
482,598	376,31
482,801	370,17
483,004	425,47
483,207	404,99
483,41	341,5
483,613	355,83
483,817	404,99
484,02	265,72
484,223	335,35
484,426	355,83
484,629	302,59
484,832	445,95
485,035	396,79
485,238	388,6
485,441	351,74
485,644	400,89
485,846	407,03
486,049	349,69
486,252	421,37
486,455	339,45
486,658	382,46
486,861	402,94
487,064	390,65
487,267	417,27
487,47	505,34
487,672	454,14
487,875	400,89
488,078	339,45
488,281	454,14
488,484	388,6
488,686	462,33
488,889	396,79
489,092	382,46
489,295	398,84
489,497	429,56
489,7	417,27
489,903	392,7
490,105	396,79
490,308	456,19
490,511	534,01
490,713	503,29
490,916	503,29
491,118	554,49
491,321	617,97
491,524	478,71
491,726	560,63
491,929	611,83
492,131	523,77
492,334	577,02
492,536	439,8
492,739	486,9
492,941	470,52
493,144	421,37
493,346	447,99
493,549	359,93
493,751	468,47
493,954	351,74
494,156	351,74
494,359	339,45
494,561	216,57
494,763	415,23
494,966	347,64
495,168	407,03
495,37	308,73
495,573	280,06
495,775	359,93
495,977	429,56
496,18	310,78
496,382	482,81
496,584	302,59
496,787	447,99
496,989	318,97
497,191	331,26
497,393	480,76
497,595	425,47
497,798	392,7
498	413,18
498,202	355,83
498,404	372,22
498,606	282,11
498,808	486,9
499,011	404,99
499,213	404,99
499,415	400,89
499,617	394,75
499,819	439,8
500,021	431,61
500,223	325,12
500,425	478,71
500,627	298,49
500,829	370,17
501,031	390,65
501,233	357,88
501,435	421,37
501,637	454,14
501,839	503,29
502,041	298,49
502,243	323,07
502,445	409,08
502,647	341,5
502,848	392,7
503,05	335,35
503,252	445,95
503,454	425,47
503,656	372,22
503,858	396,79
504,059	349,69
504,261	341,5
504,463	554,49
504,665	323,07
504,867	372,22
505,068	396,79
505,27	445,95
505,472	503,29
505,673	404,99
505,875	269,82
506,077	335,35
506,278	415,23
506,48	384,51
506,682	398,84
506,883	378,36
507,085	437,75
507,287	310,78
507,488	437,75
507,69	437,75
507,891	421,37
508,093	468,47
508,294	366,07
508,496	398,84
508,697	372,22
508,899	388,6
509,1	499,19
509,302	425,47
509,503	407,03
509,705	454,14
509,906	392,7
510,108	306,68
510,309	421,37
510,51	470,52
510,712	357,88
510,913	396,79
511,114	351,74
511,316	273,92
511,517	472,57
511,718	355,83
511,92	361,98
512,121	431,61
512,322	390,65
512,524	464,38
512,725	439,8
512,926	400,89
513,127	366,07
513,329	505,34
513,53	368,12
513,731	437,75
513,932	478,71
514,133	364,03
514,334	327,16
514,536	472,57
514,737	454,14
514,938	351,74
515,139	464,38
515,34	423,42
515,541	570,87
515,742	404,99
515,943	437,75
516,144	478,71
516,345	407,03
516,546	450,04
516,747	472,57
516,948	486,9
517,149	396,79
517,35	404,99
517,551	339,45
517,752	456,19
517,953	468,47
518,154	364,03
518,355	593,4
518,556	413,18
518,756	384,51
518,957	437,75
519,158	519,67
519,359	400,89
519,56	445,95
519,761	413,18
519,961	439,8
520,162	544,25
520,363	339,45
520,564	318,97
520,764	503,29
520,965	396,79
521,166	527,86
521,366	445,95
521,567	376,31
521,768	445,95
521,968	407,03
522,169	462,33
522,37	347,64
522,57	341,5
522,771	433,66
522,972	314,88
523,172	534,01
523,373	282,11
523,573	308,73
523,774	327,16
523,974	464,38
524,175	331,26
524,375	390,65
524,576	400,89
524,776	450,04
524,977	404,99
525,177	439,8
525,378	396,79
525,578	437,75
525,778	419,32
525,979	429,56
526,179	386,55
526,38	396,79
526,58	388,6
526,78	357,88
526,981	515,58
527,181	390,65
527,381	390,65
527,582	503,29
527,782	439,8
527,982	425,47
528,182	384,51
528,383	431,61
528,583	374,27
528,783	433,66
528,983	421,37
529,183	298,49
529,384	316,92
529,584	364,03
529,784	519,67
529,984	411,13
530,184	404,99
530,384	382,46
530,584	341,5
530,784	337,4
530,984	323,07
531,185	488,95
531,385	339,45
531,585	429,56
531,785	392,7
531,985	347,64
532,185	364,03
532,385	349,69
532,585	445,95
532,785	368,12
532,984	382,46
533,184	380,41
533,384	382,46
533,584	286,2
533,784	400,89
533,984	445,95
534,184	331,26
534,384	368,12
534,583	488,95
534,783	366,07
534,983	392,7
535,183	421,37
535,383	331,26
535,582	368,12
535,782	423,42
535,982	527,86
536,182	396,79
536,381	407,03
536,581	359,93
536,781	519,67
536,98	429,56
537,18	359,93
537,38	445,95
537,579	470,52
537,779	366,07
537,979	388,6
538,178	337,4
538,378	480,76
538,577	384,51
538,777	454,14
538,976	404,99
539,176	544,25
539,376	400,89
539,575	372,22
539,774	503,29
539,974	345,59
540,173	581,11
540,373	476,66
540,572	429,56
540,772	464,38
540,971	339,45
541,171	472,57
541,37	409,08
541,569	380,41
541,769	452,09
541,968	404,99
542,167	392,7
542,367	404,99
542,566	331,26
542,765	423,42
542,965	460,28
543,164	593,4
543,363	470,52
543,562	511,48
543,761	568,82
543,961	726,52
544,16	1267,18
544,359	3390,92
544,558	6643,1
544,757	11439,44
544,957	17378,55
545,156	24652,94
545,355	33018,89
545,554	40426,39
545,753	48481,05
545,952	53390,03
546,151	57916,04
546,35	59042,43
546,549	56687,26
546,748	53195,48
546,947	47498,03
547,146	41446,28
547,345	34288,63
547,544	27970,65
547,743	22129,84
547,942	16178,44
548,141	11556,18
548,34	7204,24
548,539	4371,9
548,738	2577,88
548,937	1744,36
549,135	1248,75
549,334	962,03
549,533	759,28
549,732	675,32
549,931	564,73
550,13	581,11
550,328	519,67
550,527	423,42
550,726	507,38
550,925	415,23
551,123	570,87
551,322	404,99
551,521	507,38
551,72	445,95
551,918	392,7
552,117	384,51
552,315	372,22
552,514	357,88
552,713	407,03
552,911	355,83
553,11	265,72
553,309	454,14
553,507	347,64
553,706	314,88
553,904	359,93
554,103	331,26
554,301	396,79
554,5	273,92
554,698	396,79
554,897	216,57
555,095	431,61
555,294	216,57
555,492	310,78
555,69	402,94
555,889	206,33
556,087	419,32
556,286	409,08
556,484	300,54
556,682	267,77
556,881	232,96
557,079	323,07
557,277	323,07
557,476	323,07
557,674	292,35
557,872	284,16
558,07	282,11
558,269	251,39
558,467	323,07
558,665	372,22
558,863	280,06
559,062	282,11
559,26	232,96
559,458	134,65
559,656	255,48
559,854	310,78
560,052	208,38
560,25	331,26
560,449	456,19
560,647	278,01
560,845	200,19
561,043	290,3
561,241	273,92
561,439	380,41
561,637	239,1
561,835	245,24
562,033	314,88
562,231	232,96
562,429	347,64
562,627	284,16
562,825	185,85
563,023	341,5
563,221	251,39
563,418	257,53
563,616	224,76
563,814	396,79
564,012	294,4
564,21	249,34
564,408	331,26
564,605	306,68
564,803	130,56
565,001	458,23
565,199	265,72
565,397	265,72
565,594	398,84
565,792	257,53
565,99	290,3
566,188	364,03
566,385	349,69
566,583	310,78
566,781	329,21
566,978	380,41
567,176	368,12
567,373	398,84
567,571	347,64
567,769	333,31
567,966	224,76
568,164	347,64
568,361	275,96
568,559	304,64
568,756	339,45
568,954	284,16
569,151	364,03
569,349	454,14
569,546	177,66
569,744	333,31
569,941	388,6
570,139	290,3
570,336	265,72
570,534	331,26
570,731	312,83
570,928	243,2
571,126	374,27
571,323	306,68
571,52	237,05
571,718	269,82
571,915	357,88
572,112	275,96
572,31	368,12
572,507	286,2
572,704	245,24
572,901	292,35
573,099	321,02
573,296	386,55
573,493	282,11
573,69	327,16
573,887	249,34
574,085	462,33
574,282	351,74
574,479	374,27
574,676	394,75
574,873	331,26
575,07	413,18
575,267	640,5
575,464	847,35
575,661	1496,55
575,858	2039,26
576,055	2977,23
576,252	3894,72
576,449	4732,34
576,646	5559,72
576,843	6000,04
577,04	6632,86
577,237	6542,75
577,434	6976,92
577,631	6823,32
577,828	6714,78
578,025	6933,91
578,222	7302,54
578,419	7908,74
578,615	8113,54
578,812	8359,3
579,009	8246,66
579,206	8156,55
579,403	7875,98
579,599	7171,47
579,796	6428,06
579,993	5821,86
580,19	4976,05
580,386	4343,23
580,583	3771,85
580,78	3053,01
580,976	2473,43
581,173	1873,38
581,37	1334,76
581,566	962,03
581,763	644,6
581,96	454,14
582,156	488,95
582,353	439,8
582,549	486,9
582,746	388,6
582,942	325,12
583,139	402,94
583,335	306,68
583,532	351,74
583,728	288,25
583,925	355,83
584,121	325,12
584,318	421,37
584,514	364,03
584,711	380,41
584,907	325,12
585,103	343,55
585,3	359,93
585,496	347,64
585,693	306,68
585,889	353,79
586,085	300,54
586,281	497,14
586,478	458,23
586,674	364,03
586,87	372,22
587,067	355,83
587,263	380,41
587,459	404,99
587,655	343,55
587,851	509,43
588,048	495,1
588,244	321,02
588,44	443,9
588,636	372,22
588,832	445,95
589,028	493,05
589,224	372,22
589,42	357,88
589,617	413,18
589,813	404,99
590,009	273,92
590,205	525,82
590,401	431,61
590,597	335,35
590,793	327,16
590,989	325,12
591,185	486,9
591,38	282,11
591,576	251,39
591,772	388,6
591,968	376,31
592,164	351,74
592,36	384,51
592,556	314,88
592,752	380,41
592,948	300,54
593,143	302,59
593,339	232,96
593,535	308,73
593,731	347,64
593,926	486,9
594,122	316,92
594,318	314,88
594,514	366,07
594,709	349,69
594,905	343,55
595,101	290,3
595,296	284,16
595,492	470,52
595,688	392,7
595,883	384,51
596,079	306,68
596,275	253,44
596,47	310,78
596,666	290,3
596,861	269,82
597,057	290,3
597,252	296,44
597,448	243,2
597,643	306,68
597,839	306,68
598,034	300,54
598,23	304,64
598,425	341,5
598,621	380,41
598,816	382,46
599,011	318,97
599,207	341,5
599,402	243,2
599,597	466,42
599,793	439,8
599,988	437,75
600,183	392,7
600,379	407,03
600,574	282,11
600,769	417,27
600,965	439,8
601,16	376,31
601,355	318,97
601,55	388,6
601,745	388,6
601,941	392,7
602,136	429,56
602,331	327,16
602,526	286,2
602,721	321,02
602,916	396,79
603,111	296,44
603,307	249,34
603,502	382,46
603,697	284,16
603,892	374,27
604,087	327,16
604,282	374,27
604,477	374,27
604,672	251,39
604,867	380,41
605,062	339,45
605,257	364,03
605,452	404,99
605,646	357,88
605,841	298,49
606,036	298,49
606,231	273,92
606,426	357,88
606,621	169,47
606,816	275,96
607,01	404,99
607,205	331,26
607,4	224,76
607,595	294,4
607,79	331,26
607,984	294,4
608,179	249,34
608,374	226,81
608,569	247,29
608,763	208,38
608,958	103,93
609,153	290,3
609,347	284,16
609,542	255,48
609,736	273,92
609,931	187,9
610,126	175,61
610,32	212,48
610,515	140,8
610,709	433,66
610,904	273,92
611,098	200,19
611,293	130,56
611,487	200,19
611,682	167,42
611,876	175,61
612,071	255,48
612,265	222,72
612,46	202,24
612,654	232,96
612,848	132,61
613,043	175,61
613,237	175,61
613,432	126,46
613,626	79,36
613,82	183,81
614,014	292,35
614,209	151,04
614,403	93,69
614,597	200,19
614,792	165,37
614,986	128,51
615,18	185,85
615,374	155,13
615,568	185,85
615,763	128,51
615,957	210,43
616,151	226,81
616,345	171,52
616,539	144,89
616,733	169,47
616,927	110,08
617,121	146,94
617,316	185,85
617,51	110,08
617,704	167,42
617,898	314,88
618,092	105,98
618,286	161,28
618,48	52,74
618,674	122,37
618,868	194,05
619,061	126,46
619,255	196,09
619,449	142,85
619,643	85,5
619,837	226,81
620,031	110,08
620,225	249,34
620,419	151,04
620,612	212,48
620,806	222,72
621	232,96
621,194	187,9
621,388	167,42
621,581	163,33
621,775	161,28
621,969	224,76
622,162	142,85
622,356	202,24
622,55	253,44
622,743	120,32
622,937	122,37
623,131	157,18
623,324	202,24
623,518	200,19
623,712	183,81
623,905	206,33
624,099	232,96
624,292	142,85
624,486	142,85
624,679	151,04
624,873	185,85
625,066	253,44
625,26	196,09
625,453	122,37
625,647	103,93
625,84	192
626,034	212,48
626,227	157,18
626,42	204,28
626,614	155,13
626,807	206,33
627	167,42
627,194	161,28
627,387	194,05
627,58	83,45
627,774	148,99
627,967	200,19
628,16	253,44
628,353	114,17
628,547	181,76
628,74	243,2
628,933	159,23
629,126	169,47
629,319	138,75
629,513	161,28
629,706	126,46
629,899	284,16
630,092	204,28
630,285	114,17
630,478	251,39
630,671	206,33
630,864	200,19
631,057	241,15
631,25	267,77
631,443	200,19
631,636	216,57
631,829	179,71
632,022	220,67
632,215	273,92
632,408	128,51
632,601	226,81
632,794	224,76
632,987	169,47
633,18	220,67
633,373	155,13
633,566	216,57
633,758	116,22
633,951	224,76
634,144	208,38
634,337	118,27
634,53	249,34
634,722	337,4
634,915	171,52
635,108	192
635,301	206,33
635,493	265,72
635,686	357,88
635,879	214,52
636,071	130,56
636,264	273,92
636,457	366,07
636,649	224,76
636,842	261,63
637,034	421,37
637,227	345,59
637,42	331,26
637,612	265,72
637,805	212,48
637,997	359,93
638,19	306,68
638,382	249,34
638,575	237,05
638,767	341,5
638,96	310,78
639,152	314,88
639,344	275,96
639,537	206,33
639,729	290,3
639,922	228,86
640,114	245,24
640,306	255,48
640,499	331,26
640,691	181,76
640,883	208,38
641,075	183,81
641,268	298,49
641,46	253,44
641,652	257,53
641,844	212,48
642,037	167,42
642,229	333,31
642,421	331,26
642,613	249,34
642,805	267,77
642,998	232,96
643,19	249,34
643,382	429,56
643,574	335,35
643,766	335,35
643,958	400,89
644,15	513,53
644,342	517,62
644,534	441,85
644,726	327,16
644,918	454,14
645,11	359,93
645,302	413,18
645,494	458,23
645,686	396,79
645,878	376,31
646,07	560,63
646,262	368,12
646,453	337,4
646,645	404,99
646,837	374,27
647,029	454,14
647,221	364,03
647,413	323,07
647,604	368,12
647,796	361,98
647,988	341,5
648,18	304,64
648,371	364,03
648,563	294,4
648,755	300,54
648,947	308,73
649,138	359,93
649,33	269,82
649,521	235
649,713	308,73
649,905	306,68
650,096	318,97
650,288	300,54
650,479	249,34
650,671	372,22
650,863	407,03
651,054	384,51
651,246	458,23
651,437	441,85
651,629	521,72
651,82	515,58
652,011	445,95
652,203	495,1
652,394	478,71
652,586	429,56
652,777	513,53
652,968	439,8
653,16	396,79
653,351	480,76
653,542	470,52
653,734	429,56
653,925	409,08
654,116	495,1
654,308	376,31
654,499	292,35
654,69	364,03
654,881	470,52
655,073	302,59
655,264	359,93
655,455	357,88
655,646	339,45
655,837	292,35
656,028	347,64
656,219	273,92
656,411	282,11
656,602	380,41
656,793	355,83
656,984	396,79
657,175	323,07
657,366	337,4
657,557	417,27
657,748	259,58
657,939	286,2
658,13	286,2
658,321	396,79
658,512	323,07
658,703	462,33
658,894	466,42
659,084	407,03
659,275	355,83
659,466	472,57
659,657	491
659,848	435,71
660,039	417,27
660,23	404,99
660,42	325,12
660,611	437,75
660,802	427,51
660,993	372,22
661,183	460,28
661,374	419,32
661,565	513,53
661,755	431,61
661,946	351,74
662,137	310,78
662,327	335,35
662,518	372,22
662,709	306,68
662,899	196,09
663,09	286,2
663,28	241,15
663,471	218,62
663,662	345,59
663,852	298,49
664,043	310,78
664,233	216,57
664,424	294,4
664,614	204,28
664,804	200,19
664,995	331,26
665,185	271,87
665,376	161,28
665,566	253,44
665,756	179,71
665,947	265,72
666,137	232,96
666,328	421,37
666,518	323,07
666,708	349,69
666,898	216,57
667,089	347,64
667,279	312,83
667,469	306,68
667,659	347,64
667,85	472,57
668,04	327,16
668,23	341,5
668,42	302,59
668,61	271,87
668,8	355,83
668,991	294,4
669,181	380,41
669,371	337,4
669,561	282,11
669,751	288,25
669,941	349,69
670,131	400,89
670,321	382,46
670,511	253,44
670,701	302,59
670,891	273,92
671,081	224,76
671,271	228,86
671,461	241,15
671,651	208,38
671,841	241,15
672,03	314,88
672,22	159,23
672,41	267,77
672,6	235
672,79	192
672,98	142,85
673,169	134,65
673,359	189,95
673,549	224,76
673,739	161,28
673,928	177,66
674,118	183,81
674,308	179,71
674,497	216,57
674,687	271,87
674,877	222,72
675,066	97,79
675,256	249,34
675,446	273,92
675,635	257,53
675,825	212,48
676,014	312,83
676,204	273,92
676,393	275,96
676,583	364,03
676,772	400,89
676,962	273,92
677,151	280,06
677,341	159,23
677,53	282,11
677,72	308,73
677,909	341,5
678,099	220,67
678,288	196,09
678,477	253,44
678,667	261,63
678,856	290,3
679,045	224,76
679,235	265,72
679,424	232,96
679,613	259,58
679,802	226,81
679,992	142,85
680,181	192
680,37	210,43
680,559	151,04
680,748	189,95
680,938	159,23
681,127	93,69
681,316	118,27
681,505	177,66
681,694	73,21
681,883	112,13
682,072	71,17
682,261	148,99
682,45	3,58
682,639	60,93
682,828	56,83
683,017	128,51
683,206	169,47
683,395	167,42
683,584	243,2
683,773	134,65
683,962	128,51
684,151	93,69
684,34	122,37
684,529	183,81
684,718	159,23
684,907	71,17
685,095	155,13
685,284	204,28
685,473	60,93
685,662	73,21
685,851	204,28
686,039	91,65
686,228	118,27
686,417	36,35
686,606	249,34
686,794	175,61
686,983	-10,75
687,172	130,56
687,36	73,21
687,549	56,83
687,738	105,98
687,926	48,64
688,115	101,89
688,303	126,46
688,492	126,46
688,68	54,78
688,869	19,97
689,057	103,93
689,246	-14,85
689,434	130,56
689,623	52,74
689,811	138,75
690	60,93
690,188	105,98
690,377	85,5
690,565	183,81
690,753	282,11
690,942	212,48
691,13	144,89
691,318	157,18
691,507	44,54
691,695	169,47
691,883	36,35
692,072	134,65
692,26	101,89
692,448	126,46
692,636	54,78
692,824	26,11
693,013	130,56
693,201	114,17
693,389	52,74
693,577	81,41
693,765	120,32
693,953	77,31
694,141	7,68
694,329	28,16
694,518	103,93
694,706	105,98
694,894	118,27
695,082	-2,56
695,27	120,32
695,458	189,95
695,646	171,52
695,834	194,05
696,022	177,66
696,209	241,15
696,397	257,53
696,585	208,38
696,773	243,2
696,961	288,25
697,149	175,61
697,337	265,72
697,525	235
697,712	134,65
697,9	241,15
698,088	187,9
698,276	187,9
698,463	134,65
698,651	175,61
698,839	122,37
699,027	153,09
699,214	202,24
699,402	69,12
699,59	85,5
699,777	48,64
699,965	112,13
700,152	79,36
700,34	30,21
700,528	-33,28
700,715	93,69
700,903	134,65
701,09	110,08
701,278	155,13
701,465	112,13
701,653	3,58
701,84	54,78
702,028	101,89
702,215	95,74
702,402	46,59
702,59	95,74
702,777	77,31
702,965	3,58
703,152	101,89
703,339	167,42
703,527	69,12
703,714	22,02
703,901	60,93
704,088	138,75
704,276	85,5
704,463	103,93
704,65	54,78
704,837	54,78
705,025	140,8
705,212	132,61
705,399	95,74
705,586	62,98
705,773	54,78
705,96	36,35
706,147	101,89
706,335	87,55
706,522	138,75
706,709	167,42
706,896	97,79
707,083	134,65
707,27	144,89
707,457	202,24
707,644	87,55
707,831	155,13
708,018	60,93
708,205	118,27
708,392	204,28
708,578	134,65
708,765	85,5
708,952	67,07
709,139	112,13
709,326	103,93
709,513	89,6
709,7	69,12
709,886	151,04
710,073	185,85
710,26	183,81
710,447	69,12
710,633	79,36
710,82	110,08
711,007	28,16
711,193	52,74
711,38	110,08
711,567	87,55
711,753	93,69
711,94	48,64
712,127	202,24
712,313	118,27
712,5	54,78
712,686	38,4
712,873	60,93
713,059	73,21
713,246	101,89
713,432	44,54
713,619	77,31
713,805	34,3
713,992	175,61
714,178	60,93
714,365	85,5
714,551	155,13
714,737	13,82
714,924	-12,8
715,11	112,13
715,297	13,82
715,483	19,97
715,669	81,41
715,855	114,17
716,042	87,55
716,228	60,93
716,414	105,98
716,6	126,46
716,787	95,74
716,973	79,36
717,159	142,85
717,345	81,41
717,531	-33,28
717,718	122,37
717,904	69,12
718,09	120,32
718,276	60,93
718,462	22,02
718,648	73,21
718,834	73,21
719,02	101,89
719,206	112,13
719,392	22,02
719,578	22,02
719,764	112,13
719,95	110,08
720,136	259,58
720,322	126,46
720,508	87,55
720,694	105,98
720,879	1,54
721,065	183,81
721,251	30,21
721,437	56,83
721,623	89,6
721,809	136,7
721,994	146,94
722,18	101,89
722,366	144,89
722,552	105,98
722,737	130,56
722,923	62,98
723,109	126,46
723,294	169,47
723,48	136,7
723,666	216,57
723,851	112,13
724,037	187,9
724,222	183,81
724,408	142,85
724,593	185,85
724,779	83,45
724,965	30,21
725,15	95,74
725,336	153,09
725,521	232,96
725,706	118,27
725,892	128,51
726,077	175,61
726,263	187,9
726,448	183,81
726,634	232,96
726,819	198,14
727,004	245,24
727,19	235
727,375	202,24
727,56	138,75
727,745	77,31
727,931	273,92
728,116	110,08
728,301	181,76
728,486	148,99
728,672	130,56
728,857	93,69
729,042	110,08
729,227	134,65
729,412	124,41
729,597	71,17
729,783	110,08
729,968	142,85
730,153	110,08
730,338	171,52
730,523	77,31
730,708	77,31
730,893	153,09
731,078	62,98
731,263	132,61
731,448	93,69
731,633	93,69
731,818	73,21
732,003	122,37
732,187	38,4
732,372	93,69
732,557	97,79
732,742	108,03
732,927	32,26
733,112	146,94
733,297	73,21
733,481	159,23
733,666	179,71
733,851	144,89
734,036	112,13
734,22	126,46
734,405	288,25
734,59	151,04
734,774	189,95
734,959	228,86
735,144	167,42
735,328	134,65
735,513	87,55
735,698	130,56
735,882	163,33
736,067	284,16
736,251	167,42
736,436	241,15
736,62	192
736,805	212,48
736,989	228,86
737,174	93,69
737,358	171,52
737,543	294,4
737,727	282,11
737,911	355,83
738,096	241,15
738,28	390,65
738,465	280,06
738,649	347,64
738,833	314,88
739,018	232,96
739,202	226,81
739,386	138,75
739,57	198,14
739,755	208,38
739,939	241,15
740,123	91,65
740,307	183,81
740,491	155,13
740,676	44,54
740,86	161,28
741,044	165,37
741,228	138,75
741,412	67,07
741,596	56,83
741,78	38,4
741,964	118,27
742,148	69,12
742,332	79,36
742,516	-0,51
742,7	192
742,884	108,03
743,068	126,46
743,252	200,19
743,436	110,08
743,62	1,54
743,804	290,3
743,988	235
744,172	169,47
744,356	183,81
744,539	163,33
744,723	87,55
744,907	194,05
745,091	253,44
745,275	179,71
745,458	235
745,642	261,63
745,826	208,38
746,009	298,49
746,193	296,44
746,377	257,53
746,56	290,3
746,744	390,65
746,928	220,67
747,111	265,72
747,295	298,49
747,478	259,58
747,662	183,81
747,846	196,09
748,029	249,34
748,213	263,68
748,396	275,96
748,58	200,19
748,763	298,49
748,946	159,23
749,13	163,33
749,313	228,86
749,497	331,26
749,68	245,24
749,863	423,42
750,047	286,2
750,23	347,64
750,413	310,78
750,597	454,14
750,78	339,45
750,963	445,95
751,146	335,35
751,33	347,64
751,513	390,65
751,696	382,46
751,879	364,03
752,062	179,71
752,246	273,92
752,429	263,68
752,612	216,57
752,795	226,81
752,978	142,85
753,161	142,85
753,344	85,5
753,527	194,05
753,71	136,7
753,893	62,98
754,076	89,6
754,259	112,13
754,442	-0,51
754,625	5,63
754,808	81,41
754,991	159,23
755,174	30,21
755,357	71,17
755,539	24,06
755,722	151,04
755,905	122,37
756,088	87,55
756,271	136,7
756,453	165,37
756,636	75,26
756,819	161,28
757,002	15,87
757,184	273,92
757,367	161,28
757,55	177,66
757,732	216,57
757,915	151,04
758,098	136,7
758,28	153,09
758,463	120,32
758,645	144,89
758,828	224,76
759,011	245,24
759,193	284,16
759,376	278,01
759,558	62,98
759,741	210,43
759,923	52,74
760,105	216,57
760,288	179,71
760,47	151,04
760,653	118,27
760,835	56,83
761,017	183,81
761,2	142,85
761,382	335,35
761,564	183,81
761,747	278,01
761,929	126,46
762,111	138,75
762,294	216,57
762,476	456,19
762,658	491
762,84	589,3
763,022	726,52
763,205	781,81
763,387	929,27
763,569	855,54
763,751	839,16
763,933	720,37
764,115	658,93
764,297	693,75
764,479	601,59
764,661	536,06
764,843	511,48
765,025	390,65
765,207	316,92
765,389	275,96
765,571	214,52
765,753	306,68
765,935	339,45
766,117	226,81
766,299	355,83
766,481	316,92
766,663	108,03
766,845	138,75
767,026	134,65
767,208	144,89
767,39	95,74
767,572	22,02
767,753	130,56
767,935	81,41
768,117	69,12
768,299	138,75
768,48	134,65
768,662	220,67
768,844	122,37
769,025	282,11
769,207	151,04
769,389	89,6
769,57	175,61
769,752	241,15
769,933	216,57
770,115	257,53
770,296	226,81
770,478	355,83
770,659	93,69
770,841	421,37
771,022	196,09
771,204	216,57
771,385	343,55
771,567	327,16
771,748	452,09
771,929	388,6
772,111	370,17
772,292	458,23
772,473	472,57
772,655	529,91
772,836	456,19
773,017	507,38
773,199	462,33
773,38	407,03
773,561	273,92
773,742	282,11
773,923	257,53
774,105	398,84
774,286	310,78
774,467	251,39
774,648	265,72
774,829	241,15
775,01	142,85
775,191	120,32
775,372	198,14
775,553	259,58
775,734	153,09
775,915	95,74
776,096	142,85
776,277	187,9
776,458	275,96
776,639	484,86
776,82	568,82
777,001	570,87
777,182	622,07
777,363	585,21
777,544	734,71
777,725	749,04
777,906	572,92
778,086	507,38
778,267	445,95
778,448	302,59
778,629	212,48
778,809	290,3
778,99	138,75
779,171	136,7
779,352	151,04
779,532	48,64
779,713	151,04
779,894	171,52
780,074	226,81
780,255	163,33
780,435	159,23
780,616	155,13
780,797	155,13
780,977	15,87
781,158	17,92
781,338	36,35
781,519	-37,38
781,699	208,38
781,88	120,32
782,06	103,93
782,241	-43,52
782,421	-92,67
782,601	11,78
782,782	60,93
782,962	126,46
783,142	-4,61
783,323	52,74
783,503	36,35
783,683	52,74
783,864	112,13
784,044	122,37
784,224	134,65
784,404	-18,94
784,585	89,6
784,765	93,69
784,945	130,56
785,125	-20,99
785,305	67,07
785,485	110,08
785,666	79,36
785,846	95,74
786,026	142,85
786,206	40,45
786,386	19,97
786,566	112,13
786,746	60,93
786,926	97,79
787,106	46,59
787,286	28,16
787,466	-8,7
787,646	77,31
787,826	32,26
788,006	101,89
788,185	5,63
788,365	-41,47
788,545	75,26
788,725	-37,38
788,905	146,94
789,085	5,63
789,264	67,07
789,444	44,54
789,624	118,27
789,804	36,35
789,983	11,78
790,163	-43,52
790,343	52,74
790,522	28,16
790,702	85,5
790,882	13,82
791,061	171,52
791,241	19,97
791,42	81,41
791,6	142,85
791,78	-0,51
791,959	-0,51
792,139	-35,33
792,318	60,93
792,498	50,69
792,677	112,13
792,856	-0,51
793,036	-2,56
793,215	52,74
793,395	101,89
793,574	44,54
793,753	36,35
793,933	159,23
794,112	183,81
794,291	194,05
794,471	241,15
794,65	148,99
794,829	89,6
795,008	103,93
795,188	257,53
795,367	249,34
795,546	185,85
795,725	36,35
795,904	175,61
796,084	36,35
796,263	38,4
796,442	134,65
796,621	36,35
796,8	169,47
796,979	44,54
797,158	11,78
797,337	5,63
797,516	36,35
797,695	118,27
797,874	93,69
798,053	69,12
798,232	69,12
798,411	-4,61
798,59	-49,66
798,769	-119,29
798,947	-27,14
799,126	77,31
799,305	44,54
799,484	30,21
799,663	-4,61
799,842	194,05
800,02	77,31
800,199	36,35
800,378	167,42
800,557	69,12
800,735	122,37
800,914	144,89
801,093	232,96
801,271	290,3
801,45	310,78
801,628	284,16
801,807	110,08
801,986	136,7
802,164	62,98
802,343	77,31
802,521	15,87
802,7	101,89
802,878	103,93
803,057	103,93
803,235	48,64
803,414	126,46
803,592	71,17
803,771	44,54
803,949	38,4
804,127	-12,8
804,306	110,08
804,484	5,63
804,662	44,54
804,841	-25,09
805,019	50,69
805,197	28,16
805,375	32,26
805,554	-94,72
805,732	-27,14
805,91	87,55
806,088	1,54
806,266	-27,14
806,445	-59,9
806,623	60,93
806,801	71,17
806,979	77,31
807,157	32,26
807,335	-61,95
807,513	-37,38
807,691	73,21
807,869	-20,99
808,047	36,35
808,225	-86,53
808,403	-4,61
808,581	-20,99
808,759	38,4
808,937	34,3
809,115	128,51
809,293	138,75
809,471	19,97
809,649	120,32
809,826	200,19
810,004	189,95
810,182	142,85
810,36	175,61
810,538	382,46
810,715	366,07
810,893	466,42
811,071	488,95
811,248	617,97
811,426	585,21
811,604	716,28
811,781	486,9
811,959	552,44
812,137	396,79
812,314	208,38
812,492	275,96
812,669	286,2
812,847	103,93
813,024	155,13
813,202	275,96
813,379	101,89
813,557	136,7
813,734	214,52
813,912	187,9
814,089	69,12
814,267	175,61
814,444	142,85
814,621	169,47
814,799	97,79
814,976	105,98
815,153	101,89
815,331	36,35
815,508	77,31
815,685	-10,75
815,862	97,79
816,04	32,26
816,217	-12,8
816,394	-43,52
816,571	54,78
816,748	93,69
816,926	101,89
817,103	249,34
817,28	3,58
817,457	7,68
817,634	136,7
817,811	-51,71
817,988	118,27
818,165	38,4
818,342	42,5
818,519	-4,61
818,696	44,54
818,873	13,82
819,05	79,36
819,227	-53,76
819,404	-43,52
819,581	50,69
819,758	-33,28
819,934	65,02
820,111	-51,71
820,288	-55,81
820,465	7,68
820,642	1,54
820,818	134,65
820,995	-8,7
821,172	-12,8
821,349	-14,85
821,525	-18,94
821,702	15,87
821,879	24,06
822,055	40,45
822,232	-27,14
822,409	30,21
822,585	126,46
822,762	30,21
822,938	52,74
823,115	-35,33
823,291	-51,71
823,468	108,03
823,644	-25,09
823,821	132,61
823,997	28,16
824,174	-68,09
824,35	-16,9
824,527	60,93
824,703	44,54
824,879	-27,14
825,056	-39,42
825,232	126,46
825,408	40,45
825,585	38,4
825,761	38,4
825,937	52,74
826,113	24,06
826,29	95,74
826,466	-53,76
826,642	462,33
826,818	73,21
826,994	13,82
827,17	-8,7
827,347	-61,95
827,523	-35,33
827,699	71,17
827,875	7,68
828,051	101,89
828,227	44,54
828,403	118,27
828,579	101,89
828,755	60,93
828,931	32,26
829,107	65,02
829,283	69,12
829,459	-66,05
829,635	-43,52
829,811	19,97
829,986	-35,33
830,162	-2,56
830,338	-10,75
830,514	-12,8
830,69	-8,7
830,865	-59,9
831,041	36,35
831,217	-39,42
831,393	-74,24
831,568	36,35
831,744	75,26
831,92	5,63
832,095	-4,61
832,271	-43,52
832,447	79,36
832,622	36,35
832,798	-53,76
832,973	-16,9
833,149	5,63
833,325	-12,8
833,5	42,5
833,676	34,3
833,851	-18,94
834,027	-33,28
834,202	-16,9
834,377	42,5
834,553	-2,56
834,728	101,89
834,904	15,87
835,079	-59,9
835,254	-43,52
835,43	46,59
835,605	-53,76
835,78	-92,67
835,955	71,17
836,131	48,64
836,306	-94,72
836,481	32,26
836,656	52,74
836,832	13,82
837,007	-84,48
837,182	-70,14
837,357	56,83
837,532	-8,7
837,707	-57,86
837,882	101,89
838,057	81,41
838,232	19,97
838,407	-35,33
838,582	-37,38
838,757	3,58
838,932	-20,99
839,107	13,82
839,282	-33,28
839,457	69,12
839,632	126,46
839,807	24,06
839,982	-6,66
840,157	34,3
840,332	7,68
840,506	62,98
840,681	77,31
840,856	114,17
841,031	-16,9
841,205	54,78
841,38	116,22
841,555	130,56
841,73	161,28
841,904	52,74
842,079	83,45
842,254	110,08
842,428	79,36
842,603	126,46
842,777	87,55
842,952	56,83
843,126	-84,48
843,301	87,55
843,476	58,88
843,65	77,31
843,825	120,32
843,999	146,94
844,173	32,26
844,348	99,84
844,522	253,44
844,697	22,02
844,871	120,32
845,045	110,08
845,22	167,42
845,394	101,89
845,568	-39,42
845,743	120,32
845,917	19,97
846,091	36,35
846,265	71,17
846,44	118,27
846,614	71,17
846,788	5,63
846,962	19,97
847,136	85,5
847,31	44,54
847,485	159,23
847,659	-31,23
847,833	42,5
848,007	112,13
848,181	85,5
848,355	-80,38
848,529	36,35
848,703	114,17
848,877	11,78
849,051	110,08
849,225	-45,57
849,399	-0,51
849,573	-37,38
849,746	-37,38
849,92	19,97
850,094	19,97
850,268	15,87
850,442	24,06
850,616	32,26
850,789	-84,48
850,963	-35,33
851,137	-53,76
851,311	130,56
851,484	56,83
851,658	42,5
851,832	-27,14
852,005	11,78
852,179	52,74
852,352	-70,14
852,526	-18,94
852,7	65,02
852,873	19,97
853,047	54,78
853,22	65,02
853,394	-23,04
853,567	-2,56
853,741	-70,14
853,914	56,83
854,088	101,89
854,261	-0,51
854,434	-33,28
854,608	36,35
854,781	-20,99
854,955	30,21
855,128	85,5
855,301	-59,9
855,475	19,97
855,648	-35,33
855,821	11,78
855,994	54,78
856,168	-35,33
856,341	103,93
856,514	-90,62
856,687	28,16
856,86	-25,09
857,033	60,93
857,207	36,35
857,38	-78,33
857,553	173,57
857,726	69,12
857,899	13,82
858,072	-84,48
858,245	-98,81
858,418	-47,62
858,591	7,68
858,764	48,64
858,937	19,97
859,11	81,41
859,283	-57,86
859,455	-10,75
859,628	-37,38
859,801	110,08
859,974	26,11
860,147	-76,29
860,32	11,78
860,492	69,12
860,665	-20,99
860,838	22,02
861,011	46,59
861,183	44,54
861,356	114,17
861,529	52,74
861,701	-45,57
861,874	44,54
862,047	142,85
862,219	58,88
862,392	52,74
862,564	36,35
862,737	-12,8
862,909	44,54
863,082	26,11
863,254	24,06
863,427	11,78
863,599	22,02
863,772	-29,18
863,944	5,63
864,117	-86,53
864,289	46,59
864,461	-16,9
864,634	87,55
864,806	-2,56
864,978	38,4
865,151	60,93
865,323	60,93
865,495	89,6
865,667	3,58
865,84	161,28
866,012	-49,66
866,184	99,84
866,356	11,78
866,528	36,35
866,7	7,68
866,873	22,02
867,045	46,59
867,217	3,58
867,389	73,21
867,561	-18,94
867,733	60,93
867,905	-29,18
868,077	19,97
868,249	46,59
868,421	34,3
868,593	-10,75
868,765	165,37
868,936	-4,61
869,108	-20,99
869,28	118,27
869,452	65,02
869,624	-86,53
869,796	79,36
869,968	148,99
870,139	52,74
870,311	-4,61
870,483	83,45
870,654	-27,14
870,826	7,68
870,998	-31,23
871,17	93,69
871,341	-49,66
871,513	93,69
871,684	19,97
871,856	34,3
872,028	32,26
872,199	62,98
872,371	-90,62
872,542	67,07
872,714	-61,95
872,885	134,65
873,057	-4,61
873,228	48,64
873,4	77,31
873,571	138,75
873,742	32,26
873,914	36,35
874,085	11,78
874,256	85,5
874,428	-96,77
874,599	-12,8
874,77	-10,75
874,942	44,54
875,113	-37,38
875,284	-66,05
875,455	-72,19
875,626	69,12
875,798	-39,42
875,969	11,78
876,14	36,35
876,311	103,93
876,482	105,98
876,653	44,54
876,824	114,17
876,995	46,59
877,166	-29,18
877,337	9,73
877,508	-78,33
877,679	-29,18
877,85	-86,53
878,021	3,58
878,192	62,98
878,363	5,63
878,534	-43,52
878,705	-98,81
878,876	5,63
879,047	30,21
879,217	-10,75
879,388	65,02
879,559	-4,61
879,73	77,31
879,9	15,87
880,071	65,02
880,242	-2,56
880,413	-27,14
880,583	19,97
880,754	38,4
880,924	5,63
881,095	-27,14
881,266	-18,94
881,436	46,59
881,607	144,89
881,777	13,82
881,948	-119,29
882,118	44,54
882,289	-8,7
882,459	3,58
882,63	22,02
882,8	-45,57
882,971	120,32
883,141	-45,57
883,311	5,63
883,482	-0,51
883,652	44,54
883,822	-2,56
883,993	-33,28
884,163	112,13
884,333	-16,9
884,504	69,12
884,674	56,83
884,844	-8,7
885,014	-25,09
885,184	-47,62
885,355	-43,52
885,525	65,02
885,695	36,35
885,865	126,46
886,035	62,98
886,205	44,54
886,375	60,93
886,545	-20,99
886,715	-68,09
886,885	91,65
887,055	73,21
887,225	11,78
887,395	-12,8
887,565	175,61
887,735	9,73
887,905	79,36
888,075	89,6
888,244	69,12
888,414	60,93
888,584	30,21
888,754	19,97
888,924	15,87
889,093	220,67
889,263	5,63
889,433	28,16
889,603	60,93
889,772	46,59
889,942	103,93
890,111	52,74
890,281	81,41
890,451	-25,09
890,62	34,3
890,79	30,21
890,959	95,74
891,129	32,26
891,298	11,78
891,468	-12,8
891,637	60,93
891,807	28,16
891,976	28,16
892,146	-53,76
892,315	93,69
892,485	128,51
892,654	-35,33
892,823	36,35
892,993	-51,71
893,162	97,79
893,331	93,69
893,501	-18,94
893,67	54,78
893,839	-20,99
894,008	3,58
894,177	85,5
894,347	97,79
894,516	3,58
894,685	-16,9
894,854	9,73
895,023	48,64
895,192	-12,8
