Data from mercure_USB4F104161__10__11-31-53-528.txt Node

Date: Tue Apr 14 11:31:53 EDT 2026
User: LaboPhy
Spectrometer: USB4F10416
Trigger mode: 4
Integration Time (sec): 1,000000E-1
Scans to average: 1
Electric dark correction enabled: true
Nonlinearity correction enabled: false
Boxcar width: 0
XAxis mode: Wavelengths
Number of Pixels in Spectrum: 3648
>>>>>Begin Spectral Data<<<<<
177,847	-227,32
178,066	-227,32
178,284	-227,32
178,502	-147,45
178,72	-141,31
178,939	8,19
179,157	22,53
179,375	-18,43
179,593	112,64
179,812	-28,67
180,03	45,06
180,248	-2,05
180,466	-45,06
180,685	-2,05
180,903	-26,62
181,121	-61,44
181,339	-4,1
181,557	-34,82
181,775	-18,43
181,994	-61,44
182,212	30,72
182,43	-61,44
182,648	-28,67
182,866	-12,29
183,084	69,63
183,302	-20,48
183,52	-34,82
183,739	36,86
183,957	36,86
184,175	18,43
184,393	16,38
184,611	-26,62
184,829	-6,14
185,047	-53,25
185,265	16,38
185,483	20,48
185,701	6,14
185,919	55,3
186,137	-28,67
186,355	-12,29
186,573	-10,24
186,791	45,06
187,009	-8,19
187,227	12,29
187,445	-4,1
187,663	-12,29
187,881	-92,16
188,098	-8,19
188,316	38,91
188,534	137,21
188,752	12,29
188,97	-20,48
189,188	-12,29
189,406	102,4
189,624	71,68
189,841	-14,34
190,059	-157,69
190,277	30,72
190,495	40,96
190,713	-18,43
190,931	118,78
191,148	-40,96
191,366	-67,58
191,584	-4,1
191,802	-6,14
192,019	110,59
192,237	-4,1
192,455	61,44
192,673	53,25
192,89	12,29
193,108	40,96
193,326	-83,97
193,543	59,39
193,761	-59,39
193,979	-65,53
194,196	-81,92
194,414	22,53
194,632	47,1
194,849	-67,58
195,067	-34,82
195,285	22,53
195,502	-61,44
195,72	20,48
195,937	-12,29
196,155	-28,67
196,373	118,78
196,59	77,82
196,808	-18,43
197,025	55,3
197,243	208,89
197,46	71,68
197,678	24,58
197,895	86,01
198,113	104,45
198,33	-45,06
198,548	22,53
198,765	-92,16
198,983	12,29
199,2	-86,01
199,418	137,21
199,635	6,14
199,853	22,53
200,07	-20,48
200,288	38,91
200,505	-75,77
200,722	129,02
200,94	116,73
201,157	36,86
201,375	86,01
201,592	-79,87
201,809	83,97
202,027	86,01
202,244	18,43
202,461	10,24
202,679	22,53
202,896	71,68
203,113	-75,77
203,331	16,38
203,548	4,1
203,765	4,1
203,982	92,16
204,2	-34,82
204,417	38,91
204,634	176,13
204,851	69,63
205,069	-26,62
205,286	47,1
205,503	53,25
205,72	-16,38
205,937	20,48
206,155	-73,73
206,372	65,54
206,589	45,06
206,806	12,29
207,023	104,45
207,24	53,25
207,458	6,14
207,675	36,86
207,892	-12,29
208,109	-77,82
208,326	-36,86
208,543	-26,62
208,76	4,1
208,977	86,01
209,194	43,01
209,411	-4,1
209,628	8,19
209,845	28,67
210,062	20,48
210,279	-38,91
210,496	36,86
210,713	-40,96
210,93	-14,34
211,147	92,16
211,364	-69,63
211,581	30,72
211,798	112,64
212,015	-49,15
212,232	36,86
212,449	28,67
212,666	-118,78
212,883	-4,1
213,1	6,14
213,317	22,53
213,533	-4,1
213,75	-18,43
213,967	18,43
214,184	-116,73
214,401	-12,29
214,618	-81,92
214,835	-40,96
215,051	79,87
215,268	79,87
215,485	0
215,702	-12,29
215,919	4,1
216,135	143,36
216,352	6,14
216,569	40,96
216,786	57,34
217,002	38,91
217,219	77,82
217,436	-28,67
217,652	55,3
217,869	63,49
218,086	57,34
218,302	-10,24
218,519	110,59
218,736	32,77
218,952	16,38
219,169	12,29
219,386	22,53
219,602	20,48
219,819	24,58
220,036	4,1
220,252	88,06
220,469	-28,67
220,685	-104,45
220,902	-49,15
221,118	53,25
221,335	0
221,552	-26,62
221,768	69,63
221,985	-16,38
222,201	-18,43
222,418	69,63
222,634	-20,48
222,851	-26,62
223,067	-2,05
223,284	-32,77
223,5	28,67
223,716	-36,86
223,933	-12,29
224,149	45,06
224,366	14,34
224,582	-77,82
224,799	-61,44
225,015	-32,77
225,231	-12,29
225,448	20,48
225,664	63,49
225,88	-34,82
226,097	36,86
226,313	-53,25
226,529	-4,1
226,746	45,06
226,962	-43,01
227,178	24,58
227,395	-83,97
227,611	28,67
227,827	16,38
228,044	36,86
228,26	-12,29
228,476	63,49
228,692	114,69
228,909	47,1
229,125	-61,44
229,341	-83,97
229,557	-2,05
229,773	-143,36
229,99	61,44
230,206	-59,39
230,422	86,01
230,638	-57,34
230,854	40,96
231,07	-36,86
231,286	38,91
231,503	-51,2
231,719	-20,48
231,935	-12,29
232,151	6,14
232,367	79,87
232,583	22,53
232,799	28,67
233,015	-20,48
233,231	0
233,447	53,25
233,663	-120,83
233,879	14,34
234,095	-20,48
234,311	55,3
234,527	0
234,743	36,86
234,959	65,54
235,175	49,15
235,391	-20,48
235,607	14,34
235,823	20,48
236,039	-59,39
236,255	73,73
236,471	59,39
236,687	-4,1
236,903	77,82
237,118	8,19
237,334	36,86
237,55	8,19
237,766	-16,38
237,982	61,44
238,198	65,54
238,413	-4,1
238,629	4,1
238,845	-32,77
239,061	4,1
239,277	-8,19
239,492	8,19
239,708	-20,48
239,924	-30,72
240,14	20,48
240,355	184,32
240,571	4,1
240,787	0
241,003	47,1
241,218	-10,24
241,434	32,77
241,65	-32,77
241,865	-4,1
242,081	16,38
242,297	-131,07
242,512	-8,19
242,728	22,53
242,944	61,44
243,159	38,91
243,375	16,38
243,59	4,1
243,806	6,14
244,022	126,97
244,237	-18,43
244,453	24,58
244,668	98,3
244,884	126,97
245,099	6,14
245,315	28,67
245,53	32,77
245,746	51,2
245,961	53,25
246,177	-4,1
246,392	118,78
246,608	55,3
246,823	-4,1
247,039	45,06
247,254	-108,54
247,47	12,29
247,685	0
247,9	40,96
248,116	-20,48
248,331	-18,43
248,547	49,15
248,762	-73,73
248,977	63,49
249,193	22,53
249,408	-16,38
249,623	30,72
249,839	22,53
250,054	-51,2
250,269	45,06
250,485	-20,48
250,7	-2,05
250,915	20,48
251,13	45,06
251,346	-45,06
251,561	61,44
251,776	83,97
251,991	-81,92
252,207	83,97
252,422	-18,43
252,637	77,82
252,852	-57,34
253,067	12,29
253,283	59,39
253,498	94,21
253,713	6,14
253,928	-18,43
254,143	-2,05
254,358	-53,25
254,573	-61,44
254,788	-28,67
255,004	-40,96
255,219	-73,73
255,434	-8,19
255,649	-94,21
255,864	22,53
256,079	-16,38
256,294	-43,01
256,509	-57,34
256,724	28,67
256,939	-57,34
257,154	14,34
257,369	38,91
257,584	-36,86
257,799	53,25
258,014	-32,77
258,229	129,02
258,444	-4,1
258,659	43,01
258,874	86,01
259,089	126,97
259,304	-22,53
259,518	24,58
259,733	-18,43
259,948	38,91
260,163	45,06
260,378	126,97
260,593	-4,1
260,808	71,68
261,022	-92,16
261,237	88,06
261,452	45,06
261,667	-4,1
261,882	61,44
262,096	28,67
262,311	118,78
262,526	-61,44
262,741	22,53
262,955	-24,58
263,17	108,54
263,385	-2,05
263,6	-88,06
263,814	30,72
264,029	34,82
264,244	20,48
264,458	53,25
264,673	40,96
264,888	14,34
265,102	53,25
265,317	-28,67
265,532	-4,1
265,746	14,34
265,961	67,58
266,175	65,54
266,39	32,77
266,605	-38,91
266,819	69,63
267,034	26,62
267,248	-79,87
267,463	-49,15
267,677	12,29
267,892	20,48
268,106	-102,4
268,321	14,34
268,535	38,91
268,75	63,49
268,964	-55,3
269,179	77,82
269,393	57,34
269,608	-8,19
269,822	28,67
270,036	28,67
270,251	-28,67
270,465	47,1
270,68	22,53
270,894	104,45
271,108	163,84
271,323	-65,53
271,537	-12,29
271,752	-2,05
271,966	-79,87
272,18	-92,16
272,394	-30,72
272,609	73,73
272,823	22,53
273,037	-20,48
273,252	-4,1
273,466	55,3
273,68	120,83
273,894	16,38
274,109	-2,05
274,323	-4,1
274,537	20,48
274,751	-69,63
274,966	14,34
275,18	-73,73
275,394	-96,25
275,608	-86,01
275,822	-20,48
276,036	12,29
276,25	86,01
276,465	-20,48
276,679	24,58
276,893	-94,21
277,107	102,4
277,321	36,86
277,535	6,14
277,749	53,25
277,963	-20,48
278,177	-20,48
278,391	28,67
278,605	-53,25
278,819	-20,48
279,033	-100,35
279,247	28,67
279,461	94,21
279,675	6,14
279,889	30,72
280,103	24,58
280,317	81,92
280,531	-26,62
280,745	0
280,959	-45,06
281,173	63,49
281,387	22,53
281,601	77,82
281,815	69,63
282,029	-67,58
282,242	28,67
282,456	14,34
282,67	-18,43
282,884	16,38
283,098	36,86
283,312	-43,01
283,525	8,19
283,739	28,67
283,953	-75,77
284,167	34,82
284,381	0
284,594	0
284,808	-28,67
285,022	-36,86
285,235	-12,29
285,449	32,77
285,663	47,1
285,877	-77,82
286,09	-12,29
286,304	24,58
286,518	-34,82
286,731	-53,25
286,945	118,78
287,159	-65,53
287,372	-69,63
287,586	8,19
287,799	20,48
288,013	20,48
288,227	12,29
288,44	260,09
288,654	86,01
288,867	-20,48
289,081	-51,2
289,294	40,96
289,508	-8,19
289,721	-59,39
289,935	122,88
290,148	102,4
290,362	73,73
290,575	49,15
290,789	-38,91
291,002	77,82
291,216	63,49
291,429	28,67
291,643	6,14
291,856	-12,29
292,069	8,19
292,283	-36,86
292,496	-8,19
292,71	32,77
292,923	-12,29
293,136	-24,58
293,35	-49,15
293,563	-28,67
293,776	14,34
293,99	-2,05
294,203	-53,25
294,416	24,58
294,63	-36,86
294,843	129,02
295,056	71,68
295,269	-26,62
295,483	-57,34
295,696	30,72
295,909	22,53
296,122	26,62
296,335	-8,19
296,549	45,06
296,762	28,67
296,975	38,91
297,188	26,62
297,401	30,72
297,615	77,82
297,828	47,1
298,041	167,93
298,254	-75,77
298,467	53,25
298,68	36,86
298,893	53,25
299,106	-22,53
299,319	12,29
299,532	-4,1
299,745	-57,34
299,958	-86,01
300,171	-12,29
300,384	20,48
300,598	-88,06
300,81	45,06
301,023	4,1
301,236	-59,39
301,449	36,86
301,662	-2,05
301,875	-18,43
302,088	-45,06
302,301	-28,67
302,514	-40,96
302,727	8,19
302,94	79,87
303,153	6,14
303,366	57,34
303,579	-24,58
303,791	94,21
304,004	12,29
304,217	81,92
304,43	4,1
304,643	12,29
304,855	-59,39
305,068	94,21
305,281	69,63
305,494	32,77
305,707	14,34
305,919	163,84
306,132	-16,38
306,345	28,67
306,558	53,25
306,77	-45,06
306,983	14,34
307,196	61,44
307,408	32,77
307,621	120,83
307,834	4,1
308,046	106,49
308,259	20,48
308,472	94,21
308,684	172,03
308,897	20,48
309,109	-77,82
309,322	6,14
309,535	53,25
309,747	131,07
309,96	118,78
310,172	167,93
310,385	188,41
310,597	102,4
310,81	129,02
311,022	53,25
311,235	165,89
311,447	290,81
311,66	264,19
311,872	571,38
312,085	692,21
312,297	845,81
312,51	759,8
312,722	976,88
312,934	1142,77
313,147	1052,66
313,359	1110
313,572	1019,89
313,784	909,3
313,996	690,17
314,209	548,86
314,421	335,87
314,633	159,74
314,846	192,51
315,058	241,66
315,27	106,49
315,483	98,3
315,695	45,06
315,907	47,1
316,119	53,25
316,332	34,82
316,544	221,18
316,756	116,73
316,968	38,91
317,181	4,1
317,393	59,39
317,605	61,44
317,817	40,96
318,029	106,49
318,241	88,06
318,454	22,53
318,666	77,82
318,878	38,91
319,09	-61,44
319,302	71,68
319,514	110,59
319,726	0
319,938	151,55
320,15	143,36
320,362	102,4
320,574	40,96
320,786	-18,43
320,999	-108,54
321,211	120,83
321,423	90,11
321,635	-28,67
321,847	126,97
322,058	26,62
322,27	26,62
322,482	81,92
322,694	122,88
322,906	40,96
323,118	110,59
323,33	55,3
323,542	38,91
323,754	53,25
323,966	-118,78
324,178	98,3
324,389	98,3
324,601	96,25
324,813	22,53
325,025	12,29
325,237	79,87
325,449	110,59
325,66	28,67
325,872	30,72
326,084	-24,58
326,296	96,25
326,507	38,91
326,719	133,12
326,931	-18,43
327,143	135,17
327,354	139,26
327,566	77,82
327,778	131,07
327,989	102,4
328,201	20,48
328,413	118,78
328,624	131,07
328,836	49,15
329,048	16,38
329,259	145,41
329,471	57,34
329,682	36,86
329,894	129,02
330,106	-10,24
330,317	86,01
330,529	133,12
330,74	114,69
330,952	90,11
331,163	45,06
331,375	55,3
331,586	102,4
331,798	28,67
332,009	129,02
332,221	67,58
332,432	186,37
332,644	122,88
332,855	55,3
333,067	153,6
333,278	151,55
333,489	194,56
333,701	221,18
333,912	219,13
334,124	270,33
334,335	348,15
334,546	335,87
334,758	331,77
334,969	538,62
335,18	374,78
335,392	466,94
335,603	454,65
335,814	540,66
336,025	421,88
336,237	456,7
336,448	473,08
336,659	511,99
336,87	514,04
337,082	546,81
337,293	299
337,504	253,95
337,715	348,15
337,926	274,43
338,138	200,7
338,349	233,47
338,56	210,94
338,771	180,22
338,982	126,97
339,193	178,17
339,404	272,38
339,616	151,55
339,827	167,93
340,038	45,06
340,249	153,6
340,46	90,11
340,671	90,11
340,882	258,04
341,093	114,69
341,304	137,21
341,515	36,86
341,726	118,78
341,937	32,77
342,148	61,44
342,359	69,63
342,57	38,91
342,781	206,84
342,992	102,4
343,203	53,25
343,414	176,13
343,624	45,06
343,835	122,88
344,046	63,49
344,257	126,97
344,468	71,68
344,679	36,86
344,89	12,29
345,1	53,25
345,311	8,19
345,522	114,69
345,733	118,78
345,944	94,21
346,154	129,02
346,365	155,65
346,576	96,25
346,787	110,59
346,997	120,83
347,208	124,93
347,419	32,77
347,629	188,41
347,84	159,74
348,051	67,58
348,261	102,4
348,472	92,16
348,683	96,25
348,893	81,92
349,104	192,51
349,315	61,44
349,525	145,41
349,736	159,74
349,946	126,97
350,157	270,33
350,368	227,32
350,578	55,3
350,789	153,6
350,999	159,74
351,21	176,13
351,42	122,88
351,631	151,55
351,841	153,6
352,052	233,47
352,262	258,04
352,472	176,13
352,683	208,89
352,893	266,24
353,104	169,98
353,314	348,15
353,525	610,29
353,735	194,56
353,945	299
354,156	208,89
354,366	268,28
354,576	309,24
354,787	286,72
354,997	253,95
355,207	235,52
355,418	272,38
355,628	241,66
355,838	354,3
356,048	382,97
356,259	432,12
356,469	391,16
356,679	389,11
356,889	544,76
357,1	505,85
357,31	452,6
357,52	479,22
357,73	511,99
357,94	481,27
358,15	356,35
358,361	436,22
358,571	325,63
358,781	413,69
358,991	233,47
359,201	186,37
359,411	143,36
359,621	178,17
359,831	286,72
360,041	180,22
360,251	227,32
360,461	192,51
360,672	225,28
360,882	143,36
361,092	176,13
361,302	186,37
361,512	204,8
361,721	120,83
361,931	184,32
362,141	169,98
362,351	249,85
362,561	329,72
362,771	509,94
362,981	804,85
363,191	1322,99
363,401	2195,42
363,611	3219,41
363,821	4288,45
364,03	5705,64
364,24	7241,62
364,45	8888,18
364,66	11317,08
364,87	13233,97
365,08	14006,06
365,289	14470,95
365,499	13969,19
365,709	12103,5
365,919	10317,67
366,128	7896,97
366,338	6500,25
366,548	5091,25
366,758	4435,9
366,967	3403,72
367,177	2596,82
367,387	1865,7
367,596	1093,62
367,806	847,86
368,016	622,58
368,225	481,27
368,435	464,89
368,644	319,48
368,854	253,95
369,064	253,95
369,273	325,63
369,483	233,47
369,692	200,7
369,902	212,99
370,111	245,76
370,321	155,65
370,53	266,24
370,74	253,95
370,949	219,13
371,159	292,86
371,368	231,42
371,578	274,43
371,787	256
371,997	233,47
372,206	309,24
372,416	241,66
372,625	309,24
372,834	266,24
373,044	245,76
373,253	204,8
373,462	260,09
373,672	276,48
373,881	380,92
374,09	290,81
374,3	344,06
374,509	294,91
374,718	364,54
374,928	380,92
375,137	389,11
375,346	413,69
375,555	415,74
375,765	327,68
375,974	389,11
376,183	372,73
376,392	241,66
376,601	315,39
376,811	360,44
377,02	358,39
377,229	229,37
377,438	274,43
377,647	227,32
377,856	249,85
378,065	325,63
378,275	253,95
378,484	243,71
378,693	323,58
378,902	319,48
379,111	413,69
379,32	354,3
379,529	342,01
379,738	430,07
379,947	389,11
380,156	339,96
380,365	380,92
380,574	438,27
380,783	356,35
380,992	378,87
381,201	395,26
381,41	241,66
381,619	350,2
381,828	276,48
382,037	337,91
382,245	456,7
382,454	495,61
382,663	382,97
382,872	507,9
383,081	581,62
383,29	704,5
383,499	659,45
383,707	835,57
383,916	851,96
384,125	954,35
384,334	1009,65
384,542	1251,31
384,751	1282,03
384,96	1349,61
385,169	1505,26
385,377	1624,04
385,586	1671,14
385,795	2058,21
386,004	2043,87
386,212	2109,41
386,421	2527,19
386,63	2545,63
386,838	2797,53
387,047	2731,99
387,255	2766,81
387,464	2807,77
387,673	2695,13
387,881	2854,87
388,09	2822,1
388,298	2537,43
388,507	2215,9
388,715	1871,84
388,924	1646,57
389,133	1130,48
389,341	970,74
389,55	733,17
389,758	679,93
389,967	565,24
390,175	471,03
390,383	450,55
390,592	374,78
390,8	311,29
391,009	368,63
391,217	339,96
391,426	436,22
391,634	344,06
391,842	276,48
392,051	241,66
392,259	290,81
392,467	315,39
392,676	235,52
392,884	221,18
393,092	212,99
393,301	413,69
393,509	342,01
393,717	329,72
393,925	315,39
394,134	274,43
394,342	315,39
394,55	393,21
394,758	268,28
394,967	221,18
395,175	235,52
395,383	290,81
395,591	262,14
395,799	274,43
396,007	217,08
396,216	471,03
396,424	282,62
396,632	253,95
396,84	176,13
397,048	217,08
397,256	372,73
397,464	239,61
397,672	360,44
397,88	276,48
398,088	278,52
398,296	299
398,504	294,91
398,712	325,63
398,92	413,69
399,128	430,07
399,336	380,92
399,544	432,12
399,752	327,68
399,96	471,03
400,168	376,83
400,376	251,9
400,584	423,93
400,792	356,35
401	292,86
401,207	161,79
401,415	356,35
401,623	249,85
401,831	356,35
402,039	290,81
402,247	333,82
402,454	538,62
402,662	874,48
402,87	1415,15
403,078	2185,18
403,285	2985,94
403,493	3930,05
403,701	4911,03
403,909	6211,49
404,116	7722,89
404,324	9457,52
404,532	11657,04
404,739	12832,57
404,947	12627,78
405,155	12523,33
405,362	10379,11
405,57	7966,6
405,778	5808,04
405,985	4272,06
406,193	3405,77
406,4	2748,37
406,608	2406,36
406,816	1783,78
407,023	1566,7
407,231	1302,51
407,438	1556,46
407,646	1740,77
407,853	1724,39
408,061	1765,35
408,268	1728,49
408,476	1472,49
408,683	1259,5
408,89	978,93
409,098	845,81
409,305	606,2
409,513	706,55
409,72	430,07
409,927	372,73
410,135	391,16
410,342	253,95
410,55	344,06
410,757	258,04
410,964	229,37
411,172	370,68
411,379	241,66
411,586	360,44
411,793	206,84
412,001	266,24
412,208	249,85
412,415	348,15
412,622	391,16
412,83	237,56
413,037	354,3
413,244	290,81
413,451	397,31
413,658	331,77
413,866	509,94
414,073	475,13
414,28	415,74
414,487	397,31
414,694	389,11
414,901	475,13
415,108	438,27
415,315	471,03
415,522	552,95
415,73	417,79
415,937	258,04
416,144	356,35
416,351	366,59
416,558	348,15
416,765	389,11
416,972	354,3
417,179	397,31
417,386	411,64
417,593	415,74
417,8	440,31
418,006	479,22
418,213	462,84
418,42	438,27
418,627	479,22
418,834	462,84
419,041	434,17
419,248	491,51
419,455	520,18
419,661	612,34
419,868	552,95
420,075	497,66
420,282	442,36
420,489	454,65
420,696	557,05
420,902	511,99
421,109	499,7
421,316	454,65
421,523	503,8
421,729	446,46
421,936	339,96
422,143	458,75
422,349	364,54
422,556	319,48
422,763	339,96
422,969	368,63
423,176	225,28
423,383	364,54
423,589	573,43
423,796	372,73
424,002	274,43
424,209	227,32
424,416	380,92
424,622	229,37
424,829	315,39
425,035	208,89
425,242	282,62
425,448	315,39
425,655	393,21
425,861	241,66
426,068	315,39
426,274	405,5
426,481	364,54
426,687	284,67
426,894	282,62
427,1	354,3
427,306	315,39
427,513	352,25
427,719	387,07
427,926	352,25
428,132	301,05
428,338	241,66
428,545	272,38
428,751	202,75
428,957	299
429,163	282,62
429,37	262,14
429,576	284,67
429,782	325,63
429,989	276,48
430,195	307,2
430,401	356,35
430,607	335,87
430,813	200,7
431,02	335,87
431,226	356,35
431,432	290,81
431,638	354,3
431,844	331,77
432,05	325,63
432,257	350,2
432,463	401,4
432,669	438,27
432,875	454,65
433,081	421,88
433,287	571,38
433,493	634,87
433,699	1372,14
433,905	2357,21
434,111	4018,11
434,317	6242,21
434,523	9113,46
434,729	12154,69
434,935	15834,89
435,141	20291,27
435,347	24157,84
435,553	29943,35
435,759	33908,22
435,965	36595,15
436,171	36210,14
436,377	32058,9
436,582	27848,28
436,788	21835,44
436,994	16279,3
437,2	11863,88
437,406	8892,28
437,612	6283,17
437,818	4325,31
438,023	2658,26
438,229	1705,96
438,435	1052,66
438,641	700,41
438,846	561,14
439,052	536,57
439,258	516,09
439,464	366,59
439,669	360,44
439,875	442,36
440,081	362,49
440,286	311,29
440,492	309,24
440,698	276,48
440,903	331,77
441,109	294,91
441,314	243,71
441,52	258,04
441,726	290,81
441,931	270,33
442,137	352,25
442,342	266,24
442,548	393,21
442,753	368,63
442,959	200,7
443,164	180,22
443,37	210,94
443,575	241,66
443,781	225,28
443,986	417,79
444,192	233,47
444,397	262,14
444,602	176,13
444,808	235,52
445,013	225,28
445,219	204,8
445,424	327,68
445,629	237,56
445,835	290,81
446,04	237,56
446,245	253,95
446,451	212,99
446,656	233,47
446,861	241,66
447,066	276,48
447,272	331,77
447,477	339,96
447,682	253,95
447,887	315,39
448,093	266,24
448,298	307,2
448,503	235,52
448,708	260,09
448,913	186,37
449,118	292,86
449,324	415,74
449,529	301,05
449,734	241,66
449,939	122,88
450,144	315,39
450,349	309,24
450,554	270,33
450,759	335,87
450,964	290,81
451,169	268,28
451,374	280,57
451,579	204,8
451,784	235,52
451,989	253,95
452,194	301,05
452,399	258,04
452,604	294,91
452,809	323,58
453,014	290,81
453,219	260,09
453,424	397,31
453,629	235,52
453,833	243,71
454,038	327,68
454,243	323,58
454,448	245,76
454,653	342,01
454,858	282,62
455,062	225,28
455,267	358,39
455,472	342,01
455,677	241,66
455,882	237,56
456,086	358,39
456,291	333,82
456,496	184,32
456,7	241,66
456,905	303,1
457,11	319,48
457,314	258,04
457,519	210,94
457,724	178,17
457,928	309,24
458,133	217,08
458,338	262,14
458,542	247,8
458,747	294,91
458,951	200,7
459,156	399,35
459,36	192,51
459,565	389,11
459,769	241,66
459,974	294,91
460,178	274,43
460,383	151,55
460,587	335,87
460,792	397,31
460,996	260,09
461,201	266,24
461,405	233,47
461,61	243,71
461,814	356,35
462,018	331,77
462,223	200,7
462,427	276,48
462,631	290,81
462,836	323,58
463,04	307,2
463,244	348,15
463,449	258,04
463,653	380,92
463,857	270,33
464,062	348,15
464,266	286,72
464,47	258,04
464,674	335,87
464,878	299
465,083	348,15
465,287	397,31
465,491	249,85
465,695	270,33
465,899	219,13
466,104	196,61
466,308	299
466,512	317,44
466,716	296,96
466,92	356,35
467,124	333,82
467,328	299
467,532	339,96
467,736	282,62
467,94	217,08
468,144	260,09
468,348	342,01
468,552	331,77
468,756	286,72
468,96	243,71
469,164	258,04
469,368	333,82
469,572	268,28
469,776	315,39
469,98	272,38
470,184	260,09
470,388	348,15
470,591	253,95
470,795	413,69
470,999	372,73
471,203	331,77
471,407	296,96
471,611	235,52
471,814	243,71
472,018	221,18
472,222	421,88
472,426	342,01
472,63	331,77
472,833	290,81
473,037	374,78
473,241	278,52
473,444	368,63
473,648	780,28
473,852	315,39
474,055	286,72
474,259	311,29
474,463	380,92
474,666	370,68
474,87	290,81
475,074	301,05
475,277	282,62
475,481	346,11
475,684	294,91
475,888	210,94
476,091	284,67
476,295	315,39
476,498	219,13
476,702	292,86
476,905	456,7
477,109	362,49
477,312	258,04
477,516	194,56
477,719	399,35
477,923	290,81
478,126	315,39
478,329	217,08
478,533	323,58
478,736	391,16
478,94	276,48
479,143	346,11
479,346	266,24
479,55	350,2
479,753	352,25
479,956	227,32
480,159	356,35
480,363	397,31
480,566	331,77
480,769	380,92
480,972	249,85
481,176	382,97
481,379	391,16
481,582	387,07
481,785	272,38
481,988	380,92
482,192	403,45
482,395	391,16
482,598	292,86
482,801	323,58
483,004	417,79
483,207	374,78
483,41	327,68
483,613	352,25
483,817	423,93
484,02	335,87
484,223	290,81
484,426	354,3
484,629	335,87
484,832	438,27
485,035	382,97
485,238	438,27
485,441	413,69
485,644	395,26
485,846	342,01
486,049	364,54
486,252	327,68
486,455	376,83
486,658	323,58
486,861	438,27
487,064	415,74
487,267	395,26
487,47	401,4
487,672	348,15
487,875	450,55
488,078	385,02
488,281	495,61
488,484	464,89
488,686	401,4
488,889	391,16
489,092	462,84
489,295	462,84
489,497	479,22
489,7	393,21
489,903	460,79
490,105	317,44
490,308	413,69
490,511	507,9
490,713	499,7
490,916	505,85
491,118	489,46
491,321	604,15
491,524	571,38
491,726	595,96
491,929	499,7
492,131	528,38
492,334	602,1
492,536	532,47
492,739	520,18
492,941	462,84
493,144	550,9
493,346	544,76
493,549	430,07
493,751	432,12
493,954	372,73
494,156	423,93
494,359	405,5
494,561	284,67
494,763	385,02
494,966	366,59
495,168	419,83
495,37	327,68
495,573	348,15
495,775	339,96
495,977	413,69
496,18	466,94
496,382	423,93
496,584	454,65
496,787	509,94
496,989	368,63
497,191	299
497,393	487,42
497,595	315,39
497,798	307,2
498	430,07
498,202	354,3
498,404	327,68
498,606	407,55
498,808	362,49
499,011	489,46
499,213	397,31
499,415	407,55
499,617	405,5
499,819	501,75
500,021	446,46
500,223	430,07
500,425	344,06
500,627	372,73
500,829	432,12
501,031	487,42
501,233	374,78
501,435	421,88
501,637	479,22
501,839	436,22
502,041	471,03
502,243	421,88
502,445	378,87
502,647	423,93
502,848	372,73
503,05	387,07
503,252	462,84
503,454	481,27
503,656	364,54
503,858	366,59
504,059	423,93
504,261	380,92
504,463	540,66
504,665	454,65
504,867	428,03
505,068	387,07
505,27	407,55
505,472	479,22
505,673	466,94
505,875	292,86
506,077	323,58
506,278	444,41
506,48	364,54
506,682	432,12
506,883	454,65
507,085	454,65
507,287	364,54
507,488	444,41
507,69	540,66
507,891	391,16
508,093	448,51
508,294	325,63
508,496	389,11
508,697	319,48
508,899	397,31
509,1	407,55
509,302	434,17
509,503	425,98
509,705	450,55
509,906	389,11
510,108	372,73
510,309	348,15
510,51	413,69
510,712	315,39
510,913	301,05
511,114	368,63
511,316	342,01
511,517	458,75
511,718	309,24
511,92	397,31
512,121	376,83
512,322	356,35
512,524	520,18
512,725	423,93
512,926	456,7
513,127	421,88
513,329	473,08
513,53	333,82
513,731	446,46
513,932	430,07
514,133	444,41
514,334	520,18
514,536	538,62
514,737	503,8
514,938	413,69
515,139	503,8
515,34	380,92
515,541	487,42
515,742	434,17
515,943	458,75
516,144	481,27
516,345	460,79
516,546	362,49
516,747	464,89
516,948	385,02
517,149	348,15
517,35	358,39
517,551	407,55
517,752	417,79
517,953	399,35
518,154	423,93
518,355	458,75
518,556	430,07
518,756	475,13
518,957	471,03
519,158	479,22
519,359	425,98
519,56	325,63
519,761	483,32
519,961	528,38
520,162	591,86
520,363	311,29
520,564	405,5
520,764	479,22
520,965	450,55
521,166	491,51
521,366	389,11
521,567	382,97
521,768	511,99
521,968	487,42
522,169	479,22
522,37	333,82
522,57	407,55
522,771	372,73
522,972	348,15
523,172	479,22
523,373	456,7
523,573	436,22
523,774	454,65
523,974	462,84
524,175	475,13
524,375	397,31
524,576	325,63
524,776	430,07
524,977	456,7
525,177	563,19
525,378	464,89
525,578	473,08
525,778	489,46
525,979	495,61
526,179	413,69
526,38	409,59
526,58	354,3
526,78	393,21
526,981	569,34
527,181	499,7
527,381	397,31
527,582	473,08
527,782	507,9
527,982	491,51
528,182	434,17
528,383	391,16
528,583	407,55
528,783	358,39
528,983	391,16
529,183	333,82
529,384	372,73
529,584	571,38
529,784	450,55
529,984	419,83
530,184	366,59
530,384	440,31
530,584	278,52
530,784	464,89
530,984	321,53
531,185	489,46
531,385	405,5
531,585	397,31
531,785	448,51
531,985	251,9
532,185	274,43
532,385	385,02
532,585	376,83
532,785	389,11
532,984	421,88
533,184	393,21
533,384	407,55
533,584	278,52
533,784	309,24
533,984	544,76
534,184	372,73
534,384	315,39
534,583	440,31
534,783	364,54
534,983	362,49
535,183	372,73
535,383	393,21
535,582	471,03
535,782	366,59
535,982	503,8
536,182	415,74
536,381	405,5
536,581	397,31
536,781	430,07
536,98	430,07
537,18	471,03
537,38	446,46
537,579	380,92
537,779	342,01
537,979	401,4
538,178	366,59
538,378	487,42
538,577	356,35
538,777	315,39
538,976	370,68
539,176	456,7
539,376	434,17
539,575	477,18
539,774	413,69
539,974	348,15
540,173	464,89
540,373	419,83
540,572	415,74
540,772	421,88
540,971	391,16
541,171	503,8
541,37	380,92
541,569	434,17
541,769	456,7
541,968	432,12
542,167	407,55
542,367	464,89
542,566	454,65
542,765	389,11
542,965	495,61
543,164	581,62
543,363	569,34
543,562	526,33
543,761	532,47
543,961	743,41
544,16	1286,12
544,359	3418,06
544,558	6748,06
544,757	11175,77
544,957	16856,83
545,156	24514,19
545,355	32685,58
545,554	40000,93
545,753	47670,57
545,952	52630,75
546,151	57050,27
546,35	58594,43
546,549	55684,27
546,748	52212,96
546,947	46687,54
547,146	40942,99
547,345	33601,02
547,544	27512,41
547,743	21812,92
547,942	16125,71
548,141	11325,27
548,34	7042,96
548,539	4173,76
548,738	2576,34
548,937	1826,79
549,135	1316,84
549,334	948,21
549,533	907,25
549,732	718,84
549,931	677,88
550,13	579,58
550,328	434,17
550,527	569,34
550,726	536,57
550,925	413,69
551,123	454,65
551,322	454,65
551,521	522,23
551,72	399,35
551,918	389,11
552,117	432,12
552,315	325,63
552,514	399,35
552,713	348,15
552,911	307,2
553,11	260,09
553,309	325,63
553,507	372,73
553,706	423,93
553,904	348,15
554,103	430,07
554,301	294,91
554,5	344,06
554,698	327,68
554,897	360,44
555,095	391,16
555,294	206,84
555,492	380,92
555,69	364,54
555,889	284,67
556,087	385,02
556,286	409,59
556,484	321,53
556,682	307,2
556,881	323,58
557,079	241,66
557,277	385,02
557,476	294,91
557,674	315,39
557,872	339,96
558,07	274,43
558,269	290,81
558,467	227,32
558,665	364,54
558,863	251,9
559,062	327,68
559,26	282,62
559,458	174,08
559,656	243,71
559,854	266,24
560,052	241,66
560,25	294,91
560,449	516,09
560,647	270,33
560,845	315,39
561,043	243,71
561,241	344,06
561,439	417,79
561,637	251,9
561,835	382,97
562,033	337,91
562,231	180,22
562,429	274,43
562,627	311,29
562,825	229,37
563,023	364,54
563,221	270,33
563,418	286,72
563,616	337,91
563,814	423,93
564,012	243,71
564,21	315,39
564,408	321,53
564,605	358,39
564,803	327,68
565,001	561,14
565,199	284,67
565,397	313,34
565,594	315,39
565,792	370,68
565,99	282,62
566,188	299
566,385	421,88
566,583	294,91
566,781	391,16
566,978	378,87
567,176	397,31
567,373	346,11
567,571	348,15
567,769	292,86
567,966	225,28
568,164	372,73
568,361	348,15
568,559	372,73
568,756	323,58
568,954	335,87
569,151	323,58
569,349	344,06
569,546	249,85
569,744	270,33
569,941	286,72
570,139	239,61
570,336	245,76
570,534	315,39
570,731	282,62
570,928	274,43
571,126	407,55
571,323	464,89
571,52	348,15
571,718	339,96
571,915	356,35
572,112	278,52
572,31	299
572,507	358,39
572,704	278,52
572,901	387,07
573,099	282,62
573,296	464,89
573,493	208,89
573,69	348,15
573,887	227,32
574,085	421,88
574,282	301,05
574,479	442,36
574,676	331,77
574,873	438,27
575,07	391,16
575,267	561,14
575,464	937,97
575,661	1474,54
575,858	1896,42
576,055	2867,16
576,252	4003,78
576,449	4847,54
576,646	5384,11
576,843	6000,55
577,04	6524,83
577,237	6510,49
577,434	6672,28
577,631	6786,97
577,828	6672,28
578,025	6952,85
578,222	7036,82
578,419	7645,07
578,615	7888,78
578,812	8271,75
579,009	8093,57
579,206	7772,04
579,403	7743,37
579,599	7008,15
579,796	6279,07
579,993	5805,99
580,19	5001,14
580,386	4169,66
580,583	3717,06
580,78	3057,62
580,976	2432,99
581,173	1865,7
581,37	1335,28
581,566	929,78
581,763	673,78
581,96	575,48
582,156	460,79
582,353	479,22
582,549	473,08
582,746	362,49
582,942	270,33
583,139	393,21
583,335	342,01
583,532	442,36
583,728	344,06
583,925	393,21
584,121	423,93
584,318	409,59
584,514	479,22
584,711	471,03
584,907	446,46
585,103	339,96
585,3	374,78
585,496	389,11
585,693	331,77
585,889	438,27
586,085	309,24
586,281	393,21
586,478	366,59
586,674	335,87
586,87	399,35
587,067	350,2
587,263	393,21
587,459	372,73
587,655	374,78
587,851	425,98
588,048	368,63
588,244	421,88
588,44	413,69
588,636	446,46
588,832	440,31
589,028	511,99
589,224	315,39
589,42	327,68
589,617	409,59
589,813	477,18
590,009	466,94
590,205	436,22
590,401	372,73
590,597	356,35
590,793	339,96
590,989	421,88
591,185	473,08
591,38	380,92
591,576	364,54
591,772	288,76
591,968	344,06
592,164	456,7
592,36	399,35
592,556	282,62
592,752	342,01
592,948	249,85
593,143	348,15
593,339	221,18
593,535	305,15
593,731	317,44
593,926	372,73
594,122	323,58
594,318	415,74
594,514	438,27
594,709	309,24
594,905	307,2
595,101	393,21
595,296	366,59
595,492	374,78
595,688	344,06
595,883	327,68
596,079	462,84
596,275	421,88
596,47	331,77
596,666	272,38
596,861	356,35
597,057	233,47
597,252	268,28
597,448	258,04
597,643	348,15
597,839	430,07
598,034	323,58
598,23	356,35
598,425	397,31
598,621	311,29
598,816	368,63
599,011	342,01
599,207	360,44
599,402	358,39
599,597	376,83
599,793	372,73
599,988	446,46
600,183	399,35
600,379	438,27
600,574	413,69
600,769	466,94
600,965	421,88
601,16	358,39
601,355	307,2
601,55	434,17
601,745	466,94
601,941	380,92
602,136	380,92
602,331	323,58
602,526	413,69
602,721	319,48
602,916	319,48
603,111	188,41
603,307	419,83
603,502	356,35
603,697	307,2
603,892	331,77
604,087	299
604,282	462,84
604,477	315,39
604,672	294,91
604,867	288,76
605,062	325,63
605,257	311,29
605,452	440,31
605,646	380,92
605,841	335,87
606,036	282,62
606,231	260,09
606,426	366,59
606,621	258,04
606,816	303,1
607,01	487,42
607,205	309,24
607,4	227,32
607,595	372,73
607,79	284,67
607,984	266,24
608,179	282,62
608,374	258,04
608,569	192,51
608,763	192,51
608,958	270,33
609,153	276,48
609,347	178,17
609,542	163,84
609,736	186,37
609,931	225,28
610,126	163,84
610,32	219,13
610,515	137,21
610,709	409,59
610,904	217,08
611,098	139,26
611,293	126,97
611,487	243,71
611,682	77,82
611,876	258,04
612,071	192,51
612,265	217,08
612,46	161,79
612,654	225,28
612,848	149,5
613,043	135,17
613,237	139,26
613,432	118,78
613,626	141,31
613,82	169,98
614,014	241,66
614,209	227,32
614,403	71,68
614,597	167,93
614,792	280,57
614,986	102,4
615,18	167,93
615,374	225,28
615,568	126,97
615,763	245,76
615,957	204,8
616,151	276,48
616,345	204,8
616,539	118,78
616,733	118,78
616,927	167,93
617,121	153,6
617,316	288,76
617,51	204,8
617,704	192,51
617,898	258,04
618,092	188,41
618,286	239,61
618,48	55,3
618,674	208,89
618,868	251,9
619,061	131,07
619,255	196,61
619,449	182,27
619,643	102,4
619,837	217,08
620,031	210,94
620,225	192,51
620,419	126,97
620,612	194,56
620,806	200,7
621	219,13
621,194	200,7
621,388	159,74
621,581	200,7
621,775	200,7
621,969	202,75
622,162	161,79
622,356	126,97
622,55	227,32
622,743	163,84
622,937	153,6
623,131	159,74
623,324	178,17
623,518	137,21
623,712	192,51
623,905	145,41
624,099	258,04
624,292	241,66
624,486	227,32
624,679	202,75
624,873	200,7
625,066	274,43
625,26	206,84
625,453	112,64
625,647	184,32
625,84	249,85
626,034	188,41
626,227	208,89
626,42	106,49
626,614	118,78
626,807	303,1
627	167,93
627,194	151,55
627,387	188,41
627,58	88,06
627,774	172,03
627,967	256
628,16	221,18
628,353	169,98
628,547	192,51
628,74	194,56
628,933	184,32
629,126	208,89
629,319	235,52
629,513	212,99
629,706	217,08
629,899	325,63
630,092	219,13
630,285	151,55
630,478	299
630,671	313,34
630,864	249,85
631,057	176,13
631,25	286,72
631,443	192,51
631,636	274,43
631,829	288,76
632,022	237,56
632,215	235,52
632,408	217,08
632,601	260,09
632,794	151,55
632,987	266,24
633,18	143,36
633,373	233,47
633,566	155,65
633,758	135,17
633,951	143,36
634,144	241,66
634,337	137,21
634,53	129,02
634,722	301,05
634,915	182,27
635,108	194,56
635,301	368,63
635,493	315,39
635,686	348,15
635,879	331,77
636,071	184,32
636,264	260,09
636,457	329,72
636,649	260,09
636,842	307,2
637,034	380,92
637,227	366,59
637,42	380,92
637,612	239,61
637,805	256
637,997	405,5
638,19	376,83
638,382	284,67
638,575	249,85
638,767	311,29
638,96	354,3
639,152	327,68
639,344	409,59
639,537	208,89
639,729	223,23
639,922	249,85
640,114	282,62
640,306	241,66
640,499	258,04
640,691	225,28
640,883	153,6
641,075	167,93
641,268	325,63
641,46	329,72
641,652	282,62
641,844	219,13
642,037	202,75
642,229	299
642,421	317,44
642,613	364,54
642,805	315,39
642,998	325,63
643,19	372,73
643,382	456,7
643,574	432,12
643,766	348,15
643,958	409,59
644,15	385,02
644,342	528,38
644,534	481,27
644,726	335,87
644,918	446,46
645,11	421,88
645,302	411,64
645,494	544,76
645,686	368,63
645,878	368,63
646,07	446,46
646,262	350,2
646,453	413,69
646,645	397,31
646,837	358,39
647,029	405,5
647,221	362,49
647,413	290,81
647,604	356,35
647,796	409,59
647,988	270,33
648,18	225,28
648,371	311,29
648,563	315,39
648,755	286,72
648,947	202,75
649,138	253,95
649,33	366,59
649,521	333,82
649,713	339,96
649,905	290,81
650,096	413,69
650,288	356,35
650,479	319,48
650,671	430,07
650,863	335,87
651,054	452,6
651,246	505,85
651,437	385,02
651,629	520,18
651,82	479,22
652,011	528,38
652,203	479,22
652,394	456,7
652,586	430,07
652,777	442,36
652,968	495,61
653,16	389,11
653,351	534,52
653,542	487,42
653,734	503,8
653,925	356,35
654,116	471,03
654,308	413,69
654,499	405,5
654,69	327,68
654,881	372,73
655,073	391,16
655,264	391,16
655,455	436,22
655,646	417,79
655,837	403,45
656,028	327,68
656,219	352,25
656,411	352,25
656,602	397,31
656,793	362,49
656,984	448,51
657,175	348,15
657,366	358,39
657,557	413,69
657,748	356,35
657,939	333,82
658,13	405,5
658,321	364,54
658,512	372,73
658,703	423,93
658,894	409,59
659,084	380,92
659,275	440,31
659,466	466,94
659,657	489,46
659,848	397,31
660,039	450,55
660,23	434,17
660,42	423,93
660,611	452,6
660,802	428,03
660,993	456,7
661,183	444,41
661,374	376,83
661,565	479,22
661,755	405,5
661,946	360,44
662,137	401,4
662,327	360,44
662,518	262,14
662,709	317,44
662,899	258,04
663,09	241,66
663,28	299
663,471	276,48
663,662	438,27
663,852	376,83
664,043	217,08
664,233	268,28
664,424	299
664,614	256
664,804	217,08
664,995	313,34
665,185	299
665,376	229,37
665,566	303,1
665,756	196,61
665,947	282,62
666,137	251,9
666,328	348,15
666,518	335,87
666,708	294,91
666,898	315,39
667,089	458,75
667,279	350,2
667,469	368,63
667,659	407,55
667,85	491,51
668,04	415,74
668,23	342,01
668,42	266,24
668,61	333,82
668,8	413,69
668,991	487,42
669,181	366,59
669,371	348,15
669,561	364,54
669,751	387,07
669,941	440,31
670,131	423,93
670,321	272,38
670,511	315,39
670,701	311,29
670,891	292,86
671,081	200,7
671,271	176,13
671,461	217,08
671,651	282,62
671,841	188,41
672,03	290,81
672,22	239,61
672,41	155,65
672,6	233,47
672,79	225,28
672,98	258,04
673,169	235,52
673,359	124,93
673,549	364,54
673,739	200,7
673,928	186,37
674,118	286,72
674,308	159,74
674,497	301,05
674,687	266,24
674,877	155,65
675,066	249,85
675,256	253,95
675,446	253,95
675,635	309,24
675,825	274,43
676,014	227,32
676,204	227,32
676,393	327,68
676,583	282,62
676,772	339,96
676,962	274,43
677,151	219,13
677,341	262,14
677,53	364,54
677,72	327,68
677,909	374,78
678,099	274,43
678,288	253,95
678,477	278,52
678,667	274,43
678,856	241,66
679,045	227,32
679,235	290,81
679,424	290,81
679,613	333,82
679,802	241,66
679,992	159,74
680,181	192,51
680,37	198,65
680,559	274,43
680,748	251,9
680,938	110,59
681,127	178,17
681,316	212,99
681,505	137,21
681,694	108,54
681,883	79,87
682,072	161,79
682,261	129,02
682,45	49,15
682,639	53,25
682,828	200,7
683,017	192,51
683,206	202,75
683,395	40,96
683,584	118,78
683,773	194,56
683,962	79,87
684,151	118,78
684,34	192,51
684,529	120,83
684,718	143,36
684,907	55,3
685,095	147,45
685,284	169,98
685,473	217,08
685,662	16,38
685,851	208,89
686,039	178,17
686,228	196,61
686,417	71,68
686,606	200,7
686,794	86,01
686,983	22,53
687,172	102,4
687,36	133,12
687,549	38,91
687,738	147,45
687,926	79,87
688,115	96,25
688,303	94,21
688,492	217,08
688,68	-26,62
688,869	61,44
689,057	14,34
689,246	65,54
689,434	102,4
689,623	79,87
689,811	126,97
690	153,6
690,188	106,49
690,377	71,68
690,565	212,99
690,753	235,52
690,942	143,36
691,13	163,84
691,318	165,89
691,507	110,59
691,695	169,98
691,883	212,99
692,072	135,17
692,26	243,71
692,448	131,07
692,636	98,3
692,824	155,65
693,013	118,78
693,201	55,3
693,389	36,86
693,577	167,93
693,765	45,06
693,953	77,82
694,141	137,21
694,329	-49,15
694,518	120,83
694,706	53,25
694,894	135,17
695,082	118,78
695,27	139,26
695,458	161,79
695,646	112,64
695,834	176,13
696,022	235,52
696,209	258,04
696,397	339,96
696,585	256
696,773	303,1
696,961	253,95
697,149	120,83
697,337	245,76
697,525	262,14
697,712	196,61
697,9	276,48
698,088	172,03
698,276	210,94
698,463	77,82
698,651	129,02
698,839	141,31
699,027	200,7
699,214	145,41
699,402	126,97
699,59	73,73
699,777	192,51
699,965	141,31
700,152	38,91
700,34	53,25
700,528	4,1
700,715	131,07
700,903	34,82
701,09	112,64
701,278	79,87
701,465	126,97
701,653	36,86
701,84	92,16
702,028	77,82
702,215	88,06
702,402	49,15
702,59	143,36
702,777	90,11
702,965	69,63
703,152	36,86
703,339	143,36
703,527	45,06
703,714	167,93
703,901	135,17
704,088	110,59
704,276	102,4
704,463	112,64
704,65	65,54
704,837	65,54
705,025	49,15
705,212	102,4
705,399	135,17
705,586	94,21
705,773	102,4
705,96	106,49
706,147	106,49
706,335	137,21
706,522	243,71
706,709	169,98
706,896	174,08
707,083	176,13
707,27	159,74
707,457	200,7
707,644	151,55
707,831	143,36
708,018	69,63
708,205	88,06
708,392	108,54
708,578	116,73
708,765	94,21
708,952	6,14
709,139	139,26
709,326	12,29
709,513	143,36
709,7	86,01
709,886	139,26
710,073	194,56
710,26	184,32
710,447	102,4
710,633	79,87
710,82	129,02
711,007	104,45
711,193	151,55
711,38	104,45
711,567	143,36
711,753	86,01
711,94	135,17
712,127	176,13
712,313	174,08
712,5	53,25
712,686	106,49
712,873	79,87
713,059	22,53
713,246	110,59
713,432	159,74
713,619	77,82
713,805	77,82
713,992	143,36
714,178	126,97
714,365	157,69
714,551	143,36
714,737	106,49
714,924	34,82
715,11	161,79
715,297	124,93
715,483	110,59
715,669	139,26
715,855	200,7
716,042	143,36
716,228	32,77
716,414	219,13
716,6	153,6
716,787	139,26
716,973	122,88
717,159	126,97
717,345	102,4
717,531	36,86
717,718	69,63
717,904	122,88
718,09	92,16
718,276	120,83
718,462	69,63
718,648	112,64
718,834	77,82
719,02	112,64
719,206	118,78
719,392	32,77
719,578	126,97
719,764	-53,25
719,95	45,06
720,136	135,17
720,322	149,5
720,508	63,49
720,694	110,59
720,879	79,87
721,065	126,97
721,251	110,59
721,437	104,45
721,623	194,56
721,809	145,41
721,994	114,69
722,18	124,93
722,366	151,55
722,552	45,06
722,737	40,96
722,923	153,6
723,109	139,26
723,294	137,21
723,48	192,51
723,666	204,8
723,851	135,17
724,037	143,36
724,222	188,41
724,408	118,78
724,593	260,09
724,779	147,45
724,965	112,64
725,15	217,08
725,336	153,6
725,521	200,7
725,706	143,36
725,892	192,51
726,077	176,13
726,263	151,55
726,448	286,72
726,634	202,75
726,819	190,46
727,004	288,76
727,19	192,51
727,375	245,76
727,56	227,32
727,745	198,65
727,931	243,71
728,116	59,39
728,301	198,65
728,486	237,56
728,672	114,69
728,857	178,17
729,042	69,63
729,227	30,72
729,412	176,13
729,597	79,87
729,783	126,97
729,968	90,11
730,153	161,79
730,338	184,32
730,523	141,31
730,708	104,45
730,893	151,55
731,078	120,83
731,263	126,97
731,448	88,06
731,633	131,07
731,818	20,48
732,003	98,3
732,187	71,68
732,372	73,73
732,557	151,55
732,742	120,83
732,927	49,15
733,112	178,17
733,297	155,65
733,481	61,44
733,666	266,24
733,851	176,13
734,036	241,66
734,22	110,59
734,405	276,48
734,59	94,21
734,774	249,85
734,959	208,89
735,144	290,81
735,328	98,3
735,513	184,32
735,698	186,37
735,882	294,91
736,067	284,67
736,251	229,37
736,436	204,8
736,62	208,89
736,805	172,03
736,989	325,63
737,174	110,59
737,358	212,99
737,543	274,43
737,727	311,29
737,911	378,87
738,096	358,39
738,28	391,16
738,465	290,81
738,649	266,24
738,833	241,66
739,018	325,63
739,202	200,7
739,386	239,61
739,57	194,56
739,755	202,75
739,939	169,98
740,123	145,41
740,307	159,74
740,491	135,17
740,676	104,45
740,86	196,61
741,044	122,88
741,228	124,93
741,412	135,17
741,596	110,59
741,78	102,4
741,964	118,78
742,148	98,3
742,332	172,03
742,516	88,06
742,7	135,17
742,884	90,11
743,068	94,21
743,252	217,08
743,436	182,27
743,62	104,45
743,804	229,37
743,988	258,04
744,172	143,36
744,356	208,89
744,539	167,93
744,723	120,83
744,907	122,88
745,091	215,04
745,275	288,76
745,458	225,28
745,642	258,04
745,826	274,43
746,009	296,96
746,193	245,76
746,377	380,92
746,56	262,14
746,744	253,95
746,928	243,71
747,111	292,86
747,295	299
747,478	241,66
747,662	274,43
747,846	270,33
748,029	299
748,213	299
748,396	305,15
748,58	245,76
748,763	253,95
748,946	167,93
749,13	233,47
749,313	266,24
749,497	294,91
749,68	352,25
749,863	352,25
750,047	245,76
750,23	323,58
750,413	368,63
750,597	382,97
750,78	266,24
750,963	430,07
751,146	350,2
751,33	327,68
751,513	425,98
751,696	331,77
751,879	325,63
752,062	294,91
752,246	356,35
752,429	323,58
752,612	315,39
752,795	163,84
752,978	190,46
753,161	137,21
753,344	118,78
753,527	143,36
753,71	102,4
753,893	143,36
754,076	112,64
754,259	198,65
754,442	79,87
754,625	45,06
754,808	217,08
754,991	120,83
755,174	73,73
755,357	69,63
755,539	131,07
755,722	120,83
755,905	157,69
756,088	92,16
756,271	86,01
756,453	172,03
756,636	45,06
756,819	184,32
757,002	159,74
757,184	188,41
757,367	188,41
757,55	126,97
757,732	258,04
757,915	34,82
758,098	137,21
758,28	143,36
758,463	210,94
758,645	151,55
758,828	208,89
759,011	290,81
759,193	172,03
759,376	243,71
759,558	86,01
759,741	247,8
759,923	176,13
760,105	116,73
760,288	192,51
760,47	208,89
760,653	227,32
760,835	167,93
761,017	249,85
761,2	180,22
761,382	258,04
761,564	274,43
761,747	212,99
761,929	221,18
762,111	249,85
762,294	243,71
762,476	483,32
762,658	399,35
762,84	598,01
763,022	610,29
763,205	745,46
763,387	921,59
763,569	1011,7
763,751	710,65
763,933	808,95
764,115	737,27
764,297	659,45
764,479	755,7
764,661	540,66
764,843	505,85
765,025	417,79
765,207	360,44
765,389	282,62
765,571	249,85
765,753	290,81
765,935	292,86
766,117	331,77
766,299	339,96
766,481	446,46
766,663	151,55
766,845	167,93
767,026	167,93
767,208	102,4
767,39	69,63
767,572	12,29
767,753	155,65
767,935	135,17
768,117	131,07
768,299	200,7
768,48	186,37
768,662	221,18
768,844	77,82
769,025	231,42
769,207	167,93
769,389	143,36
769,57	208,89
769,752	161,79
769,933	96,25
770,115	217,08
770,296	178,17
770,478	331,77
770,659	219,13
770,841	368,63
771,022	286,72
771,204	284,67
771,385	299
771,567	382,97
771,748	385,02
771,929	438,27
772,111	452,6
772,292	536,57
772,473	544,76
772,655	454,65
772,836	487,42
773,017	428,03
773,199	415,74
773,38	393,21
773,561	339,96
773,742	301,05
773,923	315,39
774,105	374,78
774,286	315,39
774,467	274,43
774,648	249,85
774,829	290,81
775,01	155,65
775,191	159,74
775,372	178,17
775,553	210,94
775,734	110,59
775,915	102,4
776,096	225,28
776,277	186,37
776,458	299
776,639	487,42
776,82	587,77
777,001	544,76
777,182	729,08
777,363	688,12
777,544	700,41
777,725	643,06
777,906	561,14
778,086	544,76
778,267	471,03
778,448	370,68
778,629	333,82
778,809	286,72
778,99	215,04
779,171	159,74
779,352	137,21
779,532	118,78
779,713	71,68
779,894	151,55
780,074	243,71
780,255	159,74
780,435	192,51
780,616	184,32
780,797	135,17
780,977	-18,43
781,158	108,54
781,338	2,05
781,519	102,4
781,699	153,6
781,88	-32,77
782,06	86,01
782,241	-4,1
782,421	-28,67
782,601	-4,1
782,782	169,98
782,962	63,49
783,142	-26,62
783,323	20,48
783,503	106,49
783,683	110,59
783,864	86,01
784,044	98,3
784,224	147,45
784,404	-2,05
784,585	108,54
784,765	73,73
784,945	147,45
785,125	40,96
785,305	129,02
785,485	94,21
785,666	98,3
785,846	32,77
786,026	102,4
786,206	-36,86
786,386	73,73
786,566	38,91
786,746	2,05
786,926	143,36
787,106	10,24
787,286	61,44
787,466	94,21
787,646	126,97
787,826	92,16
788,006	145,41
788,185	139,26
788,365	77,82
788,545	167,93
788,725	49,15
788,905	110,59
789,085	61,44
789,264	137,21
789,444	83,97
789,624	174,08
789,804	47,1
789,983	86,01
790,163	47,1
790,343	126,97
790,522	83,97
790,702	81,92
790,882	61,44
791,061	114,69
791,241	63,49
791,42	57,34
791,6	143,36
791,78	96,25
791,959	30,72
792,139	-2,05
792,318	126,97
792,498	143,36
792,677	77,82
792,856	57,34
793,036	43,01
793,215	57,34
793,395	212,99
793,574	75,77
793,753	86,01
793,933	225,28
794,112	159,74
794,291	143,36
794,471	251,9
794,65	167,93
794,829	202,75
795,008	243,71
795,188	307,2
795,367	241,66
795,546	86,01
795,725	167,93
795,904	63,49
796,084	176,13
796,263	133,12
796,442	188,41
796,621	126,97
796,8	217,08
796,979	88,06
797,158	18,43
797,337	36,86
797,516	167,93
797,695	102,4
797,874	69,63
798,053	126,97
798,232	26,62
798,411	-36,86
798,59	-20,48
798,769	-12,29
798,947	61,44
799,126	73,73
799,305	88,06
799,484	86,01
799,663	69,63
799,842	38,91
800,02	94,21
800,199	81,92
800,378	243,71
800,557	92,16
800,735	153,6
800,914	161,79
801,093	155,65
801,271	210,94
801,45	212,99
801,628	186,37
801,807	135,17
801,986	118,78
802,164	194,56
802,343	14,34
802,521	-4,1
802,7	110,59
802,878	139,26
803,057	20,48
803,235	28,67
803,414	129,02
803,592	149,5
803,771	129,02
803,949	20,48
804,127	57,34
804,306	53,25
804,484	6,14
804,662	20,48
804,841	-49,15
805,019	126,97
805,197	65,54
805,375	124,93
805,554	22,53
805,732	12,29
805,91	49,15
806,088	38,91
806,266	-53,25
806,445	-75,77
806,623	-24,58
806,801	63,49
806,979	120,83
807,157	131,07
807,335	-83,97
807,513	61,44
807,691	92,16
807,869	-4,1
808,047	73,73
808,225	-20,48
808,403	22,53
808,581	-65,53
808,759	120,83
808,937	-28,67
809,115	94,21
809,293	122,88
809,471	45,06
809,649	184,32
809,826	176,13
810,004	217,08
810,182	192,51
810,36	204,8
810,538	380,92
810,715	452,6
810,893	382,97
811,071	511,99
811,248	528,38
811,426	569,34
811,604	661,49
811,781	608,25
811,959	413,69
812,137	419,83
812,314	301,05
812,492	276,48
812,669	227,32
812,847	178,17
813,024	159,74
813,202	249,85
813,379	182,27
813,557	184,32
813,734	245,76
813,912	184,32
814,089	151,55
814,267	200,7
814,444	161,79
814,621	110,59
814,799	77,82
814,976	225,28
815,153	47,1
815,331	98,3
815,508	73,73
815,685	83,97
815,862	14,34
816,04	40,96
816,217	-38,91
816,394	20,48
816,571	32,77
816,748	180,22
816,926	92,16
817,103	348,15
817,28	40,96
817,457	-16,38
817,634	131,07
817,811	12,29
817,988	47,1
818,165	22,53
818,342	-10,24
818,519	45,06
818,696	32,77
818,873	0
819,05	106,49
819,227	26,62
819,404	28,67
819,581	-2,05
819,758	2,05
819,934	4,1
820,111	-51,2
820,288	-28,67
820,465	-4,1
820,642	51,2
820,818	38,91
820,995	36,86
821,172	129,02
821,349	67,58
821,525	40,96
821,702	-2,05
821,879	12,29
822,055	-69,63
822,232	61,44
822,409	47,1
822,585	77,82
822,762	32,77
822,938	106,49
823,115	45,06
823,291	49,15
823,468	104,45
823,644	-12,29
823,821	86,01
823,997	20,48
824,174	-12,29
824,35	-28,67
824,527	2,05
824,703	28,67
824,879	-18,43
825,056	20,48
825,232	172,03
825,408	77,82
825,585	14,34
825,761	69,63
825,937	137,21
826,113	90,11
826,29	102,4
826,466	94,21
826,642	440,31
826,818	69,63
826,994	122,88
827,17	102,4
827,347	-63,49
827,523	14,34
827,699	65,54
827,875	8,19
828,051	110,59
828,227	-32,77
828,403	94,21
828,579	65,54
828,755	65,54
828,931	57,34
829,107	30,72
829,283	135,17
829,459	6,14
829,635	14,34
829,811	81,92
829,986	36,86
830,162	-12,29
830,338	24,58
830,514	-94,21
830,69	-8,19
830,865	34,82
831,041	118,78
831,217	63,49
831,393	-10,24
831,568	-8,19
831,744	53,25
831,92	47,1
832,095	28,67
832,271	4,1
832,447	75,77
832,622	131,07
832,798	36,86
832,973	-86,01
833,149	104,45
833,325	26,62
833,5	28,67
833,676	-34,82
833,851	106,49
834,027	-10,24
834,202	71,68
834,377	120,83
834,553	110,59
834,728	36,86
834,904	28,67
835,079	8,19
835,254	-12,29
835,43	86,01
835,605	57,34
835,78	65,54
835,955	-81,92
836,131	45,06
836,306	-28,67
836,481	-4,1
836,656	69,63
836,832	131,07
837,007	-61,44
837,182	-2,05
837,357	-4,1
837,532	-45,06
837,707	-10,24
837,882	22,53
838,057	94,21
838,232	20,48
838,407	-32,77
838,582	28,67
838,757	47,1
838,932	-24,58
839,107	-51,2
839,282	-47,1
839,457	-2,05
839,632	77,82
839,807	57,34
839,982	118,78
840,157	28,67
840,332	137,21
840,506	43,01
840,681	71,68
840,856	12,29
841,031	77,82
841,205	55,3
841,38	53,25
841,555	161,79
841,73	139,26
841,904	147,45
842,079	151,55
842,254	204,8
842,428	212,99
842,603	118,78
842,777	153,6
842,952	153,6
843,126	102,4
843,301	34,82
843,476	122,88
843,65	186,37
843,825	167,93
843,999	192,51
844,173	30,72
844,348	69,63
844,522	258,04
844,697	135,17
844,871	67,58
845,045	243,71
845,22	167,93
845,394	172,03
845,568	86,01
845,743	104,45
845,917	30,72
846,091	49,15
846,265	57,34
846,44	102,4
846,614	69,63
846,788	24,58
846,962	79,87
847,136	124,93
847,31	28,67
847,485	217,08
847,659	-141,31
847,833	118,78
848,007	110,59
848,181	-36,86
848,355	61,44
848,529	94,21
848,703	61,44
848,877	-53,25
849,051	16,38
849,225	77,82
849,399	55,3
849,573	28,67
849,746	45,06
849,92	53,25
850,094	73,73
850,268	-26,62
850,442	49,15
850,616	53,25
850,789	32,77
850,963	12,29
851,137	51,2
851,311	161,79
851,484	77,82
851,658	0
851,832	-139,26
852,005	-12,29
852,179	40,96
852,352	49,15
852,526	53,25
852,7	118,78
852,873	45,06
853,047	55,3
853,22	4,1
853,394	38,91
853,567	20,48
853,741	6,14
853,914	22,53
854,088	24,58
854,261	4,1
854,434	40,96
854,608	0
854,781	-12,29
854,955	26,62
855,128	176,13
855,301	-4,1
855,475	53,25
855,648	-32,77
855,821	16,38
855,994	77,82
856,168	16,38
856,341	124,93
856,514	-102,4
856,687	63,49
856,86	47,1
857,033	24,58
857,207	57,34
857,38	20,48
857,553	221,18
857,726	24,58
857,899	43,01
858,072	-2,05
858,245	20,48
858,418	4,1
858,591	36,86
858,764	53,25
858,937	-6,14
859,11	153,6
859,283	20,48
859,455	63,49
859,628	30,72
859,801	28,67
859,974	116,73
860,147	6,14
860,32	36,86
860,492	4,1
860,665	-73,73
860,838	36,86
861,011	-43,01
861,183	112,64
861,356	161,79
861,529	79,87
861,701	28,67
861,874	-12,29
862,047	137,21
862,219	10,24
862,392	96,25
862,564	36,86
862,737	79,87
862,909	24,58
863,082	-20,48
863,254	73,73
863,427	45,06
863,599	61,44
863,772	36,86
863,944	79,87
864,117	28,67
864,289	53,25
864,461	28,67
864,634	2,05
864,806	4,1
864,978	98,3
865,151	4,1
865,323	122,88
865,495	126,97
865,667	6,14
865,84	192,51
866,012	-90,11
866,184	12,29
866,356	0
866,528	63,49
866,7	20,48
866,873	34,82
867,045	-10,24
867,217	-26,62
867,389	59,39
867,561	-14,34
867,733	40,96
867,905	57,34
868,077	-12,29
868,249	-18,43
868,421	45,06
868,593	6,14
868,765	167,93
868,936	34,82
869,108	32,77
869,28	90,11
869,452	55,3
869,624	-2,05
869,796	126,97
869,968	73,73
870,139	45,06
870,311	10,24
870,483	147,45
870,654	45,06
870,826	120,83
870,998	69,63
871,17	94,21
871,341	30,72
871,513	153,6
871,684	-32,77
871,856	38,91
872,028	102,4
872,199	-30,72
872,371	-77,82
872,542	6,14
872,714	73,73
872,885	147,45
873,057	55,3
873,228	73,73
873,4	36,86
873,571	96,25
873,742	-61,44
873,914	71,68
874,085	57,34
874,256	81,92
874,428	-22,53
874,599	61,44
874,77	69,63
874,942	-22,53
875,113	-43,01
875,284	-59,39
875,455	-24,58
875,626	55,3
875,798	-20,48
875,969	-24,58
876,14	126,97
876,311	94,21
876,482	6,14
876,653	110,59
876,824	38,91
876,995	6,14
877,166	28,67
877,337	30,72
877,508	-51,2
877,679	-12,29
877,85	-45,06
878,021	65,54
878,192	106,49
878,363	8,19
878,534	-12,29
878,705	-12,29
878,876	6,14
879,047	32,77
879,217	-51,2
879,388	104,45
879,559	-26,62
879,73	110,59
879,9	4,1
880,071	16,38
880,242	-28,67
880,413	96,25
880,583	47,1
880,754	57,34
880,924	24,58
881,095	-61,44
881,266	-12,29
881,436	45,06
881,607	143,36
881,777	47,1
881,948	-36,86
882,118	4,1
882,289	38,91
882,459	10,24
882,63	12,29
882,8	57,34
882,971	137,21
883,141	12,29
883,311	69,63
883,482	69,63
883,652	-10,24
883,822	8,19
883,993	-12,29
884,163	30,72
884,333	14,34
884,504	135,17
884,674	73,73
884,844	63,49
885,014	-28,67
885,184	-4,1
885,355	-12,29
885,525	-18,43
885,695	112,64
885,865	133,12
886,035	112,64
886,205	12,29
886,375	88,06
886,545	53,25
886,715	45,06
886,885	20,48
887,055	28,67
887,225	-24,58
887,395	53,25
887,565	96,25
887,735	102,4
887,905	-16,38
888,075	-4,1
888,244	28,67
888,414	77,82
888,584	94,21
888,754	28,67
888,924	63,49
889,093	188,41
889,263	67,58
889,433	126,97
889,603	53,25
889,772	-4,1
889,942	71,68
890,111	47,1
890,281	77,82
890,451	73,73
890,62	-2,05
890,79	4,1
890,959	102,4
891,129	30,72
891,298	81,92
891,468	14,34
891,637	106,49
891,807	0
891,976	57,34
892,146	-4,1
892,315	-26,62
892,485	73,73
892,654	-32,77
892,823	77,82
892,993	-59,39
893,162	98,3
893,331	135,17
893,501	20,48
893,67	86,01
893,839	14,34
894,008	-6,14
894,177	61,44
894,347	55,3
894,516	131,07
894,685	77,82
894,854	-10,24
895,023	45,06
895,192	69,63
