Data from mercure_USB4F104161__8__11-31-53-320.txt Node

Date: Tue Apr 14 11:31:53 EDT 2026
User: LaboPhy
Spectrometer: USB4F10416
Trigger mode: 4
Integration Time (sec): 1,000000E-1
Scans to average: 1
Electric dark correction enabled: true
Nonlinearity correction enabled: false
Boxcar width: 0
XAxis mode: Wavelengths
Number of Pixels in Spectrum: 3648
>>>>>Begin Spectral Data<<<<<
177,847	-186,37
178,066	-186,37
178,284	-186,37
178,502	-141,31
178,72	-180,22
178,939	-10,24
179,157	40,96
179,375	-34,82
179,593	55,3
179,812	63,49
180,03	-51,2
180,248	63,49
180,466	-22,53
180,685	-14,34
180,903	-2,05
181,121	-51,2
181,339	-36,86
181,557	-51,2
181,775	-18,43
181,994	-10,24
182,212	24,58
182,43	14,34
182,648	-36,86
182,866	32,77
183,084	24,58
183,302	-47,1
183,52	8,19
183,739	79,87
183,957	79,87
184,175	22,53
184,393	2,05
184,611	57,34
184,829	30,72
185,047	10,24
185,265	71,68
185,483	-12,29
185,701	49,15
185,919	6,14
186,137	34,82
186,355	90,11
186,573	2,05
186,791	63,49
187,009	92,16
187,227	81,92
187,445	38,91
187,663	34,82
187,881	-12,29
188,098	-0
188,316	-43,01
188,534	104,45
188,752	-2,05
188,97	-2,05
189,188	8,19
189,406	-10,24
189,624	43,01
189,841	67,58
190,059	-112,64
190,277	-16,38
190,495	-2,05
190,713	-26,62
190,931	180,22
191,148	43,01
191,366	-30,72
191,584	63,49
191,802	92,16
192,019	88,06
192,237	34,82
192,455	-26,62
192,673	81,92
192,89	-47,1
193,108	38,91
193,326	-98,3
193,543	65,53
193,761	55,3
193,979	96,25
194,196	-67,58
194,414	-8,19
194,632	81,92
194,849	-73,73
195,067	-73,73
195,285	34,82
195,502	-116,73
195,72	6,14
195,937	10,24
196,155	57,34
196,373	-38,91
196,59	-24,58
196,808	-83,97
197,025	18,43
197,243	202,75
197,46	8,19
197,678	26,62
197,895	8,19
198,113	-43,01
198,33	-92,16
198,548	118,78
198,765	24,58
198,983	88,06
199,2	-8,19
199,418	47,1
199,635	-18,43
199,853	59,39
200,07	14,34
200,288	22,53
200,505	-43,01
200,722	88,06
200,94	14,34
201,157	47,1
201,375	92,16
201,592	-59,39
201,809	67,58
202,027	98,3
202,244	14,34
202,461	47,1
202,679	-79,87
202,896	-18,43
203,113	-43,01
203,331	88,06
203,548	-16,38
203,765	49,15
203,982	30,72
204,2	34,82
204,417	-61,44
204,634	145,41
204,851	104,45
205,069	30,72
205,286	92,16
205,503	30,72
205,72	-32,77
205,937	71,68
206,155	22,53
206,372	71,68
206,589	32,77
206,806	81,92
207,023	-26,62
207,24	65,53
207,458	-38,91
207,675	-67,58
207,892	-18,43
208,109	-61,44
208,326	-10,24
208,543	-32,77
208,76	-2,05
208,977	112,64
209,194	59,39
209,411	-51,2
209,628	-8,19
209,845	55,3
210,062	51,2
210,279	-47,1
210,496	32,77
210,713	47,1
210,93	-57,34
211,147	104,45
211,364	-16,38
211,581	-10,24
211,798	73,73
212,015	-34,82
212,232	-51,2
212,449	6,14
212,666	-51,2
212,883	-49,15
213,1	30,72
213,317	18,43
213,533	-16,38
213,75	-32,77
213,967	-0
214,184	14,34
214,401	22,53
214,618	-55,3
214,835	-0
215,051	38,91
215,268	55,3
215,485	-2,05
215,702	-59,39
215,919	-0
216,135	122,88
216,352	81,92
216,569	-24,58
216,786	14,34
217,002	-16,38
217,219	49,15
217,436	-30,72
217,652	-63,49
217,869	43,01
218,086	161,79
218,302	75,77
218,519	79,87
218,736	-26,62
218,952	-116,73
219,169	34,82
219,386	75,77
219,602	40,96
219,819	98,3
220,036	-12,29
220,252	73,73
220,469	-40,96
220,685	14,34
220,902	-34,82
221,118	-10,24
221,335	6,14
221,552	28,67
221,768	30,72
221,985	47,1
222,201	-10,24
222,418	55,3
222,634	30,72
222,851	-16,38
223,067	57,34
223,284	71,68
223,5	30,72
223,716	8,19
223,933	6,14
224,149	14,34
224,366	71,68
224,582	-114,69
224,799	-16,38
225,015	8,19
225,231	-34,82
225,448	-2,05
225,664	30,72
225,88	-34,82
226,097	65,53
226,313	-16,38
226,529	51,2
226,746	-2,05
226,962	30,72
227,178	-12,29
227,395	-20,48
227,611	-38,91
227,827	63,49
228,044	75,77
228,26	63,49
228,476	22,53
228,692	145,41
228,909	-28,67
229,125	-38,91
229,341	-34,82
229,557	45,06
229,773	-100,35
229,99	24,58
230,206	-55,3
230,422	-10,24
230,638	-26,62
230,854	10,24
231,07	-79,87
231,286	77,82
231,503	24,58
231,719	6,14
231,935	-10,24
232,151	-0
232,367	120,83
232,583	59,39
232,799	63,49
233,015	14,34
233,231	-45,06
233,447	-2,05
233,663	-0
233,879	14,34
234,095	-55,3
234,311	106,49
234,527	83,97
234,743	30,72
234,959	65,53
235,175	16,38
235,391	-55,3
235,607	-2,05
235,823	81,92
236,039	34,82
236,255	63,49
236,471	51,2
236,687	-18,43
236,903	-100,35
237,118	47,1
237,334	55,3
237,55	-47,1
237,766	-59,39
237,982	10,24
238,198	67,58
238,413	-28,67
238,629	120,83
238,845	49,15
239,061	38,91
239,277	-38,91
239,492	-110,59
239,708	-6,14
239,924	-49,15
240,14	-14,34
240,355	47,1
240,571	6,14
240,787	-14,34
241,003	47,1
241,218	-14,34
241,434	38,91
241,65	22,53
241,865	26,62
242,081	36,86
242,297	-106,49
242,512	-0
242,728	92,16
242,944	-8,19
243,159	8,19
243,375	6,14
243,59	-2,05
243,806	-20,48
244,022	129,02
244,237	24,58
244,453	-26,62
244,668	88,06
244,884	194,56
245,099	-51,2
245,315	139,26
245,53	22,53
245,746	118,78
245,961	49,15
246,177	55,3
246,392	137,21
246,608	65,53
246,823	12,29
247,039	30,72
247,254	-67,58
247,47	40,96
247,685	-6,14
247,9	8,19
248,116	28,67
248,331	18,43
248,547	6,14
248,762	-32,77
248,977	30,72
249,193	59,39
249,408	145,41
249,623	81,92
249,839	-10,24
250,054	-59,39
250,269	8,19
250,485	71,68
250,7	30,72
250,915	81,92
251,13	55,3
251,346	43,01
251,561	112,64
251,776	104,45
251,991	-40,96
252,207	88,06
252,422	18,43
252,637	-2,05
252,852	-12,29
253,067	4,1
253,283	90,11
253,498	71,68
253,713	-2,05
253,928	-34,82
254,143	22,53
254,358	-43,01
254,573	-51,2
254,788	-83,97
255,004	38,91
255,219	-6,14
255,434	-67,58
255,649	-55,3
255,864	122,88
256,079	-34,82
256,294	-26,62
256,509	-16,38
256,724	-10,24
256,939	-38,91
257,154	6,14
257,369	24,58
257,584	49,15
257,799	-2,05
258,014	-16,38
258,229	2,05
258,444	98,3
258,659	-55,3
258,874	-43,01
259,089	-51,2
259,304	75,77
259,518	-10,24
259,733	-34,82
259,948	-67,58
260,163	57,34
260,378	-0
260,593	-22,53
260,808	24,58
261,022	-141,31
261,237	57,34
261,452	40,96
261,667	-18,43
261,882	139,26
262,096	16,38
262,311	92,16
262,526	-67,58
262,741	6,14
262,955	-32,77
263,17	55,3
263,385	10,24
263,6	-30,72
263,814	-43,01
264,029	-55,3
264,244	47,1
264,458	16,38
264,673	104,45
264,888	67,58
265,102	71,68
265,317	-10,24
265,532	-26,62
265,746	120,83
265,961	22,53
266,175	55,3
266,39	112,64
266,605	-47,1
266,819	51,2
267,034	100,35
267,248	-22,53
267,463	6,14
267,677	-18,43
267,892	8,19
268,106	-139,26
268,321	-2,05
268,535	129,02
268,75	61,44
268,964	-43,01
269,179	55,3
269,393	2,05
269,608	14,34
269,822	-67,58
270,036	-77,82
270,251	-43,01
270,465	38,91
270,68	16,38
270,894	-47,1
271,108	147,45
271,323	-2,05
271,537	32,77
271,752	106,49
271,966	-24,58
272,18	-98,3
272,394	-10,24
272,609	-59,39
272,823	24,58
273,037	38,91
273,252	57,34
273,466	22,53
273,68	28,67
273,894	47,1
274,109	-63,49
274,323	-6,14
274,537	4,1
274,751	-22,53
274,966	8,19
275,18	10,24
275,394	-104,45
275,608	63,49
275,822	-98,3
276,036	14,34
276,25	14,34
276,465	14,34
276,679	38,91
276,893	-71,68
277,107	63,49
277,321	83,97
277,535	71,68
277,749	53,25
277,963	-49,15
278,177	-55,3
278,391	-18,43
278,605	-108,54
278,819	90,11
279,033	14,34
279,247	20,48
279,461	26,62
279,675	-59,39
279,889	-0
280,103	8,19
280,317	51,2
280,531	-38,91
280,745	-16,38
280,959	-18,43
281,173	22,53
281,387	59,39
281,601	-10,24
281,815	47,1
282,029	-98,3
282,242	14,34
282,456	-30,72
282,67	40,96
282,884	-26,62
283,098	51,2
283,312	-49,15
283,525	63,49
283,739	28,67
283,953	24,58
284,167	-43,01
284,381	-16,38
284,594	112,64
284,808	-18,43
285,022	-34,82
285,235	-14,34
285,449	71,68
285,663	38,91
285,877	-16,38
286,09	90,11
286,304	112,64
286,518	-10,24
286,731	-112,64
286,945	63,49
287,159	-26,62
287,372	-10,24
287,586	28,67
287,799	-18,43
288,013	-24,58
288,227	2,05
288,44	303,1
288,654	47,1
288,867	90,11
289,081	10,24
289,294	8,19
289,508	133,12
289,721	14,34
289,935	47,1
290,148	36,86
290,362	65,53
290,575	57,34
290,789	-32,77
291,002	-14,34
291,216	32,77
291,429	-14,34
291,643	30,72
291,856	-61,44
292,069	-12,29
292,283	-34,82
292,496	55,3
292,71	47,1
292,923	-18,43
293,136	8,19
293,35	45,06
293,563	-2,05
293,776	40,96
293,99	-2,05
294,203	55,3
294,416	-30,72
294,63	-0
294,843	24,58
295,056	51,2
295,269	18,43
295,483	-47,1
295,696	75,77
295,909	-12,29
296,122	67,58
296,335	47,1
296,549	-14,34
296,762	65,53
296,975	96,25
297,188	6,14
297,401	34,82
297,615	77,82
297,828	-83,97
298,041	92,16
298,254	-75,77
298,467	104,45
298,68	43,01
298,893	-24,58
299,106	-67,58
299,319	65,53
299,532	57,34
299,745	-67,58
299,958	-43,01
300,171	-79,87
300,384	-18,43
300,598	10,24
300,81	178,17
301,023	2,05
301,236	-32,77
301,449	69,63
301,662	-26,62
301,875	49,15
302,088	69,63
302,301	22,53
302,514	-59,39
302,727	47,1
302,94	-34,82
303,153	47,1
303,366	65,53
303,579	6,14
303,791	88,06
304,004	-43,01
304,217	38,91
304,43	28,67
304,643	63,49
304,855	30,72
305,068	47,1
305,281	49,15
305,494	63,49
305,707	30,72
305,919	45,06
306,132	-8,19
306,345	65,53
306,558	124,93
306,77	-8,19
306,983	14,34
307,196	-2,05
307,408	-8,19
307,621	38,91
307,834	47,1
308,046	-18,43
308,259	90,11
308,472	55,3
308,684	96,25
308,897	55,3
309,109	63,49
309,322	6,14
309,535	49,15
309,747	145,41
309,96	83,97
310,172	153,6
310,385	153,6
310,597	59,39
310,81	118,78
311,022	104,45
311,235	67,58
311,447	276,48
311,66	278,52
311,872	530,42
312,085	575,48
312,297	724,98
312,51	829,43
312,722	1132,53
312,934	1101,81
313,147	1095,66
313,359	1142,77
313,572	972,79
313,784	946,16
313,996	614,39
314,209	577,53
314,421	331,77
314,633	245,76
314,846	106,49
315,058	184,32
315,27	165,89
315,483	90,11
315,695	126,97
315,907	96,25
316,119	86,01
316,332	57,34
316,544	98,3
316,756	94,21
316,968	40,96
317,181	88,06
317,393	98,3
317,605	12,29
317,817	38,91
318,029	98,3
318,241	63,49
318,454	90,11
318,666	55,3
318,878	-10,24
319,09	-73,73
319,302	-14,34
319,514	24,58
319,726	30,72
319,938	120,83
320,15	73,73
320,362	-28,67
320,574	-40,96
320,786	20,48
320,999	22,53
321,211	36,86
321,423	63,49
321,635	55,3
321,847	169,98
322,058	34,82
322,27	75,77
322,482	61,44
322,694	129,02
322,906	-26,62
323,118	-10,24
323,33	57,34
323,542	-18,43
323,754	6,14
323,966	-124,93
324,178	124,93
324,389	69,63
324,601	98,3
324,813	63,49
325,025	112,64
325,237	55,3
325,449	94,21
325,66	38,91
325,872	34,82
326,084	96,25
326,296	79,87
326,507	55,3
326,719	100,35
326,931	-14,34
327,143	114,69
327,354	212,99
327,566	161,79
327,778	131,07
327,989	174,08
328,201	55,3
328,413	116,73
328,624	169,98
328,836	47,1
329,048	-34,82
329,259	118,78
329,471	30,72
329,682	40,96
329,894	98,3
330,106	-18,43
330,317	104,45
330,529	38,91
330,74	-32,77
330,952	55,3
331,163	-8,19
331,375	194,56
331,586	71,68
331,798	18,43
332,009	96,25
332,221	186,37
332,432	217,08
332,644	112,64
332,855	145,41
333,067	196,6
333,278	217,08
333,489	374,78
333,701	217,08
333,912	237,56
334,124	346,11
334,335	309,24
334,546	270,33
334,758	350,2
334,969	563,19
335,18	409,59
335,392	491,51
335,603	483,32
335,814	546,81
336,025	458,74
336,237	485,37
336,448	395,26
336,659	452,6
336,87	477,18
337,082	374,78
337,293	309,24
337,504	333,82
337,715	346,11
337,926	272,38
338,138	217,08
338,349	198,65
338,56	184,32
338,771	126,97
338,982	208,89
339,193	71,68
339,404	215,04
339,616	124,93
339,827	147,45
340,038	10,24
340,249	38,91
340,46	98,3
340,671	137,21
340,882	223,23
341,093	88,06
341,304	79,87
341,515	49,15
341,726	43,01
341,937	106,49
342,148	96,25
342,359	26,62
342,57	55,3
342,781	149,5
342,992	147,45
343,203	73,73
343,414	120,83
343,624	75,77
343,835	43,01
344,046	67,58
344,257	73,73
344,468	75,77
344,679	104,45
344,89	67,58
345,1	32,77
345,311	24,58
345,522	79,87
345,733	61,44
345,944	137,21
346,154	145,41
346,365	208,89
346,576	43,01
346,787	83,97
346,997	172,03
347,208	155,65
347,419	92,16
347,629	202,75
347,84	227,32
348,051	98,3
348,261	139,26
348,472	47,1
348,683	96,25
348,893	59,39
349,104	141,31
349,315	145,41
349,525	137,21
349,736	104,45
349,946	163,84
350,157	278,52
350,368	196,6
350,578	55,3
350,789	139,26
350,999	186,37
351,21	268,28
351,42	208,89
351,631	118,78
351,841	133,12
352,052	118,78
352,262	251,9
352,472	206,84
352,683	215,04
352,893	227,32
353,104	104,45
353,314	276,48
353,525	616,44
353,735	231,42
353,945	223,23
354,156	133,12
354,366	292,86
354,576	319,48
354,787	223,23
354,997	178,17
355,207	202,75
355,418	301,05
355,628	190,46
355,838	362,49
356,048	366,59
356,259	417,79
356,469	475,13
356,679	329,72
356,889	509,94
357,1	417,79
357,31	571,38
357,52	507,9
357,73	485,37
357,94	534,52
358,15	401,4
358,361	532,47
358,571	311,29
358,781	372,73
358,991	296,96
359,201	190,46
359,411	215,04
359,621	229,37
359,831	219,13
360,041	184,32
360,251	178,17
360,461	223,23
360,672	169,98
360,882	129,02
361,092	114,69
361,302	188,41
361,512	204,8
361,721	137,21
361,931	180,22
362,141	172,03
362,351	178,17
362,561	311,29
362,771	468,98
362,981	767,99
363,191	1325,04
363,401	2234,33
363,611	3233,74
363,821	4136,9
364,03	5494,7
364,24	7096,21
364,45	8560,51
364,66	11372,37
364,87	12973,88
365,08	14106,41
365,289	14405,41
365,499	13793,07
365,709	11929,42
365,919	10047,33
366,128	7790,47
366,338	6440,86
366,548	5085,11
366,758	4433,85
366,967	3383,24
367,177	2660,31
367,387	1685,48
367,596	1073,14
367,806	923,63
368,016	636,92
368,225	491,51
368,435	491,51
368,644	309,24
368,854	245,76
369,064	286,72
369,273	182,27
369,483	292,86
369,692	180,22
369,902	219,13
370,111	280,57
370,321	204,8
370,53	212,99
370,74	225,28
370,949	258,04
371,159	350,2
371,368	294,91
371,578	325,63
371,787	313,34
371,997	219,13
372,206	227,32
372,416	274,43
372,625	217,08
372,834	235,52
373,044	206,84
373,253	227,32
373,462	303,1
373,672	284,67
373,881	321,53
374,09	309,24
374,3	352,25
374,509	309,24
374,718	278,52
374,928	475,13
375,137	407,55
375,346	333,82
375,555	483,32
375,765	321,53
375,974	303,1
376,183	444,41
376,392	237,56
376,601	317,44
376,811	260,09
377,02	317,44
377,229	288,76
377,438	292,86
377,647	165,89
377,856	243,71
378,065	221,18
378,275	243,71
378,484	192,51
378,693	325,63
378,902	346,11
379,111	360,44
379,32	350,2
379,529	389,11
379,738	382,97
379,947	448,51
380,156	376,83
380,365	368,63
380,574	454,65
380,783	321,53
380,992	331,77
381,201	301,05
381,41	235,52
381,619	292,86
381,828	434,17
382,037	382,97
382,245	428,03
382,454	491,51
382,663	387,07
382,872	507,9
383,081	604,15
383,29	669,69
383,499	634,87
383,707	849,91
383,916	849,91
384,125	1015,79
384,334	999,41
384,542	1191,92
384,751	1277,93
384,96	1374,19
385,169	1554,41
385,377	1603,56
385,586	1769,44
385,795	1992,67
386,004	2162,65
386,212	2090,98
386,421	2369,5
386,63	2508,76
386,838	2645,98
387,047	2693,08
387,255	2748,37
387,464	2775
387,673	2578,39
387,881	2918,36
388,09	2824,15
388,298	2375,64
388,507	2246,62
388,715	1947,62
388,924	1587,18
389,133	1126,38
389,341	903,15
389,55	696,31
389,758	577,53
389,967	598,01
390,175	452,6
390,383	460,79
390,592	468,98
390,8	337,91
391,009	382,97
391,217	415,74
391,426	391,16
391,634	227,32
391,842	309,24
392,051	262,14
392,259	325,63
392,467	268,28
392,676	188,41
392,884	366,59
393,092	204,8
393,301	362,49
393,509	284,67
393,717	391,16
393,925	335,87
394,134	251,9
394,342	256
394,55	423,93
394,758	354,3
394,967	237,56
395,175	178,17
395,383	276,48
395,591	198,65
395,799	403,45
396,007	231,42
396,216	374,78
396,424	309,24
396,632	286,72
396,84	268,28
397,048	296,96
397,256	264,19
397,464	251,9
397,672	391,16
397,88	202,75
398,088	235,52
398,296	342,01
398,504	317,44
398,712	378,87
398,92	401,4
399,128	352,25
399,336	403,45
399,544	370,68
399,752	364,54
399,96	405,5
400,168	417,79
400,376	362,49
400,584	344,06
400,792	354,3
401	251,9
401,207	247,8
401,415	243,71
401,623	321,53
401,831	178,17
402,039	387,07
402,247	352,25
402,454	571,38
402,662	911,35
402,87	1308,65
403,078	2252,77
403,285	2807,77
403,493	3790,79
403,701	4986,8
403,909	6248,35
404,116	7772,04
404,324	9475,95
404,532	11646,8
404,739	12742,46
404,947	12597,06
405,155	12506,95
405,362	10192,74
405,57	7894,92
405,778	5613,48
405,985	4083,65
406,193	3223,5
406,4	2668,5
406,608	2340,83
406,816	1777,64
407,023	1447,91
407,231	1384,43
407,438	1568,74
407,646	1808,36
407,853	1775,59
408,061	1646,57
408,268	1779,68
408,476	1366
408,683	1335,28
408,89	1046,51
409,098	765,94
409,305	571,38
409,513	589,81
409,72	489,46
409,927	393,21
410,135	344,06
410,342	325,63
410,55	409,59
410,757	241,66
410,964	192,51
411,172	327,67
411,379	350,2
411,586	276,48
411,793	190,46
412,001	301,05
412,208	309,24
412,415	385,02
412,622	313,34
412,83	360,44
413,037	358,39
413,244	272,38
413,451	456,7
413,658	436,22
413,866	395,26
414,073	401,4
414,28	485,37
414,487	366,59
414,694	522,23
414,901	362,49
415,108	391,16
415,315	430,07
415,522	581,62
415,73	358,39
415,937	360,44
416,144	317,44
416,351	315,39
416,558	387,07
416,765	331,77
416,972	389,11
417,179	358,39
417,386	425,98
417,593	428,03
417,8	423,93
418,006	417,79
418,213	444,41
418,42	481,27
418,627	555
418,834	417,79
419,041	442,36
419,248	456,7
419,455	458,74
419,661	534,52
419,868	464,89
420,075	452,6
420,282	346,11
420,489	475,13
420,696	491,51
420,902	538,62
421,109	481,27
421,316	417,79
421,523	473,08
421,729	407,55
421,936	382,97
422,143	473,08
422,349	352,25
422,556	247,8
422,763	430,07
422,969	274,43
423,176	258,04
423,383	313,34
423,589	511,99
423,796	325,63
424,002	194,56
424,209	370,68
424,416	415,74
424,622	251,9
424,829	196,6
425,035	202,75
425,242	317,44
425,448	278,52
425,655	393,21
425,861	362,49
426,068	243,71
426,274	325,63
426,481	256
426,687	350,2
426,894	301,05
427,1	235,52
427,306	260,09
427,513	360,44
427,719	313,34
427,926	237,56
428,132	260,09
428,338	292,86
428,545	319,48
428,751	305,15
428,957	309,24
429,163	323,58
429,37	329,72
429,576	387,07
429,782	288,76
429,989	229,37
430,195	321,53
430,401	315,39
430,607	325,63
430,813	227,32
431,02	370,68
431,226	456,7
431,432	342,01
431,638	391,16
431,844	325,63
432,05	323,58
432,257	272,38
432,463	417,79
432,669	391,16
432,875	333,82
433,081	434,17
433,287	571,38
433,493	612,34
433,699	1292,27
433,905	2316,25
434,111	3981,25
434,317	6088,61
434,523	9181,04
434,729	12035,91
434,935	15580,95
435,141	20365
435,347	23490,2
435,553	29662,78
435,759	33916,41
435,965	36517,33
436,171	36144,6
436,377	32165,4
436,582	28048,98
436,788	21538,49
436,994	16271,11
437,2	11829,07
437,406	8828,79
437,612	6188,96
437,818	4423,61
438,023	2615,26
438,229	1662,95
438,435	944,11
438,641	735,22
438,846	491,51
439,052	495,61
439,258	575,48
439,464	440,31
439,669	473,08
439,875	477,18
440,081	315,39
440,286	387,07
440,492	358,39
440,698	245,76
440,903	243,71
441,109	440,31
441,314	301,05
441,52	245,76
441,726	407,55
441,931	294,91
442,137	323,58
442,342	147,45
442,548	376,83
442,753	309,24
442,959	149,5
443,164	212,99
443,37	342,01
443,575	284,67
443,781	210,94
443,986	276,48
444,192	280,57
444,397	212,99
444,602	260,09
444,808	212,99
445,013	233,47
445,219	219,13
445,424	335,87
445,629	260,09
445,835	344,06
446,04	294,91
446,245	251,9
446,451	227,32
446,656	280,57
446,861	247,8
447,066	276,48
447,272	299
447,477	327,67
447,682	227,32
447,887	180,22
448,093	284,67
448,298	407,55
448,503	202,75
448,708	161,79
448,913	235,52
449,118	276,48
449,324	278,52
449,529	360,44
449,734	251,9
449,939	210,94
450,144	368,63
450,349	333,82
450,554	233,47
450,759	284,67
450,964	305,15
451,169	342,01
451,374	292,86
451,579	329,72
451,784	276,48
451,989	264,19
452,194	155,65
452,399	253,95
452,604	319,48
452,809	292,86
453,014	280,57
453,219	260,09
453,424	276,48
453,629	202,75
453,833	194,56
454,038	362,49
454,243	204,8
454,448	313,34
454,653	235,52
454,858	323,58
455,062	311,29
455,267	227,32
455,472	344,06
455,677	260,09
455,882	307,2
456,086	317,44
456,291	284,67
456,496	190,46
456,7	276,48
456,905	301,05
457,11	276,48
457,314	251,9
457,519	229,37
457,724	294,91
457,928	335,87
458,133	276,48
458,338	247,8
458,542	251,9
458,747	268,28
458,951	268,28
459,156	333,82
459,36	116,73
459,565	382,97
459,769	243,71
459,974	292,86
460,178	227,32
460,383	141,31
460,587	239,61
460,792	360,44
460,996	268,28
461,201	292,86
461,405	239,61
461,61	225,28
461,814	270,33
462,018	215,04
462,223	219,13
462,427	342,01
462,631	260,09
462,836	307,2
463,04	284,67
463,244	346,11
463,449	278,52
463,653	301,05
463,857	331,77
464,062	325,63
464,266	260,09
464,47	253,95
464,674	272,38
464,878	247,8
465,083	272,38
465,287	303,1
465,491	333,82
465,695	331,77
465,899	301,05
466,104	251,9
466,308	286,72
466,512	241,66
466,716	249,85
466,92	241,66
467,124	346,11
467,328	227,32
467,532	348,15
467,736	237,56
467,94	321,53
468,144	210,94
468,348	333,82
468,552	319,48
468,756	219,13
468,96	305,15
469,164	260,09
469,368	313,34
469,572	294,91
469,776	342,01
469,98	327,67
470,184	313,34
470,388	387,07
470,591	235,52
470,795	380,92
470,999	374,78
471,203	337,91
471,407	299
471,611	337,91
471,814	260,09
472,018	196,6
472,222	229,37
472,426	337,91
472,63	333,82
472,833	292,86
473,037	352,25
473,241	358,39
473,444	309,24
473,648	710,65
473,852	292,86
474,055	253,95
474,259	292,86
474,463	333,82
474,666	327,67
474,87	210,94
475,074	356,35
475,277	253,95
475,481	436,22
475,684	344,06
475,888	321,53
476,091	288,76
476,295	292,86
476,498	327,67
476,702	317,44
476,905	382,97
477,109	434,17
477,312	315,39
477,516	219,13
477,719	458,74
477,923	280,57
478,126	319,48
478,329	311,29
478,533	313,34
478,736	342,01
478,94	284,67
479,143	335,87
479,346	284,67
479,55	276,48
479,753	342,01
479,956	221,18
480,159	239,61
480,363	317,44
480,566	407,55
480,769	301,05
480,972	292,86
481,176	366,59
481,379	425,98
481,582	417,79
481,785	243,71
481,988	428,03
482,192	311,29
482,395	368,63
482,598	350,2
482,801	423,93
483,004	432,12
483,207	387,07
483,41	325,63
483,613	407,55
483,817	305,15
484,02	296,96
484,223	366,59
484,426	352,25
484,629	333,82
484,832	399,35
485,035	354,3
485,238	358,39
485,441	360,44
485,644	339,96
485,846	485,37
486,049	315,39
486,252	335,87
486,455	305,15
486,658	366,59
486,861	466,94
487,064	481,27
487,267	337,91
487,47	411,64
487,672	425,98
487,875	483,32
488,078	352,25
488,281	505,85
488,484	358,39
488,686	456,7
488,889	387,07
489,092	391,16
489,295	415,74
489,497	518,14
489,7	446,46
489,903	514,04
490,105	419,83
490,308	415,74
490,511	473,08
490,713	458,74
490,916	516,09
491,118	616,44
491,321	559,1
491,524	620,53
491,726	643,06
491,929	548,86
492,131	598,01
492,334	595,96
492,536	489,46
492,739	509,94
492,941	495,61
493,144	415,74
493,346	522,23
493,549	444,41
493,751	425,98
493,954	458,74
494,156	309,24
494,359	507,9
494,561	342,01
494,763	458,74
494,966	323,58
495,168	446,46
495,37	389,11
495,573	374,78
495,775	403,45
495,977	481,27
496,18	397,31
496,382	491,51
496,584	327,67
496,787	440,31
496,989	315,39
497,191	317,44
497,393	471,03
497,595	358,39
497,798	397,31
498	342,01
498,202	432,12
498,404	370,68
498,606	387,07
498,808	372,73
499,011	458,74
499,213	456,7
499,415	374,78
499,617	522,23
499,819	434,17
500,021	514,04
500,223	436,22
500,425	337,91
500,627	419,83
500,829	423,93
501,031	448,51
501,233	368,63
501,435	428,03
501,637	489,46
501,839	507,9
502,041	417,79
502,243	434,17
502,445	368,63
502,647	389,11
502,848	391,16
503,05	337,91
503,252	413,69
503,454	475,13
503,656	378,87
503,858	350,2
504,059	399,35
504,261	423,93
504,463	481,27
504,665	380,92
504,867	448,51
505,068	497,66
505,27	423,93
505,472	466,94
505,673	342,01
505,875	366,59
506,077	395,26
506,278	395,26
506,48	342,01
506,682	364,54
506,883	432,12
507,085	546,81
507,287	284,67
507,488	524,28
507,69	432,12
507,891	421,88
508,093	516,09
508,294	376,83
508,496	382,97
508,697	382,97
508,899	458,74
509,1	460,79
509,302	454,65
509,503	419,83
509,705	346,11
509,906	362,49
510,108	286,72
510,309	391,16
510,51	419,83
510,712	417,79
510,913	380,92
511,114	423,93
511,316	393,21
511,517	514,04
511,718	376,83
511,92	454,65
512,121	391,16
512,322	401,4
512,524	514,04
512,725	378,87
512,926	475,13
513,127	339,96
513,329	532,47
513,53	405,5
513,731	432,12
513,932	391,16
514,133	419,83
514,334	407,55
514,536	464,89
514,737	481,27
514,938	473,08
515,139	450,55
515,34	358,39
515,541	434,17
515,742	481,27
515,943	565,24
516,144	491,51
516,345	413,69
516,546	464,89
516,747	481,27
516,948	382,97
517,149	473,08
517,35	407,55
517,551	415,74
517,752	376,83
517,953	452,6
518,154	399,35
518,355	477,18
518,556	464,89
518,756	331,77
518,957	444,41
519,158	507,9
519,359	505,85
519,56	432,12
519,761	450,55
519,961	475,13
520,162	497,66
520,363	360,44
520,564	374,78
520,764	514,04
520,965	368,63
521,166	485,37
521,366	417,79
521,567	489,46
521,768	475,13
521,968	374,78
522,169	374,78
522,37	333,82
522,57	419,83
522,771	391,16
522,972	325,63
523,172	485,37
523,373	473,08
523,573	430,07
523,774	468,98
523,974	477,18
524,175	407,55
524,375	344,06
524,576	376,83
524,776	382,97
524,977	387,07
525,177	464,89
525,378	321,53
525,578	491,51
525,778	505,85
525,979	534,52
526,179	440,31
526,38	448,51
526,58	417,79
526,78	403,45
526,981	522,23
527,181	452,6
527,381	481,27
527,582	499,7
527,782	548,86
527,982	499,7
528,182	391,16
528,383	389,11
528,583	393,21
528,783	407,55
528,983	403,45
529,183	407,55
529,384	382,97
529,584	483,32
529,784	481,27
529,984	374,78
530,184	411,64
530,384	401,4
530,584	395,26
530,784	477,18
530,984	382,97
531,185	460,79
531,385	423,93
531,585	366,59
531,785	393,21
531,985	438,27
532,185	399,35
532,385	350,2
532,585	452,6
532,785	450,55
532,984	286,72
533,184	464,89
533,384	417,79
533,584	323,58
533,784	393,21
533,984	399,35
534,184	366,59
534,384	442,36
534,583	415,74
534,783	360,44
534,983	483,32
535,183	391,16
535,383	323,58
535,582	442,36
535,782	464,89
535,982	581,62
536,182	440,31
536,381	417,79
536,581	407,55
536,781	350,2
536,98	432,12
537,18	395,26
537,38	423,93
537,579	497,66
537,779	391,16
537,979	514,04
538,178	301,05
538,378	458,74
538,577	368,63
538,777	342,01
538,976	409,59
539,176	387,07
539,376	415,74
539,575	391,16
539,774	458,74
539,974	362,49
540,173	477,18
540,373	507,9
540,572	366,59
540,772	489,46
540,971	417,79
541,171	507,9
541,37	505,85
541,569	526,33
541,769	440,31
541,968	387,07
542,167	546,81
542,367	415,74
542,566	489,46
542,765	546,81
542,965	573,43
543,164	497,66
543,363	546,81
543,562	612,34
543,761	614,39
543,961	825,33
544,16	1261,55
544,359	3311,57
544,558	6412,19
544,757	10985,3
544,957	16946,94
545,156	24563,34
545,355	31850,01
545,554	39916,96
545,753	47062,32
545,952	52057,32
546,151	56806,56
546,35	58035,34
546,549	55461,04
546,748	51678,44
546,947	46437,69
547,146	40539,54
547,345	33072,65
547,544	27209,31
547,743	21681,85
547,942	16094,99
548,141	11249,49
548,34	6946,71
548,539	4065,22
548,738	2598,87
548,937	1777,64
549,135	1345,52
549,334	817,14
549,533	808,95
549,732	706,55
549,931	690,17
550,13	587,77
550,328	479,22
550,527	483,32
550,726	563,19
550,925	475,13
551,123	475,13
551,322	444,41
551,521	440,31
551,72	407,55
551,918	460,79
552,117	425,98
552,315	454,65
552,514	329,72
552,713	370,68
552,911	423,93
553,11	305,15
553,309	309,24
553,507	360,44
553,706	333,82
553,904	325,63
554,103	333,82
554,301	378,87
554,5	309,24
554,698	370,68
554,897	321,53
555,095	385,02
555,294	356,35
555,492	354,3
555,69	360,44
555,889	251,9
556,087	368,63
556,286	407,55
556,484	309,24
556,682	317,44
556,881	280,57
557,079	350,2
557,277	311,29
557,476	307,2
557,674	296,96
557,872	329,72
558,07	360,44
558,269	262,14
558,467	327,67
558,665	354,3
558,863	335,87
559,062	270,33
559,26	301,05
559,458	178,17
559,656	292,86
559,854	272,38
560,052	247,8
560,25	325,63
560,449	563,19
560,647	346,11
560,845	161,79
561,043	264,19
561,241	350,2
561,439	423,93
561,637	280,57
561,835	296,96
562,033	311,29
562,231	346,11
562,429	251,9
562,627	262,14
562,825	204,8
563,023	331,77
563,221	313,34
563,418	358,39
563,616	253,95
563,814	350,2
564,012	262,14
564,21	350,2
564,408	315,39
564,605	251,9
564,803	188,41
565,001	489,46
565,199	182,27
565,397	276,48
565,594	342,01
565,792	382,97
565,99	180,22
566,188	327,67
566,385	374,78
566,583	294,91
566,781	399,35
566,978	378,87
567,176	374,78
567,373	464,89
567,571	333,82
567,769	292,86
567,966	284,67
568,164	301,05
568,361	251,9
568,559	352,25
568,756	342,01
568,954	350,2
569,151	399,35
569,349	432,12
569,546	245,76
569,744	337,91
569,941	317,44
570,139	391,16
570,336	260,09
570,534	382,97
570,731	245,76
570,928	237,56
571,126	432,12
571,323	342,01
571,52	276,48
571,718	258,04
571,915	391,16
572,112	290,81
572,31	317,44
572,507	294,91
572,704	294,91
572,901	313,34
573,099	292,86
573,296	415,74
573,493	251,9
573,69	301,05
573,887	323,58
574,085	432,12
574,282	327,67
574,479	342,01
574,676	395,26
574,873	419,83
575,07	333,82
575,267	583,67
575,464	843,76
575,661	1513,45
575,858	1959,91
576,055	2885,59
576,252	3827,65
576,449	4743,1
576,646	5504,94
576,843	6012,84
577,04	6469,53
577,237	6479,77
577,434	6682,52
577,631	6569,88
577,828	6686,62
578,025	6879,13
578,222	7079,83
578,419	7587,72
578,615	7788,43
578,812	8222,59
579,009	8025,99
579,206	7716,75
579,403	7718,79
579,599	7153,55
579,796	6313,89
579,993	5756,84
580,19	5146,55
580,386	4321,21
580,583	3512,27
580,78	2924,5
580,976	2418,65
581,173	1775,59
581,37	1333,23
581,566	854
581,763	612,34
581,96	450,55
582,156	458,74
582,353	417,79
582,549	522,23
582,746	313,34
582,942	360,44
583,139	499,7
583,335	401,4
583,532	428,03
583,728	284,67
583,925	360,44
584,121	382,97
584,318	362,49
584,514	403,45
584,711	475,13
584,907	507,9
585,103	294,91
585,3	423,93
585,496	409,59
585,693	374,78
585,889	382,97
586,085	425,98
586,281	358,39
586,478	319,48
586,674	368,63
586,87	387,07
587,067	366,59
587,263	372,73
587,459	466,94
587,655	288,76
587,851	436,22
588,048	526,33
588,244	346,11
588,44	444,41
588,636	466,94
588,832	450,55
589,028	505,85
589,224	409,59
589,42	292,86
589,617	450,55
589,813	423,93
590,009	344,06
590,205	368,63
590,401	421,88
590,597	393,21
590,793	464,89
590,989	337,91
591,185	319,48
591,38	432,12
591,576	360,44
591,772	325,63
591,968	350,2
592,164	387,07
592,36	348,15
592,556	342,01
592,752	419,83
592,948	329,72
593,143	311,29
593,339	294,91
593,535	321,53
593,731	301,05
593,926	448,51
594,122	258,04
594,318	407,55
594,514	497,66
594,709	309,24
594,905	362,49
595,101	450,55
595,296	391,16
595,492	374,78
595,688	374,78
595,883	397,31
596,079	378,87
596,275	288,76
596,47	286,72
596,666	278,52
596,861	272,38
597,057	317,44
597,252	280,57
597,448	327,67
597,643	344,06
597,839	403,45
598,034	382,97
598,23	268,28
598,425	358,39
598,621	360,44
598,816	327,67
599,011	313,34
599,207	329,72
599,402	360,44
599,597	493,56
599,793	454,65
599,988	323,58
600,183	432,12
600,379	432,12
600,574	382,97
600,769	491,51
600,965	364,54
601,16	346,11
601,355	382,97
601,55	430,07
601,745	415,74
601,941	495,61
602,136	522,23
602,331	374,78
602,526	409,59
602,721	370,68
602,916	292,86
603,111	317,44
603,307	278,52
603,502	399,35
603,697	301,05
603,892	356,35
604,087	358,39
604,282	366,59
604,477	372,73
604,672	321,53
604,867	301,05
605,062	317,44
605,257	374,78
605,452	501,75
605,646	501,75
605,841	350,2
606,036	333,82
606,231	278,52
606,426	354,3
606,621	219,13
606,816	284,67
607,01	360,44
607,205	434,17
607,4	303,1
607,595	350,2
607,79	260,09
607,984	270,33
608,179	237,56
608,374	233,47
608,569	286,72
608,763	180,22
608,958	227,32
609,153	270,33
609,347	260,09
609,542	180,22
609,736	147,45
609,931	256
610,126	229,37
610,32	194,56
610,515	284,67
610,709	456,7
610,904	243,71
611,098	129,02
611,293	122,88
611,487	215,04
611,682	153,6
611,876	182,27
612,071	194,56
612,265	239,61
612,46	186,37
612,654	272,38
612,848	190,46
613,043	235,52
613,237	231,42
613,432	202,75
613,626	245,76
613,82	227,32
614,014	296,96
614,209	206,84
614,403	116,73
614,597	258,04
614,792	212,99
614,986	137,21
615,18	178,17
615,374	169,98
615,568	227,32
615,763	284,67
615,957	206,84
616,151	260,09
616,345	256
616,539	204,8
616,733	194,56
616,927	221,18
617,121	167,93
617,316	155,65
617,51	256
617,704	217,08
617,898	235,52
618,092	178,17
618,286	120,83
618,48	92,16
618,674	237,56
618,868	294,91
619,061	161,79
619,255	188,41
619,449	163,84
619,643	129,02
619,837	319,48
620,031	202,75
620,225	296,96
620,419	133,12
620,612	186,37
620,806	176,13
621	221,18
621,194	202,75
621,388	147,45
621,581	264,19
621,775	167,93
621,969	192,51
622,162	157,69
622,356	243,71
622,55	245,76
622,743	120,83
622,937	169,98
623,131	286,72
623,324	264,19
623,518	202,75
623,712	143,36
623,905	182,27
624,099	212,99
624,292	231,42
624,486	180,22
624,679	169,98
624,873	223,23
625,066	245,76
625,26	131,07
625,453	165,89
625,647	169,98
625,84	198,65
626,034	235,52
626,227	190,46
626,42	215,04
626,614	219,13
626,807	221,18
627	210,94
627,194	90,11
627,387	186,37
627,58	47,1
627,774	131,07
627,967	237,56
628,16	210,94
628,353	186,37
628,547	217,08
628,74	270,33
628,933	116,73
629,126	264,19
629,319	219,13
629,513	225,28
629,706	145,41
629,899	229,37
630,092	202,75
630,285	165,89
630,478	229,37
630,671	313,34
630,864	264,19
631,057	210,94
631,25	311,29
631,443	194,56
631,636	266,24
631,829	284,67
632,022	370,68
632,215	194,56
632,408	229,37
632,601	258,04
632,794	153,6
632,987	239,61
633,18	194,56
633,373	194,56
633,566	122,88
633,758	122,88
633,951	221,18
634,144	217,08
634,337	167,93
634,53	178,17
634,722	292,86
634,915	186,37
635,108	108,54
635,301	247,8
635,493	278,52
635,686	409,59
635,879	325,63
636,071	190,46
636,264	272,38
636,457	423,93
636,649	194,56
636,842	325,63
637,034	409,59
637,227	292,86
637,42	333,82
637,612	202,75
637,805	247,8
637,997	458,74
638,19	284,67
638,382	290,81
638,575	268,28
638,767	327,67
638,96	335,87
639,152	344,06
639,344	389,11
639,537	262,14
639,729	337,91
639,922	307,2
640,114	387,07
640,306	317,44
640,499	280,57
640,691	217,08
640,883	237,56
641,075	212,99
641,268	264,19
641,46	268,28
641,652	335,87
641,844	202,75
642,037	251,9
642,229	311,29
642,421	370,68
642,613	245,76
642,805	317,44
642,998	251,9
643,19	417,79
643,382	446,46
643,574	366,59
643,766	419,83
643,958	325,63
644,15	479,22
644,342	452,6
644,534	411,64
644,726	342,01
644,918	489,46
645,11	393,21
645,302	417,79
645,494	481,27
645,686	401,4
645,878	391,16
646,07	452,6
646,262	409,59
646,453	393,21
646,645	456,7
646,837	354,3
647,029	415,74
647,221	389,11
647,413	284,67
647,604	327,67
647,796	317,44
647,988	393,21
648,18	276,48
648,371	333,82
648,563	319,48
648,755	358,39
648,947	223,23
649,138	333,82
649,33	284,67
649,521	325,63
649,713	333,82
649,905	317,44
650,096	419,83
650,288	374,78
650,479	387,07
650,671	399,35
650,863	450,55
651,054	378,87
651,246	497,66
651,437	393,21
651,629	423,93
651,82	444,41
652,011	505,85
652,203	557,05
652,394	423,93
652,586	456,7
652,777	454,65
652,968	417,79
653,16	440,31
653,351	491,51
653,542	602,1
653,734	440,31
653,925	464,89
654,116	401,4
654,308	481,27
654,499	417,79
654,69	374,78
654,881	415,74
655,073	419,83
655,264	382,97
655,455	366,59
655,646	286,72
655,837	499,7
656,028	370,68
656,219	292,86
656,411	305,15
656,602	368,63
656,793	385,02
656,984	432,12
657,175	301,05
657,366	391,16
657,557	376,83
657,748	393,21
657,939	333,82
658,13	327,67
658,321	497,66
658,512	460,79
658,703	450,55
658,894	432,12
659,084	458,74
659,275	413,69
659,466	468,98
659,657	458,74
659,848	413,69
660,039	444,41
660,23	425,98
660,42	362,49
660,611	397,31
660,802	419,83
660,993	458,74
661,183	442,36
661,374	391,16
661,565	532,47
661,755	428,03
661,946	419,83
662,137	399,35
662,327	335,87
662,518	348,15
662,709	335,87
662,899	260,09
663,09	329,72
663,28	288,76
663,471	247,8
663,662	385,02
663,852	342,01
664,043	317,44
664,233	231,42
664,424	294,91
664,614	219,13
664,804	194,56
664,995	305,15
665,185	317,44
665,376	137,21
665,566	374,78
665,756	278,52
665,947	202,75
666,137	292,86
666,328	329,72
666,518	253,95
666,708	301,05
666,898	251,9
667,089	471,03
667,279	305,15
667,469	370,68
667,659	352,25
667,85	481,27
668,04	374,78
668,23	301,05
668,42	342,01
668,61	317,44
668,8	342,01
668,991	358,39
669,181	468,98
669,371	335,87
669,561	401,4
669,751	415,74
669,941	374,78
670,131	448,51
670,321	270,33
670,511	260,09
670,701	292,86
670,891	202,75
671,081	292,86
671,271	288,76
671,461	206,84
671,651	256
671,841	253,95
672,03	237,56
672,22	186,37
672,41	256
672,6	305,15
672,79	161,79
672,98	176,13
673,169	243,71
673,359	227,32
673,549	278,52
673,739	231,42
673,928	256
674,118	292,86
674,308	235,52
674,497	268,28
674,687	206,84
674,877	186,37
675,066	243,71
675,256	243,71
675,446	342,01
675,635	311,29
675,825	237,56
676,014	245,76
676,204	239,61
676,393	319,48
676,583	335,87
676,772	290,81
676,962	262,14
677,151	274,43
677,341	239,61
677,53	280,57
677,72	296,96
677,909	284,67
678,099	251,9
678,288	206,84
678,477	282,62
678,667	243,71
678,856	227,32
679,045	260,09
679,235	215,04
679,424	307,2
679,613	391,16
679,802	194,56
679,992	188,41
680,181	141,31
680,37	198,65
680,559	120,83
680,748	153,6
680,938	190,46
681,127	133,12
681,316	165,89
681,505	145,41
681,694	96,25
681,883	114,69
682,072	153,6
682,261	165,89
682,45	6,14
682,639	71,68
682,828	178,17
683,017	210,94
683,206	65,53
683,395	147,45
683,584	169,98
683,773	221,18
683,962	112,64
684,151	34,82
684,34	208,89
684,529	75,77
684,718	141,31
684,907	141,31
685,095	227,32
685,284	147,45
685,473	169,98
685,662	192,51
685,851	155,65
686,039	165,89
686,228	210,94
686,417	104,45
686,606	274,43
686,794	169,98
686,983	131,07
687,172	71,68
687,36	104,45
687,549	110,59
687,738	112,64
687,926	98,3
688,115	133,12
688,303	137,21
688,492	96,25
688,68	4,1
688,869	8,19
689,057	38,91
689,246	55,3
689,434	79,87
689,623	14,34
689,811	169,98
690	81,92
690,188	190,46
690,377	126,97
690,565	219,13
690,753	243,71
690,942	153,6
691,13	260,09
691,318	106,49
691,507	145,41
691,695	202,75
691,883	180,22
692,072	182,27
692,26	169,98
692,448	137,21
692,636	18,43
692,824	104,45
693,013	172,03
693,201	167,93
693,389	67,58
693,577	174,08
693,765	129,02
693,953	131,07
694,141	55,3
694,329	45,06
694,518	161,79
694,706	55,3
694,894	88,06
695,082	38,91
695,27	149,5
695,458	124,93
695,646	194,56
695,834	237,56
696,022	256
696,209	227,32
696,397	229,37
696,585	245,76
696,773	235,52
696,961	303,1
697,149	268,28
697,337	210,94
697,525	276,48
697,712	235,52
697,9	120,83
698,088	180,22
698,276	237,56
698,463	112,64
698,651	194,56
698,839	114,69
699,027	229,37
699,214	210,94
699,402	71,68
699,59	47,1
699,777	116,73
699,965	81,92
700,152	94,21
700,34	38,91
700,528	120,83
700,715	96,25
700,903	108,54
701,09	65,53
701,278	67,58
701,465	104,45
701,653	61,44
701,84	24,58
702,028	63,49
702,215	120,83
702,402	79,87
702,59	49,15
702,777	116,73
702,965	86,01
703,152	124,93
703,339	120,83
703,527	14,34
703,714	79,87
703,901	92,16
704,088	145,41
704,276	43,01
704,463	88,06
704,65	61,44
704,837	71,68
705,025	139,26
705,212	79,87
705,399	161,79
705,586	149,5
705,773	157,69
705,96	90,11
706,147	63,49
706,335	106,49
706,522	194,56
706,709	129,02
706,896	223,23
707,083	223,23
707,27	149,5
707,457	210,94
707,644	143,36
707,831	204,8
708,018	114,69
708,205	40,96
708,392	131,07
708,578	174,08
708,765	26,62
708,952	120,83
709,139	104,45
709,326	133,12
709,513	139,26
709,7	65,53
709,886	161,79
710,073	180,22
710,26	178,17
710,447	53,25
710,633	96,25
710,82	88,06
711,007	88,06
711,193	71,68
711,38	79,87
711,567	106,49
711,753	151,55
711,94	114,69
712,127	112,64
712,313	88,06
712,5	88,06
712,686	167,93
712,873	71,68
713,059	131,07
713,246	135,17
713,432	169,98
713,619	24,58
713,805	61,44
713,992	172,03
714,178	55,3
714,365	147,45
714,551	202,75
714,737	129,02
714,924	69,63
715,11	178,17
715,297	63,49
715,483	24,58
715,669	98,3
715,855	153,6
716,042	129,02
716,228	59,39
716,414	172,03
716,6	36,86
716,787	161,79
716,973	139,26
717,159	98,3
717,345	100,35
717,531	43,01
717,718	63,49
717,904	139,26
718,09	63,49
718,276	75,77
718,462	122,88
718,648	129,02
718,834	14,34
719,02	153,6
719,206	112,64
719,392	114,69
719,578	71,68
719,764	110,59
719,95	104,45
720,136	120,83
720,322	126,97
720,508	176,13
720,694	108,54
720,879	14,34
721,065	124,93
721,251	71,68
721,437	106,49
721,623	161,79
721,809	131,07
721,994	219,13
722,18	135,17
722,366	133,12
722,552	131,07
722,737	145,41
722,923	251,9
723,109	186,37
723,294	202,75
723,48	215,04
723,666	108,54
723,851	73,73
724,037	204,8
724,222	182,27
724,408	120,83
724,593	245,76
724,779	186,37
724,965	59,39
725,15	194,56
725,336	172,03
725,521	155,65
725,706	161,79
725,892	182,27
726,077	161,79
726,263	131,07
726,448	344,06
726,634	210,94
726,819	253,95
727,004	235,52
727,19	202,75
727,375	272,38
727,56	217,08
727,745	96,25
727,931	182,27
728,116	147,45
728,301	188,41
728,486	190,46
728,672	126,97
728,857	215,04
729,042	155,65
729,227	63,49
729,412	139,26
729,597	98,3
729,783	112,64
729,968	112,64
730,153	145,41
730,338	38,91
730,523	147,45
730,708	79,87
730,893	69,63
731,078	126,97
731,263	163,84
731,448	92,16
731,633	69,63
731,818	92,16
732,003	104,45
732,187	122,88
732,372	174,08
732,557	178,17
732,742	88,06
732,927	104,45
733,112	186,37
733,297	202,75
733,481	129,02
733,666	227,32
733,851	106,49
734,036	198,65
734,22	63,49
734,405	399,35
734,59	143,36
734,774	243,71
734,959	137,21
735,144	268,28
735,328	229,37
735,513	202,75
735,698	198,65
735,882	264,19
736,067	301,05
736,251	280,57
736,436	178,17
736,62	227,32
736,805	178,17
736,989	264,19
737,174	243,71
737,358	116,73
737,543	309,24
737,727	227,32
737,911	405,5
738,096	348,15
738,28	358,39
738,465	335,87
738,649	309,24
738,833	368,63
739,018	270,33
739,202	292,86
739,386	180,22
739,57	186,37
739,755	184,32
739,939	251,9
740,123	106,49
740,307	204,8
740,491	200,7
740,676	172,03
740,86	120,83
741,044	172,03
741,228	108,54
741,412	30,72
741,596	83,97
741,78	63,49
741,964	147,45
742,148	118,78
742,332	75,77
742,516	118,78
742,7	135,17
742,884	88,06
743,068	131,07
743,252	217,08
743,436	163,84
743,62	153,6
743,804	309,24
743,988	235,52
744,172	196,6
744,356	309,24
744,539	188,41
744,723	133,12
744,907	202,75
745,091	165,89
745,275	284,67
745,458	301,05
745,642	284,67
745,826	219,13
746,009	378,87
746,193	346,11
746,377	235,52
746,56	272,38
746,744	366,59
746,928	243,71
747,111	321,53
747,295	223,23
747,478	272,38
747,662	266,24
747,846	268,28
748,029	212,99
748,213	264,19
748,396	313,34
748,58	272,38
748,763	169,98
748,946	270,33
749,13	231,42
749,313	270,33
749,497	391,16
749,68	403,45
749,863	333,82
750,047	256
750,23	301,05
750,413	518,14
750,597	432,12
750,78	212,99
750,963	473,08
751,146	382,97
751,33	423,93
751,513	368,63
751,696	350,2
751,879	333,82
752,062	319,48
752,246	280,57
752,429	253,95
752,612	219,13
752,795	264,19
752,978	204,8
753,161	106,49
753,344	63,49
753,527	178,17
753,71	79,87
753,893	126,97
754,076	30,72
754,259	69,63
754,442	92,16
754,625	92,16
754,808	268,28
754,991	147,45
755,174	104,45
755,357	122,88
755,539	83,97
755,722	147,45
755,905	194,56
756,088	153,6
756,271	131,07
756,453	133,12
756,636	55,3
756,819	186,37
757,002	161,79
757,184	260,09
757,367	264,19
757,55	294,91
757,732	262,14
757,915	149,5
758,098	182,27
758,28	153,6
758,463	163,84
758,645	231,42
758,828	229,37
759,011	225,28
759,193	186,37
759,376	233,47
759,558	163,84
759,741	196,6
759,923	165,89
760,105	270,33
760,288	235,52
760,47	98,3
760,653	124,93
760,835	182,27
761,017	145,41
761,2	276,48
761,382	243,71
761,564	186,37
761,747	202,75
761,929	163,84
762,111	262,14
762,294	309,24
762,476	489,46
762,658	425,98
762,84	595,96
763,022	677,88
763,205	833,52
763,387	860,15
763,569	890,87
763,751	767,99
763,933	747,51
764,115	622,58
764,297	604,15
764,479	731,12
764,661	505,85
764,843	497,66
765,025	348,15
765,207	399,35
765,389	245,76
765,571	210,94
765,753	344,06
765,935	301,05
766,117	186,37
766,299	358,39
766,481	301,05
766,663	155,65
766,845	116,73
767,026	184,32
767,208	124,93
767,39	135,17
767,572	112,64
767,753	102,4
767,935	135,17
768,117	178,17
768,299	200,7
768,48	122,88
768,662	163,84
768,844	63,49
769,025	221,18
769,207	137,21
769,389	104,45
769,57	260,09
769,752	188,41
769,933	165,89
770,115	284,67
770,296	212,99
770,478	288,76
770,659	104,45
770,841	411,64
771,022	210,94
771,204	350,2
771,385	346,11
771,567	395,26
771,748	468,98
771,929	378,87
772,111	450,55
772,292	595,96
772,473	475,13
772,655	466,94
772,836	462,84
773,017	485,37
773,199	401,4
773,38	362,49
773,561	423,93
773,742	331,77
773,923	313,34
774,105	344,06
774,286	358,39
774,467	262,14
774,648	290,81
774,829	198,65
775,01	227,32
775,191	155,65
775,372	227,32
775,553	208,89
775,734	212,99
775,915	161,79
776,096	196,6
776,277	178,17
776,458	239,61
776,639	352,25
776,82	638,97
777,001	509,94
777,182	604,15
777,363	587,77
777,544	706,55
777,725	710,65
777,906	491,51
778,086	530,42
778,267	489,46
778,448	393,21
778,629	313,34
778,809	335,87
778,99	206,84
779,171	194,56
779,352	221,18
779,532	145,41
779,713	92,16
779,894	65,53
780,074	206,84
780,255	112,64
780,435	124,93
780,616	178,17
780,797	137,21
780,977	30,72
781,158	14,34
781,338	34,82
781,519	38,91
781,699	190,46
781,88	81,92
782,06	104,45
782,241	65,53
782,421	-34,82
782,601	-14,34
782,782	40,96
782,962	137,21
783,142	26,62
783,323	51,2
783,503	75,77
783,683	63,49
783,864	139,26
784,044	114,69
784,224	225,28
784,404	38,91
784,585	116,73
784,765	79,87
784,945	186,37
785,125	32,77
785,305	100,35
785,485	231,42
785,666	137,21
785,846	40,96
786,026	133,12
786,206	10,24
786,386	86,01
786,566	169,98
786,746	98,3
786,926	30,72
787,106	-69,63
787,286	55,3
787,466	98,3
787,646	75,77
787,826	106,49
788,006	116,73
788,185	116,73
788,365	83,97
788,545	108,54
788,725	90,11
788,905	47,1
789,085	24,58
789,264	32,77
789,444	141,31
789,624	65,53
789,804	106,49
789,983	196,6
790,163	40,96
790,343	71,68
790,522	139,26
790,702	28,67
790,882	36,86
791,061	204,8
791,241	26,62
791,42	51,2
791,6	120,83
791,78	120,83
791,959	67,58
792,139	6,14
792,318	155,65
792,498	96,25
792,677	141,31
792,856	53,25
793,036	14,34
793,215	-18,43
793,395	40,96
793,574	90,11
793,753	38,91
793,933	194,56
794,112	81,92
794,291	116,73
794,471	315,39
794,65	264,19
794,829	100,35
795,008	178,17
795,188	202,75
795,367	239,61
795,546	169,98
795,725	83,97
795,904	63,49
796,084	116,73
796,263	153,6
796,442	161,79
796,621	163,84
796,8	169,98
796,979	145,41
797,158	79,87
797,337	34,82
797,516	133,12
797,695	131,07
797,874	161,79
798,053	155,65
798,232	81,92
798,411	65,53
798,59	24,58
798,769	-24,58
798,947	96,25
799,126	-0
799,305	141,31
799,484	34,82
799,663	24,58
799,842	77,82
800,02	106,49
800,199	8,19
800,378	215,04
800,557	149,5
800,735	155,65
800,914	147,45
801,093	104,45
801,271	262,14
801,45	227,32
801,628	249,85
801,807	126,97
801,986	178,17
802,164	79,87
802,343	100,35
802,521	-26,62
802,7	133,12
802,878	139,26
803,057	98,3
803,235	137,21
803,414	104,45
803,592	122,88
803,771	40,96
803,949	40,96
804,127	79,87
804,306	163,84
804,484	61,44
804,662	110,59
804,841	-26,62
805,019	30,72
805,197	-8,19
805,375	55,3
805,554	-34,82
805,732	43,01
805,91	55,3
806,088	-26,62
806,266	-4,1
806,445	-16,38
806,623	30,72
806,801	71,68
806,979	114,69
807,157	47,1
807,335	-38,91
807,513	20,48
807,691	65,53
807,869	-24,58
808,047	18,43
808,225	-26,62
808,403	83,97
808,581	57,34
808,759	104,45
808,937	6,14
809,115	145,41
809,293	124,93
809,471	16,38
809,649	159,74
809,826	110,59
810,004	153,6
810,182	133,12
810,36	270,33
810,538	309,24
810,715	368,63
810,893	448,51
811,071	522,23
811,248	497,66
811,426	655,35
811,604	612,34
811,781	489,46
811,959	423,93
812,137	333,82
812,314	292,86
812,492	229,37
812,669	212,99
812,847	210,94
813,024	237,56
813,202	229,37
813,379	147,45
813,557	176,13
813,734	157,69
813,912	178,17
814,089	100,35
814,267	178,17
814,444	96,25
814,621	67,58
814,799	38,91
814,976	112,64
815,153	73,73
815,331	38,91
815,508	69,63
815,685	-45,06
815,862	38,91
816,04	30,72
816,217	-30,72
816,394	-47,1
816,571	10,24
816,748	149,5
816,926	149,5
817,103	303,1
817,28	10,24
817,457	-51,2
817,634	90,11
817,811	-26,62
817,988	34,82
818,165	6,14
818,342	75,77
818,519	38,91
818,696	10,24
818,873	-55,3
819,05	129,02
819,227	6,14
819,404	47,1
819,581	86,01
819,758	-59,39
819,934	-22,53
820,111	26,62
820,288	-43,01
820,465	79,87
820,642	24,58
820,818	129,02
820,995	61,44
821,172	57,34
821,349	10,24
821,525	30,72
821,702	-81,92
821,879	-73,73
822,055	32,77
822,232	-8,19
822,409	45,06
822,585	49,15
822,762	30,72
822,938	104,45
823,115	79,87
823,291	14,34
823,468	169,98
823,644	-10,24
823,821	24,58
823,997	-57,34
824,174	-98,3
824,35	-2,05
824,527	63,49
824,703	47,1
824,879	2,05
825,056	65,53
825,232	120,83
825,408	-2,05
825,585	88,06
825,761	-2,05
825,937	47,1
826,113	88,06
826,29	83,97
826,466	-16,38
826,642	428,03
826,818	88,06
826,994	75,77
827,17	63,49
827,347	-47,1
827,523	79,87
827,699	34,82
827,875	45,06
828,051	79,87
828,227	47,1
828,403	38,91
828,579	145,41
828,755	57,34
828,931	63,49
829,107	118,78
829,283	114,69
829,459	-2,05
829,635	-6,14
829,811	-2,05
829,986	67,58
830,162	30,72
830,338	88,06
830,514	55,3
830,69	-28,67
830,865	6,14
831,041	30,72
831,217	4,1
831,393	-8,19
831,568	73,73
831,744	22,53
831,92	30,72
832,095	-43,01
832,271	-24,58
832,447	108,54
832,622	98,3
832,798	30,72
832,973	30,72
833,149	4,1
833,325	16,38
833,5	90,11
833,676	65,53
833,851	53,25
834,027	6,14
834,202	116,73
834,377	71,68
834,553	24,58
834,728	14,34
834,904	51,2
835,079	-0
835,254	-2,05
835,43	4,1
835,605	-26,62
835,78	30,72
835,955	49,15
836,131	26,62
836,306	38,91
836,481	71,68
836,656	10,24
836,832	81,92
837,007	-26,62
837,182	24,58
837,357	10,24
837,532	47,1
837,707	-43,01
837,882	116,73
838,057	104,45
838,232	96,25
838,407	79,87
838,582	-36,86
838,757	118,78
838,932	116,73
839,107	-43,01
839,282	-10,24
839,457	32,77
839,632	104,45
839,807	34,82
839,982	55,3
840,157	38,91
840,332	104,45
840,506	-2,05
840,681	38,91
840,856	147,45
841,031	6,14
841,205	90,11
841,38	92,16
841,555	145,41
841,73	116,73
841,904	153,6
842,079	131,07
842,254	210,94
842,428	139,26
842,603	65,53
842,777	120,83
842,952	71,68
843,126	32,77
843,301	147,45
843,476	120,83
843,65	223,23
843,825	178,17
843,999	215,04
844,173	112,64
844,348	153,6
844,522	169,98
844,697	137,21
844,871	122,88
845,045	163,84
845,22	174,08
845,394	155,65
845,568	75,77
845,743	178,17
845,917	88,06
846,091	45,06
846,265	18,43
846,44	169,98
846,614	124,93
846,788	133,12
846,962	108,54
847,136	92,16
847,31	57,34
847,485	106,49
847,659	-18,43
847,833	92,16
848,007	14,34
848,181	71,68
848,355	22,53
848,529	57,34
848,703	51,2
848,877	-116,73
849,051	131,07
849,225	8,19
849,399	26,62
849,573	-14,34
849,746	43,01
849,92	26,62
850,094	122,88
850,268	-20,48
850,442	47,1
850,616	-53,25
850,789	8,19
850,963	2,05
851,137	12,29
851,311	131,07
851,484	88,06
851,658	59,39
851,832	-30,72
852,005	38,91
852,179	8,19
852,352	32,77
852,526	47,1
852,7	126,97
852,873	63,49
853,047	36,86
853,22	71,68
853,394	57,34
853,567	30,72
853,741	4,1
853,914	22,53
854,088	131,07
854,261	-0
854,434	20,48
854,608	2,05
854,781	-51,2
854,955	-4,1
855,128	96,25
855,301	20,48
855,475	-2,05
855,648	-34,82
855,821	34,82
855,994	163,84
856,168	30,72
856,341	79,87
856,514	-32,77
856,687	-24,58
856,86	57,34
857,033	47,1
857,207	36,86
857,38	-16,38
857,553	49,15
857,726	8,19
857,899	14,34
858,072	-43,01
858,245	-34,82
858,418	16,38
858,591	-26,62
858,764	53,25
858,937	71,68
859,11	108,54
859,283	63,49
859,455	-8,19
859,628	-26,62
859,801	30,72
859,974	71,68
860,147	-45,06
860,32	137,21
860,492	55,3
860,665	-92,16
860,838	24,58
861,011	61,44
861,183	122,88
861,356	22,53
861,529	47,1
861,701	-2,05
861,874	-32,77
862,047	45,06
862,219	28,67
862,392	79,87
862,564	-2,05
862,737	-14,34
862,909	98,3
863,082	-34,82
863,254	65,53
863,427	-0
863,599	75,77
863,772	-18,43
863,944	98,3
864,117	55,3
864,289	55,3
864,461	-24,58
864,634	55,3
864,806	108,54
864,978	92,16
865,151	-0
865,323	65,53
865,495	108,54
865,667	59,39
865,84	55,3
866,012	14,34
866,184	71,68
866,356	65,53
866,528	40,96
866,7	32,77
866,873	-22,53
867,045	63,49
867,217	-51,2
867,389	63,49
867,561	4,1
867,733	26,62
867,905	59,39
868,077	57,34
868,249	40,96
868,421	10,24
868,593	-73,73
868,765	86,01
868,936	-71,68
869,108	47,1
869,28	73,73
869,452	-22,53
869,624	-10,24
869,796	49,15
869,968	88,06
870,139	147,45
870,311	6,14
870,483	100,35
870,654	-34,82
870,826	14,34
870,998	-8,19
871,17	20,48
871,341	16,38
871,513	38,91
871,684	18,43
871,856	-10,24
872,028	120,83
872,199	-26,62
872,371	-30,72
872,542	-14,34
872,714	-36,86
872,885	192,51
873,057	57,34
873,228	36,86
873,4	137,21
873,571	65,53
873,742	34,82
873,914	55,3
874,085	20,48
874,256	30,72
874,428	-55,3
874,599	-8,19
874,77	96,25
874,942	8,19
875,113	120,83
875,284	-18,43
875,455	-2,05
875,626	36,86
875,798	16,38
875,969	55,3
876,14	63,49
876,311	116,73
876,482	81,92
876,653	81,92
876,824	47,1
876,995	-47,1
877,166	88,06
877,337	94,21
877,508	-57,34
877,679	4,1
877,85	2,05
878,021	57,34
878,192	149,5
878,363	36,86
878,534	-36,86
878,705	-8,19
878,876	-2,05
879,047	120,83
879,217	-100,35
879,388	57,34
879,559	38,91
879,73	131,07
879,9	38,91
880,071	14,34
880,242	55,3
880,413	79,87
880,583	75,77
880,754	71,68
880,924	32,77
881,095	-26,62
881,266	-43,01
881,436	22,53
881,607	81,92
881,777	-30,72
881,948	45,06
882,118	71,68
882,289	-18,43
882,459	18,43
882,63	-16,38
882,8	-0
882,971	96,25
883,141	55,3
883,311	26,62
883,482	182,27
883,652	59,39
883,822	8,19
883,993	30,72
884,163	63,49
884,333	40,96
884,504	81,92
884,674	34,82
884,844	49,15
885,014	-8,19
885,184	47,1
885,355	-16,38
885,525	36,86
885,695	75,77
885,865	120,83
886,035	169,98
886,205	26,62
886,375	100,35
886,545	6,14
886,715	-34,82
886,885	133,12
887,055	16,38
887,225	30,72
887,395	14,34
887,565	139,26
887,735	114,69
887,905	124,93
888,075	38,91
888,244	81,92
888,414	49,15
888,584	114,69
888,754	30,72
888,924	61,44
889,093	157,69
889,263	51,2
889,433	-24,58
889,603	-81,92
889,772	92,16
889,942	49,15
890,111	96,25
890,281	90,11
890,451	-16,38
890,62	-6,14
890,79	6,14
890,959	55,3
891,129	30,72
891,298	18,43
891,468	20,48
891,637	47,1
891,807	112,64
891,976	90,11
892,146	55,3
892,315	81,92
892,485	63,49
892,654	79,87
892,823	-26,62
892,993	34,82
893,162	71,68
893,331	57,34
893,501	79,87
893,67	-8,19
893,839	-10,24
894,008	22,53
894,177	-59,39
894,347	14,34
894,516	114,69
894,685	-18,43
894,854	-18,43
895,023	88,06
895,192	6,14
