Data from neon_USB4F104161__5__11-46-32-184.txt Node

Date: Tue Apr 14 11:46:32 EDT 2026
User: LaboPhy
Spectrometer: USB4F10416
Trigger mode: 4
Integration Time (sec): 1,000000E-1
Scans to average: 1
Electric dark correction enabled: true
Nonlinearity correction enabled: false
Boxcar width: 0
XAxis mode: Wavelengths
Number of Pixels in Spectrum: 3648
>>>>>Begin Spectral Data<<<<<
177,847	-205,99
178,066	-205,99
178,284	-205,99
178,502	-156,84
178,72	-189,61
178,939	-60,59
179,157	29,52
179,375	-33,96
179,593	13,14
179,812	-25,77
180,03	80,72
180,248	4,95
180,466	0,85
180,685	15,19
180,903	31,57
181,121	-79,02
181,339	23,38
181,557	-27,82
181,775	-11,43
181,994	-11,43
182,212	27,48
182,43	-11,43
182,648	45,91
182,866	70,48
183,084	107,35
183,302	-27,82
183,52	62,29
183,739	37,72
183,957	19,29
184,175	23,38
184,393	37,72
184,611	56,15
184,829	19,29
185,047	25,43
185,265	52,05
185,483	45,91
185,701	80,72
185,919	88,92
186,137	-44,2
186,355	21,33
186,573	144,21
186,791	80,72
187,009	86,87
187,227	45,91
187,445	66,39
187,663	29,52
187,881	-3,24
188,098	107,35
188,316	15,19
188,534	58,2
188,752	-3,24
188,97	11,09
189,188	-19,63
189,406	-3,24
189,624	119,64
189,841	86,87
190,059	-52,39
190,277	-1,19
190,495	101,2
190,713	123,73
190,931	156,5
191,148	62,29
191,366	-33,96
191,584	-11,43
191,802	31,57
192,019	144,21
192,237	95,06
192,455	2,9
192,673	95,06
192,89	-19,63
193,108	-1,19
193,326	64,34
193,543	90,96
193,761	23,38
193,979	37,72
194,196	45,91
194,414	58,2
194,632	109,4
194,849	2,9
195,067	-11,43
195,285	58,2
195,502	21,33
195,72	15,19
195,937	37,72
196,155	29,52
196,373	13,14
196,59	33,62
196,808	0,85
197,025	121,68
197,243	242,51
197,46	123,73
197,678	64,34
197,895	90,96
198,113	-3,24
198,33	-11,43
198,548	78,68
198,765	-40,11
198,983	29,52
199,2	-11,43
199,418	107,35
199,635	52,05
199,853	56,15
200,07	-7,34
200,288	-25,77
200,505	-1,19
200,722	111,44
200,94	45,91
201,157	37,72
201,375	148,31
201,592	35,67
201,809	86,87
202,027	105,3
202,244	31,57
202,461	86,87
202,679	66,39
202,896	70,48
203,113	-29,87
203,331	13,14
203,548	4,95
203,765	37,72
203,982	105,3
204,2	-11,43
204,417	-36,01
204,634	185,17
204,851	43,86
205,069	111,44
205,286	66,39
205,503	60,24
205,72	23,38
205,937	29,52
206,155	-42,15
206,372	54,1
206,589	-36,01
206,806	-27,82
207,023	21,33
207,24	45,91
207,458	-15,53
207,675	-62,63
207,892	37,72
208,109	-9,39
208,326	45,91
208,543	21,33
208,76	15,19
208,977	72,53
209,194	47,96
209,411	-19,63
209,628	-54,44
209,845	29,52
210,062	47,96
210,279	-25,77
210,496	54,1
210,713	-17,58
210,93	-25,77
211,147	144,21
211,364	25,43
211,581	45,91
211,798	119,64
212,015	-33,96
212,232	90,96
212,449	9,05
212,666	23,38
212,883	17,24
213,1	54,1
213,317	-15,53
213,533	74,58
213,75	50
213,967	54,1
214,184	-3,24
214,401	54,1
214,618	9,05
214,835	-17,58
215,051	146,26
215,268	29,52
215,485	37,72
215,702	-17,58
215,919	-11,43
216,135	129,88
216,352	25,43
216,569	41,81
216,786	-48,3
217,002	111,44
217,219	4,95
217,436	21,33
217,652	21,33
217,869	72,53
218,086	203,6
218,302	45,91
218,519	142,16
218,736	-3,24
218,952	29,52
219,169	45,91
219,386	31,57
219,602	-11,43
219,819	-27,82
220,036	45,91
220,252	146,26
220,469	-7,34
220,685	31,57
220,902	109,4
221,118	66,39
221,335	-11,43
221,552	9,05
221,768	86,87
221,985	15,19
222,201	13,14
222,418	64,34
222,634	-23,72
222,851	88,92
223,067	15,19
223,284	-11,43
223,5	21,33
223,716	-11,43
223,933	-27,82
224,149	90,96
224,366	4,95
224,582	29,52
224,799	23,38
225,015	9,05
225,231	4,95
225,448	-23,72
225,664	88,92
225,88	-52,39
226,097	21,33
226,313	-19,63
226,529	127,83
226,746	66,39
226,962	4,95
227,178	78,68
227,395	-44,2
227,611	21,33
227,827	45,91
228,044	45,91
228,26	9,05
228,476	70,48
228,692	127,83
228,909	97,11
229,125	7
229,341	82,77
229,557	-5,29
229,773	-19,63
229,99	47,96
230,206	-19,63
230,422	-25,77
230,638	-40,11
230,854	0,85
231,07	-76,97
231,286	111,44
231,503	33,62
231,719	-25,77
231,935	43,86
232,151	31,57
232,367	111,44
232,583	21,33
232,799	47,96
233,015	97,11
233,231	19,29
233,447	-44,2
233,663	-44,2
233,879	103,25
234,095	-1,19
234,311	99,16
234,527	-25,77
234,743	37,72
234,959	97,11
235,175	29,52
235,391	11,09
235,607	11,09
235,823	97,11
236,039	78,68
236,255	-11,43
236,471	115,54
236,687	11,09
236,903	121,68
237,118	103,25
237,334	-3,24
237,55	111,44
237,766	-93,35
237,982	95,06
238,198	113,49
238,413	0,85
238,629	31,57
238,845	29,52
239,061	45,91
239,277	13,14
239,492	-31,91
239,708	-3,24
239,924	-3,24
240,14	37,72
240,355	115,54
240,571	-11,43
240,787	15,19
241,003	54,1
241,218	56,15
241,434	-21,67
241,65	129,88
241,865	-3,24
242,081	70,48
242,297	-60,59
242,512	58,2
242,728	21,33
242,944	62,29
243,159	56,15
243,375	58,2
243,59	-11,43
243,806	4,95
244,022	70,48
244,237	29,52
244,453	54,1
244,668	121,68
244,884	144,21
245,099	-21,67
245,315	187,22
245,53	99,16
245,746	80,72
245,961	66,39
246,177	74,58
246,392	111,44
246,608	123,73
246,823	21,33
247,039	-91,31
247,254	7
247,47	64,34
247,685	-25,77
247,9	-13,48
248,116	0,85
248,331	23,38
248,547	113,49
248,762	-74,92
248,977	25,43
249,193	50
249,408	138,07
249,623	4,95
249,839	58,2
250,054	-66,73
250,269	15,19
250,485	129,88
250,7	-1,19
250,915	86,87
251,13	93,01
251,346	43,86
251,561	162,64
251,776	54,1
251,991	-48,3
252,207	95,06
252,422	-7,34
252,637	-44,2
252,852	-23,72
253,067	-48,3
253,283	88,92
253,498	15,19
253,713	9,05
253,928	-19,63
254,143	-38,06
254,358	25,43
254,573	0,85
254,788	-19,63
255,004	54,1
255,219	-27,82
255,434	56,15
255,649	-126,12
255,864	86,87
256,079	39,76
256,294	41,81
256,509	33,62
256,724	15,19
256,939	13,14
257,154	37,72
257,369	54,1
257,584	58,2
257,799	25,43
258,014	21,33
258,229	152,4
258,444	37,72
258,659	90,96
258,874	68,44
259,089	70,48
259,304	76,63
259,518	21,33
259,733	-27,82
259,948	35,67
260,163	103,25
260,378	35,67
260,593	78,68
260,808	86,87
261,022	-50,35
261,237	103,25
261,452	37,72
261,667	-44,2
261,882	131,92
262,096	107,35
262,311	199,51
262,526	-50,35
262,741	54,1
262,955	23,38
263,17	25,43
263,385	4,95
263,6	-9,39
263,814	-19,63
264,029	-17,58
264,244	-1,19
264,458	136,02
264,673	7
264,888	105,3
265,102	86,87
265,317	-15,53
265,532	15,19
265,746	78,68
265,961	111,44
266,175	7
266,39	70,48
266,605	45,91
266,819	50
267,034	95,06
267,248	-23,72
267,463	0,85
267,677	13,14
267,892	29,52
268,106	-25,77
268,321	62,29
268,535	117,59
268,75	152,4
268,964	37,72
269,179	99,16
269,393	62,29
269,608	66,39
269,822	-1,19
270,036	-64,68
270,251	66,39
270,465	-48,3
270,68	70,48
270,894	56,15
271,108	111,44
271,323	-15,53
271,537	52,05
271,752	47,96
271,966	19,29
272,18	15,19
272,394	-11,43
272,609	95,06
272,823	13,14
273,037	4,95
273,252	13,14
273,466	0,85
273,68	113,49
273,894	72,53
274,109	-19,63
274,323	-31,91
274,537	37,72
274,751	-68,78
274,966	50
275,18	-23,72
275,394	-11,43
275,608	-76,97
275,822	-40,11
276,036	50
276,25	56,15
276,465	9,05
276,679	37,72
276,893	-21,67
277,107	72,53
277,321	-11,43
277,535	80,72
277,749	82,77
277,963	62,29
278,177	-76,97
278,391	54,1
278,605	47,96
278,819	45,91
279,033	39,76
279,247	29,52
279,461	82,77
279,675	70,48
279,889	70,48
280,103	54,1
280,317	41,81
280,531	-9,39
280,745	25,43
280,959	23,38
281,173	33,62
281,387	54,1
281,601	43,86
281,815	45,91
282,029	21,33
282,242	35,67
282,456	4,95
282,67	-17,58
282,884	-19,63
283,098	-33,96
283,312	7
283,525	-9,39
283,739	17,24
283,953	-3,24
284,167	127,83
284,381	39,76
284,594	29,52
284,808	70,48
285,022	-44,2
285,235	-40,11
285,449	119,64
285,663	15,19
285,877	45,91
286,09	39,76
286,304	54,1
286,518	88,92
286,731	-132,26
286,945	119,64
287,159	-64,68
287,372	0,85
287,586	29,52
287,799	43,86
288,013	-19,63
288,227	47,96
288,44	283,47
288,654	82,77
288,867	25,43
289,081	90,96
289,294	88,92
289,508	109,4
289,721	37,72
289,935	29,52
290,148	45,91
290,362	27,48
290,575	80,72
290,789	-7,34
291,002	29,52
291,216	13,14
291,429	62,29
291,643	-11,43
291,856	-60,59
292,069	62,29
292,283	-29,87
292,496	39,76
292,71	54,1
292,923	-23,72
293,136	-21,67
293,35	13,14
293,563	-81,07
293,776	62,29
293,99	62,29
294,203	50
294,416	15,19
294,63	43,86
294,843	-11,43
295,056	109,4
295,269	107,35
295,483	-13,48
295,696	35,67
295,909	4,95
296,122	9,05
296,335	90,96
296,549	9,05
296,762	121,68
296,975	17,24
297,188	43,86
297,401	27,48
297,615	74,58
297,828	21,33
298,041	115,54
298,254	4,95
298,467	117,59
298,68	-9,39
298,893	78,68
299,106	29,52
299,319	70,48
299,532	25,43
299,745	-81,07
299,958	4,95
300,171	-23,72
300,384	58,2
300,598	-38,06
300,81	80,72
301,023	15,19
301,236	-44,2
301,449	60,24
301,662	62,29
301,875	54,1
302,088	60,24
302,301	60,24
302,514	31,57
302,727	103,25
302,94	-36,01
303,153	11,09
303,366	4,95
303,579	15,19
303,791	62,29
304,004	66,39
304,217	66,39
304,43	13,14
304,643	93,01
304,855	-19,63
305,068	117,59
305,281	78,68
305,494	97,11
305,707	72,53
305,919	150,36
306,132	54,1
306,345	64,34
306,558	117,59
306,77	9,05
306,983	21,33
307,196	156,5
307,408	64,34
307,621	144,21
307,834	88,92
308,046	17,24
308,259	-11,43
308,472	13,14
308,684	107,35
308,897	-23,72
309,109	15,19
309,322	13,14
309,535	95,06
309,747	160,59
309,96	54,1
310,172	176,98
310,385	103,25
310,597	-11,43
310,81	64,34
311,022	-38,06
311,235	-52,39
311,447	-31,91
311,66	33,62
311,872	17,24
312,085	88,92
312,297	50
312,51	-60,59
312,722	2,9
312,934	78,68
313,147	-23,72
313,359	-50,35
313,572	-33,96
313,784	78,68
313,996	76,63
314,209	107,35
314,421	-11,43
314,633	-31,91
314,846	2,9
315,058	70,48
315,27	23,38
315,483	4,95
315,695	158,55
315,907	-3,24
316,119	-21,67
316,332	-44,2
316,544	107,35
316,756	29,52
316,968	56,15
317,181	74,58
317,393	37,72
317,605	-19,63
317,817	119,64
318,029	113,49
318,241	13,14
318,454	70,48
318,666	82,77
318,878	-50,35
319,09	-19,63
319,302	111,44
319,514	86,87
319,726	97,11
319,938	86,87
320,15	97,11
320,362	136,02
320,574	-36,01
320,786	50
320,999	-27,82
321,211	9,05
321,423	54,1
321,635	62,29
321,847	7
322,058	15,19
322,27	29,52
322,482	142,16
322,694	47,96
322,906	9,05
323,118	72,53
323,33	78,68
323,542	50
323,754	4,95
323,966	-85,16
324,178	47,96
324,389	78,68
324,601	82,77
324,813	41,81
325,025	4,95
325,237	19,29
325,449	21,33
325,66	7
325,872	45,91
326,084	39,76
326,296	29,52
326,507	72,53
326,719	-40,11
326,931	-11,43
327,143	119,64
327,354	93,01
327,566	47,96
327,778	113,49
327,989	72,53
328,201	56,15
328,413	123,73
328,624	162,64
328,836	47,96
329,048	-3,24
329,259	-36,01
329,471	54,1
329,682	25,43
329,894	-1,19
330,106	-31,91
330,317	56,15
330,529	-23,72
330,74	29,52
330,952	-19,63
331,163	-19,63
331,375	86,87
331,586	-3,24
331,798	13,14
332,009	29,52
332,221	33,62
332,432	78,68
332,644	78,68
332,855	-27,82
333,067	54,1
333,278	-27,82
333,489	107,35
333,701	-76,97
333,912	-19,63
334,124	-17,58
334,335	-40,11
334,546	-36,01
334,758	74,58
334,969	213,84
335,18	86,87
335,392	13,14
335,603	185,17
335,814	7
336,025	-50,35
336,237	-25,77
336,448	29,52
336,659	45,91
336,87	168,79
337,082	193,36
337,293	-17,58
337,504	29,52
337,715	84,82
337,926	45,91
338,138	-50,35
338,349	-40,11
338,56	60,24
338,771	-103,59
338,982	13,14
339,193	25,43
339,404	140,12
339,616	-25,77
339,827	90,96
340,038	-42,15
340,249	41,81
340,46	54,1
340,671	119,64
340,882	146,26
341,093	62,29
341,304	-17,58
341,515	70,48
341,726	33,62
341,937	58,2
342,148	95,06
342,359	37,72
342,57	58,2
342,781	97,11
342,992	70,48
343,203	107,35
343,414	86,87
343,624	66,39
343,835	103,25
344,046	127,83
344,257	56,15
344,468	72,53
344,679	123,73
344,89	213,84
345,1	103,25
345,311	176,98
345,522	203,6
345,733	185,17
345,944	299,86
346,154	209,75
346,365	242,51
346,576	146,26
346,787	164,69
346,997	254,8
347,208	250,71
347,419	62,29
347,629	187,22
347,84	250,71
348,051	148,31
348,261	64,34
348,472	62,29
348,683	95,06
348,893	119,64
349,104	54,1
349,315	-27,82
349,525	121,68
349,736	41,81
349,946	189,27
350,157	185,17
350,368	217,94
350,578	78,68
350,789	168,79
350,999	219,99
351,21	207,7
351,42	70,48
351,631	293,71
351,841	244,56
352,052	351,06
352,262	342,86
352,472	279,38
352,683	310,1
352,893	219,99
353,104	197,46
353,314	152,4
353,525	457,55
353,735	119,64
353,945	29,52
354,156	21,33
354,366	58,2
354,576	115,54
354,787	27,48
354,997	-46,25
355,207	-17,58
355,418	50
355,628	-13,48
355,838	21,33
356,048	-3,24
356,259	23,38
356,469	-3,24
356,679	0,85
356,889	15,19
357,1	-81,07
357,31	47,96
357,52	72,53
357,73	31,57
357,94	29,52
358,15	-38,06
358,361	23,38
358,571	37,72
358,781	129,88
358,991	119,64
359,201	74,58
359,411	168,79
359,621	152,4
359,831	260,95
360,041	148,31
360,251	189,27
360,461	222,03
360,672	152,4
360,882	-25,77
361,092	88,92
361,302	64,34
361,512	41,81
361,721	-7,34
361,931	88,92
362,141	7
362,351	70,48
362,561	33,62
362,771	7
362,981	111,44
363,191	-11,43
363,401	93,01
363,611	2,9
363,821	54,1
364,03	-42,15
364,24	17,24
364,45	21,33
364,66	258,9
364,87	-60,59
365,08	97,11
365,289	7
365,499	62,29
365,709	62,29
365,919	31,57
366,128	-36,01
366,338	80,72
366,548	-1,19
366,758	-11,43
366,967	29,52
367,177	0,85
367,387	-36,01
367,596	90,96
367,806	74,58
368,016	37,72
368,225	47,96
368,435	33,62
368,644	62,29
368,854	4,95
369,064	146,26
369,273	86,87
369,483	-7,34
369,692	45,91
369,902	23,38
370,111	136,02
370,321	-38,06
370,53	29,52
370,74	4,95
370,949	45,91
371,159	119,64
371,368	76,63
371,578	-33,96
371,787	72,53
371,997	-23,72
372,206	29,52
372,416	146,26
372,625	29,52
372,834	0,85
373,044	21,33
373,253	179,03
373,462	172,88
373,672	29,52
373,881	74,58
374,09	-31,91
374,3	70,48
374,509	4,95
374,718	-31,91
374,928	113,49
375,137	88,92
375,346	-3,24
375,555	170,83
375,765	47,96
375,974	-3,24
376,183	138,07
376,392	4,95
376,601	31,57
376,811	80,72
377,02	156,5
377,229	19,29
377,438	156,5
377,647	-21,67
377,856	-27,82
378,065	-1,19
378,275	7
378,484	13,14
378,693	-9,39
378,902	4,95
379,111	90,96
379,32	-9,39
379,529	13,14
379,738	45,91
379,947	39,76
380,156	-33,96
380,365	13,14
380,574	86,87
380,783	13,14
380,992	41,81
381,201	13,14
381,41	-46,25
381,619	-1,19
381,828	45,91
382,037	-17,58
382,245	68,44
382,454	97,11
382,663	7
382,872	33,62
383,081	58,2
383,29	62,29
383,499	29,52
383,707	80,72
383,916	29,52
384,125	95,06
384,334	45,91
384,542	95,06
384,751	31,57
384,96	7
385,169	-42,15
385,377	90,96
385,586	31,57
385,795	25,43
386,004	78,68
386,212	15,19
386,421	-44,2
386,63	21,33
386,838	97,11
387,047	50
387,255	111,44
387,464	107,35
387,673	-27,82
387,881	123,73
388,09	154,45
388,298	103,25
388,507	86,87
388,715	39,76
388,924	113,49
389,133	-56,49
389,341	-17,58
389,55	17,24
389,758	-11,43
389,967	95,06
390,175	78,68
390,383	97,11
390,592	146,26
390,8	41,81
391,009	4,95
391,217	82,77
391,426	113,49
391,634	43,86
391,842	33,62
392,051	29,52
392,259	131,92
392,467	7
392,676	-52,39
392,884	-48,3
393,092	31,57
393,301	37,72
393,509	64,34
393,717	31,57
393,925	-1,19
394,134	45,91
394,342	121,68
394,55	78,68
394,758	-42,15
394,967	-19,63
395,175	-60,59
395,383	56,15
395,591	-33,96
395,799	21,33
396,007	39,76
396,216	70,48
396,424	7
396,632	-15,53
396,84	-27,82
397,048	80,72
397,256	21,33
397,464	56,15
397,672	21,33
397,88	4,95
398,088	13,14
398,296	-3,24
398,504	4,95
398,712	41,81
398,92	21,33
399,128	-42,15
399,336	127,83
399,544	80,72
399,752	-31,91
399,96	78,68
400,168	-9,39
400,376	0,85
400,584	78,68
400,792	27,48
401	-31,91
401,207	45,91
401,415	15,19
401,623	62,29
401,831	64,34
402,039	7
402,247	0,85
402,454	101,2
402,662	-25,77
402,87	29,52
403,078	60,24
403,285	90,96
403,493	-60,59
403,701	-7,34
403,909	-50,35
404,116	29,52
404,324	29,52
404,532	2,9
404,739	9,05
404,947	21,33
405,155	29,52
405,362	144,21
405,57	-27,82
405,778	-60,59
405,985	17,24
406,193	-13,48
406,4	-66,73
406,608	2,9
406,816	13,14
407,023	21,33
407,231	-3,24
407,438	47,96
407,646	86,87
407,853	-1,19
408,061	39,76
408,268	90,96
408,476	-42,15
408,683	-23,72
408,89	54,1
409,098	43,86
409,305	37,72
409,513	47,96
409,72	31,57
409,927	86,87
410,135	148,31
410,342	17,24
410,55	70,48
410,757	-42,15
410,964	-44,2
411,172	64,34
411,379	86,87
411,586	-36,01
411,793	95,06
412,001	60,24
412,208	21,33
412,415	90,96
412,622	52,05
412,83	58,2
413,037	23,38
413,244	-11,43
413,451	29,52
413,658	17,24
413,866	45,91
414,073	82,77
414,28	113,49
414,487	-44,2
414,694	68,44
414,901	56,15
415,108	15,19
415,315	-11,43
415,522	170,83
415,73	15,19
415,937	13,14
416,144	-19,63
416,351	23,38
416,558	-1,19
416,765	-40,11
416,972	62,29
417,179	-44,2
417,386	47,96
417,593	41,81
417,8	37,72
418,006	60,24
418,213	-1,19
418,42	93,01
418,627	62,29
418,834	70,48
419,041	37,72
419,248	9,05
419,455	-1,19
419,661	41,81
419,868	15,19
420,075	45,91
420,282	-11,43
420,489	-33,96
420,696	21,33
420,902	105,3
421,109	84,82
421,316	-31,91
421,523	103,25
421,729	50
421,936	33,62
422,143	13,14
422,349	9,05
422,556	0,85
422,763	17,24
422,969	50
423,176	-33,96
423,383	-11,43
423,589	273,23
423,796	13,14
424,002	-40,11
424,209	90,96
424,416	62,29
424,622	15,19
424,829	0,85
425,035	-9,39
425,242	-9,39
425,448	-60,59
425,655	70,48
425,861	70,48
426,068	70,48
426,274	121,68
426,481	-5,29
426,687	54,1
426,894	33,62
427,1	68,44
427,306	-3,24
427,513	47,96
427,719	103,25
427,926	-1,19
428,132	-33,96
428,338	-9,39
428,545	58,2
428,751	11,09
428,957	80,72
429,163	-23,72
429,37	88,92
429,576	62,29
429,782	-7,34
429,989	-7,34
430,195	41,81
430,401	62,29
430,607	-11,43
430,813	-36,01
431,02	-3,24
431,226	39,76
431,432	23,38
431,638	58,2
431,844	-33,96
432,05	17,24
432,257	31,57
432,463	25,43
432,669	7
432,875	50
433,081	45,91
433,287	-3,24
433,493	-44,2
433,699	72,53
433,905	86,87
434,111	-7,34
434,317	23,38
434,523	86,87
434,729	54,1
434,935	-33,96
435,141	140,12
435,347	41,81
435,553	-3,24
435,759	70,48
435,965	-9,39
436,171	-21,67
436,377	156,5
436,582	62,29
436,788	15,19
436,994	50
437,2	37,72
437,406	95,06
437,612	101,2
437,818	95,06
438,023	-97,45
438,229	125,78
438,435	33,62
438,641	-17,58
438,846	54,1
439,052	101,2
439,258	-7,34
439,464	15,19
439,669	-11,43
439,875	105,3
440,081	103,25
440,286	-27,82
440,492	-5,29
440,698	37,72
440,903	76,63
441,109	168,79
441,314	-60,59
441,52	-9,39
441,726	54,1
441,931	-17,58
442,137	115,54
442,342	-74,92
442,548	138,07
442,753	62,29
442,959	-3,24
443,164	-15,53
443,37	47,96
443,575	0,85
443,781	-19,63
443,986	95,06
444,192	-13,48
444,397	4,95
444,602	7
444,808	4,95
445,013	37,72
445,219	13,14
445,424	136,02
445,629	33,62
445,835	80,72
446,04	-31,91
446,245	86,87
446,451	-15,53
446,656	-68,78
446,861	41,81
447,066	150,36
447,272	86,87
447,477	-44,2
447,682	-33,96
447,887	-11,43
448,093	4,95
448,298	99,16
448,503	-9,39
448,708	-13,48
448,913	-19,63
449,118	21,33
449,324	29,52
449,529	88,92
449,734	-33,96
449,939	-7,34
450,144	111,44
450,349	84,82
450,554	45,91
450,759	80,72
450,964	15,19
451,169	78,68
451,374	-15,53
451,579	-17,58
451,784	-11,43
451,989	4,95
452,194	64,34
452,399	31,57
452,604	4,95
452,809	37,72
453,014	7
453,219	37,72
453,424	101,2
453,629	-15,53
453,833	-36,01
454,038	138,07
454,243	37,72
454,448	52,05
454,653	148,31
454,858	95,06
455,062	-44,2
455,267	17,24
455,472	78,68
455,677	-50,35
455,882	31,57
456,086	129,88
456,291	58,2
456,496	-23,72
456,7	99,16
456,905	109,4
457,11	45,91
457,314	19,29
457,519	-13,48
457,724	45,91
457,928	95,06
458,133	31,57
458,338	31,57
458,542	35,67
458,747	54,1
458,951	4,95
459,156	66,39
459,36	-3,24
459,565	72,53
459,769	-89,26
459,974	-11,43
460,178	-21,67
460,383	-36,01
460,587	80,72
460,792	45,91
460,996	13,14
461,201	62,29
461,405	-11,43
461,61	-97,45
461,814	70,48
462,018	-36,01
462,223	-66,73
462,427	-19,63
462,631	39,76
462,836	4,95
463,04	78,68
463,244	78,68
463,449	37,72
463,653	131,92
463,857	52,05
464,062	86,87
464,266	54,1
464,47	4,95
464,674	7
464,878	72,53
465,083	-11,43
465,287	146,26
465,491	-23,72
465,695	39,76
465,899	-27,82
466,104	19,29
466,308	82,77
466,512	74,58
466,716	84,82
466,92	142,16
467,124	119,64
467,328	78,68
467,532	125,78
467,736	-17,58
467,94	78,68
468,144	-9,39
468,348	25,43
468,552	195,41
468,756	70,48
468,96	62,29
469,164	-11,43
469,368	52,05
469,572	78,68
469,776	127,83
469,98	97,11
470,184	111,44
470,388	144,21
470,591	138,07
470,795	168,79
470,999	187,22
471,203	136,02
471,407	125,78
471,611	129,88
471,814	99,16
472,018	-17,58
472,222	45,91
472,426	140,12
472,63	31,57
472,833	129,88
473,037	168,79
473,241	58,2
473,444	136,02
473,648	473,93
473,852	-27,82
474,055	78,68
474,259	-7,34
474,463	136,02
474,666	64,34
474,87	25,43
475,074	58,2
475,277	50
475,481	78,68
475,684	54,1
475,888	-27,82
476,091	29,52
476,295	72,53
476,498	21,33
476,702	90,96
476,905	80,72
477,109	222,03
477,312	-31,91
477,516	54,1
477,719	70,48
477,923	39,76
478,126	39,76
478,329	74,58
478,533	45,91
478,736	54,1
478,94	21,33
479,143	54,1
479,346	17,24
479,55	111,44
479,753	-7,34
479,956	4,95
480,159	-19,63
480,363	64,34
480,566	17,24
480,769	-11,43
480,972	13,14
481,176	-40,11
481,379	211,79
481,582	154,45
481,785	-7,34
481,988	29,52
482,192	123,73
482,395	-15,53
482,598	41,81
482,801	90,96
483,004	107,35
483,207	13,14
483,41	29,52
483,613	33,62
483,817	88,92
484,02	15,19
484,223	37,72
484,426	66,39
484,629	-3,24
484,832	76,63
485,035	29,52
485,238	70,48
485,441	86,87
485,644	58,2
485,846	86,87
486,049	-3,24
486,252	70,48
486,455	-21,67
486,658	76,63
486,861	95,06
487,064	107,35
487,267	-60,59
487,47	144,21
487,672	90,96
487,875	41,81
488,078	50
488,281	70,48
488,484	119,64
488,686	90,96
488,889	72,53
489,092	2,9
489,295	72,53
489,497	111,44
489,7	-15,53
489,903	62,29
490,105	-27,82
490,308	70,48
490,511	86,87
490,713	103,25
490,916	-31,91
491,118	138,07
491,321	41,81
491,524	-31,91
491,726	-3,24
491,929	-19,63
492,131	103,25
492,334	78,68
492,536	-15,53
492,739	11,09
492,941	41,81
493,144	27,48
493,346	15,19
493,549	13,14
493,751	-3,24
493,954	25,43
494,156	76,63
494,359	58,2
494,561	-9,39
494,763	33,62
494,966	84,82
495,168	54,1
495,37	-50,35
495,573	-3,24
495,775	35,67
495,977	90,96
496,18	13,14
496,382	170,83
496,584	74,58
496,787	111,44
496,989	82,77
497,191	62,29
497,393	189,27
497,595	-19,63
497,798	66,39
498	47,96
498,202	27,48
498,404	29,52
498,606	-19,63
498,808	121,68
499,011	54,1
499,213	119,64
499,415	4,95
499,617	35,67
499,819	82,77
500,021	136,02
500,223	-27,82
500,425	78,68
500,627	72,53
500,829	58,2
501,031	123,73
501,233	21,33
501,435	80,72
501,637	95,06
501,839	121,68
502,041	-25,77
502,243	54,1
502,445	29,52
502,647	105,3
502,848	56,15
503,05	131,92
503,252	183,12
503,454	222,03
503,656	295,76
503,858	271,19
504,059	299,86
504,261	215,89
504,463	408,4
504,665	209,75
504,867	133,97
505,068	127,83
505,27	168,79
505,472	45,91
505,673	111,44
505,875	50
506,077	-19,63
506,278	82,77
506,48	56,15
506,682	62,29
506,883	37,72
507,085	64,34
507,287	37,72
507,488	123,73
507,69	168,79
507,891	152,4
508,093	295,76
508,294	176,98
508,496	144,21
508,697	107,35
508,899	152,4
509,1	146,26
509,302	160,59
509,503	115,54
509,705	70,48
509,906	107,35
510,108	4,95
510,309	31,57
510,51	56,15
510,712	70,48
510,913	103,25
511,114	125,78
511,316	39,76
511,517	234,32
511,718	179,03
511,92	242,51
512,121	219,99
512,322	205,65
512,524	293,71
512,725	265,04
512,926	234,32
513,127	111,44
513,329	170,83
513,53	62,29
513,731	82,77
513,932	131,92
514,133	88,92
514,334	88,92
514,536	205,65
514,737	260,95
514,938	217,94
515,139	164,69
515,34	86,87
515,541	123,73
515,742	105,3
515,943	154,45
516,144	148,31
516,345	166,74
516,546	164,69
516,747	88,92
516,948	78,68
517,149	-36,01
517,35	54,1
517,551	4,95
517,752	56,15
517,953	99,16
518,154	31,57
518,355	244,56
518,556	84,82
518,756	54,1
518,957	129,88
519,158	271,19
519,359	193,36
519,56	144,21
519,761	226,13
519,961	213,84
520,162	355,15
520,363	117,59
520,564	162,64
520,764	258,9
520,965	168,79
521,166	267,09
521,366	203,6
521,567	179,03
521,768	160,59
521,968	86,87
522,169	88,92
522,37	88,92
522,57	13,14
522,771	105,3
522,972	-3,24
523,172	148,31
523,373	80,72
523,573	103,25
523,774	78,68
523,974	88,92
524,175	136,02
524,375	99,16
524,576	0,85
524,776	29,52
524,977	31,57
525,177	78,68
525,378	7
525,578	86,87
525,778	56,15
525,979	88,92
526,179	54,1
526,38	-15,53
526,58	-60,59
526,78	31,57
526,981	119,64
527,181	131,92
527,381	47,96
527,582	95,06
527,782	86,87
527,982	62,29
528,182	82,77
528,383	70,48
528,583	66,39
528,783	21,33
528,983	119,64
529,183	-52,39
529,384	90,96
529,584	193,36
529,784	179,03
529,984	68,44
530,184	-31,91
530,384	41,81
530,584	113,49
530,784	84,82
530,984	62,29
531,185	115,54
531,385	138,07
531,585	162,64
531,785	66,39
531,985	107,35
532,185	129,88
532,385	129,88
532,585	201,55
532,785	301,9
532,984	277,33
533,184	406,35
533,384	455,5
533,584	439,12
533,784	529,23
533,984	588,62
534,184	594,76
534,384	557,9
534,583	627,53
534,783	539,47
534,983	531,28
535,183	430,93
535,383	277,33
535,582	371,54
535,782	289,62
535,982	308,05
536,182	234,32
536,381	127,83
536,581	62,29
536,781	119,64
536,98	176,98
537,18	158,55
537,38	90,96
537,579	4,95
537,779	72,53
537,979	119,64
538,178	29,52
538,378	99,16
538,577	-11,43
538,777	47,96
538,976	105,3
539,176	244,56
539,376	275,28
539,575	197,46
539,774	432,97
539,974	367,44
540,173	537,42
540,373	572,24
540,572	613,2
540,772	562
540,971	480,08
541,171	504,65
541,37	469,84
541,569	351,06
541,769	314,19
541,968	209,75
542,167	168,79
542,367	78,68
542,566	41,81
542,765	-27,82
542,965	56,15
543,164	58,2
543,363	29,52
543,562	29,52
543,761	45,91
543,961	113,49
544,16	7
544,359	170,83
544,558	144,21
544,757	-29,87
544,957	125,78
545,156	111,44
545,355	58,2
545,554	33,62
545,753	-11,43
545,952	62,29
546,151	156,5
546,35	29,52
546,549	31,57
546,748	90,96
546,947	86,87
547,146	-52,39
547,345	39,76
547,544	-25,77
547,743	-60,59
547,942	15,19
548,141	62,29
548,34	17,24
548,539	-23,72
548,738	-11,43
548,937	15,19
549,135	17,24
549,334	-3,24
549,533	72,53
549,732	60,24
549,931	97,11
550,13	29,52
550,328	23,38
550,527	29,52
550,726	72,53
550,925	39,76
551,123	68,44
551,322	13,14
551,521	168,79
551,72	47,96
551,918	88,92
552,117	66,39
552,315	13,14
552,514	78,68
552,713	66,39
552,911	25,43
553,11	-46,25
553,309	103,25
553,507	95,06
553,706	29,52
553,904	152,4
554,103	138,07
554,301	138,07
554,5	41,81
554,698	29,52
554,897	64,34
555,095	-48,3
555,294	-85,16
555,492	54,1
555,69	80,72
555,889	-3,24
556,087	168,79
556,286	129,88
556,484	95,06
556,682	82,77
556,881	127,83
557,079	164,69
557,277	72,53
557,476	113,49
557,674	103,25
557,872	119,64
558,07	0,85
558,269	74,58
558,467	31,57
558,665	115,54
558,863	62,29
559,062	144,21
559,26	15,19
559,458	-27,82
559,656	119,64
559,854	-25,77
560,052	58,2
560,25	54,1
560,449	283,47
560,647	78,68
560,845	13,14
561,043	136,02
561,241	70,48
561,439	90,96
561,637	37,72
561,835	80,72
562,033	103,25
562,231	13,14
562,429	0,85
562,627	-13,48
562,825	-11,43
563,023	127,83
563,221	7
563,418	21,33
563,616	45,91
563,814	107,35
564,012	131,92
564,21	99,16
564,408	121,68
564,605	140,12
564,803	21,33
565,001	285,52
565,199	113,49
565,397	160,59
565,594	213,84
565,792	269,14
565,99	236,37
566,188	246,61
566,385	228,18
566,583	156,5
566,781	248,66
566,978	115,54
567,176	273,23
567,373	168,79
567,571	107,35
567,769	176,98
567,966	29,52
568,164	170,83
568,361	103,25
568,559	142,16
568,756	136,02
568,954	82,77
569,151	156,5
569,349	138,07
569,546	97,11
569,744	281,43
569,941	152,4
570,139	136,02
570,336	144,21
570,534	107,35
570,731	58,2
570,928	97,11
571,126	187,22
571,323	86,87
571,52	136,02
571,718	103,25
571,915	160,59
572,112	66,39
572,31	88,92
572,507	252,75
572,704	140,12
572,901	133,97
573,099	136,02
573,296	199,51
573,493	78,68
573,69	25,43
573,887	41,81
574,085	256,85
574,282	164,69
574,479	236,37
574,676	252,75
574,873	361,3
575,07	283,47
575,267	238,42
575,464	357,2
575,661	498,51
575,858	512,85
576,055	631,63
576,252	727,88
576,449	824,14
576,646	971,59
576,843	985,93
577,04	996,17
577,237	942,92
577,434	865,1
577,631	742,22
577,828	744,27
578,025	518,99
578,222	408,4
578,419	430,93
578,615	244,56
578,812	211,79
579,009	168,79
579,206	144,21
579,403	156,5
579,599	219,99
579,796	115,54
579,993	342,86
580,19	191,31
580,386	219,99
580,583	349,01
580,78	324,43
580,976	303,95
581,173	361,3
581,37	414,54
581,566	455,5
581,763	498,51
581,96	535,37
582,156	588,62
582,353	717,64
582,549	611,15
582,746	668,49
582,942	621,39
583,139	549,71
583,335	613,2
583,532	924,49
583,728	1698,62
583,925	2904,87
584,121	4240,15
584,318	6259,45
584,514	8671,95
584,711	11844,26
584,907	15559,27
585,103	19485,23
585,3	23327,22
585,496	26022,34
585,693	28828,06
585,889	29507,99
586,085	28281,25
586,281	26206,66
586,478	22235,65
586,674	19003,96
586,87	16620,12
587,067	13914,75
587,263	11309,74
587,459	8399,57
587,655	6445,81
587,851	5501,7
588,048	5198,6
588,244	5301
588,44	5690,11
588,636	5833,47
588,832	5802,75
589,028	5776,13
589,224	4928,27
589,42	4397,84
589,617	3924,76
589,813	3341,09
590,009	2777,9
590,205	2439,98
590,401	1880,89
590,597	1448,77
590,793	1309,51
590,989	1065,8
591,185	1000,26
591,38	955,21
591,576	840,52
591,772	645,96
591,968	643,92
592,164	588,62
592,36	512,85
592,556	518,99
592,752	562
592,948	629,58
593,143	938,82
593,339	1393,47
593,535	2181,94
593,731	2732,84
593,926	3816,22
594,122	4924,17
594,318	6128,38
594,514	7627,49
594,709	8542,93
594,905	9263,82
595,101	9589,44
595,296	9278,15
595,492	8387,29
595,688	7451,36
595,883	6501,11
596,079	5829,37
596,275	5038,86
596,47	4111,13
596,666	3232,55
596,861	2501,42
597,057	2265,91
597,252	2136,88
597,448	2278,19
597,643	2437,94
597,839	2718,51
598,034	2734,89
598,23	2749,23
598,425	2464,56
598,621	2413,36
598,816	2048,82
599,011	1733,43
599,207	1594,17
599,402	1383,23
599,597	1217,35
599,793	842,57
599,988	619,34
600,183	422,73
600,379	357,2
600,574	308,05
600,769	332,62
600,965	201,55
601,16	262,99
601,355	197,46
601,55	326,48
601,745	406,35
601,941	641,87
602,136	832,33
602,331	981,83
602,526	1243,97
602,721	1555,26
602,916	1823,55
603,111	2202,42
603,307	2491,18
603,502	2624,3
603,697	2601,77
603,892	2513,71
604,087	2233,14
604,282	2044,73
604,477	1776,44
604,672	1499,97
604,867	1321,79
605,062	973,64
605,257	725,83
605,452	613,2
605,646	414,54
605,841	547,66
606,036	842,57
606,231	1178,44
606,426	1610,56
606,621	2349,87
606,816	3461,92
607,01	4432,66
607,205	5370,63
607,4	6329,08
607,595	7918,3
607,79	8471,25
607,984	9167,56
608,179	9323,21
608,374	9372,36
608,569	9448,13
608,763	9343,69
608,958	9620,16
609,153	10425,01
609,347	11205,29
609,542	11784,87
609,736	12464,79
609,931	12761,75
610,126	13013,65
610,32	13003,41
610,515	12194,46
610,709	11164,33
610,904	9657,03
611,098	8098,52
611,293	7017,19
611,487	6003,45
611,682	4666,13
611,876	3341,09
612,071	2349,87
612,265	1545,02
612,46	1217,35
612,654	1309,51
612,848	1762,11
613,043	2566,96
613,237	3920,67
613,432	5176,07
613,626	7160,55
613,82	9310,92
614,014	11860,64
614,209	14836,34
614,403	16708,18
614,597	19331,63
614,792	20349,47
614,986	20972,05
615,18	20048,42
615,374	18831,93
615,568	16634,46
615,763	15700,58
615,957	14135,93
616,151	12604,05
616,345	11788,96
616,539	10517,17
616,733	9247,43
616,927	7852,77
617,121	6929,13
617,316	6030,07
617,51	5298,95
617,704	4428,56
617,898	4174,61
618,092	3423,01
618,286	2966,31
618,48	2317,11
618,674	1833,79
618,868	1399,62
619,061	875,34
619,255	758,6
619,449	562
619,643	385,87
619,837	543,57
620,031	488,27
620,225	707,4
620,419	572,24
620,612	947,01
620,806	1235,78
621	1635,13
621,194	2003,77
621,388	2569,01
621,581	3072,81
621,775	3568,41
621,969	4070,17
622,162	4217,62
622,356	4401,94
622,55	4211,48
622,743	3863,32
622,937	3388,19
623,131	2988,84
623,324	2693,93
623,518	2272,05
623,712	1981,24
623,905	1430,34
624,099	1053,51
624,292	809,8
624,486	533,33
624,679	381,78
624,873	392,02
625,066	486,22
625,26	867,14
625,453	1299,27
625,647	1872,7
625,84	2679,6
626,034	3668,77
626,227	4789
626,42	5724,93
626,614	6922,99
626,807	8196,82
627	9036,49
627,194	9097,93
627,387	9343,69
627,58	8649,43
627,774	7975,64
627,967	7127,78
628,16	6054,65
628,353	5298,95
628,547	4625,17
628,74	3881,75
628,933	2693,93
629,126	2175,8
629,319	1753,91
629,513	1712,96
629,706	1850,17
629,899	2233,14
630,092	2587,44
630,285	3150,63
630,478	3750,68
630,671	4207,38
630,864	4584,21
631,057	4610,83
631,25	4674,32
631,443	4344,6
631,636	4199,19
631,829	3797,79
632,022	4049,69
632,215	4262,68
632,408	4739,85
632,601	5694,21
632,794	6525,68
632,987	8243,93
633,18	9644,74
633,373	11500,2
633,566	12853,91
633,758	13666,95
633,951	14809,72
634,144	14774,9
634,337	14193,28
634,53	13075,09
634,722	11537,06
634,915	9548,48
635,108	8893,13
635,301	7508,71
635,493	6279,93
635,686	4856,59
635,879	3265,32
636,071	2087,73
636,264	1479,49
636,457	1119,04
636,649	779,08
636,842	1053,51
637,034	1651,52
637,227	2265,91
637,42	3126,05
637,612	4201,24
637,805	5767,93
637,997	7189,22
638,19	8927,95
638,382	10220,22
638,575	12354,2
638,767	14766,71
638,96	16980,56
639,152	19878,44
639,344	23165,43
639,537	26755,52
639,729	31095,16
639,922	36464,94
640,114	42612,94
640,306	47294,6
640,499	50882,64
640,691	52492,34
640,883	52572,21
641,075	49670,24
641,268	45523,1
641,46	39837,94
641,652	34208,08
641,844	29888,91
642,037	26438,08
642,229	21762,57
642,421	17525,32
642,613	12280,47
642,805	7762,65
642,998	4895,5
643,19	3167,01
643,382	2192,18
643,574	1432,38
643,766	963,4
643,958	766,79
644,15	717,64
644,342	576,33
644,534	586,57
644,726	381,78
644,918	439,12
645,11	275,28
645,302	260,95
645,494	277,33
645,686	248,66
645,878	226,13
646,07	248,66
646,262	281,43
646,453	185,17
646,645	170,83
646,837	301,9
647,029	217,94
647,221	142,16
647,413	86,87
647,604	119,64
647,796	226,13
647,988	156,5
648,18	203,6
648,371	125,78
648,563	211,79
648,755	213,84
648,947	238,42
649,138	631,63
649,33	1534,78
649,521	2585,39
649,713	3935
649,905	5335,81
650,096	7684,83
650,288	9890,49
650,479	12432,02
650,671	14715,51
650,863	16749,14
651,054	18068,03
651,246	18215,49
651,437	17758,79
651,629	17209,93
651,82	15630,95
652,011	13691,52
652,203	12194,46
652,394	11451,05
652,586	10556,08
652,777	9396,93
652,968	8125,15
653,16	6816,49
653,351	6148,86
653,542	5798,65
653,734	5298,95
653,925	5085,96
654,116	4881,16
654,308	4401,94
654,499	3760,92
654,69	3218,21
654,881	2980,65
655,073	2636,59
655,264	2341,68
655,455	1864,5
655,646	1463,1
655,837	1094,47
656,028	760,65
656,219	398,16
656,411	365,39
656,602	234,32
656,793	183,12
656,984	189,27
657,175	119,64
657,366	162,64
657,557	160,59
657,748	144,21
657,939	187,22
658,13	103,25
658,321	242,51
658,512	498,51
658,703	858,95
658,894	1286,98
659,084	1798,97
659,275	2487,09
659,466	3232,55
659,657	4076,31
659,848	4813,58
660,039	5481,22
660,23	6167,29
660,42	6259,45
660,611	6243,06
660,802	6257,4
660,993	5665,53
661,183	5092,1
661,374	4107,03
661,565	3869,47
661,755	3316,51
661,946	2874,15
662,137	2308,91
662,327	1710,91
662,518	1131,33
662,709	813,9
662,899	478,03
663,09	357,2
663,28	246,61
663,471	170,83
663,662	308,05
663,852	283,47
664,043	138,07
664,233	111,44
664,424	176,98
664,614	86,87
664,804	127,83
664,995	193,36
665,185	303,95
665,376	95,06
665,566	303,95
665,756	86,87
665,947	244,56
666,137	277,33
666,328	504,65
666,518	881,48
666,708	1626,94
666,898	2401,07
667,089	3543,84
667,279	4819,72
667,469	6159,1
667,659	7533,28
667,85	9071,31
668,04	10072,76
668,23	10678,96
668,42	11072,17
668,61	10850,99
668,8	10320,57
668,991	9347,78
669,181	8360,66
669,371	7250,66
669,561	6339,32
669,751	5677,82
669,941	4846,35
670,131	3955,48
670,321	3068,71
670,511	2536,24
670,701	2216,76
670,891	2409,26
671,081	2890,54
671,271	3552,03
671,461	4418,32
671,651	5182,21
671,841	5815,04
672,03	6548,21
672,22	6681,33
672,41	6527,73
672,6	6353,65
672,79	5978,87
672,98	5184,26
673,169	4608,78
673,359	4199,19
673,549	3504,93
673,739	3064,61
673,928	2618,16
674,118	1954,62
674,308	1479,49
674,497	1098,56
674,687	598,86
674,877	426,83
675,066	363,34
675,256	201,55
675,446	217,94
675,635	127,83
675,825	86,87
676,014	131,92
676,204	113,49
676,393	168,79
676,583	142,16
676,772	144,21
676,962	47,96
677,151	43,86
677,341	58,2
677,53	41,81
677,72	4,95
677,909	152,4
678,099	15,19
678,288	-3,24
678,477	58,2
678,667	29,52
678,856	148,31
679,045	152,4
679,235	56,15
679,424	111,44
679,613	181,07
679,802	82,77
679,992	70,48
680,181	131,92
680,37	111,44
680,559	-7,34
680,748	176,98
680,938	107,35
681,127	107,35
681,316	103,25
681,505	70,48
681,694	62,29
681,883	138,07
682,072	58,2
682,261	-15,53
682,45	45,91
682,639	-64,68
682,828	54,1
683,017	111,44
683,206	41,81
683,395	33,62
683,584	93,01
683,773	168,79
683,962	-15,53
684,151	-11,43
684,34	56,15
684,529	7
684,718	-1,19
684,907	37,72
685,095	103,25
685,284	131,92
685,473	56,15
685,662	25,43
685,851	9,05
686,039	52,05
686,228	23,38
686,417	2,9
686,606	119,64
686,794	-33,96
686,983	-11,43
687,172	-48,3
687,36	78,68
687,549	7
687,738	80,72
687,926	-33,96
688,115	90,96
688,303	7
688,492	111,44
688,68	-9,39
688,869	37,72
689,057	15,19
689,246	50
689,434	29,52
689,623	78,68
689,811	66,39
690	82,77
690,188	80,72
690,377	127,83
690,565	121,68
690,753	146,26
690,942	103,25
691,13	156,5
691,318	185,17
691,507	230,23
691,695	914,25
691,883	1481,53
692,072	2265,91
692,26	3322,66
692,448	4424,47
692,636	5567,23
692,824	6685,42
693,013	7901,92
693,201	8899,28
693,389	9214,66
693,577	9263,82
693,765	9134,79
693,953	8827,6
694,141	7830,24
694,329	6814,45
694,518	5987,07
694,706	5581,57
694,894	4756,24
695,082	4162,33
695,27	3586,85
695,458	2790,19
695,646	2009,91
695,834	1366,85
696,022	848,71
696,209	580,43
696,397	467,79
696,585	301,9
696,773	299,86
696,961	189,27
697,149	119,64
697,337	115,54
697,525	170,83
697,712	154,45
697,9	80,72
698,088	121,68
698,276	78,68
698,463	29,52
698,651	119,64
698,839	80,72
699,027	86,87
699,214	125,78
699,402	56,15
699,59	41,81
699,777	54,1
699,965	78,68
700,152	4,95
700,34	45,91
700,528	86,87
700,715	84,82
700,903	62,29
701,09	162,64
701,278	164,69
701,465	238,42
701,653	357,2
701,84	652,11
702,028	1561,41
702,215	2388,78
702,402	3601,18
702,59	4911,88
702,777	6402,8
702,965	8073,95
703,152	9462,47
703,339	10654,39
703,527	11752,1
703,714	11786,91
703,901	12161,69
704,088	11661,99
704,276	10724,02
704,463	9728,7
704,65	8608,47
704,837	7758,56
705,025	6884,08
705,212	6081,27
705,399	5436,16
705,586	4502,29
705,773	3781,4
705,96	2896,68
706,147	2024,25
706,335	1399,62
706,522	971,59
706,709	664,4
706,896	539,47
707,083	447,31
707,27	367,44
707,457	365,39
707,644	283,47
707,831	168,79
708,018	70,48
708,205	131,92
708,392	230,23
708,578	211,79
708,765	54,1
708,952	50
709,139	9,05
709,326	33,62
709,513	107,35
709,7	119,64
709,886	0,85
710,073	107,35
710,26	174,93
710,447	15,19
710,633	95,06
710,82	54,1
711,007	-40,11
711,193	29,52
711,38	60,24
711,567	95,06
711,753	78,68
711,94	78,68
712,127	103,25
712,313	70,48
712,5	33,62
712,686	119,64
712,873	39,76
713,059	23,38
713,246	113,49
713,432	82,77
713,619	39,76
713,805	56,15
713,992	129,88
714,178	45,91
714,365	88,92
714,551	166,74
714,737	86,87
714,924	-50,35
715,11	111,44
715,297	70,48
715,483	72,53
715,669	103,25
715,855	45,91
716,042	125,78
716,228	236,37
716,414	428,88
716,6	619,34
716,787	787,27
716,973	942,92
717,159	1272,64
717,345	1585,98
717,531	1702,72
717,718	1823,55
717,904	1913,66
718,09	1741,63
718,276	1844,03
718,462	1725,24
718,648	1573,69
718,834	1280,83
719,02	1168,2
719,206	987,97
719,392	924,49
719,578	815,94
719,764	686,92
719,95	613,2
720,136	580,43
720,322	324,43
720,508	301,9
720,694	152,4
720,879	144,21
721,065	168,79
721,251	15,19
721,437	72,53
721,623	103,25
721,809	82,77
721,994	88,92
722,18	136,02
722,366	-9,39
722,552	37,72
722,737	9,05
722,923	136,02
723,109	176,98
723,294	293,71
723,48	889,67
723,666	1323,84
723,851	1823,55
724,037	2532,14
724,222	3255,08
724,408	3881,75
724,593	4342,55
724,779	4838,16
724,965	5088,01
725,15	4954,89
725,336	4862,73
725,521	4715,28
725,706	4207,38
725,892	3830,55
726,077	3134,25
726,263	3023,66
726,448	2751,28
726,634	2290,48
726,819	2048,82
727,004	1913,66
727,19	1381,18
727,375	1250,11
727,56	678,73
727,745	488,27
727,931	445,26
728,116	226,13
728,301	176,98
728,486	154,45
728,672	70,48
728,857	140,12
729,042	17,24
729,227	70,48
729,412	93,01
729,597	29,52
729,783	90,96
729,968	7
730,153	86,87
730,338	-46,25
730,523	113,49
730,708	15,19
730,893	127,83
731,078	-15,53
731,263	45,91
731,448	13,14
731,633	80,72
731,818	-60,59
732,003	9,05
732,187	2,9
732,372	60,24
732,557	105,3
732,742	-74,92
732,927	-44,2
733,112	-17,58
733,297	74,58
733,481	31,57
733,666	31,57
733,851	-11,43
734,036	-93,35
734,22	0,85
734,405	158,55
734,59	41,81
734,774	54,1
734,959	31,57
735,144	107,35
735,328	54,1
735,513	-9,39
735,698	66,39
735,882	138,07
736,067	66,39
736,251	131,92
736,436	-21,67
736,62	54,1
736,805	37,72
736,989	109,4
737,174	7
737,358	-33,96
737,543	58,2
737,727	146,26
737,911	119,64
738,096	-3,24
738,28	84,82
738,465	25,43
738,649	129,88
738,833	64,34
739,018	47,96
739,202	-15,53
739,386	7
739,57	-3,24
739,755	39,76
739,939	107,35
740,123	0,85
740,307	193,36
740,491	47,96
740,676	-1,19
740,86	50
741,044	50
741,228	103,25
741,412	-25,77
741,596	-23,72
741,78	-31,91
741,964	90,96
742,148	29,52
742,332	58,2
742,516	-50,35
742,7	209,75
742,884	191,31
743,068	344,91
743,252	482,13
743,436	613,2
743,62	736,07
743,804	1057,61
743,988	1160
744,172	1289,03
744,356	1274,69
744,539	1209,15
744,723	1157,96
744,907	987,97
745,091	881,48
745,275	910,15
745,458	736,07
745,642	738,12
745,826	566,09
746,009	627,53
746,193	439,12
746,377	478,03
746,56	334,67
746,744	449,36
746,928	295,76
747,111	267,09
747,295	136,02
747,478	164,69
747,662	160,59
747,846	211,79
748,029	191,31
748,213	226,13
748,396	357,2
748,58	295,76
748,763	295,76
748,946	373,58
749,13	457,55
749,313	463,69
749,497	471,89
749,68	551,76
749,863	435,02
750,047	377,68
750,23	359,25
750,413	361,3
750,597	279,38
750,78	226,13
750,963	320,34
751,146	195,41
751,33	162,64
751,513	131,92
751,696	74,58
751,879	97,11
752,062	47,96
752,246	115,54
752,429	105,3
752,612	179,03
752,795	125,78
752,978	168,79
753,161	234,32
753,344	244,56
753,527	410,45
753,71	473,93
753,893	465,74
754,076	457,55
754,259	506,7
754,442	473,93
754,625	398,16
754,808	547,66
754,991	408,4
755,174	328,53
755,357	357,2
755,539	330,58
755,722	355,15
755,905	232,27
756,088	156,5
756,271	127,83
756,453	207,7
756,636	152,4
756,819	185,17
757,002	21,33
757,184	140,12
757,367	160,59
757,55	88,92
757,732	170,83
757,915	-7,34
758,098	-3,24
758,28	144,21
758,463	54,1
758,645	56,15
758,828	45,91
759,011	78,68
759,193	-1,19
759,376	68,44
759,558	-23,72
759,741	56,15
759,923	66,39
760,105	23,38
760,288	7
760,47	-109,74
760,653	9,05
760,835	-56,49
761,017	-38,06
761,2	-11,43
761,382	160,59
761,564	33,62
761,747	131,92
761,929	15,19
762,111	62,29
762,294	29,52
762,476	154,45
762,658	50
762,84	15,19
763,022	58,2
763,205	133,97
763,387	88,92
763,569	86,87
763,751	-81,07
763,933	-31,91
764,115	-60,59
764,297	-11,43
764,479	90,96
764,661	54,1
764,843	97,11
765,025	11,09
765,207	-9,39
765,389	13,14
765,571	-19,63
765,753	86,87
765,935	27,48
766,117	-44,2
766,299	39,76
766,481	160,59
766,663	-3,24
766,845	-60,59
767,026	9,05
767,208	33,62
767,39	-17,58
767,572	-3,24
767,753	99,16
767,935	23,38
768,117	56,15
768,299	174,93
768,48	62,29
768,662	78,68
768,844	-3,24
769,025	162,64
769,207	-27,82
769,389	39,76
769,57	119,64
769,752	54,1
769,933	-109,74
770,115	88,92
770,296	90,96
770,478	97,11
770,659	-44,2
770,841	176,98
771,022	17,24
771,204	17,24
771,385	113,49
771,567	140,12
771,748	127,83
771,929	31,57
772,111	25,43
772,292	111,44
772,473	13,14
772,655	2,9
772,836	17,24
773,017	144,21
773,199	78,68
773,38	-1,19
773,561	95,06
773,742	47,96
773,923	54,1
774,105	111,44
774,286	33,62
774,467	37,72
774,648	-11,43
774,829	27,48
775,01	29,52
775,191	2,9
775,372	-11,43
775,553	15,19
775,734	56,15
775,915	-60,59
776,096	54,1
776,277	95,06
776,458	41,81
776,639	33,62
776,82	119,64
777,001	37,72
777,182	54,1
777,363	4,95
777,544	0,85
777,725	111,44
777,906	25,43
778,086	-1,19
778,267	86,87
778,448	-1,19
778,629	45,91
778,809	62,29
778,99	-11,43
779,171	-1,19
779,352	13,14
779,532	25,43
779,713	29,52
779,894	62,29
780,074	217,94
780,255	62,29
780,435	31,57
780,616	125,78
780,797	56,15
780,977	29,52
781,158	-23,72
781,338	82,77
781,519	4,95
781,699	136,02
781,88	9,05
782,06	144,21
782,241	-1,19
782,421	9,05
782,601	29,52
782,782	39,76
782,962	127,83
783,142	21,33
783,323	39,76
783,503	54,1
783,683	50
783,864	66,39
784,044	37,72
784,224	80,72
784,404	136,02
784,585	31,57
784,765	41,81
784,945	142,16
785,125	4,95
785,305	70,48
785,485	152,4
785,666	93,01
785,846	0,85
786,026	-11,43
786,206	25,43
786,386	123,73
786,566	115,54
786,746	-5,29
786,926	21,33
787,106	-7,34
787,286	35,67
787,466	64,34
787,646	7
787,826	37,72
788,006	168,79
788,185	35,67
788,365	-46,25
788,545	78,68
788,725	-15,53
788,905	125,78
789,085	-15,53
789,264	37,72
789,444	72,53
789,624	43,86
789,804	37,72
789,983	47,96
790,163	25,43
790,343	21,33
790,522	62,29
790,702	99,16
790,882	13,14
791,061	205,65
791,241	-17,58
791,42	62,29
791,6	90,96
791,78	45,91
791,959	-21,67
792,139	4,95
792,318	21,33
792,498	101,2
792,677	99,16
792,856	62,29
793,036	7
793,215	13,14
793,395	39,76
793,574	-15,53
793,753	99,16
793,933	131,92
794,112	97,11
794,291	136,02
794,471	152,4
794,65	123,73
794,829	64,34
795,008	74,58
795,188	64,34
795,367	228,18
795,546	111,44
795,725	31,57
795,904	47,96
796,084	133,97
796,263	90,96
796,442	129,88
796,621	58,2
796,8	113,49
796,979	68,44
797,158	86,87
797,337	-11,43
797,516	97,11
797,695	148,31
797,874	103,25
798,053	103,25
798,232	62,29
798,411	-17,58
798,59	-1,19
798,769	-23,72
798,947	-11,43
799,126	17,24
799,305	50
799,484	17,24
799,663	-17,58
799,842	45,91
800,02	95,06
800,199	-113,83
800,378	82,77
800,557	31,57
800,735	21,33
800,914	-15,53
801,093	-9,39
801,271	39,76
801,45	15,19
801,628	127,83
801,807	29,52
801,986	72,53
802,164	58,2
802,343	-9,39
802,521	15,19
802,7	127,83
802,878	90,96
803,057	-27,82
803,235	0,85
803,414	70,48
803,592	-9,39
803,771	62,29
803,949	45,91
804,127	13,14
804,306	78,68
804,484	37,72
804,662	113,49
804,841	-91,31
805,019	121,68
805,197	70,48
805,375	56,15
805,554	37,72
805,732	-48,3
805,91	9,05
806,088	58,2
806,266	-3,24
806,445	70,48
806,623	-3,24
806,801	107,35
806,979	107,35
807,157	56,15
807,335	9,05
807,513	17,24
807,691	88,92
807,869	31,57
808,047	-3,24
808,225	-31,91
808,403	64,34
808,581	23,38
808,759	99,16
808,937	107,35
809,115	138,07
809,293	95,06
809,471	58,2
809,649	64,34
809,826	29,52
810,004	99,16
810,182	-7,34
810,36	103,25
810,538	70,48
810,715	76,63
810,893	-15,53
811,071	90,96
811,248	39,76
811,426	68,44
811,604	138,07
811,781	148,31
811,959	86,87
812,137	4,95
812,314	-19,63
812,492	82,77
812,669	62,29
812,847	31,57
813,024	43,86
813,202	189,27
813,379	86,87
813,557	113,49
813,734	222,03
813,912	127,83
814,089	107,35
814,267	82,77
814,444	160,59
814,621	111,44
814,799	58,2
814,976	160,59
815,153	72,53
815,331	170,83
815,508	78,68
815,685	37,72
815,862	80,72
816,04	33,62
816,217	4,95
816,394	50
816,571	13,14
816,748	193,36
816,926	86,87
817,103	293,71
817,28	4,95
817,457	4,95
817,634	80,72
817,811	43,86
817,988	76,63
818,165	64,34
818,342	76,63
818,519	80,72
818,696	21,33
818,873	-3,24
819,05	86,87
819,227	-42,15
819,404	45,91
819,581	9,05
819,758	97,11
819,934	39,76
820,111	4,95
820,288	-7,34
820,465	13,14
820,642	62,29
820,818	127,83
820,995	21,33
821,172	70,48
821,349	62,29
821,525	39,76
821,702	64,34
821,879	-17,58
822,055	-5,29
822,232	-7,34
822,409	76,63
822,585	47,96
822,762	58,2
822,938	41,81
823,115	19,29
823,291	-3,24
823,468	187,22
823,644	-7,34
823,821	142,16
823,997	54,1
824,174	-68,78
824,35	64,34
824,527	43,86
824,703	62,29
824,879	21,33
825,056	9,05
825,232	140,12
825,408	39,76
825,585	9,05
825,761	47,96
825,937	62,29
826,113	13,14
826,29	88,92
826,466	15,19
826,642	473,93
826,818	58,2
826,994	103,25
827,17	-17,58
827,347	129,88
827,523	23,38
827,699	33,62
827,875	43,86
828,051	82,77
828,227	15,19
828,403	168,79
828,579	138,07
828,755	103,25
828,931	-7,34
829,107	56,15
829,283	217,94
829,459	37,72
829,635	86,87
829,811	193,36
829,986	152,4
830,162	119,64
830,338	119,64
830,514	74,58
830,69	95,06
830,865	86,87
831,041	142,16
831,217	95,06
831,393	76,63
831,568	54,1
831,744	50
831,92	129,88
832,095	95,06
832,271	82,77
832,447	19,29
832,622	168,79
832,798	86,87
832,973	103,25
833,149	119,64
833,325	80,72
833,5	131,92
833,676	103,25
833,851	136,02
834,027	52,05
834,202	13,14
834,377	95,06
834,553	19,29
834,728	82,77
834,904	4,95
835,079	4,95
835,254	23,38
835,43	39,76
835,605	13,14
835,78	23,38
835,955	111,44
836,131	54,1
836,306	-17,58
836,481	62,29
836,656	111,44
836,832	236,37
837,007	203,6
837,182	332,62
837,357	349,01
837,532	338,77
837,707	361,3
837,882	455,5
838,057	486,22
838,232	320,34
838,407	326,48
838,582	269,14
838,757	242,51
838,932	226,13
839,107	207,7
839,282	78,68
839,457	277,33
839,632	271,19
839,807	262,99
839,982	160,59
840,157	267,09
840,332	250,71
840,506	146,26
840,681	144,21
840,856	226,13
841,031	152,4
841,205	197,46
841,38	228,18
841,555	301,9
841,73	176,98
841,904	168,79
842,079	68,44
842,254	133,97
842,428	138,07
842,603	37,72
842,777	47,96
842,952	72,53
843,126	80,72
843,301	43,86
843,476	58,2
843,65	39,76
843,825	146,26
843,999	105,3
844,173	-11,43
844,348	21,33
844,522	90,96
844,697	2,9
844,871	-44,2
845,045	148,31
845,22	88,92
845,394	127,83
845,568	-19,63
845,743	103,25
845,917	62,29
846,091	21,33
846,265	31,57
846,44	99,16
846,614	29,52
846,788	13,14
846,962	58,2
847,136	86,87
847,31	17,24
847,485	148,31
847,659	60,24
847,833	45,91
848,007	29,52
848,181	88,92
848,355	29,52
848,529	187,22
848,703	187,22
848,877	64,34
849,051	152,4
849,225	201,55
849,399	148,31
849,573	88,92
849,746	172,88
849,92	228,18
850,094	152,4
850,268	129,88
850,442	248,66
850,616	119,64
850,789	140,12
850,963	78,68
851,137	117,59
851,311	217,94
851,484	226,13
851,658	103,25
851,832	27,48
852,005	74,58
852,179	62,29
852,352	68,44
852,526	13,14
852,7	113,49
852,873	160,59
853,047	168,79
853,22	136,02
853,394	78,68
853,567	66,39
853,741	60,24
853,914	25,43
854,088	72,53
854,261	29,52
854,434	4,95
854,608	9,05
854,781	-36,01
854,955	29,52
855,128	64,34
855,301	-1,19
855,475	78,68
855,648	33,62
855,821	2,9
855,994	99,16
856,168	43,86
856,341	160,59
856,514	25,43
856,687	41,81
856,86	123,73
857,033	103,25
857,207	15,19
857,38	45,91
857,553	146,26
857,726	33,62
857,899	154,45
858,072	80,72
858,245	70,48
858,418	88,92
858,591	-11,43
858,764	121,68
858,937	131,92
859,11	68,44
859,283	140,12
859,455	54,1
859,628	56,15
859,801	181,07
859,974	181,07
860,147	111,44
860,32	197,46
860,492	-11,43
860,665	-42,15
860,838	123,73
861,011	127,83
861,183	105,3
861,356	95,06
861,529	179,03
861,701	21,33
861,874	54,1
862,047	156,5
862,219	7
862,392	103,25
862,564	54,1
862,737	33,62
862,909	158,55
863,082	105,3
863,254	224,08
863,427	50
863,599	158,55
863,772	95,06
863,944	78,68
864,117	95,06
864,289	74,58
864,461	103,25
864,634	205,65
864,806	119,64
864,978	174,93
865,151	109,4
865,323	260,95
865,495	299,86
865,667	211,79
865,84	303,95
866,012	127,83
866,184	283,47
866,356	131,92
866,528	162,64
866,7	201,55
866,873	105,3
867,045	154,45
867,217	70,48
867,389	154,45
867,561	86,87
867,733	138,07
867,905	127,83
868,077	217,94
868,249	144,21
868,421	95,06
868,593	64,34
868,765	183,12
868,936	144,21
869,108	111,44
869,28	260,95
869,452	152,4
869,624	45,91
869,796	136,02
869,968	52,05
870,139	131,92
870,311	9,05
870,483	148,31
870,654	80,72
870,826	29,52
870,998	78,68
871,17	95,06
871,341	-46,25
871,513	103,25
871,684	109,4
871,856	33,62
872,028	88,92
872,199	-64,68
872,371	23,38
872,542	-7,34
872,714	58,2
872,885	144,21
873,057	54,1
873,228	47,96
873,4	78,68
873,571	209,75
873,742	13,14
873,914	76,63
874,085	-1,19
874,256	43,86
874,428	-27,82
874,599	-33,96
874,77	127,83
874,942	-19,63
875,113	23,38
875,284	-66,73
875,455	-38,06
875,626	25,43
875,798	0,85
875,969	31,57
876,14	76,63
876,311	146,26
876,482	66,39
876,653	56,15
876,824	107,35
876,995	70,48
877,166	111,44
877,337	103,25
877,508	35,67
877,679	142,16
877,85	80,72
878,021	29,52
878,192	136,02
878,363	105,3
878,534	74,58
878,705	33,62
878,876	123,73
879,047	205,65
879,217	62,29
879,388	103,25
879,559	144,21
879,73	236,37
879,9	45,91
880,071	136,02
880,242	160,59
880,413	72,53
880,583	166,74
880,754	144,21
880,924	113,49
881,095	29,52
881,266	66,39
881,436	164,69
881,607	160,59
881,777	226,13
881,948	54,1
882,118	109,4
882,289	41,81
882,459	105,3
882,63	56,15
882,8	47,96
882,971	23,38
883,141	-3,24
883,311	-3,24
883,482	82,77
883,652	47,96
883,822	13,14
883,993	-13,48
884,163	13,14
884,333	66,39
884,504	62,29
884,674	-3,24
884,844	50
885,014	-42,15
885,184	31,57
885,355	37,72
885,525	119,64
885,695	80,72
885,865	209,75
886,035	103,25
886,205	47,96
886,375	119,64
886,545	66,39
886,715	-17,58
886,885	158,55
887,055	-15,53
887,225	23,38
887,395	54,1
887,565	156,5
887,735	95,06
887,905	119,64
888,075	27,48
888,244	103,25
888,414	144,21
888,584	72,53
888,754	66,39
888,924	45,91
889,093	193,36
889,263	-3,24
889,433	136,02
889,603	45,91
889,772	9,05
889,942	103,25
890,111	86,87
890,281	131,92
890,451	54,1
890,62	39,76
890,79	125,78
890,959	101,2
891,129	4,95
891,298	88,92
891,468	56,15
891,637	-19,63
891,807	4,95
891,976	25,43
892,146	13,14
892,315	86,87
892,485	103,25
892,654	50
892,823	-44,2
892,993	-1,19
893,162	62,29
893,331	47,96
893,501	9,05
893,67	45,91
893,839	-23,72
894,008	84,82
894,177	66,39
894,347	109,4
894,516	99,16
894,685	19,29
894,854	23,38
895,023	70,48
895,192	54,1
