Data from neon_USB4F104161__1__11-46-31-788.txt Node

Date: Tue Apr 14 11:46:31 EDT 2026
User: LaboPhy
Spectrometer: USB4F10416
Trigger mode: 4
Integration Time (sec): 1,000000E-1
Scans to average: 1
Electric dark correction enabled: true
Nonlinearity correction enabled: false
Boxcar width: 0
XAxis mode: Wavelengths
Number of Pixels in Spectrum: 3648
>>>>>Begin Spectral Data<<<<<
177,847	-175,27
178,066	-175,27
178,284	-175,27
178,502	-158,89
178,72	-171,18
178,939	35,67
179,157	31,57
179,375	-11,43
179,593	144,21
179,812	21,33
180,03	-76,97
180,248	-33,96
180,466	-74,92
180,685	-33,96
180,903	7
181,121	-52,39
181,339	43,86
181,557	-70,83
181,775	-58,54
181,994	-3,24
182,212	-74,92
182,43	-27,82
182,648	39,76
182,866	41,81
183,084	105,3
183,302	-19,63
183,52	78,68
183,739	103,25
183,957	39,76
184,175	45,91
184,393	17,24
184,611	17,24
184,829	-15,53
185,047	-36,01
185,265	45,91
185,483	-11,43
185,701	7
185,919	-1,19
186,137	86,87
186,355	29,52
186,573	31,57
186,791	29,52
187,009	-3,24
187,227	29,52
187,445	21,33
187,663	-83,11
187,881	21,33
188,098	62,29
188,316	27,48
188,534	88,92
188,752	54,1
188,97	-9,39
189,188	-3,24
189,406	23,38
189,624	45,91
189,841	7
190,059	-232,62
190,277	-19,63
190,495	-7,34
190,713	37,72
190,931	170,83
191,148	45,91
191,366	-9,39
191,584	62,29
191,802	15,19
192,019	90,96
192,237	62,29
192,455	21,33
192,673	60,24
192,89	-76,97
193,108	62,29
193,326	-25,77
193,543	70,48
193,761	29,52
193,979	-58,54
194,196	54,1
194,414	136,02
194,632	66,39
194,849	-44,2
195,067	-83,11
195,285	50
195,502	29,52
195,72	62,29
195,937	41,81
196,155	37,72
196,373	-9,39
196,59	29,52
196,808	29,52
197,025	54,1
197,243	236,37
197,46	103,25
197,678	45,91
197,895	64,34
198,113	9,05
198,33	-11,43
198,548	76,63
198,765	21,33
198,983	45,91
199,2	-19,63
199,418	64,34
199,635	-21,67
199,853	23,38
200,07	-42,15
200,288	-52,39
200,505	29,52
200,722	78,68
200,94	37,72
201,157	15,19
201,375	68,44
201,592	-13,48
201,809	105,3
202,027	62,29
202,244	45,91
202,461	-56,49
202,679	15,19
202,896	-21,67
203,113	9,05
203,331	15,19
203,548	54,1
203,765	15,19
203,982	58,2
204,2	-44,2
204,417	13,14
204,634	127,83
204,851	113,49
205,069	-17,58
205,286	105,3
205,503	-27,82
205,72	-40,11
205,937	95,06
206,155	-122,02
206,372	148,31
206,589	-52,39
206,806	103,25
207,023	15,19
207,24	-33,96
207,458	-72,87
207,675	19,29
207,892	-9,39
208,109	13,14
208,326	-48,3
208,543	39,76
208,76	21,33
208,977	45,91
209,194	95,06
209,411	-27,82
209,628	-40,11
209,845	50
210,062	17,24
210,279	-58,54
210,496	-46,25
210,713	-1,19
210,93	-1,19
211,147	113,49
211,364	13,14
211,581	60,24
211,798	156,5
212,015	-23,72
212,232	23,38
212,449	-48,3
212,666	64,34
212,883	-33,96
213,1	17,24
213,317	-19,63
213,533	-36,01
213,75	25,43
213,967	29,52
214,184	-101,55
214,401	23,38
214,618	13,14
214,835	43,86
215,051	0,85
215,268	23,38
215,485	17,24
215,702	-15,53
215,919	37,72
216,135	117,59
216,352	-60,59
216,569	62,29
216,786	31,57
217,002	54,1
217,219	-7,34
217,436	39,76
217,652	-9,39
217,869	-19,63
218,086	185,17
218,302	56,15
218,519	117,59
218,736	-31,91
218,952	-19,63
219,169	103,25
219,386	27,48
219,602	-19,63
219,819	-17,58
220,036	47,96
220,252	88,92
220,469	-1,19
220,685	13,14
220,902	9,05
221,118	54,1
221,335	-48,3
221,552	-50,35
221,768	29,52
221,985	86,87
222,201	-27,82
222,418	15,19
222,634	7
222,851	31,57
223,067	-9,39
223,284	45,91
223,5	7
223,716	37,72
223,933	9,05
224,149	-23,72
224,366	-1,19
224,582	-5,29
224,799	23,38
225,015	7
225,231	-27,82
225,448	-25,77
225,664	66,39
225,88	-85,16
226,097	21,33
226,313	72,53
226,529	35,67
226,746	56,15
226,962	-31,91
227,178	-44,2
227,395	-9,39
227,611	29,52
227,827	-9,39
228,044	21,33
228,26	78,68
228,476	70,48
228,692	78,68
228,909	17,24
229,125	-23,72
229,341	-27,82
229,557	25,43
229,773	-89,26
229,99	50
230,206	-74,92
230,422	50
230,638	-36,01
230,854	-21,67
231,07	-79,02
231,286	95,06
231,503	50
231,719	-60,59
231,935	45,91
232,151	-29,87
232,367	74,58
232,583	-13,48
232,799	-11,43
233,015	37,72
233,231	-40,11
233,447	-74,92
233,663	21,33
233,879	127,83
234,095	62,29
234,311	119,64
234,527	13,14
234,743	23,38
234,959	-64,68
235,175	-15,53
235,391	23,38
235,607	7
235,823	39,76
236,039	-58,54
236,255	21,33
236,471	-36,01
236,687	-44,2
236,903	45,91
237,118	35,67
237,334	25,43
237,55	13,14
237,766	29,52
237,982	54,1
238,198	62,29
238,413	-15,53
238,629	68,44
238,845	13,14
239,061	-58,54
239,277	-42,15
239,492	37,72
239,708	35,67
239,924	-58,54
240,14	-3,24
240,355	111,44
240,571	74,58
240,787	-3,24
241,003	90,96
241,218	-29,87
241,434	31,57
241,65	47,96
241,865	9,05
242,081	-11,43
242,297	-36,01
242,512	-3,24
242,728	-7,34
242,944	0,85
243,159	70,48
243,375	-58,54
243,59	-9,39
243,806	15,19
244,022	0,85
244,237	-40,11
244,453	52,05
244,668	82,77
244,884	113,49
245,099	-19,63
245,315	119,64
245,53	70,48
245,746	78,68
245,961	45,91
246,177	-11,43
246,392	97,11
246,608	95,06
246,823	50
247,039	-9,39
247,254	-3,24
247,47	56,15
247,685	-38,06
247,9	-64,68
248,116	-9,39
248,331	4,95
248,547	125,78
248,762	-93,35
248,977	-1,19
249,193	4,95
249,408	86,87
249,623	41,81
249,839	-36,01
250,054	-33,96
250,269	13,14
250,485	125,78
250,7	-3,24
250,915	64,34
251,13	146,26
251,346	-56,49
251,561	64,34
251,776	29,52
251,991	-19,63
252,207	58,2
252,422	4,95
252,637	-36,01
252,852	25,43
253,067	13,14
253,283	29,52
253,498	-7,34
253,713	-44,2
253,928	-19,63
254,143	66,39
254,358	21,33
254,573	-1,19
254,788	-27,82
255,004	19,29
255,219	-76,97
255,434	-11,43
255,649	-27,82
255,864	72,53
256,079	64,34
256,294	-19,63
256,509	21,33
256,724	-31,91
256,939	-107,69
257,154	56,15
257,369	33,62
257,584	97,11
257,799	-44,2
258,014	29,52
258,229	27,48
258,444	-1,19
258,659	45,91
258,874	95,06
259,089	25,43
259,304	41,81
259,518	-17,58
259,733	29,52
259,948	52,05
260,163	56,15
260,378	111,44
260,593	58,2
260,808	80,72
261,022	-66,73
261,237	95,06
261,452	70,48
261,667	80,72
261,882	101,2
262,096	78,68
262,311	127,83
262,526	13,14
262,741	15,19
262,955	-33,96
263,17	162,64
263,385	13,14
263,6	15,19
263,814	-70,83
264,029	-91,31
264,244	4,95
264,458	-17,58
264,673	-11,43
264,888	72,53
265,102	13,14
265,317	9,05
265,532	-9,39
265,746	99,16
265,961	78,68
266,175	23,38
266,39	-23,72
266,605	-3,24
266,819	-17,58
267,034	45,91
267,248	-52,39
267,463	-15,53
267,677	-40,11
267,892	37,72
268,106	-54,44
268,321	62,29
268,535	78,68
268,75	86,87
268,964	-36,01
269,179	33,62
269,393	-36,01
269,608	107,35
269,822	-74,92
270,036	-29,87
270,251	72,53
270,465	11,09
270,68	86,87
270,894	-11,43
271,108	103,25
271,323	21,33
271,537	-1,19
271,752	-3,24
271,966	0,85
272,18	-83,11
272,394	2,9
272,609	52,05
272,823	72,53
273,037	39,76
273,252	-44,2
273,466	17,24
273,68	70,48
273,894	70,48
274,109	-25,77
274,323	-3,24
274,537	21,33
274,751	-3,24
274,966	64,34
275,18	-50,35
275,394	-60,59
275,608	-87,21
275,822	-7,34
276,036	-50,35
276,25	103,25
276,465	-50,35
276,679	29,52
276,893	-40,11
277,107	170,83
277,321	7
277,535	29,52
277,749	-48,3
277,963	123,73
278,177	-42,15
278,391	-3,24
278,605	-68,78
278,819	64,34
279,033	-99,5
279,247	54,1
279,461	45,91
279,675	70,48
279,889	41,81
280,103	113,49
280,317	54,1
280,531	-52,39
280,745	72,53
280,959	-25,77
281,173	64,34
281,387	78,68
281,601	64,34
281,815	97,11
282,029	-76,97
282,242	37,72
282,456	-27,82
282,67	70,48
282,884	-25,77
283,098	13,14
283,312	-17,58
283,525	-27,82
283,739	76,63
283,953	78,68
284,167	17,24
284,381	41,81
284,594	54,1
284,808	-44,2
285,022	-93,35
285,235	21,33
285,449	21,33
285,663	95,06
285,877	-3,24
286,09	62,29
286,304	29,52
286,518	9,05
286,731	-68,78
286,945	45,91
287,159	-52,39
287,372	13,14
287,586	-36,01
287,799	64,34
288,013	-50,35
288,227	7
288,44	299,86
288,654	54,1
288,867	-81,07
289,081	-85,16
289,294	41,81
289,508	117,59
289,721	21,33
289,935	-1,19
290,148	54,1
290,362	95,06
290,575	60,24
290,789	-52,39
291,002	-15,53
291,216	121,68
291,429	-52,39
291,643	58,2
291,856	-27,82
292,069	-15,53
292,283	-33,96
292,496	-3,24
292,71	78,68
292,923	-27,82
293,136	-15,53
293,35	23,38
293,563	-15,53
293,776	80,72
293,99	13,14
294,203	9,05
294,416	-66,73
294,63	4,95
294,843	4,95
295,056	70,48
295,269	-11,43
295,483	-56,49
295,696	82,77
295,909	-17,58
296,122	27,48
296,335	17,24
296,549	50
296,762	66,39
296,975	72,53
297,188	-25,77
297,401	39,76
297,615	39,76
297,828	-23,72
298,041	154,45
298,254	-38,06
298,467	41,81
298,68	-1,19
298,893	-89,26
299,106	50
299,319	50
299,532	64,34
299,745	-15,53
299,958	-3,24
300,171	25,43
300,384	66,39
300,598	-99,5
300,81	-31,91
301,023	31,57
301,236	-7,34
301,449	4,95
301,662	72,53
301,875	-36,01
302,088	-38,06
302,301	78,68
302,514	13,14
302,727	-23,72
302,94	-7,34
303,153	74,58
303,366	23,38
303,579	-31,91
303,791	11,09
304,004	52,05
304,217	37,72
304,43	13,14
304,643	31,57
304,855	-93,35
305,068	37,72
305,281	-19,63
305,494	-19,63
305,707	119,64
305,919	140,12
306,132	66,39
306,345	-44,2
306,558	82,77
306,77	0,85
306,983	-5,29
307,196	37,72
307,408	21,33
307,621	21,33
307,834	0,85
308,046	13,14
308,259	-79,02
308,472	37,72
308,684	90,96
308,897	-23,72
309,109	-74,92
309,322	-107,69
309,535	21,33
309,747	82,77
309,96	50
310,172	179,03
310,385	74,58
310,597	-83,11
310,81	-9,39
311,022	33,62
311,235	-40,11
311,447	-5,29
311,66	58,2
311,872	-27,82
312,085	-27,82
312,297	-91,31
312,51	-56,49
312,722	-83,11
312,934	25,43
313,147	-23,72
313,359	-25,77
313,572	17,24
313,784	31,57
313,996	45,91
314,209	86,87
314,421	-31,91
314,633	21,33
314,846	13,14
315,058	47,96
315,27	-9,39
315,483	25,43
315,695	95,06
315,907	9,05
316,119	-52,39
316,332	13,14
316,544	54,1
316,756	148,31
316,968	88,92
317,181	41,81
317,393	-9,39
317,605	15,19
317,817	-15,53
318,029	144,21
318,241	50
318,454	62,29
318,666	37,72
318,878	13,14
319,09	-52,39
319,302	113,49
319,514	2,9
319,726	70,48
319,938	66,39
320,15	56,15
320,362	88,92
320,574	-68,78
320,786	-56,49
320,999	-1,19
321,211	47,96
321,423	80,72
321,635	4,95
321,847	25,43
322,058	17,24
322,27	-15,53
322,482	13,14
322,694	74,58
322,906	-3,24
323,118	78,68
323,33	47,96
323,542	39,76
323,754	21,33
323,966	-70,83
324,178	62,29
324,389	86,87
324,601	80,72
324,813	-44,2
325,025	29,52
325,237	37,72
325,449	-11,43
325,66	15,19
325,872	-27,82
326,084	-48,3
326,296	-7,34
326,507	-33,96
326,719	13,14
326,931	-68,78
327,143	140,12
327,354	54,1
327,566	0,85
327,778	103,25
327,989	129,88
328,201	-36,01
328,413	54,1
328,624	54,1
328,836	62,29
329,048	-23,72
329,259	29,52
329,471	13,14
329,682	62,29
329,894	15,19
330,106	-113,83
330,317	-81,07
330,529	39,76
330,74	-56,49
330,952	37,72
331,163	-36,01
331,375	62,29
331,586	31,57
331,798	-19,63
332,009	-124,07
332,221	58,2
332,432	88,92
332,644	-17,58
332,855	13,14
333,067	-11,43
333,278	23,38
333,489	70,48
333,701	-58,54
333,912	-1,19
334,124	39,76
334,335	-93,35
334,546	-56,49
334,758	37,72
334,969	179,03
335,18	23,38
335,392	-5,29
335,603	56,15
335,814	95,06
336,025	-76,97
336,237	-1,19
336,448	13,14
336,659	37,72
336,87	123,73
337,082	140,12
337,293	0,85
337,504	21,33
337,715	52,05
337,926	25,43
338,138	-11,43
338,349	11,09
338,56	33,62
338,771	-11,43
338,982	-3,24
339,193	29,52
339,404	158,55
339,616	-1,19
339,827	-31,91
340,038	-17,58
340,249	-72,87
340,46	-23,72
340,671	101,2
340,882	76,63
341,093	4,95
341,304	39,76
341,515	21,33
341,726	70,48
341,937	29,52
342,148	-33,96
342,359	-68,78
342,57	70,48
342,781	246,61
342,992	131,92
343,203	17,24
343,414	78,68
343,624	-124,07
343,835	31,57
344,046	99,16
344,257	131,92
344,468	131,92
344,679	103,25
344,89	181,07
345,1	54,1
345,311	181,07
345,522	160,59
345,733	154,45
345,944	236,37
346,154	269,14
346,365	283,47
346,576	185,17
346,787	197,46
346,997	148,31
347,208	228,18
347,419	111,44
347,629	228,18
347,84	152,4
348,051	60,24
348,261	15,19
348,472	62,29
348,683	47,96
348,893	-44,2
349,104	-33,96
349,315	-17,58
349,525	47,96
349,736	62,29
349,946	160,59
350,157	148,31
350,368	250,71
350,578	86,87
350,789	107,35
350,999	244,56
351,21	168,79
351,42	123,73
351,631	260,95
351,841	258,9
352,052	230,23
352,262	336,72
352,472	271,19
352,683	217,94
352,893	240,47
353,104	95,06
353,314	197,46
353,525	439,12
353,735	78,68
353,945	54,1
354,156	47,96
354,366	39,76
354,576	123,73
354,787	88,92
354,997	13,14
355,207	-40,11
355,418	-15,53
355,628	4,95
355,838	-19,63
356,048	31,57
356,259	39,76
356,469	-11,43
356,679	29,52
356,889	13,14
357,1	-19,63
357,31	-19,63
357,52	-11,43
357,73	23,38
357,94	13,14
358,15	78,68
358,361	15,19
358,571	86,87
358,781	152,4
358,991	-19,63
359,201	103,25
359,411	121,68
359,621	54,1
359,831	250,71
360,041	113,49
360,251	230,23
360,461	66,39
360,672	54,1
360,882	-5,29
361,092	-1,19
361,302	78,68
361,512	35,67
361,721	-11,43
361,931	31,57
362,141	-13,48
362,351	25,43
362,561	21,33
362,771	25,43
362,981	21,33
363,191	-27,82
363,401	47,96
363,611	23,38
363,821	62,29
364,03	-52,39
364,24	62,29
364,45	13,14
364,66	238,42
364,87	-27,82
365,08	27,48
365,289	-126,12
365,499	43,86
365,709	-1,19
365,919	39,76
366,128	-109,74
366,338	0,85
366,548	15,19
366,758	-36,01
366,967	45,91
367,177	45,91
367,387	-7,34
367,596	82,77
367,806	62,29
368,016	7
368,225	37,72
368,435	78,68
368,644	-52,39
368,854	-44,2
369,064	97,11
369,273	70,48
369,483	45,91
369,692	-58,54
369,902	-1,19
370,111	86,87
370,321	4,95
370,53	0,85
370,74	25,43
370,949	23,38
371,159	70,48
371,368	-9,39
371,578	-48,3
371,787	86,87
371,997	27,48
372,206	27,48
372,416	31,57
372,625	-15,53
372,834	-15,53
373,044	13,14
373,253	58,2
373,462	45,91
373,672	-19,63
373,881	-31,91
374,09	4,95
374,3	50
374,509	39,76
374,718	-72,87
374,928	152,4
375,137	-15,53
375,346	-54,44
375,555	160,59
375,765	-40,11
375,974	21,33
376,183	62,29
376,392	-19,63
376,601	80,72
376,811	15,19
377,02	140,12
377,229	111,44
377,438	74,58
377,647	-5,29
377,856	-85,16
378,065	-74,92
378,275	7
378,484	13,14
378,693	13,14
378,902	-25,77
379,111	41,81
379,32	-3,24
379,529	-83,11
379,738	7
379,947	-48,3
380,156	-21,67
380,365	-17,58
380,574	-9,39
380,783	-42,15
380,992	-44,2
381,201	-72,87
381,41	-113,83
381,619	-19,63
381,828	-1,19
382,037	37,72
382,245	121,68
382,454	-13,48
382,663	-15,53
382,872	-11,43
383,081	37,72
383,29	127,83
383,499	-27,82
383,707	27,48
383,916	99,16
384,125	54,1
384,334	-31,91
384,542	45,91
384,751	45,91
384,96	-3,24
385,169	-52,39
385,377	37,72
385,586	-52,39
385,795	45,91
386,004	138,07
386,212	-60,59
386,421	15,19
386,63	74,58
386,838	74,58
387,047	62,29
387,255	88,92
387,464	21,33
387,673	37,72
387,881	54,1
388,09	152,4
388,298	129,88
388,507	146,26
388,715	80,72
388,924	31,57
389,133	-36,01
389,341	-15,53
389,55	105,3
389,758	-29,87
389,967	47,96
390,175	29,52
390,383	80,72
390,592	50
390,8	15,19
391,009	7
391,217	152,4
391,426	97,11
391,634	31,57
391,842	-56,49
392,051	19,29
392,259	37,72
392,467	-11,43
392,676	-5,29
392,884	13,14
393,092	-27,82
393,301	25,43
393,509	-11,43
393,717	45,91
393,925	-9,39
394,134	-27,82
394,342	80,72
394,55	39,76
394,758	-3,24
394,967	-1,19
395,175	-36,01
395,383	23,38
395,591	27,48
395,799	-25,77
396,007	-52,39
396,216	103,25
396,424	7
396,632	37,72
396,84	-27,82
397,048	-1,19
397,256	-3,24
397,464	-60,59
397,672	9,05
397,88	-99,5
398,088	-3,24
398,296	25,43
398,504	-15,53
398,712	-25,77
398,92	4,95
399,128	-44,2
399,336	4,95
399,544	29,52
399,752	-9,39
399,96	25,43
400,168	17,24
400,376	19,29
400,584	7
400,792	-1,19
401	15,19
401,207	-40,11
401,415	93,01
401,623	-44,2
401,831	23,38
402,039	47,96
402,247	7
402,454	117,59
402,662	35,67
402,87	50
403,078	90,96
403,285	123,73
403,493	-64,68
403,701	4,95
403,909	-25,77
404,116	58,2
404,324	-31,91
404,532	80,72
404,739	-58,54
404,947	78,68
405,155	-29,87
405,362	37,72
405,57	7
405,778	-52,39
405,985	43,86
406,193	-66,73
406,4	-81,07
406,608	62,29
406,816	80,72
407,023	9,05
407,231	9,05
407,438	25,43
407,646	-7,34
407,853	0,85
408,061	-11,43
408,268	-25,77
408,476	4,95
408,683	95,06
408,89	21,33
409,098	-9,39
409,305	86,87
409,513	82,77
409,72	-36,01
409,927	21,33
410,135	74,58
410,342	-36,01
410,55	95,06
410,757	66,39
410,964	-56,49
411,172	80,72
411,379	-9,39
411,586	54,1
411,793	2,9
412,001	4,95
412,208	-48,3
412,415	47,96
412,622	68,44
412,83	31,57
413,037	-9,39
413,244	-11,43
413,451	78,68
413,658	45,91
413,866	86,87
414,073	-72,87
414,28	37,72
414,487	15,19
414,694	47,96
414,901	62,29
415,108	47,96
415,315	15,19
415,522	121,68
415,73	4,95
415,937	-93,35
416,144	31,57
416,351	7
416,558	-60,59
416,765	-27,82
416,972	54,1
417,179	29,52
417,386	15,19
417,593	62,29
417,8	-44,2
418,006	35,67
418,213	80,72
418,42	0,85
418,627	70,48
418,834	2,9
419,041	-115,88
419,248	-3,24
419,455	86,87
419,661	50
419,868	-101,55
420,075	-95,4
420,282	-36,01
420,489	-3,24
420,696	21,33
420,902	45,91
421,109	-19,63
421,316	-101,55
421,523	68,44
421,729	39,76
421,936	-9,39
422,143	37,72
422,349	-3,24
422,556	-50,35
422,763	70,48
422,969	25,43
423,176	0,85
423,383	25,43
423,589	260,95
423,796	21,33
424,002	-19,63
424,209	74,58
424,416	70,48
424,622	-3,24
424,829	4,95
425,035	-126,12
425,242	-25,77
425,448	-66,73
425,655	-25,77
425,861	72,53
426,068	2,9
426,274	160,59
426,481	-33,96
426,687	95,06
426,894	-7,34
427,1	78,68
427,306	-23,72
427,513	-9,39
427,719	-1,19
427,926	64,34
428,132	41,81
428,338	33,62
428,545	-50,35
428,751	-13,48
428,957	-17,58
429,163	-27,82
429,37	33,62
429,576	80,72
429,782	41,81
429,989	23,38
430,195	-7,34
430,401	103,25
430,607	-81,07
430,813	-46,25
431,02	47,96
431,226	4,95
431,432	-11,43
431,638	37,72
431,844	-40,11
432,05	-21,67
432,257	-13,48
432,463	11,09
432,669	52,05
432,875	-31,91
433,081	29,52
433,287	19,29
433,493	-48,3
433,699	47,96
433,905	2,9
434,111	15,19
434,317	25,43
434,523	45,91
434,729	-11,43
434,935	-76,97
435,141	86,87
435,347	-13,48
435,553	7
435,759	0,85
435,965	-1,19
436,171	-7,34
436,377	86,87
436,582	-5,29
436,788	-66,73
436,994	123,73
437,2	13,14
437,406	11,09
437,612	54,1
437,818	72,53
438,023	-122,02
438,229	185,17
438,435	-19,63
438,641	21,33
438,846	9,05
439,052	123,73
439,258	62,29
439,464	0,85
439,669	25,43
439,875	131,92
440,081	15,19
440,286	-76,97
440,492	-50,35
440,698	-58,54
440,903	105,3
441,109	45,91
441,314	-115,88
441,52	4,95
441,726	13,14
441,931	23,38
442,137	-3,24
442,342	35,67
442,548	-25,77
442,753	62,29
442,959	-19,63
443,164	0,85
443,37	0,85
443,575	-29,87
443,781	-15,53
443,986	74,58
444,192	15,19
444,397	-23,72
444,602	-60,59
444,808	72,53
445,013	-1,19
445,219	15,19
445,424	21,33
445,629	4,95
445,835	111,44
446,04	11,09
446,245	-25,77
446,451	-44,2
446,656	-23,72
446,861	-21,67
447,066	-3,24
447,272	15,19
447,477	-27,82
447,682	-66,73
447,887	-38,06
448,093	4,95
448,298	80,72
448,503	17,24
448,708	4,95
448,913	-60,59
449,118	56,15
449,324	-48,3
449,529	21,33
449,734	4,95
449,939	0,85
450,144	52,05
450,349	45,91
450,554	-50,35
450,759	43,86
450,964	142,16
451,169	15,19
451,374	17,24
451,579	47,96
451,784	9,05
451,989	-19,63
452,194	23,38
452,399	29,52
452,604	82,77
452,809	-1,19
453,014	37,72
453,219	-36,01
453,424	66,39
453,629	-7,34
453,833	-52,39
454,038	-40,11
454,243	70,48
454,448	43,86
454,653	54,1
454,858	21,33
455,062	-9,39
455,267	-64,68
455,472	60,24
455,677	70,48
455,882	0,85
456,086	43,86
456,291	-11,43
456,496	-56,49
456,7	-27,82
456,905	-9,39
457,11	58,2
457,314	-9,39
457,519	4,95
457,724	-7,34
457,928	47,96
458,133	-52,39
458,338	56,15
458,542	-9,39
458,747	31,57
458,951	-3,24
459,156	39,76
459,36	-42,15
459,565	82,77
459,769	-17,58
459,974	21,33
460,178	-17,58
460,383	-66,73
460,587	-25,77
460,792	54,1
460,996	-52,39
461,201	29,52
461,405	-52,39
461,61	25,43
461,814	7
462,018	-9,39
462,223	9,05
462,427	62,29
462,631	72,53
462,836	60,24
463,04	17,24
463,244	47,96
463,449	-60,59
463,653	95,06
463,857	-48,3
464,062	-3,24
464,266	70,48
464,47	62,29
464,674	4,95
464,878	21,33
465,083	-15,53
465,287	78,68
465,491	47,96
465,695	4,95
465,899	-13,48
466,104	72,53
466,308	58,2
466,512	56,15
466,716	13,14
466,92	129,88
467,124	111,44
467,328	15,19
467,532	138,07
467,736	17,24
467,94	123,73
468,144	25,43
468,348	-3,24
468,552	90,96
468,756	-25,77
468,96	-58,54
469,164	-60,59
469,368	-27,82
469,572	-27,82
469,776	131,92
469,98	78,68
470,184	56,15
470,388	152,4
470,591	115,54
470,795	232,27
470,999	105,3
471,203	111,44
471,407	52,05
471,611	95,06
471,814	142,16
472,018	58,2
472,222	86,87
472,426	107,35
472,63	99,16
472,833	160,59
473,037	56,15
473,241	66,39
473,444	95,06
473,648	525,13
473,852	62,29
474,055	-11,43
474,259	41,81
474,463	113,49
474,666	2,9
474,87	47,96
475,074	103,25
475,277	90,96
475,481	47,96
475,684	7
475,888	13,14
476,091	47,96
476,295	-25,77
476,498	21,33
476,702	-36,01
476,905	129,88
477,109	62,29
477,312	64,34
477,516	0,85
477,719	103,25
477,923	-25,77
478,126	-11,43
478,329	-3,24
478,533	29,52
478,736	99,16
478,94	-19,63
479,143	43,86
479,346	4,95
479,55	84,82
479,753	31,57
479,956	17,24
480,159	-105,64
480,363	70,48
480,566	15,19
480,769	-11,43
480,972	-9,39
481,176	-42,15
481,379	119,64
481,582	123,73
481,785	-48,3
481,988	37,72
482,192	105,3
482,395	2,9
482,598	21,33
482,801	21,33
483,004	58,2
483,207	29,52
483,41	66,39
483,613	136,02
483,817	111,44
484,02	-44,2
484,223	-72,87
484,426	-25,77
484,629	-23,72
484,832	70,48
485,035	17,24
485,238	21,33
485,441	-9,39
485,644	41,81
485,846	86,87
486,049	-7,34
486,252	23,38
486,455	-44,2
486,658	29,52
486,861	78,68
487,064	74,58
487,267	2,9
487,47	99,16
487,672	31,57
487,875	58,2
488,078	13,14
488,281	88,92
488,484	-3,24
488,686	39,76
488,889	45,91
489,092	82,77
489,295	15,19
489,497	105,3
489,7	-33,96
489,903	74,58
490,105	-44,2
490,308	-44,2
490,511	33,62
490,713	23,38
490,916	-9,39
491,118	47,96
491,321	15,19
491,524	-25,77
491,726	-11,43
491,929	-46,25
492,131	29,52
492,334	-58,54
492,536	-15,53
492,739	-48,3
492,941	13,14
493,144	29,52
493,346	21,33
493,549	-42,15
493,751	-5,29
493,954	31,57
494,156	17,24
494,359	31,57
494,561	-17,58
494,763	78,68
494,966	33,62
495,168	103,25
495,37	-56,49
495,573	54,1
495,775	109,4
495,977	7
496,18	72,53
496,382	95,06
496,584	39,76
496,787	113,49
496,989	-42,15
497,191	-85,16
497,393	86,87
497,595	-29,87
497,798	37,72
498	70,48
498,202	17,24
498,404	2,9
498,606	66,39
498,808	123,73
499,011	115,54
499,213	62,29
499,415	-27,82
499,617	80,72
499,819	101,2
500,021	86,87
500,223	54,1
500,425	4,95
500,627	-15,53
500,829	11,09
501,031	-15,53
501,233	33,62
501,435	0,85
501,637	131,92
501,839	115,54
502,041	31,57
502,243	58,2
502,445	74,58
502,647	56,15
502,848	45,91
503,05	54,1
503,252	197,46
503,454	228,18
503,656	193,36
503,858	222,03
504,059	176,98
504,261	201,55
504,463	365,39
504,665	142,16
504,867	219,99
505,068	86,87
505,27	133,97
505,472	127,83
505,673	72,53
505,875	-17,58
506,077	90,96
506,278	50
506,48	29,52
506,682	4,95
506,883	111,44
507,085	148,31
507,287	17,24
507,488	107,35
507,69	103,25
507,891	54,1
508,093	310,1
508,294	156,5
508,496	95,06
508,697	60,24
508,899	62,29
509,1	148,31
509,302	86,87
509,503	45,91
509,705	37,72
509,906	78,68
510,108	56,15
510,309	86,87
510,51	103,25
510,712	90,96
510,913	21,33
511,114	105,3
511,316	41,81
511,517	176,98
511,718	144,21
511,92	199,51
512,121	168,79
512,322	308,05
512,524	260,95
512,725	181,07
512,926	215,89
513,127	148,31
513,329	113,49
513,53	84,82
513,731	146,26
513,932	86,87
514,133	21,33
514,334	62,29
514,536	127,83
514,737	138,07
514,938	179,03
515,139	174,93
515,34	109,4
515,541	185,17
515,742	121,68
515,943	166,74
516,144	189,27
516,345	226,13
516,546	127,83
516,747	121,68
516,948	56,15
517,149	31,57
517,35	-25,77
517,551	19,29
517,752	17,24
517,953	56,15
518,154	47,96
518,355	78,68
518,556	101,2
518,756	103,25
518,957	154,45
519,158	209,75
519,359	197,46
519,56	217,94
519,761	144,21
519,961	254,8
520,162	353,1
520,363	127,83
520,564	121,68
520,764	289,62
520,965	189,27
521,166	197,46
521,366	156,5
521,567	131,92
521,768	226,13
521,968	103,25
522,169	86,87
522,37	62,29
522,57	9,05
522,771	138,07
522,972	4,95
523,172	144,21
523,373	121,68
523,573	47,96
523,774	47,96
523,974	185,17
524,175	56,15
524,375	-36,01
524,576	-89,26
524,776	-11,43
524,977	37,72
525,177	119,64
525,378	37,72
525,578	86,87
525,778	129,88
525,979	7
526,179	-1,19
526,38	-25,77
526,58	-27,82
526,78	39,76
526,981	105,3
527,181	90,96
527,381	41,81
527,582	80,72
527,782	37,72
527,982	45,91
528,182	64,34
528,383	31,57
528,583	13,14
528,783	131,92
528,983	50
529,183	-19,63
529,384	95,06
529,584	138,07
529,784	179,03
529,984	144,21
530,184	-1,19
530,384	62,29
530,584	50
530,784	62,29
530,984	-15,53
531,185	160,59
531,385	189,27
531,585	154,45
531,785	97,11
531,985	21,33
532,185	131,92
532,385	136,02
532,585	236,37
532,785	359,25
532,984	398,16
533,184	416,59
533,384	416,59
533,584	428,88
533,784	596,81
533,984	670,54
534,184	480,08
534,384	514,89
534,583	602,96
534,783	564,04
534,983	521,04
535,183	500,56
535,383	277,33
535,582	322,38
535,782	303,95
535,982	293,71
536,182	195,41
536,381	127,83
536,581	113,49
536,781	138,07
536,98	35,67
537,18	86,87
537,38	78,68
537,579	115,54
537,779	45,91
537,979	72,53
538,178	29,52
538,378	146,26
538,577	-3,24
538,777	152,4
538,976	117,59
539,176	215,89
539,376	224,08
539,575	211,79
539,774	406,35
539,974	381,78
540,173	553,8
540,373	566,09
540,572	539,47
540,772	562
540,971	439,12
541,171	486,22
541,37	406,35
541,569	379,73
541,769	234,32
541,968	156,5
542,167	168,79
542,367	95,06
542,566	119,64
542,765	-9,39
542,965	29,52
543,164	138,07
543,363	25,43
543,562	82,77
543,761	-1,19
543,961	152,4
544,16	-85,16
544,359	97,11
544,558	25,43
544,757	2,9
544,957	64,34
545,156	113,49
545,355	76,63
545,554	-9,39
545,753	-11,43
545,952	56,15
546,151	62,29
546,35	54,1
546,549	58,2
546,748	56,15
546,947	4,95
547,146	31,57
547,345	58,2
547,544	-5,29
547,743	0,85
547,942	31,57
548,141	43,86
548,34	45,91
548,539	4,95
548,738	90,96
548,937	39,76
549,135	4,95
549,334	-68,78
549,533	45,91
549,732	25,43
549,931	131,92
550,13	0,85
550,328	-9,39
550,527	-27,82
550,726	4,95
550,925	13,14
551,123	23,38
551,322	15,19
551,521	37,72
551,72	29,52
551,918	41,81
552,117	111,44
552,315	0,85
552,514	-60,59
552,713	37,72
552,911	-17,58
553,11	-101,55
553,309	4,95
553,507	54,1
553,706	9,05
553,904	29,52
554,103	88,92
554,301	9,05
554,5	-3,24
554,698	7
554,897	103,25
555,095	107,35
555,294	-15,53
555,492	15,19
555,69	103,25
555,889	-17,58
556,087	72,53
556,286	160,59
556,484	115,54
556,682	168,79
556,881	11,09
557,079	80,72
557,277	41,81
557,476	113,49
557,674	99,16
557,872	76,63
558,07	21,33
558,269	-21,67
558,467	9,05
558,665	107,35
558,863	-19,63
559,062	43,86
559,26	41,81
559,458	-99,5
559,656	45,91
559,854	80,72
560,052	33,62
560,25	54,1
560,449	236,37
560,647	37,72
560,845	17,24
561,043	37,72
561,241	107,35
561,439	119,64
561,637	-42,15
561,835	29,52
562,033	166,74
562,231	19,29
562,429	-17,58
562,627	54,1
562,825	-3,24
563,023	64,34
563,221	70,48
563,418	21,33
563,616	62,29
563,814	86,87
564,012	54,1
564,21	50
564,408	172,88
564,605	43,86
564,803	13,14
565,001	369,49
565,199	7
565,397	201,55
565,594	316,24
565,792	267,09
565,99	127,83
566,188	234,32
566,385	187,22
566,583	242,51
566,781	224,08
566,978	219,99
567,176	203,6
567,373	109,4
567,571	125,78
567,769	136,02
567,966	-7,34
568,164	174,93
568,361	47,96
568,559	37,72
568,756	97,11
568,954	168,79
569,151	164,69
569,349	209,75
569,546	136,02
569,744	97,11
569,941	129,88
570,139	160,59
570,336	70,48
570,534	162,64
570,731	58,2
570,928	74,58
571,126	236,37
571,323	66,39
571,52	47,96
571,718	154,45
571,915	201,55
572,112	9,05
572,31	80,72
572,507	174,93
572,704	68,44
572,901	45,91
573,099	37,72
573,296	127,83
573,493	13,14
573,69	47,96
573,887	66,39
574,085	191,31
574,282	168,79
574,479	217,94
574,676	203,6
574,873	254,8
575,07	310,1
575,267	332,62
575,464	373,58
575,661	480,08
575,858	529,23
576,055	594,76
576,252	760,65
576,449	856,9
576,646	914,25
576,843	979,78
577,04	1045,32
577,237	955,21
577,434	936,78
577,631	709,45
577,828	766,79
578,025	496,46
578,222	475,98
578,419	357,2
578,615	262,99
578,812	250,71
579,009	121,68
579,206	86,87
579,403	136,02
579,599	209,75
579,796	170,83
579,993	279,38
580,19	105,3
580,386	209,75
580,583	242,51
580,78	316,24
580,976	375,63
581,173	389,97
581,37	426,83
581,566	543,57
581,763	498,51
581,96	541,52
582,156	562
582,353	613,2
582,549	719,69
582,746	668,49
582,942	572,24
583,139	502,61
583,335	605
583,532	951,11
583,728	1631,04
583,925	2761,52
584,121	4254,48
584,318	6183,67
584,514	8774,35
584,711	11864,74
584,907	15569,51
585,103	19720,74
585,3	23161,33
585,496	26104,26
585,693	28862,88
585,889	29563,28
586,085	28686,75
586,281	26042,82
586,478	22407,68
586,674	18985,52
586,87	16990,8
587,067	13955,71
587,263	11319,98
587,459	8458,96
587,655	6331,12
587,851	5391,11
588,048	5188,36
588,244	5188,36
588,44	5731,07
588,636	5720,83
588,832	5980,92
589,028	5712,64
589,224	4920,07
589,42	4313,88
589,617	3904,28
589,813	3298,08
590,009	2755,37
590,205	2532,14
590,401	1850,17
590,597	1452,86
590,793	1225,54
590,989	1104,71
591,185	1014,6
591,38	979,78
591,576	691,02
591,772	787,27
591,968	652,11
592,164	639,82
592,36	504,65
592,556	447,31
592,752	598,86
592,948	625,48
593,143	973,64
593,339	1301,31
593,535	2054,97
593,731	2855,72
593,926	3904,28
594,122	4993,8
594,318	6157,05
594,514	7484,13
594,709	8647,38
594,905	9427,65
595,101	9636,55
595,296	9286,34
595,492	8524,5
595,688	7391,97
595,883	6546,16
596,079	5757,69
596,275	5010,18
596,47	4100,89
596,666	3142,44
596,861	2759,47
597,057	2153,27
597,252	2110,26
597,448	2126,64
597,643	2425,65
597,839	2648,88
598,034	2659,12
598,23	2642,73
598,425	2544,43
598,621	2212,66
598,816	1997,62
599,011	1758,01
599,207	1471,29
599,402	1413,95
599,597	1217,35
599,793	906,06
599,988	555,85
600,183	529,23
600,379	420,69
600,574	176,98
600,769	320,34
600,965	121,68
601,16	181,07
601,355	205,65
601,55	285,52
601,745	437,07
601,941	582,48
602,136	783,18
602,331	1004,36
602,526	1192,77
602,721	1577,79
602,916	1889,08
603,111	2220,85
603,307	2507,57
603,502	2587,44
603,697	2655,02
603,892	2708,27
604,087	2278,19
604,282	2149,17
604,477	1825,59
604,672	1403,71
604,867	1334,08
605,062	899,91
605,257	711,5
605,452	598,86
605,646	437,07
605,841	475,98
606,036	734,03
606,231	1121,09
606,426	1676,09
606,621	2319,15
606,816	3207,97
607,01	4457,23
607,205	5387,01
607,4	6451,95
607,595	7516,9
607,79	8639,19
607,984	9151,18
608,179	9530,05
608,374	9335,49
608,569	9472,71
608,763	9040,59
608,958	9632,45
609,153	10461,88
609,347	11248,3
609,542	11922,08
609,736	12716,69
609,931	12626,58
610,126	12921,49
610,32	12911,25
610,515	12315,29
610,709	11072,17
610,904	9517,76
611,098	8147,67
611,293	6959,85
611,487	5636,86
611,682	4526,86
611,876	3314,47
612,071	2235,19
612,265	1631,04
612,46	1266,5
612,654	1274,69
612,848	1768,25
613,043	2538,29
613,237	3814,17
613,432	5194,5
613,626	7105,26
613,82	9556,68
614,014	11975,33
614,209	14711,41
614,403	17035,86
614,597	19544,62
614,792	20298,27
614,986	20906,52
615,18	20378,14
615,374	18805,3
615,568	16783,96
615,763	15340,14
615,957	14099,07
616,151	12612,24
616,345	11858,59
616,539	10302,14
616,733	9231,05
616,927	7740,13
617,121	6796,01
617,316	6253,3
617,51	5317,38
617,704	4494,1
617,898	4061,98
618,092	3539,74
618,286	3031,85
618,48	2212,66
618,674	1833,79
618,868	1332,03
619,061	865,1
619,255	840,52
619,449	582,48
619,643	383,82
619,837	562
620,031	381,78
620,225	635,72
620,419	605
620,612	930,63
620,806	1207,11
621	1590,08
621,194	1921,85
621,388	2415,41
621,581	3009,32
621,775	3486,5
621,969	4033,3
622,162	4238,1
622,356	4346,64
622,55	4225,81
622,743	3822,36
622,937	3455,78
623,131	2939,69
623,324	2538,29
623,518	2196,28
623,712	1790,78
623,905	1360,7
624,099	1067,85
624,292	684,87
624,486	424,78
624,679	394,06
624,873	435,02
625,066	551,76
625,26	856,9
625,453	1221,44
625,647	1758,01
625,84	2655,02
626,034	3765,02
626,227	4659,98
626,42	5847,8
626,614	7101,16
626,807	8237,78
627	9044,68
627,194	9208,52
627,387	9312,97
627,58	8852,17
627,774	8035,03
627,967	7140,07
628,16	6298,36
628,353	5501,7
628,547	4782,86
628,74	3928,86
628,933	2693,93
629,126	2216,76
629,319	1702,72
629,513	1682,24
629,706	1807,16
629,899	2255,67
630,092	2726,7
630,285	3150,63
630,478	3584,8
630,671	4176,66
630,864	4633,36
631,057	4641,55
631,25	4616,97
631,443	4338,45
631,636	4131,61
631,829	3840,79
632,022	3908,38
632,215	4141,85
632,408	4987,66
632,601	5589,76
632,794	6771,44
632,987	8229,59
633,18	9501,38
633,373	11319,98
633,566	12882,58
633,758	13791,87
633,951	14981,74
634,144	14897,78
634,337	14135,93
634,53	13265,55
634,722	11532,97
634,915	9620,16
635,108	8985,29
635,301	7652,06
635,493	6320,88
635,686	4915,98
635,879	3293,99
636,071	1987,38
636,264	1440,58
636,457	1053,51
636,649	844,62
636,842	983,88
637,034	1686,33
637,227	2251,57
637,42	3175,2
637,612	4322,07
637,805	5739,26
637,997	7453,41
638,19	8889,04
638,382	10230,46
638,575	12153,5
638,767	14785,14
638,96	17144,4
639,152	19745,32
639,344	23181,81
639,537	26761,66
639,729	31181,18
639,922	36655,4
640,114	42379,47
640,306	47267,97
640,499	51118,15
640,691	52373,56
640,883	52674,61
641,075	49911,9
641,268	45637,79
641,46	39737,59
641,652	34193,74
641,844	30339,46
642,037	26202,57
642,229	21797,38
642,421	17003,09
642,613	12294,81
642,805	7715,55
642,998	4791,05
643,19	3085,09
643,382	2093,88
643,574	1444,67
643,766	1020,74
643,958	691,02
644,15	713,55
644,342	645,96
644,534	549,71
644,726	447,31
644,918	377,68
645,11	275,28
645,302	236,37
645,494	359,25
645,686	195,41
645,878	234,32
646,07	226,13
646,262	244,56
646,453	119,64
646,645	176,98
646,837	185,17
647,029	168,79
647,221	189,27
647,413	156,5
647,604	103,25
647,796	209,75
647,988	187,22
648,18	168,79
648,371	136,02
648,563	160,59
648,755	179,03
648,947	299,86
649,138	607,05
649,33	1364,8
649,521	2556,72
649,713	3986,2
649,905	5495,55
650,096	7705,31
650,288	9677,51
650,479	12661,4
650,671	14502,52
650,863	16861,78
651,054	17930,82
651,246	18577,98
651,437	17865,28
651,629	16986,71
651,82	15639,14
652,011	13900,42
652,203	12335,77
652,394	11549,35
652,586	10719,92
652,777	9349,83
652,968	8002,27
653,16	6853,36
653,351	6175,48
653,542	5886,72
653,734	5296,9
653,925	5042,95
654,116	4891,4
654,308	4348,69
654,499	3830,55
654,69	3273,51
654,881	2888,49
655,073	2546,48
655,264	2351,92
655,455	1833,79
655,646	1413,95
655,837	1131,33
656,028	717,64
656,219	334,67
656,411	326,48
656,602	318,29
656,793	181,07
656,984	97,11
657,175	113,49
657,366	138,07
657,557	152,4
657,748	123,73
657,939	111,44
658,13	74,58
658,321	254,8
658,512	494,41
658,703	834,38
658,894	1250,11
659,084	1635,13
659,275	2200,37
659,466	3330,85
659,657	4051,74
659,848	4807,44
660,039	5536,51
660,23	6218,49
660,42	6312,69
660,611	6296,31
660,802	5962,49
660,993	5481,22
661,183	5018,38
661,374	4334,36
661,565	3848,99
661,755	3308,32
661,946	2886,44
662,137	2339,63
662,327	1702,72
662,518	1176,39
662,709	725,83
662,899	457,55
663,09	336,72
663,28	252,75
663,471	105,3
663,662	279,38
663,852	107,35
664,043	13,14
664,233	119,64
664,424	154,45
664,614	25,43
664,804	113,49
664,995	195,41
665,185	144,21
665,376	121,68
665,566	234,32
665,756	88,92
665,947	129,88
666,137	197,46
666,328	496,46
666,518	889,67
666,708	1547,07
666,898	2448,18
667,089	3543,84
667,279	4678,41
667,469	5993,21
667,659	7418,6
667,85	8999,63
668,04	10130,11
668,23	10517,17
668,42	11260,59
668,61	10842,8
668,8	10140,35
668,991	9241,29
669,181	8313,56
669,371	7221,99
669,561	6664,94
669,751	5626,62
669,941	4846,35
670,131	3824,41
670,321	2994,98
670,511	2487,09
670,701	2372,4
670,891	2546,48
671,081	2792,23
671,271	3556,13
671,461	4348,69
671,651	5075,72
671,841	5939,96
672,03	6554,35
672,22	6730,48
672,41	6583,02
672,6	6386,42
672,79	5972,73
672,98	5165,83
673,169	4576,02
673,359	4074,26
673,549	3582,75
673,739	3035,94
673,928	2454,32
674,118	2014,01
674,308	1342,27
674,497	987,97
674,687	611,15
674,877	471,89
675,066	297,81
675,256	238,42
675,446	193,36
675,635	119,64
675,825	45,91
676,014	97,11
676,204	39,76
676,393	144,21
676,583	95,06
676,772	54,1
676,962	45,91
677,151	99,16
677,341	7
677,53	72,53
677,72	95,06
677,909	90,96
678,099	70,48
678,288	54,1
678,477	39,76
678,667	111,44
678,856	21,33
679,045	72,53
679,235	90,96
679,424	17,24
679,613	62,29
679,802	13,14
679,992	-17,58
680,181	80,72
680,37	78,68
680,559	84,82
680,748	103,25
680,938	88,92
681,127	80,72
681,316	111,44
681,505	21,33
681,694	37,72
681,883	52,05
682,072	64,34
682,261	82,77
682,45	-50,35
682,639	-21,67
682,828	37,72
683,017	78,68
683,206	7
683,395	19,29
683,584	74,58
683,773	90,96
683,962	-3,24
684,151	-25,77
684,34	90,96
684,529	23,38
684,718	-19,63
684,907	54,1
685,095	101,2
685,284	45,91
685,473	19,29
685,662	41,81
685,851	154,45
686,039	29,52
686,228	21,33
686,417	-33,96
686,606	107,35
686,794	19,29
686,983	-54,44
687,172	99,16
687,36	27,48
687,549	13,14
687,738	-17,58
687,926	-66,73
688,115	39,76
688,303	86,87
688,492	86,87
688,68	41,81
688,869	15,19
689,057	-15,53
689,246	-48,3
689,434	95,06
689,623	31,57
689,811	21,33
690	52,05
690,188	82,77
690,377	70,48
690,565	119,64
690,753	187,22
690,942	25,43
691,13	136,02
691,318	168,79
691,507	246,61
691,695	746,31
691,883	1411,9
692,072	2339,63
692,26	3377,95
692,448	4422,42
692,636	5503,75
692,824	6904,56
693,013	8073,95
693,201	8981,2
693,389	9220,81
693,577	9087,69
693,765	9163,47
693,953	8688,34
694,141	7846,62
694,329	7002,86
694,518	6011,64
694,706	5419,78
694,894	4782,86
695,082	4119,32
695,27	3545,89
695,458	2759,47
695,646	1964,86
695,834	1303,36
696,022	840,52
696,209	629,58
696,397	408,4
696,585	252,75
696,773	152,4
696,961	160,59
697,149	62,29
697,337	105,3
697,525	162,64
697,712	31,57
697,9	129,88
698,088	119,64
698,276	78,68
698,463	-1,19
698,651	144,21
698,839	13,14
699,027	103,25
699,214	115,54
699,402	41,81
699,59	17,24
699,777	50
699,965	74,58
700,152	4,95
700,34	58,2
700,528	4,95
700,715	19,29
700,903	113,49
701,09	113,49
701,278	109,4
701,465	203,6
701,653	299,86
701,84	701,26
702,028	1438,53
702,215	2300,72
702,402	3470,11
702,59	4821,77
702,777	6417,14
702,965	7938,78
703,152	9589,44
703,339	10500,79
703,527	11940,51
703,714	11922,08
703,901	12204,7
704,088	11801,25
704,276	10912,43
704,463	9949,89
704,65	8682,19
704,837	7656,16
705,025	6972,14
705,212	5952,25
705,399	5466,88
705,586	4641,55
705,773	3879,71
705,96	2769,71
706,147	2028,34
706,335	1389,38
706,522	1071,94
706,709	758,6
706,896	547,66
707,083	344,91
707,27	340,82
707,457	269,14
707,644	185,17
707,831	144,21
708,018	80,72
708,205	150,36
708,392	203,6
708,578	148,31
708,765	33,62
708,952	-33,96
709,139	111,44
709,326	70,48
709,513	154,45
709,7	82,77
709,886	103,25
710,073	129,88
710,26	183,12
710,447	47,96
710,633	-19,63
710,82	15,19
711,007	-9,39
711,193	33,62
711,38	33,62
711,567	160,59
711,753	41,81
711,94	50
712,127	47,96
712,313	-3,24
712,5	4,95
712,686	31,57
712,873	58,2
713,059	-9,39
713,246	103,25
713,432	103,25
713,619	-5,29
713,805	86,87
713,992	152,4
714,178	105,3
714,365	119,64
714,551	86,87
714,737	-11,43
714,924	-81,07
715,11	17,24
715,297	-33,96
715,483	7
715,669	47,96
715,855	13,14
716,042	113,49
716,228	172,88
716,414	389,97
716,6	518,99
716,787	770,89
716,973	1006,41
717,159	1303,36
717,345	1528,64
717,531	1612,6
717,718	1919,8
717,904	1954,62
718,09	1864,5
718,276	1741,63
718,462	1725,24
718,648	1450,82
718,834	1225,54
719,02	1231,68
719,206	1078,08
719,392	908,1
719,578	832,33
719,764	766,79
719,95	578,38
720,136	549,71
720,322	295,76
720,508	250,71
720,694	111,44
720,879	66,39
721,065	185,17
721,251	37,72
721,437	66,39
721,623	176,98
721,809	29,52
721,994	47,96
722,18	47,96
722,366	-11,43
722,552	13,14
722,737	-15,53
722,923	158,55
723,109	230,23
723,294	387,92
723,48	824,14
723,666	1401,66
723,851	1905,46
724,037	2523,95
724,222	3273,51
724,408	4039,45
724,593	4248,34
724,779	4834,06
724,965	4895,5
725,15	5088,01
725,336	4936,46
725,521	4655,89
725,706	4057,88
725,892	3762,97
726,077	3199,78
726,263	2857,77
726,448	2587,44
726,634	2247,48
726,819	2104,12
727,004	1774,39
727,19	1368,9
727,375	1176,39
727,56	713,55
727,745	498,51
727,931	377,68
728,116	168,79
728,301	90,96
728,486	162,64
728,672	103,25
728,857	107,35
729,042	23,38
729,227	-1,19
729,412	97,11
729,597	-38,06
729,783	80,72
729,968	-36,01
730,153	33,62
730,338	-11,43
730,523	52,05
730,708	13,14
730,893	115,54
731,078	9,05
731,263	15,19
731,448	-44,2
731,633	25,43
731,818	-93,35
732,003	56,15
732,187	7
732,372	-44,2
732,557	88,92
732,742	-5,29
732,927	-27,82
733,112	121,68
733,297	-17,58
733,481	97,11
733,666	21,33
733,851	31,57
734,036	4,95
734,22	43,86
734,405	136,02
734,59	15,19
734,774	13,14
734,959	-19,63
735,144	43,86
735,328	-52,39
735,513	-117,93
735,698	45,91
735,882	64,34
736,067	131,92
736,251	-9,39
736,436	23,38
736,62	-31,91
736,805	47,96
736,989	29,52
737,174	-9,39
737,358	-117,93
737,543	-1,19
737,727	86,87
737,911	103,25
738,096	41,81
738,28	107,35
738,465	9,05
738,649	68,44
738,833	62,29
739,018	0,85
739,202	9,05
739,386	4,95
739,57	-60,59
739,755	129,88
739,939	113,49
740,123	-48,3
740,307	121,68
740,491	-3,24
740,676	4,95
740,86	25,43
741,044	39,76
741,228	29,52
741,412	-11,43
741,596	-5,29
741,78	7
741,964	72,53
742,148	-31,91
742,332	82,77
742,516	-105,64
742,7	154,45
742,884	172,88
743,068	299,86
743,252	529,23
743,436	594,76
743,62	697,16
743,804	1078,08
743,988	1205,06
744,172	1260,35
744,356	1211,2
744,539	1172,29
744,723	1135,43
744,907	1008,45
745,091	994,12
745,275	969,54
745,458	801,61
745,642	713,55
745,826	545,61
746,009	588,62
746,193	514,89
746,377	410,45
746,56	402,26
746,744	334,67
746,928	295,76
747,111	176,98
747,295	129,88
747,478	144,21
747,662	111,44
747,846	138,07
748,029	242,51
748,213	170,83
748,396	267,09
748,58	367,44
748,763	340,82
748,946	316,24
749,13	463,69
749,313	420,69
749,497	562
749,68	414,54
749,863	430,93
750,047	373,58
750,23	435,02
750,413	355,15
750,597	310,1
750,78	209,75
750,963	250,71
751,146	146,26
751,33	168,79
751,513	176,98
751,696	107,35
751,879	109,4
752,062	58,2
752,246	82,77
752,429	205,65
752,612	232,27
752,795	131,92
752,978	166,74
753,161	144,21
753,344	285,52
753,527	406,35
753,71	408,4
753,893	447,31
754,076	406,35
754,259	521,04
754,442	404,3
754,625	324,43
754,808	465,74
754,991	340,82
755,174	265,04
755,357	297,81
755,539	269,14
755,722	308,05
755,905	287,57
756,088	193,36
756,271	168,79
756,453	168,79
756,636	62,29
756,819	172,88
757,002	62,29
757,184	185,17
757,367	121,68
757,55	68,44
757,732	93,01
757,915	-58,54
758,098	33,62
758,28	95,06
758,463	-56,49
758,645	13,14
758,828	47,96
759,011	72,53
759,193	-25,77
759,376	45,91
759,558	-64,68
759,741	45,91
759,923	41,81
760,105	54,1
760,288	13,14
760,47	-23,72
760,653	-17,58
760,835	4,95
761,017	-13,48
761,2	-31,91
761,382	103,25
761,564	-74,92
761,747	95,06
761,929	39,76
762,111	-27,82
762,294	15,19
762,476	99,16
762,658	54,1
762,84	154,45
763,022	56,15
763,205	37,72
763,387	68,44
763,569	54,1
763,751	-52,39
763,933	-44,2
764,115	-25,77
764,297	17,24
764,479	31,57
764,661	17,24
764,843	95,06
765,025	23,38
765,207	39,76
765,389	-31,91
765,571	-23,72
765,753	15,19
765,935	-36,01
766,117	-7,34
766,299	144,21
766,481	125,78
766,663	-11,43
766,845	-68,78
767,026	54,1
767,208	37,72
767,39	70,48
767,572	-54,44
767,753	105,3
767,935	37,72
768,117	-17,58
768,299	62,29
768,48	-1,19
768,662	31,57
768,844	-1,19
769,025	150,36
769,207	21,33
769,389	-48,3
769,57	56,15
769,752	17,24
769,933	29,52
770,115	56,15
770,296	27,48
770,478	97,11
770,659	-42,15
770,841	205,65
771,022	-3,24
771,204	47,96
771,385	-15,53
771,567	185,17
771,748	119,64
771,929	-19,63
772,111	80,72
772,292	121,68
772,473	11,09
772,655	66,39
772,836	70,48
773,017	99,16
773,199	45,91
773,38	70,48
773,561	76,63
773,742	72,53
773,923	-3,24
774,105	140,12
774,286	62,29
774,467	-36,01
774,648	13,14
774,829	113,49
775,01	9,05
775,191	-40,11
775,372	17,24
775,553	88,92
775,734	-9,39
775,915	-3,24
776,096	15,19
776,277	140,12
776,458	-15,53
776,639	56,15
776,82	86,87
777,001	9,05
777,182	-27,82
777,363	-33,96
777,544	17,24
777,725	140,12
777,906	54,1
778,086	31,57
778,267	45,91
778,448	33,62
778,629	21,33
778,809	41,81
778,99	13,14
779,171	-5,29
779,352	37,72
779,532	41,81
779,713	-11,43
779,894	-7,34
780,074	74,58
780,255	17,24
780,435	39,76
780,616	123,73
780,797	7
780,977	-50,35
781,158	21,33
781,338	21,33
781,519	-23,72
781,699	185,17
781,88	-11,43
782,06	72,53
782,241	-25,77
782,421	-117,93
782,601	13,14
782,782	82,77
782,962	76,63
783,142	-50,35
783,323	70,48
783,503	37,72
783,683	-1,19
783,864	-36,01
784,044	-9,39
784,224	109,4
784,404	7
784,585	95,06
784,765	-1,19
784,945	123,73
785,125	-58,54
785,305	152,4
785,485	136,02
785,666	-15,53
785,846	9,05
786,026	68,44
786,206	-81,07
786,386	58,2
786,566	60,24
786,746	-19,63
786,926	13,14
787,106	-29,87
787,286	15,19
787,466	17,24
787,646	43,86
787,826	54,1
788,006	103,25
788,185	56,15
788,365	-31,91
788,545	148,31
788,725	-15,53
788,905	-9,39
789,085	7
789,264	-36,01
789,444	64,34
789,624	21,33
789,804	-56,49
789,983	70,48
790,163	-40,11
790,343	31,57
790,522	17,24
790,702	117,59
790,882	39,76
791,061	142,16
791,241	-33,96
791,42	0,85
791,6	136,02
791,78	70,48
791,959	15,19
792,139	-36,01
792,318	56,15
792,498	35,67
792,677	31,57
792,856	97,11
793,036	13,14
793,215	31,57
793,395	41,81
793,574	37,72
793,753	72,53
793,933	187,22
794,112	160,59
794,291	60,24
794,471	97,11
794,65	23,38
794,829	17,24
795,008	31,57
795,188	127,83
795,367	107,35
795,546	29,52
795,725	82,77
795,904	-46,25
796,084	-1,19
796,263	-38,06
796,442	103,25
796,621	78,68
796,8	133,97
796,979	45,91
797,158	-52,39
797,337	31,57
797,516	45,91
797,695	54,1
797,874	13,14
798,053	74,58
798,232	-19,63
798,411	-40,11
798,59	-60,59
798,769	-15,53
798,947	35,67
799,126	7
799,305	23,38
799,484	-48,3
799,663	7
799,842	41,81
800,02	39,76
800,199	13,14
800,378	90,96
800,557	-52,39
800,735	4,95
800,914	21,33
801,093	70,48
801,271	31,57
801,45	129,88
801,628	82,77
801,807	-60,59
801,986	66,39
802,164	-1,19
802,343	-13,48
802,521	-44,2
802,7	54,1
802,878	62,29
803,057	31,57
803,235	7
803,414	47,96
803,592	103,25
803,771	21,33
803,949	93,01
804,127	-107,69
804,306	95,06
804,484	-1,19
804,662	31,57
804,841	-76,97
805,019	54,1
805,197	60,24
805,375	-11,43
805,554	-27,82
805,732	-60,59
805,91	-27,82
806,088	72,53
806,266	2,9
806,445	-19,63
806,623	29,52
806,801	0,85
806,979	113,49
807,157	29,52
807,335	-27,82
807,513	86,87
807,691	-17,58
807,869	23,38
808,047	-7,34
808,225	-68,78
808,403	140,12
808,581	86,87
808,759	250,71
808,937	25,43
809,115	17,24
809,293	88,92
809,471	47,96
809,649	95,06
809,826	117,59
810,004	54,1
810,182	74,58
810,36	4,95
810,538	29,52
810,715	0,85
810,893	-93,35
811,071	45,91
811,248	56,15
811,426	-27,82
811,604	136,02
811,781	148,31
811,959	58,2
812,137	-9,39
812,314	-1,19
812,492	56,15
812,669	37,72
812,847	-5,29
813,024	21,33
813,202	113,49
813,379	27,48
813,557	88,92
813,734	209,75
813,912	127,83
814,089	84,82
814,267	115,54
814,444	47,96
814,621	107,35
814,799	33,62
814,976	150,36
815,153	191,31
815,331	15,19
815,508	7
815,685	105,3
815,862	56,15
816,04	-40,11
816,217	29,52
816,394	13,14
816,571	123,73
816,748	228,18
816,926	213,84
817,103	275,28
817,28	-5,29
817,457	7
817,634	72,53
817,811	-25,77
817,988	31,57
818,165	25,43
818,342	21,33
818,519	-11,43
818,696	-19,63
818,873	45,91
819,05	152,4
819,227	13,14
819,404	37,72
819,581	21,33
819,758	-19,63
819,934	70,48
820,111	-42,15
820,288	-44,2
820,465	164,69
820,642	37,72
820,818	54,1
820,995	-23,72
821,172	119,64
821,349	76,63
821,525	4,95
821,702	21,33
821,879	-158,89
822,055	-3,24
822,232	7
822,409	31,57
822,585	78,68
822,762	86,87
822,938	72,53
823,115	13,14
823,291	64,34
823,468	39,76
823,644	-1,19
823,821	107,35
823,997	21,33
824,174	-17,58
824,35	-50,35
824,527	37,72
824,703	29,52
824,879	-11,43
825,056	37,72
825,232	131,92
825,408	54,1
825,585	-44,2
825,761	-25,77
825,937	56,15
826,113	15,19
826,29	66,39
826,466	-89,26
826,642	363,34
826,818	84,82
826,994	50
827,17	-27,82
827,347	13,14
827,523	-36,01
827,699	23,38
827,875	74,58
828,051	35,67
828,227	41,81
828,403	148,31
828,579	58,2
828,755	105,3
828,931	95,06
829,107	78,68
829,283	217,94
829,459	82,77
829,635	162,64
829,811	154,45
829,986	103,25
830,162	146,26
830,338	119,64
830,514	21,33
830,69	97,11
830,865	74,58
831,041	111,44
831,217	0,85
831,393	64,34
831,568	33,62
831,744	127,83
831,92	39,76
832,095	39,76
832,271	13,14
832,447	125,78
832,622	174,93
832,798	56,15
832,973	97,11
833,149	54,1
833,325	72,53
833,5	21,33
833,676	27,48
833,851	37,72
834,027	39,76
834,202	45,91
834,377	35,67
834,553	13,14
834,728	95,06
834,904	21,33
835,079	43,86
835,254	-44,2
835,43	62,29
835,605	33,62
835,78	17,24
835,955	9,05
836,131	-17,58
836,306	-60,59
836,481	66,39
836,656	70,48
836,832	160,59
837,007	146,26
837,182	189,27
837,357	326,48
837,532	349,01
837,707	365,39
837,882	461,65
838,057	459,6
838,232	373,58
838,407	332,62
838,582	291,66
838,757	250,71
838,932	250,71
839,107	269,14
839,282	80,72
839,457	197,46
839,632	262,99
839,807	170,83
839,982	187,22
840,157	211,79
840,332	316,24
840,506	185,17
840,681	78,68
840,856	168,79
841,031	115,54
841,205	185,17
841,38	299,86
841,555	217,94
841,73	154,45
841,904	119,64
842,079	138,07
842,254	127,83
842,428	58,2
842,603	-23,72
842,777	15,19
842,952	82,77
843,126	43,86
843,301	170,83
843,476	-23,72
843,65	-38,06
843,825	127,83
843,999	4,95
844,173	29,52
844,348	-3,24
844,522	47,96
844,697	-3,24
844,871	82,77
845,045	103,25
845,22	160,59
845,394	119,64
845,568	60,24
845,743	131,92
845,917	56,15
846,091	-19,63
846,265	43,86
846,44	60,24
846,614	86,87
846,788	-1,19
846,962	80,72
847,136	33,62
847,31	-50,35
847,485	117,59
847,659	-19,63
847,833	119,64
848,007	103,25
848,181	37,72
848,355	-56,49
848,529	123,73
848,703	187,22
848,877	19,29
849,051	193,36
849,225	230,23
849,399	152,4
849,573	80,72
849,746	97,11
849,92	168,79
850,094	209,75
850,268	84,82
850,442	242,51
850,616	70,48
850,789	117,59
850,963	78,68
851,137	78,68
851,311	201,55
851,484	119,64
851,658	236,37
851,832	113,49
852,005	74,58
852,179	58,2
852,352	103,25
852,526	99,16
852,7	86,87
852,873	162,64
853,047	140,12
853,22	101,2
853,394	95,06
853,567	121,68
853,741	-3,24
853,914	-40,11
854,088	101,2
854,261	-93,35
854,434	119,64
854,608	88,92
854,781	-25,77
854,955	56,15
855,128	7
855,301	-11,43
855,475	31,57
855,648	-19,63
855,821	29,52
855,994	131,92
856,168	88,92
856,341	72,53
856,514	-52,39
856,687	-3,24
856,86	39,76
857,033	31,57
857,207	13,14
857,38	-81,07
857,553	82,77
857,726	115,54
857,899	86,87
858,072	-11,43
858,245	-11,43
858,418	17,24
858,591	29,52
858,764	82,77
858,937	162,64
859,11	76,63
859,283	205,65
859,455	142,16
859,628	107,35
859,801	115,54
859,974	170,83
860,147	-1,19
860,32	82,77
860,492	117,59
860,665	-44,2
860,838	105,3
861,011	45,91
861,183	82,77
861,356	160,59
861,529	82,77
861,701	29,52
861,874	62,29
862,047	78,68
862,219	74,58
862,392	162,64
862,564	52,05
862,737	70,48
862,909	66,39
863,082	39,76
863,254	95,06
863,427	80,72
863,599	179,03
863,772	95,06
863,944	90,96
864,117	144,21
864,289	9,05
864,461	62,29
864,634	105,3
864,806	45,91
864,978	140,12
865,151	119,64
865,323	320,34
865,495	217,94
865,667	170,83
865,84	242,51
866,012	146,26
866,184	277,33
866,356	160,59
866,528	70,48
866,7	119,64
866,873	50
867,045	111,44
867,217	50
867,389	156,5
867,561	160,59
867,733	162,64
867,905	113,49
868,077	166,74
868,249	95,06
868,421	127,83
868,593	70,48
868,765	193,36
868,936	21,33
869,108	64,34
869,28	189,27
869,452	64,34
869,624	13,14
869,796	136,02
869,968	70,48
870,139	152,4
870,311	7
870,483	219,99
870,654	-23,72
870,826	90,96
870,998	21,33
871,17	2,9
871,341	-11,43
871,513	62,29
871,684	31,57
871,856	64,34
872,028	88,92
872,199	25,43
872,371	-27,82
872,542	-21,67
872,714	-17,58
872,885	72,53
873,057	41,81
873,228	62,29
873,4	-1,19
873,571	156,5
873,742	-68,78
873,914	99,16
874,085	35,67
874,256	58,2
874,428	-17,58
874,599	-19,63
874,77	152,4
874,942	-74,92
875,113	-19,63
875,284	-62,63
875,455	-15,53
875,626	21,33
875,798	-27,82
875,969	-19,63
876,14	115,54
876,311	25,43
876,482	103,25
876,653	123,73
876,824	105,3
876,995	66,39
877,166	90,96
877,337	105,3
877,508	93,01
877,679	-11,43
877,85	19,29
878,021	78,68
878,192	162,64
878,363	29,52
878,534	76,63
878,705	72,53
878,876	72,53
879,047	193,36
879,217	103,25
879,388	62,29
879,559	90,96
879,73	156,5
879,9	78,68
880,071	123,73
880,242	144,21
880,413	111,44
880,583	144,21
880,754	164,69
880,924	99,16
881,095	-19,63
881,266	45,91
881,436	146,26
881,607	121,68
881,777	136,02
881,948	41,81
882,118	162,64
882,289	9,05
882,459	105,3
882,63	74,58
882,8	33,62
882,971	90,96
883,141	103,25
883,311	107,35
883,482	88,92
883,652	-58,54
883,822	-25,77
883,993	35,67
884,163	56,15
884,333	17,24
884,504	78,68
884,674	47,96
884,844	-58,54
885,014	-11,43
885,184	37,72
885,355	0,85
885,525	-31,91
885,695	111,44
885,865	129,88
886,035	88,92
886,205	115,54
886,375	21,33
886,545	-3,24
886,715	-3,24
886,885	50
887,055	31,57
887,225	50
887,395	-3,24
887,565	211,79
887,735	138,07
887,905	88,92
888,075	-17,58
888,244	125,78
888,414	23,38
888,584	97,11
888,754	23,38
888,924	88,92
889,093	217,94
889,263	25,43
889,433	7
889,603	29,52
889,772	37,72
889,942	140,12
890,111	15,19
890,281	107,35
890,451	-31,91
890,62	-19,63
890,79	29,52
890,959	-3,24
891,129	9,05
891,298	47,96
891,468	21,33
891,637	54,1
891,807	66,39
891,976	50
892,146	23,38
892,315	99,16
892,485	37,72
892,654	-3,24
892,823	13,14
892,993	-5,29
893,162	-3,24
893,331	54,1
893,501	111,44
893,67	56,15
893,839	45,91
894,008	9,05
894,177	97,11
894,347	29,52
894,516	54,1
894,685	-3,24
894,854	-52,39
895,023	64,34
895,192	-19,63
