Data from neon_USB4F104161__7__11-46-32-371.txt Node

Date: Tue Apr 14 11:46:32 EDT 2026
User: LaboPhy
Spectrometer: USB4F10416
Trigger mode: 4
Integration Time (sec): 1,000000E-1
Scans to average: 1
Electric dark correction enabled: true
Nonlinearity correction enabled: false
Boxcar width: 0
XAxis mode: Wavelengths
Number of Pixels in Spectrum: 3648
>>>>>Begin Spectral Data<<<<<
177,847	-148,31
178,066	-148,31
178,284	-148,31
178,502	-166,74
178,72	-201,55
178,939	-29,52
179,157	1,19
179,375	-62,29
179,593	105,64
179,812	93,35
180,03	-0,85
180,248	11,43
180,466	-43,86
180,685	-13,14
180,903	-11,09
181,121	-78,68
181,339	27,82
181,557	-35,67
181,775	-56,15
181,994	-50
182,212	3,24
182,43	-101,2
182,648	5,29
182,866	-17,24
183,084	70,83
183,302	-66,39
183,52	-2,9
183,739	-4,95
183,957	23,72
184,175	50,35
184,393	-29,52
184,611	68,78
184,829	19,63
185,047	-82,77
185,265	44,2
185,483	-37,72
185,701	7,34
185,919	-21,33
186,137	-0,85
186,355	29,87
186,573	101,55
186,791	130,22
187,009	5,29
187,227	117,93
187,445	-90,96
187,663	-45,91
187,881	-66,39
188,098	52,39
188,316	-41,81
188,534	56,49
188,752	-4,95
188,97	-37,72
189,188	23,72
189,406	7,34
189,624	15,53
189,841	54,44
190,059	-45,91
190,277	-43,86
190,495	36,01
190,713	29,87
190,931	142,5
191,148	-43,86
191,366	9,39
191,584	36,01
191,802	-7
192,019	154,79
192,237	101,55
192,455	-19,29
192,673	11,43
192,89	-78,68
193,108	72,87
193,326	27,82
193,543	72,87
193,761	19,63
193,979	93,35
194,196	-121,68
194,414	46,25
194,632	46,25
194,849	-45,91
195,067	-43,86
195,285	68,78
195,502	-54,1
195,72	27,82
195,937	-17,24
196,155	-29,52
196,373	46,25
196,59	17,58
196,808	36,01
197,025	38,06
197,243	152,74
197,46	93,35
197,678	54,44
197,895	-50
198,113	-17,24
198,33	-2,9
198,548	107,69
198,765	-43,86
198,983	54,44
199,2	-105,3
199,418	76,97
199,635	-7
199,853	-29,52
200,07	-11,09
200,288	19,63
200,505	-95,06
200,722	15,53
200,94	7,34
201,157	-2,9
201,375	101,55
201,592	19,63
201,809	5,29
202,027	167,08
202,244	79,02
202,461	-7
202,679	27,82
202,896	48,3
203,113	5,29
203,331	21,67
203,548	68,78
203,765	52,39
203,982	38,06
204,2	-25,43
204,417	-29,52
204,634	160,94
204,851	60,59
205,069	-13,14
205,286	56,49
205,503	31,91
205,72	-68,44
205,937	95,4
206,155	-70,48
206,372	93,35
206,589	-54,1
206,806	-9,05
207,023	13,48
207,24	46,25
207,458	-74,58
207,675	9,39
207,892	48,3
208,109	-72,53
208,326	-4,95
208,543	-66,39
208,76	-43,86
208,977	117,93
209,194	42,15
209,411	-101,2
209,628	33,96
209,845	-13,14
210,062	-86,87
210,279	-95,06
210,496	-27,48
210,713	7,34
210,93	7,34
211,147	27,82
211,364	-2,9
211,581	-58,2
211,798	72,87
212,015	-140,12
212,232	-29,52
212,449	-21,33
212,666	-35,67
212,883	-97,11
213,1	64,68
213,317	-37,72
213,533	44,2
213,75	-78,68
213,967	19,63
214,184	-17,24
214,401	27,82
214,618	-78,68
214,835	-4,95
215,051	97,45
215,268	-9,05
215,485	-52,05
215,702	3,24
215,919	-127,83
216,135	183,46
216,352	-13,14
216,569	17,58
216,786	21,67
217,002	7,34
217,219	27,82
217,436	23,72
217,652	21,67
217,869	1,19
218,086	152,74
218,302	62,63
218,519	-19,29
218,736	-62,29
218,952	-78,68
219,169	58,54
219,386	25,77
219,602	-13,14
219,819	33,96
220,036	-60,24
220,252	89,26
220,469	-0,85
220,685	46,25
220,902	144,55
221,118	-15,19
221,335	11,43
221,552	-35,67
221,768	13,48
221,985	-15,19
222,201	-13,14
222,418	-39,76
222,634	29,87
222,851	60,59
223,067	11,43
223,284	40,11
223,5	44,2
223,716	13,48
223,933	-62,29
224,149	54,44
224,366	36,01
224,582	-13,14
224,799	-13,14
225,015	5,29
225,231	-25,43
225,448	-41,81
225,664	-4,95
225,88	-11,09
226,097	58,54
226,313	-56,15
226,529	23,72
226,746	15,53
226,962	68,78
227,178	-4,95
227,395	-54,1
227,611	-13,14
227,827	-4,95
228,044	58,54
228,26	79,02
228,476	-33,62
228,692	74,92
228,909	15,53
229,125	27,82
229,341	-25,43
229,557	11,43
229,773	-64,34
229,99	101,55
230,206	-70,48
230,422	21,67
230,638	-86,87
230,854	-37,72
231,07	-111,44
231,286	40,11
231,503	54,44
231,719	-60,24
231,935	48,3
232,151	-45,91
232,367	13,48
232,583	52,39
232,799	54,44
233,015	33,96
233,231	1,19
233,447	-11,09
233,663	-45,91
233,879	70,83
234,095	-70,48
234,311	40,11
234,527	60,59
234,743	7,34
234,959	111,78
235,175	68,78
235,391	7,34
235,607	13,48
235,823	122,02
236,039	-2,9
236,255	62,63
236,471	7,34
236,687	44,2
236,903	-21,33
237,118	-11,09
237,334	11,43
237,55	68,78
237,766	-90,96
237,982	-9,05
238,198	19,63
238,413	-25,43
238,629	68,78
238,845	-27,48
239,061	7,34
239,277	13,48
239,492	-9,05
239,708	52,39
239,924	-60,24
240,14	-0,85
240,355	62,63
240,571	15,53
240,787	-2,9
241,003	76,97
241,218	-70,48
241,434	-17,24
241,65	29,87
241,865	29,87
242,081	-4,95
242,297	-50
242,512	40,11
242,728	44,2
242,944	-107,35
243,159	17,58
243,375	19,63
243,59	-84,82
243,806	-11,09
244,022	-29,52
244,237	-45,91
244,453	-13,14
244,668	9,39
244,884	48,3
245,099	7,34
245,315	44,2
245,53	83,11
245,746	119,98
245,961	44,2
246,177	13,48
246,392	60,59
246,608	-13,14
246,823	29,87
247,039	-13,14
247,254	-50
247,47	29,87
247,685	-45,91
247,9	-29,52
248,116	13,48
248,331	-58,2
248,547	64,68
248,762	-88,92
248,977	29,87
249,193	27,82
249,408	46,25
249,623	23,72
249,839	21,67
250,054	-33,62
250,269	-21,33
250,485	29,87
250,7	33,96
250,915	11,43
251,13	1,19
251,346	-43,86
251,561	76,97
251,776	3,24
251,991	-113,49
252,207	101,55
252,422	25,77
252,637	-41,81
252,852	15,53
253,067	27,82
253,283	-54,1
253,498	-11,09
253,713	-76,63
253,928	-39,76
254,143	23,72
254,358	36,01
254,573	-21,33
254,788	-60,24
255,004	33,96
255,219	-76,63
255,434	-17,24
255,649	-86,87
255,864	19,63
256,079	48,3
256,294	-21,33
256,509	-31,57
256,724	33,96
256,939	-54,1
257,154	44,2
257,369	27,82
257,584	54,44
257,799	-80,72
258,014	-78,68
258,229	11,43
258,444	23,72
258,659	-11,09
258,874	36,01
259,089	-0,85
259,304	27,82
259,518	-74,58
259,733	-21,33
259,948	15,53
260,163	101,55
260,378	79,02
260,593	21,67
260,808	128,17
261,022	-115,54
261,237	38,06
261,452	-2,9
261,667	-37,72
261,882	46,25
262,096	-21,33
262,311	85,16
262,526	-90,96
262,741	-9,05
262,955	-17,24
263,17	56,49
263,385	-60,24
263,6	-101,2
263,814	-33,62
264,029	-29,52
264,244	36,01
264,458	-43,86
264,673	44,2
264,888	29,87
265,102	76,97
265,317	9,39
265,532	-25,43
265,746	44,2
265,961	3,24
266,175	-13,14
266,39	-68,44
266,605	-103,25
266,819	-0,85
267,034	79,02
267,248	-70,48
267,463	29,87
267,677	36,01
267,892	-17,24
268,106	-27,48
268,321	72,87
268,535	13,48
268,75	101,55
268,964	17,58
269,179	72,87
269,393	54,44
269,608	-23,38
269,822	-43,86
270,036	-29,52
270,251	-19,29
270,465	5,29
270,68	62,63
270,894	-37,72
271,108	97,45
271,323	9,39
271,537	-13,14
271,752	-31,57
271,966	-11,09
272,18	-58,2
272,394	-45,91
272,609	103,59
272,823	68,78
273,037	117,93
273,252	-29,52
273,466	-54,1
273,68	95,4
273,894	27,82
274,109	-50
274,323	-43,86
274,537	19,63
274,751	-95,06
274,966	-4,95
275,18	-4,95
275,394	3,24
275,608	3,24
275,822	-62,29
276,036	-35,67
276,25	29,87
276,465	60,59
276,679	46,25
276,893	-41,81
277,107	-29,52
277,321	19,63
277,535	27,82
277,749	76,97
277,963	15,53
278,177	-101,2
278,391	-25,43
278,605	-29,52
278,819	56,49
279,033	-66,39
279,247	27,82
279,461	42,15
279,675	19,63
279,889	72,87
280,103	101,55
280,317	11,43
280,531	-54,1
280,745	5,29
280,959	-37,72
281,173	11,43
281,387	97,45
281,601	54,44
281,815	111,78
282,029	54,44
282,242	29,87
282,456	1,19
282,67	85,16
282,884	-13,14
283,098	-45,91
283,312	-0,85
283,525	21,67
283,739	85,16
283,953	3,24
284,167	-0,85
284,381	-37,72
284,594	3,24
284,808	23,72
285,022	-2,9
285,235	44,2
285,449	-45,91
285,663	-35,67
285,877	-43,86
286,09	27,82
286,304	60,59
286,518	-78,68
286,731	-54,1
286,945	29,87
287,159	3,24
287,372	-19,29
287,586	-29,52
287,799	-25,43
288,013	-60,24
288,227	76,97
288,44	165,03
288,654	15,53
288,867	87,21
289,081	58,54
289,294	36,01
289,508	48,3
289,721	-29,52
289,935	-78,68
290,148	21,67
290,362	-82,77
290,575	99,5
290,789	-4,95
291,002	25,77
291,216	85,16
291,429	11,43
291,643	-4,95
291,856	-4,95
292,069	-2,9
292,283	-103,25
292,496	1,19
292,71	21,67
292,923	-29,52
293,136	3,24
293,35	85,16
293,563	-11,09
293,776	29,87
293,99	-13,14
294,203	-13,14
294,416	64,68
294,63	-21,33
294,843	23,72
295,056	-4,95
295,269	-58,2
295,483	-76,63
295,696	-13,14
295,909	-74,58
296,122	25,77
296,335	64,68
296,549	46,25
296,762	-101,2
296,975	-25,43
297,188	27,82
297,401	11,43
297,615	85,16
297,828	19,63
298,041	60,59
298,254	-105,3
298,467	1,19
298,68	36,01
298,893	-62,29
299,106	-70,48
299,319	23,72
299,532	-9,05
299,745	-37,72
299,958	-105,3
300,171	-45,91
300,384	36,01
300,598	-86,87
300,81	-0,85
301,023	-111,44
301,236	-56,15
301,449	-17,24
301,662	-21,33
301,875	-60,24
302,088	-27,48
302,301	19,63
302,514	-95,06
302,727	85,16
302,94	27,82
303,153	-2,9
303,366	-2,9
303,579	-62,29
303,791	9,39
304,004	-35,67
304,217	-21,33
304,43	72,87
304,643	-23,38
304,855	-19,29
305,068	27,82
305,281	-66,39
305,494	7,34
305,707	11,43
305,919	126,12
306,132	76,97
306,345	62,63
306,558	60,59
306,77	-78,68
306,983	-27,48
307,196	11,43
307,408	-0,85
307,621	-35,67
307,834	-54,1
308,046	36,01
308,259	-70,48
308,472	5,29
308,684	93,35
308,897	-43,86
309,109	-78,68
309,322	-105,3
309,535	-45,91
309,747	79,02
309,96	11,43
310,172	52,39
310,385	83,11
310,597	-70,48
310,81	38,06
311,022	-11,09
311,235	-45,91
311,447	-35,67
311,66	-2,9
311,872	89,26
312,085	-39,76
312,297	-0,85
312,51	-21,33
312,722	31,91
312,934	-13,14
313,147	-82,77
313,359	-9,05
313,572	5,29
313,784	-50
313,996	-33,62
314,209	54,44
314,421	-58,2
314,633	25,77
314,846	-50
315,058	-4,95
315,27	119,98
315,483	-2,9
315,695	66,73
315,907	-21,33
316,119	-0,85
316,332	21,67
316,544	60,59
316,756	21,67
316,968	-29,52
317,181	-13,14
317,393	-68,44
317,605	-11,09
317,817	-13,14
318,029	42,15
318,241	11,43
318,454	36,01
318,666	7,34
318,878	-86,87
319,09	-58,2
319,302	7,34
319,514	-52,05
319,726	-21,33
319,938	101,55
320,15	58,54
320,362	7,34
320,574	21,67
320,786	-35,67
320,999	-99,16
321,211	46,25
321,423	19,63
321,635	-27,48
321,847	-29,52
322,058	-60,24
322,27	27,82
322,482	19,63
322,694	60,59
322,906	70,83
323,118	9,39
323,33	-2,9
323,542	-21,33
323,754	-47,96
323,966	-125,78
324,178	76,97
324,389	-27,48
324,601	36,01
324,813	-50
325,025	40,11
325,237	1,19
325,449	54,44
325,66	13,48
325,872	-4,95
326,084	-86,87
326,296	-25,43
326,507	44,2
326,719	52,39
326,931	-101,2
327,143	60,59
327,354	89,26
327,566	23,72
327,778	-60,24
327,989	13,48
328,201	-37,72
328,413	-27,48
328,624	79,02
328,836	-33,62
329,048	-45,91
329,259	58,54
329,471	5,29
329,682	-4,95
329,894	36,01
330,106	-101,2
330,317	15,53
330,529	-64,34
330,74	-29,52
330,952	25,77
331,163	-4,95
331,375	3,24
331,586	29,87
331,798	17,58
332,009	38,06
332,221	-13,14
332,432	-13,14
332,644	3,24
332,855	-43,86
333,067	44,2
333,278	3,24
333,489	36,01
333,701	-64,34
333,912	-56,15
334,124	-4,95
334,335	-9,05
334,546	-45,91
334,758	36,01
334,969	101,55
335,18	40,11
335,392	-11,09
335,603	62,63
335,814	36,01
336,025	-19,29
336,237	7,34
336,448	3,24
336,659	21,67
336,87	76,97
337,082	101,55
337,293	-62,29
337,504	68,78
337,715	44,2
337,926	87,21
338,138	-11,09
338,349	46,25
338,56	3,24
338,771	-17,24
338,982	27,82
339,193	-33,62
339,404	85,16
339,616	68,78
339,827	-21,33
340,038	-52,05
340,249	-27,48
340,46	-2,9
340,671	79,02
340,882	113,83
341,093	33,96
341,304	-0,85
341,515	-4,95
341,726	-25,43
341,937	17,58
342,148	-13,14
342,359	-4,95
342,57	5,29
342,781	193,7
342,992	36,01
343,203	27,82
343,414	52,39
343,624	-54,1
343,835	-13,14
344,046	38,06
344,257	46,25
344,468	60,59
344,679	52,39
344,89	175,27
345,1	117,93
345,311	134,31
345,522	208,04
345,733	224,42
345,944	199,85
346,154	150,7
346,365	257,19
346,576	187,56
346,787	183,46
346,997	263,33
347,208	322,73
347,419	68,78
347,629	85,16
347,84	177,32
348,051	11,43
348,261	97,45
348,472	-0,85
348,683	44,2
348,893	21,67
349,104	48,3
349,315	44,2
349,525	13,48
349,736	48,3
349,946	76,97
350,157	218,28
350,368	109,74
350,578	81,07
350,789	150,7
350,999	138,41
351,21	222,38
351,42	134,31
351,631	287,91
351,841	208,04
352,052	294,05
352,262	357,54
352,472	251,05
352,683	281,77
352,893	165,03
353,104	62,63
353,314	183,46
353,525	470,18
353,735	52,39
353,945	52,39
354,156	-35,67
354,366	27,82
354,576	68,78
354,787	62,63
354,997	-35,67
355,207	-17,24
355,418	15,53
355,628	-21,33
355,838	-17,24
356,048	7,34
356,259	-31,57
356,469	-29,52
356,679	52,39
356,889	-17,24
357,1	-60,24
357,31	-29,52
357,52	44,2
357,73	-62,29
357,94	29,87
358,15	-4,95
358,361	40,11
358,571	48,3
358,781	21,67
358,991	-11,09
359,201	76,97
359,411	15,53
359,621	93,35
359,831	203,94
360,041	142,5
360,251	146,6
360,461	117,93
360,672	128,17
360,882	29,87
361,092	56,49
361,302	-17,24
361,512	81,07
361,721	-37,72
361,931	62,63
362,141	31,91
362,351	-37,72
362,561	19,63
362,771	40,11
362,981	68,78
363,191	-25,43
363,401	62,63
363,611	-54,1
363,821	-39,76
364,03	-54,1
364,24	54,44
364,45	60,59
364,66	216,23
364,87	25,77
365,08	52,39
365,289	1,19
365,499	-27,48
365,709	66,73
365,919	11,43
366,128	-62,29
366,338	93,35
366,548	-33,62
366,758	64,68
366,967	23,72
367,177	52,39
367,387	-43,86
367,596	74,92
367,806	-82,77
368,016	-7
368,225	101,55
368,435	19,63
368,644	46,25
368,854	36,01
369,064	52,39
369,273	36,01
369,483	3,24
369,692	11,43
369,902	-13,14
370,111	62,63
370,321	-4,95
370,53	5,29
370,74	27,82
370,949	27,82
371,159	3,24
371,368	48,3
371,578	38,06
371,787	38,06
371,997	-70,48
372,206	-11,09
372,416	-19,29
372,625	-4,95
372,834	-74,58
373,044	36,01
373,253	-25,43
373,462	27,82
373,672	23,72
373,881	-2,9
374,09	-76,63
374,3	-31,57
374,509	3,24
374,718	-43,86
374,928	111,78
375,137	-21,33
375,346	3,24
375,555	103,59
375,765	-74,58
375,974	40,11
376,183	31,91
376,392	27,82
376,601	50,35
376,811	31,91
377,02	48,3
377,229	17,58
377,438	15,53
377,647	11,43
377,856	-17,24
378,065	-37,72
378,275	-27,48
378,484	-54,1
378,693	-52,05
378,902	-9,05
379,111	56,49
379,32	5,29
379,529	-119,64
379,738	-2,9
379,947	-56,15
380,156	-2,9
380,365	11,43
380,574	70,83
380,783	-68,44
380,992	-41,81
381,201	-21,33
381,41	-90,96
381,619	3,24
381,828	-0,85
382,037	-60,24
382,245	5,29
382,454	138,41
382,663	-17,24
382,872	-27,48
383,081	-62,29
383,29	46,25
383,499	-4,95
383,707	21,67
383,916	54,44
384,125	15,53
384,334	48,3
384,542	62,63
384,751	-25,43
384,96	-45,91
385,169	-78,68
385,377	21,67
385,586	-60,24
385,795	48,3
386,004	183,46
386,212	-17,24
386,421	-45,91
386,63	54,44
386,838	-37,72
387,047	87,21
387,255	54,44
387,464	-11,09
387,673	5,29
387,881	93,35
388,09	44,2
388,298	79,02
388,507	46,25
388,715	11,43
388,924	85,16
389,133	-21,33
389,341	-41,81
389,55	-33,62
389,758	-4,95
389,967	-29,52
390,175	5,29
390,383	19,63
390,592	97,45
390,8	3,24
391,009	3,24
391,217	109,74
391,426	60,59
391,634	-2,9
391,842	21,67
392,051	-11,09
392,259	68,78
392,467	-93,01
392,676	-60,24
392,884	-45,91
393,092	38,06
393,301	-4,95
393,509	-2,9
393,717	25,77
393,925	62,63
394,134	-84,82
394,342	29,87
394,55	109,74
394,758	40,11
394,967	44,2
395,175	-68,44
395,383	-4,95
395,591	-41,81
395,799	38,06
396,007	-105,3
396,216	117,93
396,424	-25,43
396,632	46,25
396,84	-70,48
397,048	-13,14
397,256	-21,33
397,464	-50
397,672	7,34
397,88	-45,91
398,088	-13,14
398,296	-60,24
398,504	38,06
398,712	-25,43
398,92	19,63
399,128	-29,52
399,336	-66,39
399,544	52,39
399,752	7,34
399,96	64,68
400,168	-29,52
400,376	-37,72
400,584	-31,57
400,792	3,24
401	-62,29
401,207	46,25
401,415	-13,14
401,623	-2,9
401,831	-17,24
402,039	40,11
402,247	-93,01
402,454	99,5
402,662	46,25
402,87	-13,14
403,078	60,59
403,285	46,25
403,493	-17,24
403,701	-4,95
403,909	60,59
404,116	93,35
404,324	-43,86
404,532	21,67
404,739	-52,05
404,947	-23,38
405,155	-15,19
405,362	95,4
405,57	5,29
405,778	-97,11
405,985	76,97
406,193	36,01
406,4	-95,06
406,608	-29,52
406,816	52,39
407,023	-9,05
407,231	-60,24
407,438	-66,39
407,646	-35,67
407,853	25,77
408,061	-13,14
408,268	52,39
408,476	-39,76
408,683	68,78
408,89	79,02
409,098	54,44
409,305	46,25
409,513	-0,85
409,72	-25,43
409,927	-37,72
410,135	44,2
410,342	79,02
410,55	83,11
410,757	-29,52
410,964	-60,24
411,172	19,63
411,379	-2,9
411,586	19,63
411,793	-21,33
412,001	-4,95
412,208	-35,67
412,415	70,83
412,622	33,96
412,83	-27,48
413,037	72,87
413,244	-2,9
413,451	62,63
413,658	56,49
413,866	48,3
414,073	46,25
414,28	44,2
414,487	-43,86
414,694	19,63
414,901	-29,52
415,108	-27,48
415,315	25,77
415,522	44,2
415,73	-50
415,937	-37,72
416,144	5,29
416,351	-35,67
416,558	-29,52
416,765	19,63
416,972	27,82
417,179	17,58
417,386	21,67
417,593	7,34
417,8	-17,24
418,006	-4,95
418,213	11,43
418,42	31,91
418,627	97,45
418,834	-17,24
419,041	-95,06
419,248	15,53
419,455	68,78
419,661	21,67
419,868	-0,85
420,075	-29,52
420,282	-113,49
420,489	-41,81
420,696	-21,33
420,902	40,11
421,109	87,21
421,316	-4,95
421,523	70,83
421,729	52,39
421,936	21,67
422,143	46,25
422,349	-33,62
422,556	-103,25
422,763	-21,33
422,969	-37,72
423,176	-29,52
423,383	23,72
423,589	240,81
423,796	-0,85
424,002	-37,72
424,209	13,48
424,416	68,78
424,622	-29,52
424,829	-84,82
425,035	-133,97
425,242	-39,76
425,448	29,87
425,655	3,24
425,861	-29,52
426,068	15,53
426,274	150,7
426,481	19,63
426,687	27,82
426,894	29,87
427,1	54,44
427,306	-45,91
427,513	11,43
427,719	72,87
427,926	3,24
428,132	21,67
428,338	-37,72
428,545	-101,2
428,751	-82,77
428,957	56,49
429,163	-78,68
429,37	44,2
429,576	66,73
429,782	-54,1
429,989	15,53
430,195	29,87
430,401	48,3
430,607	19,63
430,813	-25,43
431,02	13,48
431,226	11,43
431,432	1,19
431,638	29,87
431,844	-50
432,05	-45,91
432,257	25,77
432,463	-29,52
432,669	23,72
432,875	-13,14
433,081	-54,1
433,287	-45,91
433,493	-144,21
433,699	111,78
433,905	46,25
434,111	-60,24
434,317	-13,14
434,523	122,02
434,729	-2,9
434,935	-76,63
435,141	87,21
435,347	-78,68
435,553	-29,52
435,759	-0,85
435,965	-29,52
436,171	91,31
436,377	68,78
436,582	60,59
436,788	-66,39
436,994	93,35
437,2	-31,57
437,406	23,72
437,612	29,87
437,818	52,39
438,023	-127,83
438,229	142,5
438,435	19,63
438,641	-43,86
438,846	3,24
439,052	-76,63
439,258	13,48
439,464	-43,86
439,669	-9,05
439,875	79,02
440,081	21,67
440,286	-101,2
440,492	3,24
440,698	-21,33
440,903	5,29
441,109	81,07
441,314	-39,76
441,52	-37,72
441,726	15,53
441,931	-17,24
442,137	40,11
442,342	-0,85
442,548	76,97
442,753	83,11
442,959	-56,15
443,164	-0,85
443,37	19,63
443,575	-17,24
443,781	-78,68
443,986	109,74
444,192	-54,1
444,397	3,24
444,602	-111,44
444,808	15,53
445,013	-45,91
445,219	-60,24
445,424	119,98
445,629	52,39
445,835	103,59
446,04	-52,05
446,245	44,2
446,451	68,78
446,656	-78,68
446,861	-15,19
447,066	85,16
447,272	101,55
447,477	21,67
447,682	-29,52
447,887	-70,48
448,093	11,43
448,298	36,01
448,503	-11,09
448,708	7,34
448,913	-64,34
449,118	60,59
449,324	42,15
449,529	15,53
449,734	-64,34
449,939	-95,06
450,144	52,39
450,349	19,63
450,554	5,29
450,759	89,26
450,964	36,01
451,169	11,43
451,374	11,43
451,579	54,44
451,784	-4,95
451,989	-13,14
452,194	56,49
452,399	-45,91
452,604	76,97
452,809	-107,35
453,014	-29,52
453,219	38,06
453,424	62,63
453,629	-111,44
453,833	13,48
454,038	158,89
454,243	31,91
454,448	-54,1
454,653	81,07
454,858	15,53
455,062	-45,91
455,267	-33,62
455,472	66,73
455,677	126,12
455,882	-2,9
456,086	117,93
456,291	-54,1
456,496	-68,44
456,7	-60,24
456,905	58,54
457,11	7,34
457,314	-2,9
457,519	-62,29
457,724	-50
457,928	-17,24
458,133	-54,1
458,338	44,2
458,542	-13,14
458,747	-13,14
458,951	-9,05
459,156	-9,05
459,36	15,53
459,565	134,31
459,769	-4,95
459,974	-0,85
460,178	15,53
460,383	-84,82
460,587	29,87
460,792	58,54
460,996	-27,48
461,201	-0,85
461,405	-127,83
461,61	-37,72
461,814	-4,95
462,018	-111,44
462,223	-4,95
462,427	-17,24
462,631	5,29
462,836	56,49
463,04	64,68
463,244	97,45
463,449	-29,52
463,653	101,55
463,857	29,87
464,062	68,78
464,266	-13,14
464,47	27,82
464,674	36,01
464,878	56,49
465,083	-54,1
465,287	74,92
465,491	3,24
465,695	52,39
465,899	-19,29
466,104	-0,85
466,308	-62,29
466,512	29,87
466,716	7,34
466,92	62,63
467,124	60,59
467,328	17,58
467,532	74,92
467,736	3,24
467,94	79,02
468,144	13,48
468,348	93,35
468,552	89,26
468,756	3,24
468,96	-19,29
469,164	-29,52
469,368	-78,68
469,572	68,78
469,776	175,27
469,98	54,44
470,184	60,59
470,388	72,87
470,591	36,01
470,795	150,7
470,999	167,08
471,203	109,74
471,407	54,44
471,611	27,82
471,814	56,49
472,018	-29,52
472,222	76,97
472,426	175,27
472,63	42,15
472,833	48,3
473,037	76,97
473,241	5,29
473,444	103,59
473,648	494,76
473,852	-21,33
474,055	-21,33
474,259	11,43
474,463	27,82
474,666	7,34
474,87	58,54
475,074	117,93
475,277	25,77
475,481	101,55
475,684	103,59
475,888	-70,48
476,091	-4,95
476,295	-11,09
476,498	-37,72
476,702	11,43
476,905	46,25
477,109	183,46
477,312	101,55
477,516	-111,44
477,719	19,63
477,923	19,63
478,126	-56,15
478,329	44,2
478,533	9,39
478,736	87,21
478,94	1,19
479,143	7,34
479,346	-23,38
479,55	46,25
479,753	5,29
479,956	3,24
480,159	-29,52
480,363	44,2
480,566	64,68
480,769	60,59
480,972	-9,05
481,176	-29,52
481,379	54,44
481,582	89,26
481,785	-13,14
481,988	-13,14
482,192	40,11
482,395	29,87
482,598	-58,2
482,801	93,35
483,004	105,64
483,207	-39,76
483,41	66,73
483,613	72,87
483,817	117,93
484,02	-41,81
484,223	-31,57
484,426	107,69
484,629	17,58
484,832	111,78
485,035	19,63
485,238	44,2
485,441	3,24
485,644	54,44
485,846	89,26
486,049	15,53
486,252	3,24
486,455	21,67
486,658	68,78
486,861	27,82
487,064	85,16
487,267	-68,44
487,47	101,55
487,672	68,78
487,875	74,92
488,078	-9,05
488,281	85,16
488,484	-17,24
488,686	60,59
488,889	76,97
489,092	-62,29
489,295	60,59
489,497	68,78
489,7	19,63
489,903	5,29
490,105	-47,96
490,308	19,63
490,511	64,68
490,713	19,63
490,916	23,72
491,118	-13,14
491,321	64,68
491,524	-29,52
491,726	-9,05
491,929	-150,36
492,131	-9,05
492,334	13,48
492,536	-13,14
492,739	-54,1
492,941	79,02
493,144	15,53
493,346	23,72
493,549	27,82
493,751	-0,85
493,954	-2,9
494,156	36,01
494,359	89,26
494,561	-78,68
494,763	44,2
494,966	68,78
495,168	60,59
495,37	-62,29
495,573	-9,05
495,775	36,01
495,977	97,45
496,18	79,02
496,382	109,74
496,584	-37,72
496,787	175,27
496,989	25,77
497,191	5,29
497,393	81,07
497,595	27,82
497,798	36,01
498	5,29
498,202	-13,14
498,404	11,43
498,606	-27,48
498,808	56,49
499,011	-13,14
499,213	103,59
499,415	-2,9
499,617	76,97
499,819	48,3
500,021	68,78
500,223	-33,62
500,425	-33,62
500,627	11,43
500,829	-23,38
501,031	119,98
501,233	-45,91
501,435	19,63
501,637	107,69
501,839	85,16
502,041	-13,14
502,243	-52,05
502,445	19,63
502,647	40,11
502,848	103,59
503,05	93,35
503,252	208,04
503,454	177,32
503,656	191,66
503,858	236,71
504,059	240,81
504,261	277,67
504,463	302,25
504,665	167,08
504,867	76,97
505,068	177,32
505,27	134,31
505,472	111,78
505,673	-2,9
505,875	52,39
506,077	3,24
506,278	19,63
506,48	11,43
506,682	91,31
506,883	13,48
507,085	33,96
507,287	38,06
507,488	101,55
507,69	117,93
507,891	109,74
508,093	236,71
508,294	66,73
508,496	208,04
508,697	93,35
508,899	128,17
509,1	126,12
509,302	85,16
509,503	109,74
509,705	60,59
509,906	99,5
510,108	3,24
510,309	68,78
510,51	13,48
510,712	29,87
510,913	52,39
511,114	52,39
511,316	36,01
511,517	130,22
511,718	89,26
511,92	165,03
512,121	117,93
512,322	169,13
512,524	232,62
512,725	214,18
512,926	208,04
513,127	220,33
513,329	111,78
513,53	46,25
513,731	142,5
513,932	72,87
514,133	117,93
514,334	113,83
514,536	134,31
514,737	140,46
514,938	146,6
515,139	111,78
515,34	109,74
515,541	257,19
515,742	93,35
515,943	115,88
516,144	95,4
516,345	109,74
516,546	70,83
516,747	76,97
516,948	13,48
517,149	-25,43
517,35	-33,62
517,551	-2,9
517,752	-45,91
517,953	122,02
518,154	-13,14
518,355	95,4
518,556	117,93
518,756	60,59
518,957	117,93
519,158	203,94
519,359	144,55
519,56	171,18
519,761	195,75
519,961	199,85
520,162	265,38
520,363	105,64
520,564	150,7
520,764	316,58
520,965	134,31
521,166	134,31
521,366	142,5
521,567	93,35
521,768	167,08
521,968	64,68
522,169	93,35
522,37	150,7
522,57	117,93
522,771	60,59
522,972	-35,67
523,172	232,62
523,373	36,01
523,573	76,97
523,774	109,74
523,974	-4,95
524,175	29,87
524,375	3,24
524,576	5,29
524,776	54,44
524,977	27,82
525,177	142,5
525,378	3,24
525,578	81,07
525,778	60,59
525,979	11,43
526,179	-4,95
526,38	27,82
526,58	-78,68
526,78	-62,29
526,981	19,63
527,181	27,82
527,381	-7
527,582	21,67
527,782	95,4
527,982	46,25
528,182	-17,24
528,383	52,39
528,583	44,2
528,783	23,72
528,983	46,25
529,183	44,2
529,384	44,2
529,584	76,97
529,784	195,75
529,984	60,59
530,184	70,83
530,384	5,29
530,584	36,01
530,784	87,21
530,984	60,59
531,185	150,7
531,385	79,02
531,585	177,32
531,785	85,16
531,985	85,16
532,185	83,11
532,385	111,78
532,585	205,99
532,785	259,24
532,984	330,92
533,184	476,32
533,384	373,92
533,584	470,18
533,784	584,87
533,984	640,16
534,184	578,72
534,384	603,3
534,583	717,98
534,783	625,83
534,983	603,3
535,183	402,6
535,383	216,23
535,582	269,48
535,782	216,23
535,982	269,48
536,182	152,74
536,381	189,61
536,581	66,73
536,781	177,32
536,98	11,43
537,18	29,87
537,38	136,36
537,579	-25,43
537,779	9,39
537,979	15,53
538,178	38,06
538,378	117,93
538,577	-29,52
538,777	68,78
538,976	109,74
539,176	216,23
539,376	216,23
539,575	154,79
539,774	347,3
539,974	339,11
540,173	519,33
540,373	607,39
540,572	494,76
540,772	601,25
540,971	445,6
541,171	470,18
541,37	371,88
541,569	294,05
541,769	298,15
541,968	253,09
542,167	150,7
542,367	117,93
542,566	74,92
542,765	-35,67
542,965	38,06
543,164	85,16
543,363	-4,95
543,562	-45,91
543,761	44,2
543,961	66,73
544,16	-52,05
544,359	109,74
544,558	128,17
544,757	-25,43
544,957	85,16
545,156	101,55
545,355	3,24
545,554	76,97
545,753	11,43
545,952	76,97
546,151	89,26
546,35	-37,72
546,549	17,58
546,748	54,44
546,947	5,29
547,146	-45,91
547,345	13,48
547,544	-90,96
547,743	-43,86
547,942	21,67
548,141	85,16
548,34	54,44
548,539	44,2
548,738	-76,63
548,937	52,39
549,135	-11,09
549,334	3,24
549,533	-31,57
549,732	-9,05
549,931	101,55
550,13	44,2
550,328	-47,96
550,527	-43,86
550,726	68,78
550,925	13,48
551,123	60,59
551,322	44,2
551,521	62,63
551,72	33,96
551,918	74,92
552,117	68,78
552,315	58,54
552,514	-9,05
552,713	-41,81
552,911	11,43
553,11	-50
553,309	-11,09
553,507	36,01
553,706	52,39
553,904	54,44
554,103	64,68
554,301	48,3
554,5	-2,9
554,698	21,67
554,897	-52,05
555,095	13,48
555,294	-21,33
555,492	40,11
555,69	81,07
555,889	42,15
556,087	11,43
556,286	203,94
556,484	74,92
556,682	111,78
556,881	54,44
557,079	74,92
557,277	119,98
557,476	58,54
557,674	62,63
557,872	128,17
558,07	11,43
558,269	-29,52
558,467	21,67
558,665	23,72
558,863	-43,86
559,062	31,91
559,26	44,2
559,458	-68,44
559,656	97,45
559,854	7,34
560,052	64,68
560,25	58,54
560,449	249
560,647	95,4
560,845	-19,29
561,043	36,01
561,241	97,45
561,439	60,59
561,637	-54,1
561,835	19,63
562,033	68,78
562,231	19,63
562,429	-13,14
562,627	52,39
562,825	-11,09
563,023	68,78
563,221	21,67
563,418	62,63
563,616	52,39
563,814	179,37
564,012	38,06
564,21	85,16
564,408	85,16
564,605	-2,9
564,803	36,01
565,001	267,43
565,199	36,01
565,397	150,7
565,594	275,62
565,792	220,33
565,99	169,13
566,188	195,75
566,385	226,47
566,583	130,22
566,781	167,08
566,978	150,7
567,176	199,85
567,373	85,16
567,571	126,12
567,769	97,45
567,966	19,63
568,164	93,35
568,361	134,31
568,559	52,39
568,756	-0,85
568,954	169,13
569,151	81,07
569,349	160,94
569,546	87,21
569,744	183,46
569,941	191,66
570,139	171,18
570,336	81,07
570,534	175,27
570,731	81,07
570,928	13,48
571,126	183,46
571,323	119,98
571,52	134,31
571,718	-4,95
571,915	119,98
572,112	21,67
572,31	103,59
572,507	249
572,704	60,59
572,901	7,34
573,099	48,3
573,296	117,93
573,493	52,39
573,69	56,49
573,887	76,97
574,085	76,97
574,282	119,98
574,479	169,13
574,676	158,89
574,873	191,66
575,07	300,2
575,267	294,05
575,464	355,49
575,661	529,57
575,858	449,7
576,055	609,44
576,252	732,32
576,449	834,72
576,646	930,97
576,843	922,78
577,04	1027,23
577,237	998,56
577,434	822,43
577,631	748,7
577,828	617,63
578,025	482,47
578,222	384,16
578,419	380,07
578,615	201,9
578,812	199,85
579,009	93,35
579,206	107,69
579,403	150,7
579,599	294,05
579,796	62,63
579,993	249
580,19	72,87
580,386	216,23
580,583	273,57
580,78	275,62
580,976	322,73
581,173	382,12
581,37	396,45
581,566	390,31
581,763	494,76
581,96	554,15
582,156	658,59
582,353	623,78
582,549	748,7
582,746	548
582,942	658,59
583,139	578,72
583,335	556,19
583,532	941,21
583,728	1578,13
583,925	2788,48
584,121	4244,59
584,318	6319,18
584,514	8522,79
584,711	11803,64
584,907	15563,71
585,103	19520,38
585,3	22903,63
585,496	26694,42
585,693	28928,75
585,889	29651,69
586,085	28531,45
586,281	26041,12
586,478	22494,04
586,674	19178,37
586,87	16944,04
587,067	14111,7
587,263	11136
587,459	8424,49
587,655	6329,42
587,851	5561,43
588,048	5209,18
588,244	5178,46
588,44	5696,6
588,636	5776,47
588,832	5868,63
589,028	5688,4
589,224	5016,67
589,42	4318,31
589,617	3775,6
589,813	3359,86
590,009	2944,13
590,205	2514,05
590,401	1823,89
590,597	1502,36
590,793	1320,09
590,989	1027,23
591,185	930,97
591,38	844,96
591,576	711,84
591,772	720,03
591,968	691,36
592,164	601,25
592,36	527,52
592,556	429,22
592,752	502,95
592,948	660,64
593,143	1010,84
593,339	1307,8
593,535	2010,25
593,731	2894,97
593,926	3773,55
594,122	4879,46
594,318	6126,67
594,514	7451,7
594,709	8965,15
594,905	9325,6
595,101	9751,57
595,296	9147,42
595,492	8383,53
595,688	7474,23
595,883	6474,82
596,079	5680,21
596,275	4928,61
596,47	4328,55
596,666	3185,79
596,861	2546,82
597,057	2321,54
597,252	2169,99
597,448	2243,72
597,643	2471,04
597,839	2817,15
598,034	2620,55
598,23	2724,99
598,425	2509,96
598,621	2323,59
598,816	2022,54
599,011	1676,43
599,207	1453,2
599,402	1332,37
599,597	1191,06
599,793	887,97
599,988	595,11
600,183	384,16
600,379	404,64
600,574	396,45
600,769	296,1
600,965	240,81
601,16	158,89
601,355	167,08
601,55	349,35
601,745	343,21
601,941	605,35
602,136	732,32
602,331	978,08
602,526	1289,37
602,721	1506,45
602,916	1920,14
603,111	2333,83
603,307	2497,67
603,502	2632,83
603,697	2681,99
603,892	2649,22
604,087	2337,93
604,282	2088,07
604,477	1698,96
604,672	1614,99
604,867	1234,07
605,062	1014,94
605,257	736,42
605,452	605,35
605,646	515,23
605,841	449,7
606,036	769,18
606,231	1125,53
606,426	1662,1
606,621	2270,34
606,816	3267,7
607,01	4435,05
607,205	5422,17
607,4	6474,82
607,595	7580,73
607,79	8508,46
607,984	8983,59
608,179	9301,02
608,374	9432,09
608,569	9460,76
608,763	9116,7
608,958	9780,25
609,153	10234,89
609,347	11211,78
609,542	11797,49
609,736	12577,77
609,931	12848,1
610,126	12979,17
610,32	13208,55
610,515	12084,21
610,709	11062,27
610,904	9427,99
611,098	8330,28
611,293	7056,45
611,487	5954,64
611,682	4611,17
611,876	3388,53
612,071	2198,67
612,265	1588,37
612,46	1225,88
612,654	1305,75
612,848	1625,23
613,043	2493,57
613,237	3693,68
613,432	5297,24
613,626	7072,83
613,82	9393,18
614,014	11973,62
614,209	14576,59
614,403	16944,04
614,597	19510,14
614,792	20302,71
614,986	20806,51
615,18	20169,59
615,374	18779,02
615,568	16642,99
615,763	15428,54
615,957	14078,93
616,151	12581,87
616,345	11854,84
616,539	10470,41
616,733	9124,9
616,927	7738,42
617,121	6886,47
617,316	6208,59
617,51	5336,15
617,704	4381,8
617,898	4119,66
618,092	3484,79
618,286	2935,93
618,48	2278,54
618,674	1821,84
618,868	1299,61
619,061	898,2
619,255	816,29
619,449	605,35
619,643	380,07
619,837	519,33
620,031	380,07
620,225	617,63
620,419	535,71
620,612	914,59
620,806	1094,81
621	1584,27
621,194	1977,48
621,388	2552,96
621,581	3036,28
621,775	3665,01
621,969	4058,22
622,162	4174,95
622,356	4365,42
622,55	4402,28
622,743	3837,04
622,937	3533,94
623,131	3036,28
623,324	2749,57
623,518	2305,16
623,712	1805,46
623,905	1361,05
624,099	1045,66
624,292	767,13
624,486	472,23
624,679	355,49
624,873	394,4
625,066	494,76
625,26	795,81
625,453	1225,88
625,647	1830,03
625,84	2700,42
626,034	3658,87
626,227	4758,63
626,42	5895,25
626,614	7023,68
626,807	8266,8
627	9036,83
627,194	9258,01
627,387	9360,41
627,58	8823,84
627,774	8031,28
627,967	7097,41
628,16	6081,61
628,353	5426,26
628,547	4551,78
628,74	3798,13
628,933	2720,9
629,126	2174,09
629,319	1715,34
629,513	1658
629,706	1776,78
629,899	2157,71
630,092	2577,54
630,285	3124,35
630,478	3703,92
630,671	4029,55
630,864	4527,21
631,057	4600,93
631,25	4586,6
631,443	4439,14
631,636	4148,33
631,829	3806,32
632,022	3984,49
632,215	4283,5
632,408	4947,04
632,601	5467,22
632,794	6566,98
632,987	8004,66
633,18	9681,94
633,373	11381,76
633,566	12757,99
633,758	13775,83
633,951	15018,95
634,144	14838,73
634,337	14289,87
634,53	12897,25
634,722	11353,09
634,915	9516,06
635,108	8780,84
635,301	7736,37
635,493	6386,76
635,686	4670,56
635,879	3363,96
636,071	2079,88
636,264	1469,59
636,457	994,46
636,649	818,33
636,842	961,69
637,034	1633,43
637,227	2387,08
637,42	3312,76
637,612	4277,35
637,805	5796,95
637,997	7291,96
638,19	8956,96
638,382	10402,83
638,575	12291,06
638,767	14646,22
638,96	16919,46
639,152	19835,77
639,344	23030,6
639,537	26837,78
639,729	31185,61
639,922	36788,86
640,114	42828,32
640,306	47700,43
640,499	51151,26
640,691	51970,45
640,883	52605,32
641,075	50106,8
641,268	45507,06
641,46	39653,97
641,652	34327,2
641,844	29825,76
642,037	26082,08
642,229	21701,47
642,421	17114,02
642,613	12450,8
642,805	7709,75
642,998	4848,74
643,19	2989,18
643,382	2006,16
643,574	1354,9
643,766	898,2
643,958	746,66
644,15	634,02
644,342	513,19
644,534	511,14
644,726	380,07
644,918	382,12
645,11	244,9
645,302	257,19
645,494	222,38
645,686	216,23
645,878	134,31
646,07	242,85
646,262	199,85
646,453	187,56
646,645	212,14
646,837	181,42
647,029	158,89
647,221	140,46
647,413	95,4
647,604	152,74
647,796	175,27
647,988	105,64
648,18	175,27
648,371	134,31
648,563	185,51
648,755	193,7
648,947	246,95
649,138	650,4
649,33	1440,92
649,521	2593,92
649,713	3708,02
649,905	5459,03
650,096	7590,97
650,288	9890,84
650,479	12301,29
650,671	14687,18
650,863	16948,14
651,054	17978,26
651,246	18402,19
651,437	18078,61
651,629	16810,92
651,82	15504,32
652,011	13874,13
652,203	12282,86
652,394	11389,95
652,586	10427,4
652,777	9358,36
652,968	7793,72
653,16	7066,69
653,351	5979,22
653,542	5846,1
653,734	5434,46
653,925	5008,48
654,116	4887,65
654,308	4418,66
654,499	3837,04
654,69	3290,23
654,881	2927,74
655,073	2616,45
655,264	2233,48
655,455	1873,04
655,646	1426,58
655,837	1043,61
656,028	691,36
656,219	369,83
656,411	314,53
656,602	177,32
656,793	285,86
656,984	273,57
657,175	199,85
657,366	138,41
657,557	122,02
657,748	68,78
657,939	76,97
658,13	103,59
658,321	220,33
658,512	511,14
658,703	756,9
658,894	1223,83
659,084	1854,61
659,275	2354,31
659,466	3298,42
659,657	4117,61
659,848	4865,12
660,039	5475,42
660,23	6007,89
660,42	6278,22
660,611	6370,38
660,802	6098
660,993	5588,05
661,183	4990,05
661,374	4144,24
661,565	3894,38
661,755	3378,3
661,946	2880,64
662,137	2141,32
662,327	1664,15
662,518	1176,73
662,709	689,31
662,899	453,8
663,09	349,35
663,28	138,41
663,471	158,89
663,662	302,25
663,852	175,27
664,043	142,5
664,233	109,74
664,424	126,12
664,614	124,07
664,804	58,54
664,995	134,31
665,185	76,97
665,376	105,64
665,566	234,66
665,756	-0,85
665,947	29,87
666,137	162,98
666,328	543,91
666,518	906,4
666,708	1533,08
666,898	2380,93
667,089	3535,99
667,279	4656,23
667,469	6216,78
667,659	7617,59
667,85	8973,35
668,04	9997,33
668,23	10832,9
668,42	11359,23
668,61	10847,24
668,8	10712,07
668,991	9602,07
669,181	8424,49
669,371	7089,21
669,561	6532,17
669,751	5745,75
669,941	4738,15
670,131	3853,42
670,321	3130,49
670,511	2477,19
670,701	2313,35
670,891	2505,86
671,081	2874,49
671,271	3597,43
671,461	4447,33
671,651	5168,22
671,841	5968,98
672,03	6526,02
672,22	6773,83
672,41	6736,96
672,6	6409,29
672,79	5921,87
672,98	5241,95
673,169	4355,18
673,359	4017,26
673,549	3535,99
673,739	3036,28
673,928	2530,44
674,118	2034,83
674,308	1379,48
674,497	955,55
674,687	609,44
674,877	421,03
675,066	189,61
675,256	142,5
675,446	199,85
675,635	109,74
675,825	72,87
676,014	117,93
676,204	103,59
676,393	126,12
676,583	56,49
676,772	52,39
676,962	38,06
677,151	5,29
677,341	113,83
677,53	-21,33
677,72	93,35
677,909	85,16
678,099	-21,33
678,288	23,72
678,477	60,59
678,667	105,64
678,856	68,78
679,045	44,2
679,235	72,87
679,424	68,78
679,613	124,07
679,802	64,68
679,992	101,55
680,181	33,96
680,37	76,97
680,559	52,39
680,748	93,35
680,938	27,82
681,127	1,19
681,316	113,83
681,505	76,97
681,694	-15,19
681,883	33,96
682,072	-35,67
682,261	15,53
682,45	-62,29
682,639	-37,72
682,828	142,5
683,017	109,74
683,206	31,91
683,395	87,21
683,584	103,59
683,773	-2,9
683,962	68,78
684,151	-4,95
684,34	70,83
684,529	27,82
684,718	19,63
684,907	-9,05
685,095	48,3
685,284	95,4
685,473	64,68
685,662	-35,67
685,851	117,93
686,039	52,39
686,228	-4,95
686,417	-54,1
686,606	183,46
686,794	21,67
686,983	38,06
687,172	3,24
687,36	44,2
687,549	3,24
687,738	-9,05
687,926	50,35
688,115	87,21
688,303	-86,87
688,492	85,16
688,68	-35,67
688,869	-35,67
689,057	27,82
689,246	-4,95
689,434	52,39
689,623	13,48
689,811	111,78
690	3,24
690,188	79,02
690,377	44,2
690,565	148,65
690,753	117,93
690,942	97,45
691,13	117,93
691,318	60,59
691,507	199,85
691,695	879,77
691,883	1412,25
692,072	2307,21
692,26	3353,72
692,448	4568,16
692,636	5643,35
692,824	6794,31
693,013	7920,69
693,201	8791,08
693,389	9165,85
693,577	9397,28
693,765	9368,6
693,953	8629,29
694,141	7746,61
694,329	6886,47
694,518	6098
694,706	5522,52
694,894	4863,07
695,082	4228,2
695,27	3423,35
695,458	2677,89
695,646	2010,25
695,834	1363,09
696,022	877,73
696,209	578,72
696,397	384,16
696,585	283,81
696,773	191,66
696,961	199,85
697,149	70,83
697,337	134,31
697,525	109,74
697,712	62,63
697,9	85,16
698,088	85,16
698,276	134,31
698,463	62,63
698,651	62,63
698,839	52,39
699,027	64,68
699,214	46,25
699,402	19,63
699,59	27,82
699,777	40,11
699,965	85,16
700,152	31,91
700,34	3,24
700,528	-27,48
700,715	-0,85
700,903	11,43
701,09	48,3
701,278	144,55
701,465	267,43
701,653	347,3
701,84	593,06
702,028	1465,49
702,215	2266,25
702,402	3447,93
702,59	4914,27
702,777	6343,75
702,965	7773,24
703,152	9489,43
703,339	10705,93
703,527	11783,16
703,714	11846,65
703,901	11873,27
704,088	11545,59
704,276	10914,82
704,463	9825,3
704,65	8530,98
704,837	7603,25
705,025	7117,89
705,212	5907,54
705,399	5452,89
705,586	4582,5
705,773	3675,25
705,96	2847,87
706,147	2004,11
706,335	1363,09
706,522	955,55
706,709	611,49
706,896	560,29
707,083	357,54
707,27	388,26
707,457	306,34
707,644	277,67
707,831	193,7
708,018	138,41
708,205	138,41
708,392	138,41
708,578	160,94
708,765	79,02
708,952	-43,86
709,139	-0,85
709,326	54,44
709,513	-9,05
709,7	11,43
709,886	185,51
710,073	128,17
710,26	175,27
710,447	54,44
710,633	60,59
710,82	52,39
711,007	76,97
711,193	-27,48
711,38	19,63
711,567	87,21
711,753	-13,14
711,94	25,77
712,127	99,5
712,313	93,35
712,5	31,91
712,686	95,4
712,873	-7
713,059	-2,9
713,246	-27,48
713,432	56,49
713,619	33,96
713,805	7,34
713,992	60,59
714,178	-58,2
714,365	13,48
714,551	46,25
714,737	1,19
714,924	-80,72
715,11	-29,52
715,297	-29,52
715,483	52,39
715,669	72,87
715,855	87,21
716,042	152,74
716,228	152,74
716,414	412,84
716,6	543,91
716,787	744,61
716,973	990,36
717,159	1289,37
717,345	1559,7
717,531	1633,43
717,718	1895,57
717,904	2100,36
718,09	1942,67
718,276	1895,57
718,462	1588,37
718,648	1520,79
718,834	1322,13
719,02	1201,3
719,206	1127,58
719,392	892,06
719,578	814,24
719,764	732,32
719,95	552,1
720,136	519,33
720,322	298,15
720,508	203,94
720,694	146,6
720,879	103,59
721,065	142,5
721,251	117,93
721,437	111,78
721,623	95,4
721,809	64,68
721,994	91,31
722,18	3,24
722,366	23,72
722,552	68,78
722,737	27,82
722,923	109,74
723,109	228,52
723,294	326,82
723,48	808,09
723,666	1299,61
723,851	1772,69
724,037	2518,15
724,222	3153,02
724,408	4066,41
724,593	4299,88
724,779	4797,54
724,965	4959,33
725,15	5049,44
725,336	4865,12
725,521	4707,43
725,706	4197,48
725,892	3724,4
726,077	3140,73
726,263	3026,04
726,448	2659,46
726,634	2256,01
726,819	2069,64
727,004	1692,82
727,19	1428,63
727,375	1154,2
727,56	726,18
727,745	410,79
727,931	357,54
728,116	117,93
728,301	72,87
728,486	113,83
728,672	101,55
728,857	76,97
729,042	13,48
729,227	-29,52
729,412	58,54
729,597	-21,33
729,783	36,01
729,968	-37,72
730,153	52,39
730,338	29,87
730,523	3,24
730,708	-74,58
730,893	76,97
731,078	46,25
731,263	-13,14
731,448	3,24
731,633	27,82
731,818	-45,91
732,003	-60,24
732,187	-25,43
732,372	-25,43
732,557	66,73
732,742	-78,68
732,927	-37,72
733,112	58,54
733,297	76,97
733,481	-13,14
733,666	38,06
733,851	23,72
734,036	-33,62
734,22	-27,48
734,405	93,35
734,59	-95,06
734,774	60,59
734,959	31,91
735,144	13,48
735,328	-25,43
735,513	-13,14
735,698	-60,24
735,882	40,11
736,067	62,63
736,251	85,16
736,436	23,72
736,62	11,43
736,805	-62,29
736,989	89,26
737,174	-25,43
737,358	-21,33
737,543	-29,52
737,727	70,83
737,911	134,31
738,096	-2,9
738,28	101,55
738,465	3,24
738,649	19,63
738,833	56,49
739,018	-17,24
739,202	-4,95
739,386	-23,38
739,57	21,67
739,755	52,39
739,939	44,2
740,123	-56,15
740,307	-13,14
740,491	-4,95
740,676	-13,14
740,86	-17,24
741,044	-13,14
741,228	60,59
741,412	-86,87
741,596	-29,52
741,78	19,63
741,964	-45,91
742,148	-27,48
742,332	-2,9
742,516	-17,24
742,7	115,88
742,884	232,62
743,068	300,2
743,252	535,71
743,436	638,11
743,62	707,74
743,804	1059,99
743,988	1068,19
744,172	1215,64
744,356	1234,07
744,539	1209,5
744,723	1160,34
744,907	1051,8
745,091	933,02
745,275	869,53
745,458	742,56
745,642	652,45
745,826	543,91
746,009	601,25
746,193	507,04
746,377	494,76
746,56	412,84
746,744	421,03
746,928	292,01
747,111	187,56
747,295	169,13
747,478	216,23
747,662	38,06
747,846	169,13
748,029	216,23
748,213	292,01
748,396	218,28
748,58	310,44
748,763	380,07
748,946	371,88
749,13	474,28
749,313	423,08
749,497	488,61
749,68	496,8
749,863	404,64
750,047	359,59
750,23	386,21
750,413	373,92
750,597	232,62
750,78	171,18
750,963	240,81
751,146	126,12
751,33	150,7
751,513	212,14
751,696	126,12
751,879	105,64
752,062	58,54
752,246	46,25
752,429	109,74
752,612	150,7
752,795	105,64
752,978	85,16
753,161	128,17
753,344	244,9
753,527	386,21
753,71	355,49
753,893	511,14
754,076	490,66
754,259	431,27
754,442	416,93
754,625	457,89
754,808	496,8
754,991	439,46
755,174	412,84
755,357	261,29
755,539	275,62
755,722	316,58
755,905	128,17
756,088	218,28
756,271	93,35
756,453	158,89
756,636	5,29
756,819	105,64
757,002	-4,95
757,184	109,74
757,367	85,16
757,55	19,63
757,732	138,41
757,915	60,59
758,098	42,15
758,28	-4,95
758,463	44,2
758,645	68,78
758,828	29,87
759,011	27,82
759,193	-27,48
759,376	-2,9
759,558	-45,91
759,741	-13,14
759,923	19,63
760,105	3,24
760,288	64,68
760,47	-70,48
760,653	38,06
760,835	1,19
761,017	-27,48
761,2	-2,9
761,382	72,87
761,564	13,48
761,747	109,74
761,929	-84,82
762,111	3,24
762,294	29,87
762,476	173,22
762,658	29,87
762,84	124,07
763,022	-13,14
763,205	101,55
763,387	56,49
763,569	31,91
763,751	-25,43
763,933	-9,05
764,115	-68,44
764,297	27,82
764,479	79,02
764,661	29,87
764,843	-21,33
765,025	27,82
765,207	11,43
765,389	-35,67
765,571	-54,1
765,753	31,91
765,935	27,82
766,117	-47,96
766,299	148,65
766,481	140,46
766,663	-37,72
766,845	-84,82
767,026	40,11
767,208	40,11
767,39	-2,9
767,572	-31,57
767,753	85,16
767,935	11,43
768,117	60,59
768,299	97,45
768,48	5,29
768,662	50,35
768,844	-43,86
769,025	128,17
769,207	-21,33
769,389	3,24
769,57	50,35
769,752	1,19
769,933	33,96
770,115	124,07
770,296	21,67
770,478	76,97
770,659	-74,58
770,841	210,09
771,022	15,53
771,204	109,74
771,385	-15,19
771,567	81,07
771,748	91,31
771,929	3,24
772,111	11,43
772,292	19,63
772,473	29,87
772,655	101,55
772,836	-21,33
773,017	44,2
773,199	-21,33
773,38	19,63
773,561	72,87
773,742	68,78
773,923	-19,29
774,105	126,12
774,286	-0,85
774,467	13,48
774,648	-35,67
774,829	15,53
775,01	15,53
775,191	3,24
775,372	-43,86
775,553	36,01
775,734	-43,86
775,915	21,67
776,096	-4,95
776,277	29,87
776,458	-72,53
776,639	27,82
776,82	130,22
777,001	68,78
777,182	23,72
777,363	-78,68
777,544	-45,91
777,725	62,63
777,906	-45,91
778,086	19,63
778,267	126,12
778,448	36,01
778,629	-11,09
778,809	70,83
778,99	-21,33
779,171	-78,68
779,352	-9,05
779,532	-103,25
779,713	-11,09
779,894	-39,76
780,074	38,06
780,255	29,87
780,435	42,15
780,616	62,63
780,797	76,97
780,977	-13,14
781,158	29,87
781,338	-54,1
781,519	36,01
781,699	146,6
781,88	-19,29
782,06	60,59
782,241	27,82
782,421	52,39
782,601	-21,33
782,782	62,63
782,962	27,82
783,142	-111,44
783,323	76,97
783,503	19,63
783,683	21,67
783,864	56,49
784,044	27,82
784,224	52,39
784,404	-2,9
784,585	44,2
784,765	54,44
784,945	81,07
785,125	-4,95
785,305	76,97
785,485	130,22
785,666	109,74
785,846	-50
786,026	70,83
786,206	-60,24
786,386	-60,24
786,566	19,63
786,746	-29,52
786,926	11,43
787,106	-68,44
787,286	-37,72
787,466	-0,85
787,646	93,35
787,826	54,44
788,006	38,06
788,185	29,87
788,365	-15,19
788,545	81,07
788,725	-52,05
788,905	103,59
789,085	3,24
789,264	-13,14
789,444	-13,14
789,624	25,77
789,804	11,43
789,983	-19,29
790,163	5,29
790,343	11,43
790,522	-31,57
790,702	97,45
790,882	-0,85
791,061	111,78
791,241	-33,62
791,42	5,29
791,6	134,31
791,78	60,59
791,959	-13,14
792,139	-13,14
792,318	11,43
792,498	19,63
792,677	9,39
792,856	38,06
793,036	-0,85
793,215	42,15
793,395	144,55
793,574	66,73
793,753	-17,24
793,933	56,49
794,112	126,12
794,291	103,59
794,471	191,66
794,65	85,16
794,829	76,97
795,008	97,45
795,188	126,12
795,367	183,46
795,546	3,24
795,725	62,63
795,904	-50
796,084	52,39
796,263	130,22
796,442	19,63
796,621	56,49
796,8	40,11
796,979	52,39
797,158	76,97
797,337	-9,05
797,516	60,59
797,695	60,59
797,874	54,44
798,053	19,63
798,232	-52,05
798,411	-58,2
798,59	42,15
798,769	-41,81
798,947	-35,67
799,126	15,53
799,305	44,2
799,484	81,07
799,663	-2,9
799,842	5,29
800,02	7,34
800,199	-60,24
800,378	66,73
800,557	-78,68
800,735	-70,48
800,914	70,83
801,093	19,63
801,271	101,55
801,45	-45,91
801,628	-17,24
801,807	-56,15
801,986	-11,09
802,164	-13,14
802,343	11,43
802,521	-74,58
802,7	83,11
802,878	93,35
803,057	29,87
803,235	-43,86
803,414	11,43
803,592	-2,9
803,771	27,82
803,949	7,34
804,127	-29,52
804,306	103,59
804,484	7,34
804,662	1,19
804,841	-19,29
805,019	-43,86
805,197	27,82
805,375	60,59
805,554	48,3
805,732	-37,72
805,91	27,82
806,088	9,39
806,266	-64,34
806,445	-23,38
806,623	-95,06
806,801	52,39
806,979	76,97
807,157	79,02
807,335	-4,95
807,513	68,78
807,691	40,11
807,869	-27,48
808,047	13,48
808,225	5,29
808,403	95,4
808,581	-4,95
808,759	162,98
808,937	87,21
809,115	111,78
809,293	117,93
809,471	-0,85
809,649	52,39
809,826	3,24
810,004	-2,9
810,182	-39,76
810,36	-76,63
810,538	31,91
810,715	66,73
810,893	-37,72
811,071	11,43
811,248	142,5
811,426	25,77
811,604	19,63
811,781	97,45
811,959	60,59
812,137	44,2
812,314	5,29
812,492	-35,67
812,669	95,4
812,847	3,24
813,024	60,59
813,202	138,41
813,379	33,96
813,557	181,42
813,734	162,98
813,912	113,83
814,089	87,21
814,267	203,94
814,444	85,16
814,621	56,49
814,799	19,63
814,976	103,59
815,153	136,36
815,331	79,02
815,508	27,82
815,685	56,49
815,862	27,82
816,04	60,59
816,217	23,72
816,394	-27,48
816,571	27,82
816,748	169,13
816,926	103,59
817,103	298,15
817,28	60,59
817,457	13,48
817,634	89,26
817,811	-35,67
817,988	109,74
818,165	-39,76
818,342	109,74
818,519	27,82
818,696	-27,48
818,873	23,72
819,05	15,53
819,227	-101,2
819,404	19,63
819,581	60,59
819,758	-29,52
819,934	-68,44
820,111	-90,96
820,288	85,16
820,465	44,2
820,642	15,53
820,818	89,26
820,995	23,72
821,172	19,63
821,349	126,12
821,525	11,43
821,702	93,35
821,879	-50
822,055	52,39
822,232	11,43
822,409	50,35
822,585	111,78
822,762	7,34
822,938	72,87
823,115	83,11
823,291	64,68
823,468	111,78
823,644	76,97
823,821	50,35
823,997	36,01
824,174	-13,14
824,35	-27,48
824,527	68,78
824,703	-17,24
824,879	-21,33
825,056	-19,29
825,232	117,93
825,408	3,24
825,585	-82,77
825,761	-19,29
825,937	21,67
826,113	68,78
826,29	54,44
826,466	7,34
826,642	437,41
826,818	19,63
826,994	-9,05
827,17	25,77
827,347	-33,62
827,523	31,91
827,699	38,06
827,875	-13,14
828,051	113,83
828,227	-45,91
828,403	128,17
828,579	64,68
828,755	46,25
828,931	50,35
829,107	150,7
829,283	160,94
829,459	-21,33
829,635	150,7
829,811	56,49
829,986	93,35
830,162	62,63
830,338	126,12
830,514	-25,43
830,69	119,98
830,865	-25,43
831,041	70,83
831,217	95,4
831,393	48,3
831,568	58,54
831,744	60,59
831,92	7,34
832,095	52,39
832,271	44,2
832,447	60,59
832,622	134,31
832,798	21,67
832,973	27,82
833,149	9,39
833,325	21,67
833,5	144,55
833,676	64,68
833,851	117,93
834,027	29,87
834,202	31,91
834,377	56,49
834,553	46,25
834,728	85,16
834,904	3,24
835,079	-0,85
835,254	70,83
835,43	-37,72
835,605	-4,95
835,78	-21,33
835,955	7,34
836,131	25,77
836,306	-29,52
836,481	5,29
836,656	105,64
836,832	167,08
837,007	146,6
837,182	218,28
837,357	308,39
837,532	249
837,707	404,64
837,882	388,26
838,057	461,99
838,232	369,83
838,407	257,19
838,582	199,85
838,757	253,09
838,932	269,48
839,107	126,12
839,282	130,22
839,457	234,66
839,632	216,23
839,807	224,42
839,982	165,03
840,157	171,18
840,332	224,42
840,506	240,81
840,681	142,5
840,856	173,22
841,031	138,41
841,205	109,74
841,38	97,45
841,555	265,38
841,73	160,94
841,904	81,07
842,079	101,55
842,254	160,94
842,428	29,87
842,603	38,06
842,777	-0,85
842,952	27,82
843,126	97,45
843,301	38,06
843,476	25,77
843,65	70,83
843,825	64,68
843,999	113,83
844,173	44,2
844,348	38,06
844,522	138,41
844,697	3,24
844,871	-11,09
845,045	105,64
845,22	68,78
845,394	150,7
845,568	-4,95
845,743	44,2
845,917	-21,33
846,091	-50
846,265	-13,14
846,44	109,74
846,614	36,01
846,788	-11,09
846,962	15,53
847,136	95,4
847,31	-39,76
847,485	113,83
847,659	23,72
847,833	40,11
848,007	25,77
848,181	-11,09
848,355	27,82
848,529	162,98
848,703	101,55
848,877	56,49
849,051	203,94
849,225	144,55
849,399	91,31
849,573	150,7
849,746	117,93
849,92	152,74
850,094	210,09
850,268	101,55
850,442	187,56
850,616	19,63
850,789	68,78
850,963	76,97
851,137	70,83
851,311	146,6
851,484	79,02
851,658	158,89
851,832	95,4
852,005	70,83
852,179	93,35
852,352	93,35
852,526	23,72
852,7	31,91
852,873	31,91
853,047	138,41
853,22	52,39
853,394	154,79
853,567	144,55
853,741	36,01
853,914	19,63
854,088	85,16
854,261	-29,52
854,434	36,01
854,608	29,87
854,781	-35,67
854,955	44,2
855,128	36,01
855,301	7,34
855,475	23,72
855,648	46,25
855,821	52,39
855,994	52,39
856,168	-4,95
856,341	-17,24
856,514	-39,76
856,687	-9,05
856,86	-11,09
857,033	19,63
857,207	11,43
857,38	-93,01
857,553	79,02
857,726	-0,85
857,899	103,59
858,072	-25,43
858,245	-27,48
858,418	117,93
858,591	60,59
858,764	72,87
858,937	76,97
859,11	95,4
859,283	150,7
859,455	42,15
859,628	36,01
859,801	79,02
859,974	124,07
860,147	11,43
860,32	142,5
860,492	64,68
860,665	27,82
860,838	89,26
861,011	124,07
861,183	46,25
861,356	62,63
861,529	126,12
861,701	81,07
861,874	56,49
862,047	111,78
862,219	60,59
862,392	103,59
862,564	89,26
862,737	46,25
862,909	126,12
863,082	76,97
863,254	103,59
863,427	25,77
863,599	76,97
863,772	76,97
863,944	38,06
864,117	68,78
864,289	119,98
864,461	31,91
864,634	101,55
864,806	46,25
864,978	136,36
865,151	128,17
865,323	226,47
865,495	253,09
865,667	169,13
865,84	316,58
866,012	128,17
866,184	169,13
866,356	23,72
866,528	251,05
866,7	29,87
866,873	134,31
867,045	107,69
867,217	60,59
867,389	146,6
867,561	64,68
867,733	162,98
867,905	130,22
868,077	140,46
868,249	158,89
868,421	126,12
868,593	128,17
868,765	195,75
868,936	95,4
869,108	97,45
869,28	156,84
869,452	27,82
869,624	-68,44
869,796	105,64
869,968	136,36
870,139	150,7
870,311	11,43
870,483	87,21
870,654	-39,76
870,826	-4,95
870,998	-13,14
871,17	58,54
871,341	40,11
871,513	-4,95
871,684	-37,72
871,856	101,55
872,028	48,3
872,199	-66,39
872,371	-11,09
872,542	-52,05
872,714	27,82
872,885	119,98
873,057	-21,33
873,228	-37,72
873,4	-13,14
873,571	173,22
873,742	21,67
873,914	9,39
874,085	-19,29
874,256	25,77
874,428	-111,44
874,599	9,39
874,77	101,55
874,942	-13,14
875,113	7,34
875,284	-54,1
875,455	-84,82
875,626	62,63
875,798	-54,1
875,969	-17,24
876,14	-2,9
876,311	9,39
876,482	21,67
876,653	70,83
876,824	58,54
876,995	19,63
877,166	44,2
877,337	7,34
877,508	79,02
877,679	109,74
877,85	68,78
878,021	23,72
878,192	169,13
878,363	60,59
878,534	21,67
878,705	48,3
878,876	85,16
879,047	197,8
879,217	111,78
879,388	89,26
879,559	101,55
879,73	85,16
879,9	29,87
880,071	150,7
880,242	128,17
880,413	25,77
880,583	134,31
880,754	158,89
880,924	101,55
881,095	50,35
881,266	119,98
881,436	105,64
881,607	130,22
881,777	7,34
881,948	38,06
882,118	68,78
882,289	29,87
882,459	29,87
882,63	79,02
882,8	29,87
882,971	31,91
883,141	21,67
883,311	21,67
883,482	68,78
883,652	-45,91
883,822	13,48
883,993	-41,81
884,163	11,43
884,333	-43,86
884,504	58,54
884,674	76,97
884,844	-29,52
885,014	-0,85
885,184	-0,85
885,355	19,63
885,525	11,43
885,695	17,58
885,865	154,79
886,035	105,64
886,205	-21,33
886,375	54,44
886,545	5,29
886,715	-7
886,885	62,63
887,055	-29,52
887,225	48,3
887,395	56,49
887,565	107,69
887,735	46,25
887,905	44,2
888,075	25,77
888,244	44,2
888,414	27,82
888,584	44,2
888,754	27,82
888,924	95,4
889,093	150,7
889,263	-41,81
889,433	-45,91
889,603	64,68
889,772	-21,33
889,942	79,02
890,111	93,35
890,281	46,25
890,451	7,34
890,62	-62,29
890,79	-54,1
890,959	-11,09
891,129	-11,09
891,298	36,01
891,468	-13,14
891,637	58,54
891,807	27,82
891,976	72,87
892,146	-50
892,315	36,01
892,485	52,39
892,654	-54,1
892,823	36,01
892,993	3,24
893,162	-54,1
893,331	60,59
893,501	46,25
893,67	11,43
893,839	-19,29
894,008	60,59
894,177	56,49
894,347	-19,29
894,516	113,83
894,685	11,43
894,854	29,87
895,023	36,01
895,192	46,25
