Data from neon_USB4F104161__15__11-46-33-041.txt Node

Date: Tue Apr 14 11:46:33 EDT 2026
User: LaboPhy
Spectrometer: USB4F10416
Trigger mode: 4
Integration Time (sec): 1,000000E-1
Scans to average: 1
Electric dark correction enabled: true
Nonlinearity correction enabled: false
Boxcar width: 0
XAxis mode: Wavelengths
Number of Pixels in Spectrum: 3648
>>>>>Begin Spectral Data<<<<<
177,847	-216,74
178,066	-216,74
178,284	-216,74
178,502	-159,4
178,72	-235,18
178,939	-20,14
179,157	47,44
179,375	69,97
179,593	63,83
179,812	45,4
180,03	-13,99
180,248	-7,85
180,466	-20,14
180,685	-46,76
180,903	-75,43
181,121	-77,48
181,339	35,16
181,557	-26,28
181,775	4,44
181,994	-34,47
182,212	20,82
182,43	-54,95
182,648	-63,15
182,866	84,31
183,084	26,96
183,302	-30,38
183,52	-38,57
183,739	12,63
183,957	-3,75
184,175	-46,76
184,393	4,44
184,611	26,96
184,829	37,2
185,047	72,02
185,265	61,78
185,483	4,44
185,701	-11,95
185,919	-13,99
186,137	110,93
186,355	29,01
186,573	33,11
186,791	141,65
187,009	-32,43
187,227	63,83
187,445	-13,99
187,663	2,39
187,881	-13,99
188,098	43,35
188,316	31,06
188,534	59,73
188,752	-3,75
188,97	-57
189,188	-61,1
189,406	76,12
189,624	108,88
189,841	2,39
190,059	-102,06
190,277	45,4
190,495	59,73
190,713	104,79
190,931	86,36
191,148	39,25
191,366	-3,75
191,584	57,68
191,802	-50,86
192,019	84,31
192,237	14,68
192,455	35,16
192,673	76,12
192,89	-13,99
193,108	37,2
193,326	61,78
193,543	55,64
193,761	51,54
193,979	31,06
194,196	-61,1
194,414	39,25
194,632	43,35
194,849	2,39
195,067	-20,14
195,285	-22,19
195,502	-104,11
195,72	16,73
195,937	31,06
196,155	29,01
196,373	94,55
196,59	26,96
196,808	0,34
197,025	129,36
197,243	217,43
197,46	100,69
197,678	35,16
197,895	61,78
198,113	72,02
198,33	-44,71
198,548	-42,67
198,765	4,44
198,983	96,6
199,2	-22,19
199,418	84,31
199,635	-95,91
199,853	37,2
200,07	47,44
200,288	35,16
200,505	-71,34
200,722	162,13
200,94	0,34
201,157	-26,28
201,375	84,31
201,592	82,26
201,809	67,92
202,027	4,44
202,244	29,01
202,461	6,49
202,679	35,16
202,896	63,83
203,113	-83,63
203,331	45,4
203,548	-50,86
203,765	43,35
203,982	63,83
204,2	-5,8
204,417	-85,67
204,634	217,43
204,851	102,74
205,069	76,12
205,286	-20,14
205,503	43,35
205,72	43,35
205,937	51,54
206,155	-104,11
206,372	59,73
206,589	-75,43
206,806	72,02
207,023	-5,8
207,24	31,06
207,458	-34,47
207,675	35,16
207,892	22,87
208,109	-13,99
208,326	18,77
208,543	-104,11
208,76	12,63
208,977	43,35
209,194	12,63
209,411	37,2
209,628	51,54
209,845	45,4
210,062	-38,57
210,279	-42,67
210,496	-3,75
210,713	-22,19
210,93	51,54
211,147	61,78
211,364	-36,52
211,581	2,39
211,798	168,27
212,015	-54,95
212,232	43,35
212,449	61,78
212,666	61,78
212,883	-54,95
213,1	-13,99
213,317	-38,57
213,533	47,44
213,75	-28,33
213,967	2,39
214,184	-30,38
214,401	-13,99
214,618	2,39
214,835	-16,04
215,051	35,16
215,268	84,31
215,485	55,64
215,702	20,82
215,919	-71,34
216,135	201,04
216,352	10,58
216,569	-42,67
216,786	37,2
217,002	26,96
217,219	55,64
217,436	84,31
217,652	6,49
217,869	-1,71
218,086	51,54
218,302	-46,76
218,519	67,92
218,736	35,16
218,952	-5,8
219,169	69,97
219,386	61,78
219,602	-46,76
219,819	-75,43
220,036	43,35
220,252	92,5
220,469	20,82
220,685	-5,8
220,902	59,73
221,118	6,49
221,335	-13,99
221,552	74,07
221,768	63,83
221,985	-71,34
222,201	18,77
222,418	35,16
222,634	10,58
222,851	18,77
223,067	-34,47
223,284	-28,33
223,5	29,01
223,716	26,96
223,933	-44,71
224,149	-54,95
224,366	26,96
224,582	-9,9
224,799	-28,33
225,015	51,54
225,231	-1,71
225,448	-69,29
225,664	59,73
225,88	-63,15
226,097	108,88
226,313	-95,91
226,529	-48,81
226,746	84,31
226,962	12,63
227,178	10,58
227,395	8,53
227,611	-52,91
227,827	14,68
228,044	84,31
228,26	98,64
228,476	-42,67
228,692	170,32
228,909	96,6
229,125	20,82
229,341	67,92
229,557	2,39
229,773	-16,04
229,99	102,74
230,206	-48,81
230,422	43,35
230,638	-54,95
230,854	18,77
231,07	-145,06
231,286	84,31
231,503	-30,38
231,719	-67,24
231,935	12,63
232,151	33,11
232,367	84,31
232,583	26,96
232,799	59,73
233,015	76,12
233,231	-5,8
233,447	-7,85
233,663	43,35
233,879	65,88
234,095	-87,72
234,311	37,2
234,527	-9,9
234,743	2,39
234,959	10,58
235,175	26,96
235,391	-11,95
235,607	-9,9
235,823	-22,19
236,039	-7,85
236,255	-63,15
236,471	18,77
236,687	-85,67
236,903	51,54
237,118	20,82
237,334	20,82
237,55	31,06
237,766	-38,57
237,982	143,7
238,198	6,49
238,413	31,06
238,629	43,35
238,845	59,73
239,061	-30,38
239,277	6,49
239,492	-30,38
239,708	59,73
239,924	-71,34
240,14	-46,76
240,355	35,16
240,571	24,92
240,787	51,54
241,003	72,02
241,218	-38,57
241,434	-18,09
241,65	35,16
241,865	-22,19
242,081	43,35
242,297	-16,04
242,512	-3,75
242,728	-36,52
242,944	12,63
243,159	57,68
243,375	-28,33
243,59	-20,14
243,806	0,34
244,022	26,96
244,237	-42,67
244,453	8,53
244,668	127,32
244,884	102,74
245,099	-11,95
245,315	45,4
245,53	55,64
245,746	129,36
245,961	14,68
246,177	2,39
246,392	92,5
246,608	127,32
246,823	2,39
247,039	-52,91
247,254	-18,09
247,47	39,25
247,685	0,34
247,9	-44,71
248,116	59,73
248,331	-5,8
248,547	88,4
248,762	-61,1
248,977	39,25
249,193	43,35
249,408	55,64
249,623	88,4
249,839	24,92
250,054	-24,23
250,269	-13,99
250,485	88,4
250,7	35,16
250,915	67,92
251,13	24,92
251,346	51,54
251,561	96,6
251,776	86,36
251,991	-120,49
252,207	47,44
252,422	4,44
252,637	4,44
252,852	53,59
253,067	67,92
253,283	45,4
253,498	-3,75
253,713	-7,85
253,928	31,06
254,143	39,25
254,358	43,35
254,573	-95,91
254,788	-57
255,004	45,4
255,219	-79,53
255,434	-67,24
255,649	-69,29
255,864	84,31
256,079	-67,24
256,294	14,68
256,509	-5,8
256,724	43,35
256,939	-83,63
257,154	78,16
257,369	63,83
257,584	31,06
257,799	-3,75
258,014	29,01
258,229	2,39
258,444	102,74
258,659	43,35
258,874	119,12
259,089	108,88
259,304	10,58
259,518	43,35
259,733	78,16
259,948	-20,14
260,163	45,4
260,378	43,35
260,593	26,96
260,808	43,35
261,022	-73,39
261,237	-36,52
261,452	0,34
261,667	-26,28
261,882	88,4
262,096	45,4
262,311	125,27
262,526	-38,57
262,741	59,73
262,955	-79,53
263,17	-1,71
263,385	-108,2
263,6	10,58
263,814	2,39
264,029	-1,71
264,244	59,73
264,458	47,44
264,673	53,59
264,888	82,26
265,102	6,49
265,317	-24,23
265,532	18,77
265,746	108,88
265,961	67,92
266,175	6,49
266,39	37,2
266,605	-38,57
266,819	-38,57
267,034	53,59
267,248	-38,57
267,463	20,82
267,677	43,35
267,892	72,02
268,106	-52,91
268,321	35,16
268,535	43,35
268,75	125,27
268,964	-52,91
269,179	69,97
269,393	16,73
269,608	55,64
269,822	-71,34
270,036	-83,63
270,251	41,3
270,465	-36,52
270,68	-44,71
270,894	10,58
271,108	117,08
271,323	51,54
271,537	35,16
271,752	53,59
271,966	20,82
272,18	-83,63
272,394	51,54
272,609	-40,62
272,823	-22,19
273,037	47,44
273,252	-13,99
273,466	26,96
273,68	45,4
273,894	55,64
274,109	84,31
274,323	22,87
274,537	-71,34
274,751	-36,52
274,966	102,74
275,18	26,96
275,394	2,39
275,608	-67,24
275,822	-44,71
276,036	-20,14
276,25	37,2
276,465	4,44
276,679	-87,72
276,893	-42,67
277,107	108,88
277,321	-9,9
277,535	45,4
277,749	78,16
277,963	22,87
278,177	-95,91
278,391	29,01
278,605	-110,25
278,819	-5,8
279,033	-97,96
279,247	-22,19
279,461	47,44
279,675	-11,95
279,889	-30,38
280,103	43,35
280,317	29,01
280,531	12,63
280,745	-54,95
280,959	4,44
281,173	-3,75
281,387	49,49
281,601	137,56
281,815	80,21
282,029	4,44
282,242	29,01
282,456	-54,95
282,67	2,39
282,884	12,63
283,098	51,54
283,312	59,73
283,525	-3,75
283,739	29,01
283,953	-22,19
284,167	-40,62
284,381	2,39
284,594	-50,86
284,808	-9,9
285,022	6,49
285,235	-22,19
285,449	39,25
285,663	39,25
285,877	-11,95
286,09	10,58
286,304	84,31
286,518	22,87
286,731	-95,91
286,945	143,7
287,159	-9,9
287,372	-54,95
287,586	2,39
287,799	-22,19
288,013	43,35
288,227	10,58
288,44	219,47
288,654	76,12
288,867	18,77
289,081	22,87
289,294	29,01
289,508	63,83
289,721	-20,14
289,935	2,39
290,148	69,97
290,362	31,06
290,575	39,25
290,789	-38,57
291,002	-61,1
291,216	104,79
291,429	29,01
291,643	67,92
291,856	-28,33
292,069	29,01
292,283	2,39
292,496	-1,71
292,71	29,01
292,923	-9,9
293,136	47,44
293,35	16,73
293,563	-22,19
293,776	39,25
293,99	31,06
294,203	10,58
294,416	37,2
294,63	-5,8
294,843	-24,23
295,056	121,17
295,269	39,25
295,483	-87,72
295,696	92,5
295,909	-13,99
296,122	22,87
296,335	2,39
296,549	69,97
296,762	-61,1
296,975	-1,71
297,188	57,68
297,401	51,54
297,615	63,83
297,828	2,39
298,041	72,02
298,254	-85,67
298,467	2,39
298,68	-30,38
298,893	-26,28
299,106	43,35
299,319	18,77
299,532	49,49
299,745	-44,71
299,958	-52,91
300,171	-95,91
300,384	-1,71
300,598	-87,72
300,81	14,68
301,023	-63,15
301,236	-26,28
301,449	10,58
301,662	20,82
301,875	-46,76
302,088	18,77
302,301	-22,19
302,514	-46,76
302,727	26,96
302,94	-63,15
303,153	20,82
303,366	43,35
303,579	-24,23
303,791	65,88
304,004	-38,57
304,217	96,6
304,43	63,83
304,643	22,87
304,855	-13,99
305,068	63,83
305,281	51,54
305,494	26,96
305,707	-54,95
305,919	160,08
306,132	-20,14
306,345	-7,85
306,558	53,59
306,77	-79,53
306,983	-36,52
307,196	141,65
307,408	-46,76
307,621	20,82
307,834	-34,47
308,046	4,44
308,259	-13,99
308,472	43,35
308,684	88,4
308,897	-22,19
309,109	-5,8
309,322	-40,62
309,535	29,01
309,747	100,69
309,96	59,73
310,172	86,36
310,385	67,92
310,597	-46,76
310,81	59,73
311,022	-42,67
311,235	-104,11
311,447	-26,28
311,66	-20,14
311,872	-34,47
312,085	-22,19
312,297	-7,85
312,51	-63,15
312,722	2,39
312,934	12,63
313,147	-32,43
313,359	-18,09
313,572	26,96
313,784	2,39
313,996	76,12
314,209	51,54
314,421	-20,14
314,633	-85,67
314,846	-34,47
315,058	14,68
315,27	14,68
315,483	10,58
315,695	29,01
315,907	-28,33
316,119	-34,47
316,332	-5,8
316,544	6,49
316,756	2,39
316,968	10,58
317,181	-77,48
317,393	4,44
317,605	59,73
317,817	67,92
318,029	-5,8
318,241	2,39
318,454	-36,52
318,666	18,77
318,878	-65,19
319,09	-114,34
319,302	96,6
319,514	10,58
319,726	-26,28
319,938	170,32
320,15	94,55
320,362	29,01
320,574	22,87
320,786	53,59
320,999	-71,34
321,211	135,51
321,423	18,77
321,635	-93,87
321,847	-20,14
322,058	-13,99
322,27	-20,14
322,482	84,31
322,694	55,64
322,906	22,87
323,118	-13,99
323,33	10,58
323,542	20,82
323,754	-22,19
323,966	-71,34
324,178	76,12
324,389	2,39
324,601	-13,99
324,813	35,16
325,025	-3,75
325,237	-48,81
325,449	14,68
325,66	2,39
325,872	24,92
326,084	-32,43
326,296	57,68
326,507	26,96
326,719	51,54
326,931	-54,95
327,143	88,4
327,354	168,27
327,566	76,12
327,778	29,01
327,989	119,12
328,201	-26,28
328,413	61,78
328,624	26,96
328,836	-1,71
329,048	-54,95
329,259	-26,28
329,471	12,63
329,682	53,59
329,894	29,01
330,106	-65,19
330,317	84,31
330,529	-52,91
330,74	2,39
330,952	-46,76
331,163	-50,86
331,375	-61,1
331,586	-11,95
331,798	65,88
332,009	-63,15
332,221	26,96
332,432	92,5
332,644	12,63
332,855	-44,71
333,067	6,49
333,278	29,01
333,489	67,92
333,701	-59,05
333,912	-13,99
334,124	26,96
334,335	-77,48
334,546	-46,76
334,758	-61,1
334,969	141,65
335,18	-26,28
335,392	12,63
335,603	92,5
335,814	-9,9
336,025	10,58
336,237	10,58
336,448	-38,57
336,659	63,83
336,87	119,12
337,082	110,93
337,293	-42,67
337,504	37,2
337,715	92,5
337,926	-71,34
338,138	39,25
338,349	10,58
338,56	72,02
338,771	22,87
338,982	2,39
339,193	45,4
339,404	78,16
339,616	86,36
339,827	-13,99
340,038	-85,67
340,249	-9,9
340,46	24,92
340,671	84,31
340,882	129,36
341,093	76,12
341,304	2,39
341,515	35,16
341,726	67,92
341,937	16,73
342,148	29,01
342,359	20,82
342,57	18,77
342,781	158,03
342,992	-11,95
343,203	35,16
343,414	67,92
343,624	16,73
343,835	37,2
344,046	82,26
344,257	84,31
344,468	133,46
344,679	-5,8
344,89	272,72
345,1	86,36
345,311	117,08
345,522	158,03
345,733	188,75
345,944	211,28
346,154	192,85
346,365	194,9
346,576	110,93
346,787	98,64
346,997	274,77
347,208	174,42
347,419	94,55
347,629	192,85
347,84	190,8
348,051	18,77
348,261	-9,9
348,472	35,16
348,683	86,36
348,893	67,92
349,104	80,21
349,315	-9,9
349,525	94,55
349,736	88,4
349,946	84,31
350,157	215,38
350,368	186,71
350,578	53,59
350,789	190,8
350,999	143,7
351,21	225,62
351,42	178,51
351,631	215,38
351,841	258,39
352,052	379,22
352,262	399,7
352,472	272,72
352,683	280,91
352,893	186,71
353,104	207,19
353,314	219,47
353,525	430,41
353,735	26,96
353,945	-44,71
354,156	-67,24
354,366	149,84
354,576	112,98
354,787	18,77
354,997	-46,76
355,207	-34,47
355,418	-30,38
355,628	-63,15
355,838	69,97
356,048	55,64
356,259	47,44
356,469	67,92
356,679	-3,75
356,889	-13,99
357,1	-18,09
357,31	-28,33
357,52	8,53
357,73	-71,34
357,94	16,73
358,15	-9,9
358,361	53,59
358,571	49,49
358,781	141,65
358,991	55,64
359,201	145,75
359,411	82,26
359,621	166,23
359,831	198,99
360,041	139,6
360,251	102,74
360,461	149,84
360,672	88,4
360,882	-46,76
361,092	67,92
361,302	117,08
361,512	26,96
361,721	-13,99
361,931	45,4
362,141	35,16
362,351	39,25
362,561	51,54
362,771	-52,91
362,981	8,53
363,191	12,63
363,401	39,25
363,611	61,78
363,821	-5,8
364,03	-93,87
364,24	4,44
364,45	104,79
364,66	330,06
364,87	-67,24
365,08	53,59
365,289	-3,75
365,499	20,82
365,709	4,44
365,919	31,06
366,128	-61,1
366,338	59,73
366,548	-22,19
366,758	-36,52
366,967	51,54
367,177	31,06
367,387	67,92
367,596	29,01
367,806	37,2
368,016	-16,04
368,225	49,49
368,435	108,88
368,644	26,96
368,854	2,39
369,064	45,4
369,273	-9,9
369,483	-22,19
369,692	18,77
369,902	-13,99
370,111	76,12
370,321	26,96
370,53	14,68
370,74	-24,23
370,949	100,69
371,159	67,92
371,368	47,44
371,578	35,16
371,787	51,54
371,997	-11,95
372,206	-63,15
372,416	4,44
372,625	-30,38
372,834	-13,99
373,044	-52,91
373,253	-1,71
373,462	43,35
373,672	53,59
373,881	-46,76
374,09	-20,14
374,3	-38,57
374,509	-3,75
374,718	-69,29
374,928	117,08
375,137	-18,09
375,346	18,77
375,555	82,26
375,765	-20,14
375,974	-52,91
376,183	12,63
376,392	-36,52
376,601	67,92
376,811	53,59
377,02	41,3
377,229	59,73
377,438	43,35
377,647	-79,53
377,856	-30,38
378,065	35,16
378,275	12,63
378,484	-46,76
378,693	-22,19
378,902	-61,1
379,111	43,35
379,32	-34,47
379,529	-38,57
379,738	29,01
379,947	-44,71
380,156	51,54
380,365	61,78
380,574	26,96
380,783	-44,71
380,992	-61,1
381,201	2,39
381,41	-38,57
381,619	-18,09
381,828	2,39
382,037	41,3
382,245	86,36
382,454	51,54
382,663	-36,52
382,872	67,92
383,081	-38,57
383,29	59,73
383,499	10,58
383,707	59,73
383,916	59,73
384,125	84,31
384,334	69,97
384,542	108,88
384,751	-5,8
384,96	-18,09
385,169	-11,95
385,377	53,59
385,586	-57
385,795	10,58
386,004	2,39
386,212	-24,23
386,421	47,44
386,63	51,54
386,838	12,63
387,047	49,49
387,255	-42,67
387,464	88,4
387,673	-22,19
387,881	59,73
388,09	125,27
388,298	-1,71
388,507	59,73
388,715	43,35
388,924	67,92
389,133	-128,68
389,341	-42,67
389,55	26,96
389,758	-7,85
389,967	-44,71
390,175	104,79
390,383	125,27
390,592	117,08
390,8	24,92
391,009	-61,1
391,217	135,51
391,426	129,36
391,634	-5,8
391,842	-3,75
392,051	51,54
392,259	47,44
392,467	20,82
392,676	-9,9
392,884	-5,8
393,092	4,44
393,301	119,12
393,509	35,16
393,717	-5,8
393,925	26,96
394,134	-11,95
394,342	84,31
394,55	69,97
394,758	39,25
394,967	10,58
395,175	-5,8
395,383	-26,28
395,591	-18,09
395,799	22,87
396,007	-77,48
396,216	53,59
396,424	51,54
396,632	-18,09
396,84	86,36
397,048	-46,76
397,256	18,77
397,464	4,44
397,672	78,16
397,88	-9,9
398,088	-42,67
398,296	-36,52
398,504	26,96
398,712	45,4
398,92	121,17
399,128	-5,8
399,336	-13,99
399,544	6,49
399,752	-81,58
399,96	-26,28
400,168	127,32
400,376	-38,57
400,584	125,27
400,792	67,92
401	-5,8
401,207	-87,72
401,415	-22,19
401,623	51,54
401,831	22,87
402,039	59,73
402,247	-24,23
402,454	88,4
402,662	-1,71
402,87	84,31
403,078	119,12
403,285	22,87
403,493	4,44
403,701	51,54
403,909	-61,1
404,116	80,21
404,324	43,35
404,532	59,73
404,739	-28,33
404,947	-28,33
405,155	-28,33
405,362	-5,8
405,57	69,97
405,778	-26,28
405,985	39,25
406,193	59,73
406,4	2,39
406,608	100,69
406,816	29,01
407,023	18,77
407,231	-54,95
407,438	-32,43
407,646	76,12
407,853	18,77
408,061	-11,95
408,268	35,16
408,476	-36,52
408,683	-5,8
408,89	43,35
409,098	125,27
409,305	43,35
409,513	-38,57
409,72	-1,71
409,927	-16,04
410,135	94,55
410,342	-16,04
410,55	149,84
410,757	-65,19
410,964	-34,47
411,172	59,73
411,379	35,16
411,586	-13,99
411,793	2,39
412,001	-20,14
412,208	-5,8
412,415	26,96
412,622	88,4
412,83	-63,15
413,037	47,44
413,244	-42,67
413,451	76,12
413,658	51,54
413,866	-5,8
414,073	-22,19
414,28	84,31
414,487	-38,57
414,694	33,11
414,901	-24,23
415,108	18,77
415,315	12,63
415,522	53,59
415,73	18,77
415,937	-102,06
416,144	-46,76
416,351	51,54
416,558	-9,9
416,765	26,96
416,972	26,96
417,179	22,87
417,386	43,35
417,593	35,16
417,8	-69,29
418,006	6,49
418,213	37,2
418,42	92,5
418,627	18,77
418,834	10,58
419,041	45,4
419,248	37,2
419,455	-73,39
419,661	35,16
419,868	-3,75
420,075	-3,75
420,282	-42,67
420,489	-73,39
420,696	-3,75
420,902	-38,57
421,109	100,69
421,316	-34,47
421,523	10,58
421,729	18,77
421,936	-22,19
422,143	67,92
422,349	-16,04
422,556	18,77
422,763	4,44
422,969	76,12
423,176	-54,95
423,383	51,54
423,589	272,72
423,796	26,96
424,002	-79,53
424,209	14,68
424,416	67,92
424,622	-93,87
424,829	-46,76
425,035	-112,3
425,242	2,39
425,448	-32,43
425,655	39,25
425,861	16,73
426,068	-30,38
426,274	104,79
426,481	-42,67
426,687	47,44
426,894	18,77
427,1	41,3
427,306	-9,9
427,513	2,39
427,719	-18,09
427,926	-30,38
428,132	-5,8
428,338	0,34
428,545	47,44
428,751	-36,52
428,957	-69,29
429,163	-54,95
429,37	33,11
429,576	43,35
429,782	51,54
429,989	-95,91
430,195	20,82
430,401	14,68
430,607	-34,47
430,813	-81,58
431,02	26,96
431,226	133,46
431,432	-77,48
431,638	-7,85
431,844	-71,34
432,05	10,58
432,257	-28,33
432,463	4,44
432,669	67,92
432,875	-54,95
433,081	-38,57
433,287	43,35
433,493	-71,34
433,699	63,83
433,905	-11,95
434,111	-54,95
434,317	2,39
434,523	76,12
434,729	37,2
434,935	-75,43
435,141	53,59
435,347	-46,76
435,553	-13,99
435,759	-73,39
435,965	-11,95
436,171	18,77
436,377	59,73
436,582	47,44
436,788	-71,34
436,994	57,68
437,2	-57
437,406	47,44
437,612	-30,38
437,818	10,58
438,023	-108,2
438,229	94,55
438,435	94,55
438,641	-5,8
438,846	2,39
439,052	108,88
439,258	-50,86
439,464	29,01
439,669	-22,19
439,875	29,01
440,081	-18,09
440,286	-81,58
440,492	12,63
440,698	-18,09
440,903	-54,95
441,109	121,17
441,314	-77,48
441,52	-100,01
441,726	-5,8
441,931	-11,95
442,137	39,25
442,342	100,69
442,548	94,55
442,753	143,7
442,959	-3,75
443,164	-44,71
443,37	51,54
443,575	12,63
443,781	20,82
443,986	55,64
444,192	-1,71
444,397	90,45
444,602	-36,52
444,808	-5,8
445,013	12,63
445,219	-67,24
445,424	88,4
445,629	-16,04
445,835	164,18
446,04	102,74
446,245	-106,15
446,451	-20,14
446,656	-3,75
446,861	-63,15
447,066	45,4
447,272	72,02
447,477	-13,99
447,682	-34,47
447,887	-44,71
448,093	-20,14
448,298	22,87
448,503	-22,19
448,708	2,39
448,913	-9,9
449,118	55,64
449,324	2,39
449,529	84,31
449,734	-34,47
449,939	-63,15
450,144	61,78
450,349	39,25
450,554	-30,38
450,759	117,08
450,964	53,59
451,169	35,16
451,374	18,77
451,579	-34,47
451,784	37,2
451,989	-22,19
452,194	80,21
452,399	-44,71
452,604	43,35
452,809	-5,8
453,014	-46,76
453,219	-38,57
453,424	108,88
453,629	-48,81
453,833	-69,29
454,038	47,44
454,243	18,77
454,448	18,77
454,653	98,64
454,858	-3,75
455,062	10,58
455,267	8,53
455,472	106,84
455,677	-9,9
455,882	-77,48
456,086	59,73
456,291	-5,8
456,496	-5,8
456,7	43,35
456,905	35,16
457,11	22,87
457,314	-11,95
457,519	69,97
457,724	10,58
457,928	-61,1
458,133	-26,28
458,338	16,73
458,542	-63,15
458,747	-7,85
458,951	18,77
459,156	49,49
459,36	-57
459,565	104,79
459,769	4,44
459,974	92,5
460,178	-22,19
460,383	-120,49
460,587	-52,91
460,792	84,31
460,996	6,49
461,201	37,2
461,405	-28,33
461,61	-100,01
461,814	80,21
462,018	-71,34
462,223	-13,99
462,427	41,3
462,631	47,44
462,836	22,87
463,04	76,12
463,244	127,32
463,449	-26,28
463,653	35,16
463,857	-30,38
464,062	82,26
464,266	6,49
464,47	6,49
464,674	-112,3
464,878	67,92
465,083	18,77
465,287	69,97
465,491	2,39
465,695	53,59
465,899	-59,05
466,104	63,83
466,308	2,39
466,512	-36,52
466,716	43,35
466,92	51,54
467,124	158,03
467,328	14,68
467,532	51,54
467,736	-13,99
467,94	20,82
468,144	26,96
468,348	35,16
468,552	86,36
468,756	102,74
468,96	35,16
469,164	41,3
469,368	49,49
469,572	-13,99
469,776	59,73
469,98	57,68
470,184	16,73
470,388	141,65
470,591	121,17
470,795	117,08
470,999	110,93
471,203	176,47
471,407	45,4
471,611	86,36
471,814	-1,71
472,018	12,63
472,222	39,25
472,426	158,03
472,63	92,5
472,833	61,78
473,037	108,88
473,241	-69,29
473,444	59,73
473,648	387,41
473,852	-36,52
474,055	4,44
474,259	-30,38
474,463	-34,47
474,666	80,21
474,87	22,87
475,074	112,98
475,277	67,92
475,481	115,03
475,684	20,82
475,888	59,73
476,091	-20,14
476,295	-36,52
476,498	26,96
476,702	55,64
476,905	45,4
477,109	125,27
477,312	37,2
477,516	-13,99
477,719	51,54
477,923	-20,14
478,126	10,58
478,329	76,12
478,533	-28,33
478,736	43,35
478,94	6,49
479,143	94,55
479,346	4,44
479,55	51,54
479,753	12,63
479,956	-153,26
480,159	-18,09
480,363	84,31
480,566	39,25
480,769	39,25
480,972	-59,05
481,176	59,73
481,379	76,12
481,582	112,98
481,785	-71,34
481,988	-22,19
482,192	186,71
482,395	35,16
482,598	51,54
482,801	69,97
483,004	76,12
483,207	10,58
483,41	59,73
483,613	6,49
483,817	104,79
484,02	59,73
484,223	-22,19
484,426	84,31
484,629	20,82
484,832	123,22
485,035	29,01
485,238	43,35
485,441	72,02
485,644	37,2
485,846	76,12
486,049	-50,86
486,252	104,79
486,455	-87,72
486,658	2,39
486,861	67,92
487,064	-5,8
487,267	-38,57
487,47	162,13
487,672	-28,33
487,875	31,06
488,078	67,92
488,281	100,69
488,484	86,36
488,686	26,96
488,889	-28,33
489,092	-11,95
489,295	51,54
489,497	98,64
489,7	-40,62
489,903	20,82
490,105	-85,67
490,308	-5,8
490,511	20,82
490,713	39,25
490,916	-1,71
491,118	45,4
491,321	6,49
491,524	-132,78
491,726	-38,57
491,929	-59,05
492,131	-63,15
492,334	2,39
492,536	-9,9
492,739	-18,09
492,941	6,49
493,144	29,01
493,346	35,16
493,549	-1,71
493,751	2,39
493,954	-38,57
494,156	35,16
494,359	41,3
494,561	-44,71
494,763	35,16
494,966	127,32
495,168	53,59
495,37	-7,85
495,573	72,02
495,775	69,97
495,977	125,27
496,18	45,4
496,382	160,08
496,584	47,44
496,787	108,88
496,989	35,16
497,191	51,54
497,393	92,5
497,595	-13,99
497,798	-63,15
498	-1,71
498,202	67,92
498,404	-5,8
498,606	6,49
498,808	37,2
499,011	43,35
499,213	51,54
499,415	18,77
499,617	22,87
499,819	45,4
500,021	63,83
500,223	45,4
500,425	67,92
500,627	-13,99
500,829	67,92
501,031	67,92
501,233	-5,8
501,435	80,21
501,637	96,6
501,839	94,55
502,041	20,82
502,243	12,63
502,445	76,12
502,647	90,45
502,848	139,6
503,05	106,84
503,252	151,89
503,454	239,95
503,656	223,57
503,858	280,91
504,059	233,81
504,261	233,81
504,463	272,72
504,665	160,08
504,867	147,8
505,068	215,38
505,27	129,36
505,472	160,08
505,673	67,92
505,875	76,12
506,077	20,82
506,278	-3,75
506,48	18,77
506,682	108,88
506,883	6,49
507,085	45,4
507,287	39,25
507,488	94,55
507,69	127,32
507,891	137,56
508,093	248,15
508,294	158,03
508,496	92,5
508,697	67,92
508,899	51,54
509,1	76,12
509,302	178,51
509,503	67,92
509,705	94,55
509,906	-1,71
510,108	-85,67
510,309	35,16
510,51	133,46
510,712	39,25
510,913	78,16
511,114	196,95
511,316	26,96
511,517	219,47
511,718	121,17
511,92	164,18
512,121	141,65
512,322	207,19
512,524	289,1
512,725	121,17
512,926	219,47
513,127	80,21
513,329	190,8
513,53	39,25
513,731	115,03
513,932	47,44
514,133	86,36
514,334	86,36
514,536	182,61
514,737	129,36
514,938	143,7
515,139	94,55
515,34	29,01
515,541	233,81
515,742	92,5
515,943	233,81
516,144	100,69
516,345	164,18
516,546	59,73
516,747	117,08
516,948	14,68
517,149	2,39
517,35	-1,71
517,551	-50,86
517,752	2,39
517,953	182,61
518,154	6,49
518,355	125,27
518,556	151,89
518,756	100,69
518,957	145,75
519,158	201,04
519,359	198,99
519,56	162,13
519,761	242
519,961	289,1
520,162	291,15
520,363	55,64
520,564	198,99
520,764	334,16
520,965	158,03
521,166	203,09
521,366	158,03
521,567	125,27
521,768	227,67
521,968	117,08
522,169	158,03
522,37	65,88
522,57	67,92
522,771	131,41
522,972	-1,71
523,172	260,43
523,373	143,7
523,573	33,11
523,774	86,36
523,974	149,84
524,175	55,64
524,375	35,16
524,576	18,77
524,776	-36,52
524,977	18,77
525,177	129,36
525,378	22,87
525,578	84,31
525,778	35,16
525,979	135,51
526,179	26,96
526,38	-7,85
526,58	35,16
526,78	22,87
526,981	-5,8
527,181	-30,38
527,381	100,69
527,582	37,2
527,782	80,21
527,982	76,12
528,182	10,58
528,383	-16,04
528,583	26,96
528,783	43,35
528,983	-3,75
529,183	-22,19
529,384	55,64
529,584	145,75
529,784	207,19
529,984	67,92
530,184	26,96
530,384	55,64
530,584	20,82
530,784	166,23
530,984	92,5
531,185	102,74
531,385	143,7
531,585	125,27
531,785	76,12
531,985	86,36
532,185	141,65
532,385	78,16
532,585	301,39
532,785	258,39
532,984	403,79
533,184	471,37
533,384	457,04
533,584	416,08
533,784	561,48
533,984	608,59
534,184	538,96
534,384	569,68
534,583	629,07
534,783	518,48
534,983	588,11
535,183	469,33
535,383	295,25
535,582	305,49
535,782	280,91
535,982	207,19
536,182	158,03
536,381	133,46
536,581	35,16
536,781	141,65
536,98	47,44
537,18	90,45
537,38	84,31
537,579	127,32
537,779	41,3
537,979	92,5
538,178	-34,47
538,378	100,69
538,577	10,58
538,777	141,65
538,976	119,12
539,176	231,76
539,376	209,23
539,575	270,67
539,774	305,49
539,974	391,5
540,173	411,98
540,373	581,96
540,572	534,86
540,772	506,19
540,971	454,99
541,171	432,46
541,37	366,93
541,569	321,87
541,769	223,57
541,968	248,15
542,167	160,08
542,367	84,31
542,566	43,35
542,765	33,11
542,965	12,63
543,164	-13,99
543,363	84,31
543,562	-11,95
543,761	10,58
543,961	100,69
544,16	-38,57
544,359	153,94
544,558	90,45
544,757	4,44
544,957	67,92
545,156	149,84
545,355	92,5
545,554	35,16
545,753	18,77
545,952	76,12
546,151	92,5
546,35	14,68
546,549	-34,47
546,748	127,32
546,947	26,96
547,146	-71,34
547,345	47,44
547,544	-30,38
547,743	-36,52
547,942	-22,19
548,141	37,2
548,34	37,2
548,539	10,58
548,738	16,73
548,937	63,83
549,135	10,58
549,334	29,01
549,533	18,77
549,732	45,4
549,931	-40,62
550,13	-11,95
550,328	-13,99
550,527	-38,57
550,726	49,49
550,925	20,82
551,123	88,4
551,322	35,16
551,521	88,4
551,72	41,3
551,918	-11,95
552,117	39,25
552,315	24,92
552,514	69,97
552,713	43,35
552,911	45,4
553,11	-83,63
553,309	20,82
553,507	-3,75
553,706	12,63
553,904	51,54
554,103	22,87
554,301	59,73
554,5	53,59
554,698	31,06
554,897	-22,19
555,095	80,21
555,294	43,35
555,492	35,16
555,69	94,55
555,889	2,39
556,087	84,31
556,286	213,33
556,484	104,79
556,682	96,6
556,881	78,16
557,079	94,55
557,277	137,56
557,476	137,56
557,674	131,41
557,872	88,4
558,07	39,25
558,269	31,06
558,467	37,2
558,665	2,39
558,863	10,58
559,062	108,88
559,26	37,2
559,458	-69,29
559,656	-22,19
559,854	18,77
560,052	92,5
560,25	-22,19
560,449	217,43
560,647	35,16
560,845	-93,87
561,043	43,35
561,241	18,77
561,439	96,6
561,637	-18,09
561,835	39,25
562,033	6,49
562,231	-18,09
562,429	6,49
562,627	39,25
562,825	-5,8
563,023	108,88
563,221	-11,95
563,418	2,39
563,616	2,39
563,814	168,27
564,012	35,16
564,21	121,17
564,408	78,16
564,605	45,4
564,803	51,54
565,001	330,06
565,199	35,16
565,397	133,46
565,594	162,13
565,792	266,58
565,99	174,42
566,188	252,24
566,385	164,18
566,583	192,85
566,781	272,72
566,978	233,81
567,176	184,66
567,373	147,8
567,571	92,5
567,769	94,55
567,966	-38,57
568,164	72,02
568,361	57,68
568,559	102,74
568,756	121,17
568,954	69,97
569,151	190,8
569,349	182,61
569,546	51,54
569,744	203,09
569,941	92,5
570,139	51,54
570,336	133,46
570,534	129,36
570,731	-11,95
570,928	108,88
571,126	244,05
571,323	153,94
571,52	67,92
571,718	45,4
571,915	102,74
572,112	55,64
572,31	45,4
572,507	143,7
572,704	18,77
572,901	96,6
573,099	94,55
573,296	186,71
573,493	117,08
573,69	53,59
573,887	55,64
574,085	221,52
574,282	151,89
574,479	170,32
574,676	246,1
574,873	239,95
575,07	282,96
575,267	317,78
575,464	371,02
575,661	446,8
575,858	520,53
576,055	637,26
576,252	788,81
576,449	868,68
576,646	862,54
576,843	1104,2
577,04	1012,04
577,237	977,22
577,434	807,24
577,631	719,18
577,828	684,36
578,025	450,89
578,222	432,46
578,419	346,45
578,615	158,03
578,812	121,17
579,009	125,27
579,206	88,4
579,403	160,08
579,599	198,99
579,796	166,23
579,993	207,19
580,19	88,4
580,386	235,86
580,583	323,92
580,78	305,49
580,976	315,73
581,173	393,55
581,37	356,69
581,566	504,14
581,763	479,57
581,96	557,39
582,156	596,3
582,353	561,48
582,549	717,13
582,746	637,26
582,942	553,29
583,139	528,72
583,335	622,92
583,532	1093,96
583,728	1710,4
583,925	2724,14
584,121	4262,16
584,318	6381,81
584,514	8917,2
584,711	12081,31
584,907	15421,55
585,103	19933,22
585,3	23205,88
585,496	26468,29
585,693	29067,16
585,889	29558,67
586,085	28493,73
586,281	25905,1
586,478	22374,4
586,674	18909,24
586,87	16750,68
587,067	14104,7
587,263	11450,53
587,459	8311
587,655	6414,58
587,851	5566,72
588,048	5163,27
588,244	5286,15
588,44	5691,65
588,636	5826,81
588,832	5689,6
589,028	5611,78
589,224	5093,64
589,42	4405,52
589,617	3856,67
589,813	3508,51
590,009	2828,59
590,205	2410,8
590,401	1866,04
590,597	1528,13
590,793	1304,9
590,989	1063,24
591,185	923,98
591,38	856,39
591,576	698,7
591,772	721,23
591,968	629,07
592,164	608,59
592,36	487,76
592,556	457,04
592,752	567,63
592,948	627,02
593,143	1050,95
593,339	1423,68
593,535	1943,86
593,731	2851,11
593,926	3701,02
594,122	4978,95
594,318	6154,49
594,514	7483,62
594,709	8677,58
594,905	9427,14
595,101	9504,96
595,296	9359,56
595,492	8515,8
595,688	7629,02
595,883	6516,98
596,079	5785,85
596,275	4935,95
596,47	4163,86
596,666	3111,21
596,861	2654,51
597,057	2263,35
597,252	2134,32
597,448	2201,91
597,643	2462
597,839	2797,87
598,034	2740,52
598,23	2584,88
598,425	2525,49
598,621	2396,46
598,816	1986,87
599,011	1657,15
599,207	1608
599,402	1265,99
599,597	1116,48
599,793	895,3
599,988	647,5
600,183	420,17
600,379	350,54
600,574	334,16
600,769	307,54
600,965	256,34
601,16	201,04
601,355	203,09
601,55	395,6
601,745	450,89
601,941	584,01
602,136	721,23
602,331	969,03
602,526	1308,99
602,721	1593,66
602,916	1829,18
603,111	2177,33
603,307	2541,87
603,502	2543,92
603,697	2623,79
603,892	2517,29
604,087	2378,03
604,282	2105,65
604,477	1890,62
604,672	1442,11
604,867	1206,59
605,062	1005,89
605,257	698,7
605,452	624,97
605,646	411,98
605,841	536,91
606,036	792,91
606,231	1053
606,426	1687,87
606,621	2345,27
606,816	3313,95
607,01	4389,14
607,205	5527,81
607,4	6437,11
607,595	7774,43
607,79	8726,74
607,984	9189,58
608,179	9365,7
608,374	9244,87
608,569	9464
608,763	9068,75
608,958	9478,34
609,153	10361,02
609,347	11487,4
609,542	12026,01
609,736	12707,99
609,931	12955,79
610,126	13377,67
610,32	12945,55
610,515	12036,25
610,709	11219,11
610,904	9570,5
611,098	8247,51
611,293	7039,21
611,487	5841,15
611,682	4567,31
611,876	3397,92
612,071	2246,96
612,265	1554,75
612,46	1194,31
612,654	1374,53
612,848	1726,78
613,043	2525,49
613,237	3729,69
613,432	5163,27
613,626	7063,79
613,82	9349,32
614,014	12122,27
614,209	14829,68
614,403	17234
614,597	19263,54
614,792	20068,39
614,986	21266,45
615,18	20369,44
615,374	18868,28
615,568	16795,73
615,763	15544,42
615,957	14180,48
616,151	12726,42
616,345	12028,06
616,539	10373,3
616,733	9128,14
616,927	7852,25
617,121	6965,48
617,316	6205,69
617,51	5359,88
617,704	4516,11
617,898	3957,02
618,092	3518,75
618,286	2969,9
618,48	2421,04
618,674	1935,67
618,868	1313,09
619,061	854,34
619,255	682,31
619,449	579,92
619,643	399,7
619,837	565,58
620,031	454,99
620,225	534,86
620,419	600,4
620,612	977,22
620,806	1263,94
621	1577,28
621,194	2001,21
621,388	2396,46
621,581	3090,73
621,775	3551,52
621,969	3987,74
622,162	4198,68
622,356	4432,15
622,55	4512,02
622,743	3959,06
622,937	3561,76
623,131	3078,44
623,324	2853,16
623,518	2142,52
623,712	1927,48
623,905	1421,63
624,099	1030,47
624,292	719,18
624,486	536,91
624,679	358,74
624,873	420,17
625,066	506,19
625,26	764,23
625,453	1179,97
625,647	1929,53
625,84	2758,96
626,034	3631,39
626,227	4790,54
626,42	5726,46
626,614	7014,63
626,807	8286,42
627	9218,25
627,194	9304,26
627,387	9365,7
627,58	8784,08
627,774	8114,39
627,967	7098,6
628,16	6236,41
628,353	5361,92
628,547	4768,01
628,74	3787,04
628,933	2894,12
629,126	2076,98
629,319	1726,78
629,513	1706,3
629,706	1870,14
629,899	2144,56
630,092	2623,79
630,285	3197,22
630,478	3672,35
630,671	4221,2
630,864	4761,87
631,057	4591,89
631,25	4755,72
631,443	4444,43
631,636	4010,26
631,829	3909,91
632,022	3838,23
632,215	4321,56
632,408	5056,78
632,601	5654,78
632,794	6584,56
632,987	8188,12
633,18	9603,27
633,373	11391,14
633,566	12937,36
633,758	13985,92
633,951	15048,82
634,144	14921,84
634,337	14215,29
634,53	13060,24
634,722	11563,17
634,915	9767,1
635,108	8743,12
635,301	7620,83
635,493	6355,19
635,686	4778,25
635,879	3283,24
636,071	2093,37
636,264	1515,84
636,457	1053
636,649	854,34
636,842	1050,95
637,034	1552,7
637,227	2337,07
637,42	3131,69
637,612	4346,13
637,805	5853,44
637,997	7520,48
638,19	8956,11
638,382	10432,69
638,575	12365,98
638,767	14887,03
638,96	17166,42
639,152	19738,66
639,344	23044,09
639,537	27043,77
639,729	31534,96
639,922	36990,75
640,114	42657,48
640,306	47414,91
640,499	51060,3
640,691	52506,16
640,883	52698,67
641,075	49907,29
641,268	45995,67
641,46	39821,05
641,652	34410,31
641,844	30064,52
642,037	26021,83
642,229	21733,39
642,421	17244,24
642,613	12368,02
642,805	7745,76
642,998	4946,19
643,19	2951,46
643,382	1925,43
643,574	1341,76
643,766	903,5
643,958	702,79
644,15	653,64
644,342	604,49
644,534	407,89
644,726	389,46
644,918	362,83
645,11	211,28
645,302	256,34
645,494	305,49
645,686	266,58
645,878	141,65
646,07	256,34
646,262	315,73
646,453	178,51
646,645	151,89
646,837	207,19
647,029	149,84
647,221	125,27
647,413	155,99
647,604	84,31
647,796	133,46
647,988	166,23
648,18	92,5
648,371	170,32
648,563	149,84
648,755	166,23
648,947	168,27
649,138	588,11
649,33	1356,1
649,521	2566,45
649,713	3905,82
649,905	5482,75
650,096	7649,5
650,288	9846,98
650,479	12548,25
650,671	14768,24
650,863	16816,21
651,054	18016,32
651,246	18546,75
651,437	17950,79
651,629	17305,68
651,82	15976,55
652,011	14157,95
652,203	12316,83
652,394	11708,58
652,586	10465,46
652,777	9359,56
652,968	8081,63
653,16	6957,29
653,351	6164,73
653,542	5804,28
653,734	5400,83
653,925	5163,27
654,116	4733,2
654,308	4403,47
654,499	3817,76
654,69	3434,78
654,881	3035,43
655,073	2683,18
655,264	2361,65
655,455	1845,56
655,646	1378,62
655,837	993,61
656,028	713,03
656,219	461,13
656,411	285,01
656,602	264,53
656,793	92,5
656,984	289,1
657,175	188,75
657,366	121,17
657,557	84,31
657,748	100,69
657,939	137,56
658,13	145,75
658,321	233,81
658,512	469,33
658,703	825,67
658,894	1323,33
659,084	1868,09
659,275	2476,34
659,466	3305,76
659,657	4110,61
659,848	4835,6
660,039	5515,52
660,23	6183,16
660,42	6453,49
660,611	6254,84
660,802	6091
660,993	5697,79
661,183	5017,86
661,374	4090,13
661,565	3811,61
661,755	3342,63
661,946	2836,78
662,137	2181,43
662,327	1657,15
662,518	1132,87
662,709	772,43
662,899	448,85
663,09	289,1
663,28	299,34
663,471	186,71
663,662	272,72
663,852	280,91
664,043	125,27
664,233	61,78
664,424	115,03
664,614	96,6
664,804	125,27
664,995	192,85
665,185	174,42
665,376	35,16
665,566	217,43
665,756	104,79
665,947	125,27
666,137	256,34
666,328	483,66
666,518	977,22
666,708	1567,04
666,898	2443,57
667,089	3428,64
667,279	4755,72
667,469	5951,74
667,659	7690,46
667,85	8982,73
668,04	10240,19
668,23	10795,18
668,42	11376,81
668,61	10803,38
668,8	10619,06
668,991	9390,28
669,181	8392,92
669,371	7094,51
669,561	6482,16
669,751	5740,8
669,941	4927,75
670,131	3879,19
670,321	2965,8
670,511	2523,44
670,701	2300,21
670,891	2543,92
671,081	3014,95
671,271	3576,09
671,461	4438,29
671,651	5294,34
671,841	5908,73
672,03	6453,49
672,22	6885,61
672,41	6707,44
672,6	6334,71
672,79	5843,2
672,98	5378,31
673,169	4464,91
673,359	4049,18
673,549	3586,33
673,739	3074,34
673,928	2447,66
674,118	1964,34
674,308	1454,4
674,497	993,61
674,687	665,93
674,877	403,79
675,066	239,95
675,256	149,84
675,446	186,71
675,635	139,6
675,825	86,36
676,014	84,31
676,204	69,97
676,393	67,92
676,583	166,23
676,772	39,25
676,962	84,31
677,151	117,08
677,341	20,82
677,53	26,96
677,72	61,78
677,909	74,07
678,099	-20,14
678,288	-5,8
678,477	108,88
678,667	22,87
678,856	117,08
679,045	96,6
679,235	78,16
679,424	106,84
679,613	158,03
679,802	96,6
679,992	59,73
680,181	31,06
680,37	53,59
680,559	35,16
680,748	131,41
680,938	141,65
681,127	57,68
681,316	31,06
681,505	59,73
681,694	29,01
681,883	84,31
682,072	63,83
682,261	12,63
682,45	-52,91
682,639	-28,33
682,828	61,78
683,017	43,35
683,206	72,02
683,395	37,2
683,584	76,12
683,773	125,27
683,962	26,96
684,151	-38,57
684,34	125,27
684,529	24,92
684,718	76,12
684,907	26,96
685,095	67,92
685,284	104,79
685,473	-26,28
685,662	31,06
685,851	94,55
686,039	59,73
686,228	-54,95
686,417	-69,29
686,606	182,61
686,794	-5,8
686,983	-28,33
687,172	-9,9
687,36	76,12
687,549	-38,57
687,738	4,44
687,926	-59,05
688,115	-71,34
688,303	76,12
688,492	100,69
688,68	-77,48
688,869	-91,82
689,057	18,77
689,246	55,64
689,434	162,13
689,623	-22,19
689,811	112,98
690	53,59
690,188	-30,38
690,377	51,54
690,565	102,74
690,753	141,65
690,942	92,5
691,13	84,31
691,318	127,32
691,507	231,76
691,695	774,47
691,883	1407,3
692,072	2263,35
692,26	3189,03
692,448	4475,15
692,636	5589,25
692,824	6957,29
693,013	7903,45
693,201	9095,37
693,389	9031,88
693,577	9230,54
693,765	9162,95
693,953	8663,25
694,141	7735,52
694,329	6883,56
694,518	5918,97
694,706	5558,53
694,894	4909,32
695,082	4147,48
695,27	3508,51
695,458	2732,33
695,646	2009,4
695,834	1331,52
696,022	792,91
696,209	604,49
696,397	432,46
696,585	276,82
696,773	194,9
696,961	149,84
697,149	119,12
697,337	147,8
697,525	108,88
697,712	29,01
697,9	127,32
698,088	110,93
698,276	117,08
698,463	53,59
698,651	176,47
698,839	59,73
699,027	141,65
699,214	108,88
699,402	59,73
699,59	-11,95
699,777	67,92
699,965	131,41
700,152	43,35
700,34	20,82
700,528	10,58
700,715	-18,09
700,903	59,73
701,09	102,74
701,278	162,13
701,465	248,15
701,653	358,74
701,84	518,48
702,028	1452,35
702,215	2300,21
702,402	3436,83
702,59	4849,93
702,777	6373,62
702,965	8022,23
703,152	9623,75
703,339	10727,6
703,527	11712,67
703,714	11706,53
703,901	12179,61
704,088	11593,89
704,276	11348,14
704,463	9971,9
704,65	8562,9
704,837	7739,62
705,025	7047,4
705,212	6056,18
705,399	5421,31
705,586	4507,92
705,773	3606,81
705,96	2838,83
706,147	2009,4
706,335	1419,58
706,522	987,46
706,709	586,06
706,896	498
707,083	395,6
707,27	330,06
707,457	403,79
707,644	215,38
707,831	168,27
708,018	158,03
708,205	100,69
708,392	100,69
708,578	250,19
708,765	47,44
708,952	-5,8
709,139	12,63
709,326	35,16
709,513	125,27
709,7	2,39
709,886	72,02
710,073	147,8
710,26	141,65
710,447	47,44
710,633	63,83
710,82	86,36
711,007	6,49
711,193	-44,71
711,38	72,02
711,567	26,96
711,753	63,83
711,94	80,21
712,127	104,79
712,313	88,4
712,5	29,01
712,686	72,02
712,873	10,58
713,059	-34,47
713,246	141,65
713,432	14,68
713,619	-30,38
713,805	-20,14
713,992	108,88
714,178	26,96
714,365	139,6
714,551	67,92
714,737	-59,05
714,924	-11,95
715,11	108,88
715,297	2,39
715,483	69,97
715,669	67,92
715,855	-1,71
716,042	117,08
716,228	166,23
716,414	475,47
716,6	575,82
716,787	815,43
716,973	938,31
717,159	1306,95
717,345	1612,09
717,531	1714,49
717,718	1941,82
717,904	1907
718,09	1845,56
718,276	1798,46
718,462	1667,39
718,648	1349,95
718,834	1395,01
719,02	1255,75
719,206	1141,06
719,392	864,58
719,578	862,54
719,764	635,21
719,95	635,21
720,136	586,06
720,322	280,91
720,508	272,72
720,694	186,71
720,879	51,54
721,065	219,47
721,251	31,06
721,437	76,12
721,623	125,27
721,809	41,3
721,994	108,88
722,18	12,63
722,366	14,68
722,552	45,4
722,737	65,88
722,923	151,89
723,109	231,76
723,294	338,26
723,48	938,31
723,666	1386,82
723,851	1806,65
724,037	2599,21
724,222	3264,8
724,408	4008,22
724,593	4329,75
724,779	4903,18
724,965	5011,72
725,15	5024,01
725,336	4985,1
725,521	4698,38
725,706	4090,13
725,892	3680,54
726,077	3150,12
726,263	2863,4
726,448	2625,84
726,634	2306,35
726,819	1976,63
727,004	1980,73
727,19	1374,53
727,375	1143,11
727,56	692,55
727,745	399,7
727,931	297,3
728,116	248,15
728,301	80,21
728,486	92,5
728,672	29,01
728,857	174,42
729,042	-7,85
729,227	61,78
729,412	10,58
729,597	-5,8
729,783	-54,95
729,968	-1,71
730,153	18,77
730,338	-3,75
730,523	72,02
730,708	61,78
730,893	-71,34
731,078	6,49
731,263	94,55
731,448	-30,38
731,633	10,58
731,818	-69,29
732,003	-120,49
732,187	53,59
732,372	-1,71
732,557	90,45
732,742	-13,99
732,927	-79,53
733,112	108,88
733,297	10,58
733,481	-5,8
733,666	8,53
733,851	51,54
734,036	41,3
734,22	18,77
734,405	133,46
734,59	14,68
734,774	22,87
734,959	63,83
735,144	59,73
735,328	80,21
735,513	-22,19
735,698	6,49
735,882	127,32
736,067	59,73
736,251	67,92
736,436	29,01
736,62	-36,52
736,805	-5,8
736,989	29,01
737,174	57,68
737,358	35,16
737,543	131,41
737,727	112,98
737,911	100,69
738,096	-30,38
738,28	24,92
738,465	-13,99
738,649	76,12
738,833	2,39
739,018	-5,8
739,202	-40,62
739,386	-67,24
739,57	65,88
739,755	10,58
739,939	67,92
740,123	4,44
740,307	-5,8
740,491	59,73
740,676	35,16
740,86	51,54
741,044	6,49
741,228	2,39
741,412	-46,76
741,596	-30,38
741,78	-46,76
741,964	-13,99
742,148	6,49
742,332	14,68
742,516	-52,91
742,7	96,6
742,884	158,03
743,068	344,4
743,252	452,94
743,436	661,84
743,62	717,13
743,804	1024,33
743,988	1165,64
744,172	1175,88
744,356	1165,64
744,539	1116,48
744,723	1208,64
744,907	1075,52
745,091	921,93
745,275	897,35
745,458	727,37
745,642	682,31
745,826	584,01
746,009	563,53
746,193	444,75
746,377	444,75
746,56	424,27
746,744	436,56
746,928	192,85
747,111	256,34
747,295	129,36
747,478	174,42
747,662	104,79
747,846	84,31
748,029	280,91
748,213	262,48
748,396	268,63
748,58	373,07
748,763	354,64
748,946	375,12
749,13	469,33
749,313	403,79
749,497	559,44
749,68	538,96
749,863	493,9
750,047	346,45
750,23	317,78
750,413	268,63
750,597	285,01
750,78	207,19
750,963	254,29
751,146	215,38
751,33	223,57
751,513	209,23
751,696	125,27
751,879	174,42
752,062	10,58
752,246	129,36
752,429	108,88
752,612	145,75
752,795	151,89
752,978	217,43
753,161	117,08
753,344	209,23
753,527	362,83
753,71	436,56
753,893	383,31
754,076	420,17
754,259	534,86
754,442	397,65
754,625	371,02
754,808	506,19
754,991	448,85
755,174	332,11
755,357	272,72
755,539	248,15
755,722	315,73
755,905	162,13
756,088	186,71
756,271	158,03
756,453	198,99
756,636	39,25
756,819	190,8
757,002	110,93
757,184	86,36
757,367	102,74
757,55	108,88
757,732	51,54
757,915	10,58
758,098	53,59
758,28	67,92
758,463	-22,19
758,645	35,16
758,828	90,45
759,011	26,96
759,193	72,02
759,376	94,55
759,558	2,39
759,741	59,73
759,923	-83,63
760,105	22,87
760,288	43,35
760,47	-22,19
760,653	-44,71
760,835	-34,47
761,017	31,06
761,2	29,01
761,382	76,12
761,564	10,58
761,747	96,6
761,929	18,77
762,111	108,88
762,294	110,93
762,476	129,36
762,658	49,49
762,84	88,4
763,022	43,35
763,205	92,5
763,387	24,92
763,569	102,74
763,751	-20,14
763,933	-63,15
764,115	-22,19
764,297	35,16
764,479	69,97
764,661	37,2
764,843	16,73
765,025	-13,99
765,207	6,49
765,389	22,87
765,571	43,35
765,753	-59,05
765,935	72,02
766,117	29,01
766,299	131,41
766,481	158,03
766,663	-87,72
766,845	-36,52
767,026	45,4
767,208	4,44
767,39	-26,28
767,572	-85,67
767,753	14,68
767,935	-22,19
768,117	-26,28
768,299	76,12
768,48	51,54
768,662	94,55
768,844	18,77
769,025	166,23
769,207	-63,15
769,389	-13,99
769,57	26,96
769,752	22,87
769,933	-71,34
770,115	80,21
770,296	84,31
770,478	53,59
770,659	-134,82
770,841	203,09
771,022	-24,23
771,204	88,4
771,385	-26,28
771,567	67,92
771,748	123,22
771,929	18,77
772,111	-5,8
772,292	108,88
772,473	-11,95
772,655	22,87
772,836	18,77
773,017	131,41
773,199	104,79
773,38	94,55
773,561	61,78
773,742	78,16
773,923	2,39
774,105	51,54
774,286	137,56
774,467	-46,76
774,648	-71,34
774,829	92,5
775,01	-75,43
775,191	18,77
775,372	-28,33
775,553	2,39
775,734	16,73
775,915	-30,38
776,096	43,35
776,277	26,96
776,458	-108,2
776,639	10,58
776,82	117,08
777,001	-9,9
777,182	-59,05
777,363	151,89
777,544	18,77
777,725	141,65
777,906	20,82
778,086	63,83
778,267	61,78
778,448	35,16
778,629	-5,8
778,809	133,46
778,99	4,44
779,171	-28,33
779,352	-5,8
779,532	31,06
779,713	6,49
779,894	49,49
780,074	160,08
780,255	61,78
780,435	31,06
780,616	86,36
780,797	80,21
780,977	-34,47
781,158	26,96
781,338	41,3
781,519	18,77
781,699	162,13
781,88	18,77
782,06	6,49
782,241	-11,95
782,421	-71,34
782,601	108,88
782,782	43,35
782,962	0,34
783,142	-28,33
783,323	20,82
783,503	-3,75
783,683	6,49
783,864	2,39
784,044	108,88
784,224	125,27
784,404	-1,71
784,585	2,39
784,765	20,82
784,945	129,36
785,125	2,39
785,305	0,34
785,485	90,45
785,666	63,83
785,846	-42,67
786,026	39,25
786,206	-61,1
786,386	-30,38
786,566	35,16
786,746	-85,67
786,926	14,68
787,106	22,87
787,286	12,63
787,466	37,2
787,646	53,59
787,826	53,59
788,006	121,17
788,185	14,68
788,365	-69,29
788,545	162,13
788,725	-1,71
788,905	78,16
789,085	63,83
789,264	-3,75
789,444	51,54
789,624	43,35
789,804	-5,8
789,983	59,73
790,163	29,01
790,343	-36,52
790,522	-26,28
790,702	-22,19
790,882	18,77
791,061	94,55
791,241	-36,52
791,42	-134,82
791,6	137,56
791,78	39,25
791,959	-83,63
792,139	-36,52
792,318	22,87
792,498	35,16
792,677	104,79
792,856	10,58
793,036	2,39
793,215	55,64
793,395	129,36
793,574	92,5
793,753	-9,9
793,933	129,36
794,112	162,13
794,291	59,73
794,471	170,32
794,65	86,36
794,829	39,25
795,008	121,17
795,188	141,65
795,367	108,88
795,546	47,44
795,725	45,4
795,904	45,4
796,084	125,27
796,263	92,5
796,442	160,08
796,621	84,31
796,8	67,92
796,979	82,26
797,158	4,44
797,337	-3,75
797,516	127,32
797,695	112,98
797,874	78,16
798,053	51,54
798,232	14,68
798,411	29,01
798,59	39,25
798,769	10,58
798,947	133,46
799,126	43,35
799,305	22,87
799,484	-36,52
799,663	4,44
799,842	16,73
800,02	-18,09
800,199	10,58
800,378	43,35
800,557	-20,14
800,735	31,06
800,914	-46,76
801,093	-3,75
801,271	37,2
801,45	12,63
801,628	72,02
801,807	-13,99
801,986	100,69
802,164	45,4
802,343	-46,76
802,521	-71,34
802,7	76,12
802,878	102,74
803,057	-36,52
803,235	12,63
803,414	49,49
803,592	76,12
803,771	-20,14
803,949	47,44
804,127	-13,99
804,306	84,31
804,484	0,34
804,662	61,78
804,841	-46,76
805,019	72,02
805,197	45,4
805,375	-38,57
805,554	-13,99
805,732	-54,95
805,91	6,49
806,088	10,58
806,266	-95,91
806,445	-36,52
806,623	43,35
806,801	108,88
806,979	84,31
807,157	100,69
807,335	-11,95
807,513	26,96
807,691	67,92
807,869	-34,47
808,047	4,44
808,225	-50,86
808,403	96,6
808,581	-24,23
808,759	178,51
808,937	37,2
809,115	137,56
809,293	119,12
809,471	43,35
809,649	106,84
809,826	22,87
810,004	67,92
810,182	-102,06
810,36	45,4
810,538	137,56
810,715	45,4
810,893	-46,76
811,071	10,58
811,248	104,79
811,426	-34,47
811,604	139,6
811,781	143,7
811,959	108,88
812,137	16,73
812,314	-50,86
812,492	20,82
812,669	123,22
812,847	12,63
813,024	51,54
813,202	158,03
813,379	92,5
813,557	55,64
813,734	174,42
813,912	117,08
814,089	67,92
814,267	119,12
814,444	110,93
814,621	78,16
814,799	-20,14
814,976	153,94
815,153	43,35
815,331	63,83
815,508	31,06
815,685	45,4
815,862	67,92
816,04	43,35
816,217	43,35
816,394	51,54
816,571	51,54
816,748	182,61
816,926	149,84
817,103	340,3
817,28	117,08
817,457	-38,57
817,634	125,27
817,811	-22,19
817,988	-9,9
818,165	-48,81
818,342	29,01
818,519	18,77
818,696	12,63
818,873	-28,33
819,05	117,08
819,227	-28,33
819,404	45,4
819,581	22,87
819,758	-38,57
819,934	20,82
820,111	-46,76
820,288	20,82
820,465	4,44
820,642	-38,57
820,818	26,96
820,995	31,06
821,172	112,98
821,349	63,83
821,525	-30,38
821,702	67,92
821,879	26,96
822,055	-44,71
822,232	-22,19
822,409	47,44
822,585	65,88
822,762	51,54
822,938	55,64
823,115	26,96
823,291	76,12
823,468	86,36
823,644	55,64
823,821	119,12
823,997	-77,48
824,174	4,44
824,35	18,77
824,527	76,12
824,703	29,01
824,879	10,58
825,056	14,68
825,232	57,68
825,408	26,96
825,585	86,36
825,761	37,2
825,937	61,78
826,113	80,21
826,29	100,69
826,466	45,4
826,642	469,33
826,818	45,4
826,994	33,11
827,17	63,83
827,347	10,58
827,523	-11,95
827,699	78,16
827,875	22,87
828,051	53,59
828,227	18,77
828,403	86,36
828,579	112,98
828,755	96,6
828,931	-30,38
829,107	59,73
829,283	158,03
829,459	26,96
829,635	96,6
829,811	80,21
829,986	186,71
830,162	61,78
830,338	141,65
830,514	-22,19
830,69	84,31
830,865	55,64
831,041	88,4
831,217	67,92
831,393	-9,9
831,568	24,92
831,744	45,4
831,92	69,97
832,095	45,4
832,271	12,63
832,447	61,78
832,622	168,27
832,798	96,6
832,973	-7,85
833,149	182,61
833,325	16,73
833,5	76,12
833,676	47,44
833,851	117,08
834,027	-28,33
834,202	-18,09
834,377	51,54
834,553	31,06
834,728	72,02
834,904	-65,19
835,079	6,49
835,254	29,01
835,43	35,16
835,605	-5,8
835,78	51,54
835,955	-3,75
836,131	55,64
836,306	-5,8
836,481	-52,91
836,656	22,87
836,832	258,39
837,007	186,71
837,182	147,8
837,357	325,97
837,532	342,35
837,707	411,98
837,882	442,7
838,057	424,27
838,232	461,13
838,407	260,43
838,582	248,15
838,757	262,48
838,932	182,61
839,107	194,9
839,282	164,18
839,457	250,19
839,632	252,24
839,807	227,67
839,982	100,69
840,157	151,89
840,332	231,76
840,506	272,72
840,681	172,37
840,856	194,9
841,031	112,98
841,205	143,7
841,38	213,33
841,555	215,38
841,73	53,59
841,904	45,4
842,079	127,32
842,254	51,54
842,428	100,69
842,603	2,39
842,777	-65,19
842,952	149,84
843,126	-1,71
843,301	37,2
843,476	18,77
843,65	-3,75
843,825	55,64
843,999	51,54
844,173	-22,19
844,348	51,54
844,522	92,5
844,697	51,54
844,871	39,25
845,045	125,27
845,22	100,69
845,394	94,55
845,568	-18,09
845,743	90,45
845,917	37,2
846,091	-16,04
846,265	-22,19
846,44	102,74
846,614	55,64
846,788	-38,57
846,962	18,77
847,136	22,87
847,31	45,4
847,485	78,16
847,659	-28,33
847,833	37,2
848,007	69,97
848,181	55,64
848,355	43,35
848,529	129,36
848,703	76,12
848,877	47,44
849,051	133,46
849,225	239,95
849,399	139,6
849,573	117,08
849,746	172,37
849,92	254,29
850,094	178,51
850,268	104,79
850,442	211,28
850,616	149,84
850,789	92,5
850,963	72,02
851,137	24,92
851,311	242
851,484	180,56
851,658	110,93
851,832	39,25
852,005	98,64
852,179	24,92
852,352	20,82
852,526	72,02
852,7	207,19
852,873	29,01
853,047	160,08
853,22	29,01
853,394	121,17
853,567	149,84
853,741	26,96
853,914	10,58
854,088	-54,95
854,261	-5,8
854,434	-50,86
854,608	-30,38
854,781	-28,33
854,955	37,2
855,128	45,4
855,301	-22,19
855,475	43,35
855,648	-36,52
855,821	6,49
855,994	65,88
856,168	43,35
856,341	102,74
856,514	18,77
856,687	-61,1
856,86	127,32
857,033	137,56
857,207	78,16
857,38	22,87
857,553	143,7
857,726	10,58
857,899	61,78
858,072	37,2
858,245	26,96
858,418	51,54
858,591	96,6
858,764	51,54
858,937	160,08
859,11	112,98
859,283	84,31
859,455	94,55
859,628	53,59
859,801	166,23
859,974	178,51
860,147	100,69
860,32	84,31
860,492	119,12
860,665	-38,57
860,838	80,21
861,011	35,16
861,183	121,17
861,356	125,27
861,529	147,8
861,701	31,06
861,874	55,64
862,047	84,31
862,219	47,44
862,392	94,55
862,564	51,54
862,737	72,02
862,909	186,71
863,082	84,31
863,254	145,75
863,427	96,6
863,599	115,03
863,772	104,79
863,944	53,59
864,117	35,16
864,289	137,56
864,461	18,77
864,634	145,75
864,806	153,94
864,978	88,4
865,151	151,89
865,323	244,05
865,495	223,57
865,667	246,1
865,84	293,2
866,012	176,47
866,184	190,8
866,356	129,36
866,528	162,13
866,7	117,08
866,873	67,92
867,045	123,22
867,217	84,31
867,389	117,08
867,561	182,61
867,733	86,36
867,905	112,98
868,077	153,94
868,249	160,08
868,421	88,4
868,593	141,65
868,765	231,76
868,936	90,45
869,108	176,47
869,28	174,42
869,452	112,98
869,624	-46,76
869,796	92,5
869,968	59,73
870,139	194,9
870,311	37,2
870,483	137,56
870,654	-7,85
870,826	76,12
870,998	-59,05
871,17	0,34
871,341	8,53
871,513	20,82
871,684	-11,95
871,856	18,77
872,028	110,93
872,199	-69,29
872,371	-79,53
872,542	-24,23
872,714	26,96
872,885	45,4
873,057	-22,19
873,228	53,59
873,4	4,44
873,571	31,06
873,742	-38,57
873,914	115,03
874,085	8,53
874,256	47,44
874,428	-63,15
874,599	-79,53
874,77	59,73
874,942	-28,33
875,113	37,2
875,284	18,77
875,455	-20,14
875,626	37,2
875,798	-71,34
875,969	2,39
876,14	51,54
876,311	127,32
876,482	92,5
876,653	78,16
876,824	88,4
876,995	59,73
877,166	129,36
877,337	33,11
877,508	-44,71
877,679	37,2
877,85	88,4
878,021	33,11
878,192	129,36
878,363	102,74
878,534	94,55
878,705	102,74
878,876	100,69
879,047	231,76
879,217	39,25
879,388	100,69
879,559	104,79
879,73	141,65
879,9	135,51
880,071	102,74
880,242	10,58
880,413	80,21
880,583	102,74
880,754	186,71
880,924	117,08
881,095	12,63
881,266	92,5
881,436	121,17
881,607	207,19
881,777	102,74
881,948	61,78
882,118	59,73
882,289	-22,19
882,459	74,07
882,63	20,82
882,8	35,16
882,971	78,16
883,141	-1,71
883,311	69,97
883,482	129,36
883,652	-40,62
883,822	22,87
883,993	-30,38
884,163	26,96
884,333	2,39
884,504	43,35
884,674	59,73
884,844	-52,91
885,014	-22,19
885,184	-34,47
885,355	14,68
885,525	45,4
885,695	76,12
885,865	164,18
886,035	158,03
886,205	51,54
886,375	69,97
886,545	45,4
886,715	-30,38
886,885	82,26
887,055	100,69
887,225	10,58
887,395	2,39
887,565	135,51
887,735	102,74
887,905	108,88
888,075	10,58
888,244	2,39
888,414	35,16
888,584	133,46
888,754	67,92
888,924	-1,71
889,093	94,55
889,263	-22,19
889,433	20,82
889,603	47,44
889,772	43,35
889,942	80,21
890,111	76,12
890,281	18,77
890,451	-26,28
890,62	100,69
890,79	63,83
890,959	-24,23
891,129	-30,38
891,298	61,78
891,468	35,16
891,637	2,39
891,807	39,25
891,976	35,16
892,146	-36,52
892,315	108,88
892,485	133,46
892,654	-75,43
892,823	20,82
892,993	12,63
893,162	61,78
893,331	43,35
893,501	26,96
893,67	4,44
893,839	39,25
894,008	84,31
894,177	12,63
894,347	49,49
894,516	78,16
894,685	45,4
894,854	-28,33
895,023	51,54
895,192	26,96
