Data from neon_USB4F104161__6__11-46-32-260.txt Node

Date: Tue Apr 14 11:46:32 EDT 2026
User: LaboPhy
Spectrometer: USB4F10416
Trigger mode: 4
Integration Time (sec): 1,000000E-1
Scans to average: 1
Electric dark correction enabled: true
Nonlinearity correction enabled: false
Boxcar width: 0
XAxis mode: Wavelengths
Number of Pixels in Spectrum: 3648
>>>>>Begin Spectral Data<<<<<
177,847	-220,67
178,066	-220,67
178,284	-220,67
178,502	-183,81
178,72	-189,95
178,939	53,76
179,157	64
179,375	-75,26
179,593	39,42
179,812	-11,78
180,03	-19,97
180,248	20,99
180,466	-52,74
180,685	49,66
180,903	-50,69
181,121	-60,93
181,339	43,52
181,557	6,66
181,775	-126,46
181,994	4,61
182,212	-17,92
182,43	-75,26
182,648	-19,97
182,866	70,14
183,084	82,43
183,302	-44,54
183,52	20,99
183,739	43,52
183,957	12,8
184,175	-32,26
184,393	20,99
184,611	41,47
184,829	76,29
185,047	-114,17
185,265	35,33
185,483	45,57
185,701	70,14
185,919	31,23
186,137	74,24
186,355	-9,73
186,573	33,28
186,791	176,64
187,009	49,66
187,227	64
187,445	4,61
187,663	-32,26
187,881	68,09
188,098	61,95
188,316	51,71
188,534	86,53
188,752	78,33
188,97	-36,35
189,188	4,61
189,406	70,14
189,624	78,33
189,841	45,57
190,059	-24,06
190,277	39,42
190,495	-5,63
190,713	127,49
190,931	125,44
191,148	-15,87
191,366	94,72
191,584	70,14
191,802	37,38
192,019	39,42
192,237	10,75
192,455	4,61
192,673	37,38
192,89	20,99
193,108	23,04
193,326	-97,79
193,543	104,96
193,761	8,7
193,979	-3,58
194,196	-58,88
194,414	74,24
194,632	39,42
194,849	-50,69
195,067	-28,16
195,285	-11,78
195,502	-65,02
195,72	39,42
195,937	47,62
196,155	45,57
196,373	90,62
196,59	-34,3
196,808	14,85
197,025	94,72
197,243	213,5
197,46	64
197,678	37,38
197,895	135,68
198,113	8,7
198,33	4,61
198,548	37,38
198,765	2,56
198,983	51,71
199,2	-54,78
199,418	31,23
199,635	4,61
199,853	53,76
200,07	6,66
200,288	90,62
200,505	-52,74
200,722	12,8
200,94	86,53
201,157	47,62
201,375	117,25
201,592	-71,17
201,809	64
202,027	104,96
202,244	117,25
202,461	-9,73
202,679	94,72
202,896	37,38
203,113	-67,07
203,331	45,57
203,548	55,81
203,765	35,33
203,982	37,38
204,2	45,57
204,417	-85,5
204,634	203,26
204,851	70,14
205,069	86,53
205,286	37,38
205,503	76,29
205,72	8,7
205,937	88,57
206,155	55,81
206,372	111,1
206,589	-36,35
206,806	53,76
207,023	61,95
207,24	43,52
207,458	-36,35
207,675	-1,54
207,892	27,14
208,109	-42,5
208,326	37,38
208,543	-9,73
208,76	61,95
208,977	145,92
209,194	104,96
209,411	20,99
209,628	61,95
209,845	-19,97
210,062	-52,74
210,279	-69,12
210,496	20,99
210,713	20,99
210,93	-40,45
211,147	143,87
211,364	8,7
211,581	55,81
211,798	80,38
212,015	-75,26
212,232	20,99
212,449	160,25
212,666	29,18
212,883	61,95
213,1	-67,07
213,317	12,8
213,533	20,99
213,75	-24,06
213,967	-17,92
214,184	-97,79
214,401	-1,54
214,618	-30,21
214,835	-28,16
215,051	45,57
215,268	78,33
215,485	20,99
215,702	0,51
215,919	39,42
216,135	164,35
216,352	43,52
216,569	45,57
216,786	6,66
217,002	70,14
217,219	-30,21
217,436	14,85
217,652	-44,54
217,869	6,66
218,086	137,73
218,302	45,57
218,519	143,87
218,736	20,99
218,952	-48,64
219,169	-1,54
219,386	-3,58
219,602	-26,11
219,819	70,14
220,036	12,8
220,252	88,57
220,469	-19,97
220,685	37,38
220,902	12,8
221,118	8,7
221,335	-56,83
221,552	-11,78
221,768	119,29
221,985	-1,54
222,201	-19,97
222,418	66,05
222,634	-5,63
222,851	82,43
223,067	20,99
223,284	-36,35
223,5	20,99
223,716	37,38
223,933	37,38
224,149	31,23
224,366	102,91
224,582	-9,73
224,799	39,42
225,015	-42,5
225,231	47,62
225,448	27,14
225,664	20,99
225,88	-15,87
226,097	-77,31
226,313	-5,63
226,529	-9,73
226,746	47,62
226,962	78,33
227,178	129,53
227,395	-17,92
227,611	-1,54
227,827	47,62
228,044	55,81
228,26	78,33
228,476	55,81
228,692	143,87
228,909	78,33
229,125	80,38
229,341	-87,55
229,557	-60,93
229,773	14,85
229,99	88,57
230,206	-15,87
230,422	74,24
230,638	-91,65
230,854	-13,82
231,07	-15,87
231,286	88,57
231,503	61,95
231,719	-30,21
231,935	8,7
232,151	-5,63
232,367	102,91
232,583	64
232,799	133,63
233,015	31,23
233,231	-44,54
233,447	25,09
233,663	-1,54
233,879	39,42
234,095	-15,87
234,311	49,66
234,527	45,57
234,743	20,99
234,959	8,7
235,175	41,47
235,391	-48,64
235,607	61,95
235,823	-22,02
236,039	4,61
236,255	37,38
236,471	37,38
236,687	41,47
236,903	20,99
237,118	0,51
237,334	-65,02
237,55	45,57
237,766	-24,06
237,982	72,19
238,198	100,86
238,413	12,8
238,629	23,04
238,845	10,75
239,061	-34,3
239,277	-77,31
239,492	27,14
239,708	-11,78
239,924	-5,63
240,14	-73,21
240,355	168,45
240,571	-5,63
240,787	29,18
241,003	53,76
241,218	23,04
241,434	31,23
241,65	23,04
241,865	-44,54
242,081	74,24
242,297	23,04
242,512	-22,02
242,728	55,81
242,944	-19,97
243,159	8,7
243,375	16,9
243,59	20,99
243,806	37,38
244,022	94,72
244,237	-22,02
244,453	8,7
244,668	37,38
244,884	176,64
245,099	-11,78
245,315	78,33
245,53	39,42
245,746	86,53
245,961	27,14
246,177	57,86
246,392	113,15
246,608	47,62
246,823	-30,21
247,039	-7,68
247,254	45,57
247,47	119,29
247,685	-3,58
247,9	0,51
248,116	0,51
248,331	33,28
248,547	-11,78
248,762	20,99
248,977	86,53
249,193	-44,54
249,408	139,77
249,623	109,05
249,839	4,61
250,054	-52,74
250,269	33,28
250,485	43,52
250,7	39,42
250,915	55,81
251,13	25,09
251,346	33,28
251,561	29,18
251,776	66,05
251,991	-65,02
252,207	143,87
252,422	53,76
252,637	55,81
252,852	66,05
253,067	-34,3
253,283	12,8
253,498	51,71
253,713	-36,35
253,928	-67,07
254,143	29,18
254,358	90,62
254,573	-19,97
254,788	-58,88
255,004	20,99
255,219	-134,65
255,434	-60,93
255,649	55,81
255,864	29,18
256,079	61,95
256,294	70,14
256,509	4,61
256,724	20,99
256,939	-52,74
257,154	45,57
257,369	94,72
257,584	121,34
257,799	-1,54
258,014	-34,3
258,229	41,47
258,444	47,62
258,659	23,04
258,874	-1,54
259,089	59,9
259,304	37,38
259,518	29,18
259,733	-3,58
259,948	-17,92
260,163	70,14
260,378	80,38
260,593	33,28
260,808	37,38
261,022	-11,78
261,237	66,05
261,452	29,18
261,667	-32,26
261,882	68,09
262,096	109,05
262,311	115,2
262,526	-36,35
262,741	45,57
262,955	-42,5
263,17	172,54
263,385	-60,93
263,6	4,61
263,814	-19,97
264,029	-54,78
264,244	74,24
264,458	8,7
264,673	53,76
264,888	39,42
265,102	74,24
265,317	-11,78
265,532	12,8
265,746	84,48
265,961	70,14
266,175	41,47
266,39	78,33
266,605	14,85
266,819	29,18
267,034	68,09
267,248	-17,92
267,463	53,76
267,677	-48,64
267,892	49,66
268,106	-15,87
268,321	45,57
268,535	88,57
268,75	102,91
268,964	-9,73
269,179	25,09
269,393	86,53
269,608	20,99
269,822	-101,89
270,036	-58,88
270,251	-60,93
270,465	-17,92
270,68	8,7
270,894	78,33
271,108	162,3
271,323	4,61
271,537	31,23
271,752	53,76
271,966	35,33
272,18	-99,84
272,394	-19,97
272,609	-19,97
272,823	23,04
273,037	-13,82
273,252	-44,54
273,466	29,18
273,68	111,1
273,894	-3,58
274,109	4,61
274,323	31,23
274,537	-11,78
274,751	-3,58
274,966	23,04
275,18	25,09
275,394	61,95
275,608	12,8
275,822	-60,93
276,036	-65,02
276,25	47,62
276,465	4,61
276,679	-5,63
276,893	-50,69
277,107	160,25
277,321	-9,73
277,535	80,38
277,749	107,01
277,963	111,1
278,177	25,09
278,391	43,52
278,605	-11,78
278,819	23,04
279,033	-15,87
279,247	-3,58
279,461	-7,68
279,675	20,99
279,889	25,09
280,103	-17,92
280,317	129,53
280,531	-46,59
280,745	-9,73
280,959	20,99
281,173	-42,5
281,387	53,76
281,601	111,1
281,815	64
282,029	23,04
282,242	86,53
282,456	0,51
282,67	45,57
282,884	33,28
283,098	-11,78
283,312	12,8
283,525	20,99
283,739	80,38
283,953	6,66
284,167	70,14
284,381	-60,93
284,594	14,85
284,808	57,86
285,022	-26,11
285,235	18,94
285,449	31,23
285,663	98,81
285,877	-52,74
286,09	72,19
286,304	49,66
286,518	78,33
286,731	-110,08
286,945	53,76
287,159	-148,99
287,372	45,57
287,586	45,57
287,799	4,61
288,013	45,57
288,227	-15,87
288,44	217,6
288,654	57,86
288,867	23,04
289,081	33,28
289,294	-17,92
289,508	115,2
289,721	-28,16
289,935	-3,58
290,148	76,29
290,362	61,95
290,575	55,81
290,789	12,8
291,002	-36,35
291,216	80,38
291,429	164,35
291,643	57,86
291,856	29,18
292,069	6,66
292,283	16,9
292,496	-1,54
292,71	47,62
292,923	29,18
293,136	-38,4
293,35	-60,93
293,563	-32,26
293,776	61,95
293,99	64
294,203	45,57
294,416	-38,4
294,63	-3,58
294,843	86,53
295,056	74,24
295,269	-11,78
295,483	-42,5
295,696	86,53
295,909	-15,87
296,122	14,85
296,335	61,95
296,549	27,14
296,762	-24,06
296,975	35,33
297,188	66,05
297,401	37,38
297,615	41,47
297,828	53,76
298,041	135,68
298,254	-85,5
298,467	39,42
298,68	-1,54
298,893	-17,92
299,106	-60,93
299,319	20,99
299,532	102,91
299,745	43,52
299,958	-40,45
300,171	-46,59
300,384	-5,63
300,598	-69,12
300,81	61,95
301,023	-17,92
301,236	-34,3
301,449	104,96
301,662	-69,12
301,875	-56,83
302,088	-19,97
302,301	49,66
302,514	-73,21
302,727	64
302,94	-26,11
303,153	27,14
303,366	-32,26
303,579	29,18
303,791	37,38
304,004	-52,74
304,217	47,62
304,43	39,42
304,643	-22,02
304,855	20,99
305,068	86,53
305,281	20,99
305,494	12,8
305,707	16,9
305,919	33,28
306,132	29,18
306,345	4,61
306,558	33,28
306,77	-9,73
306,983	-56,83
307,196	55,81
307,408	-13,82
307,621	45,57
307,834	23,04
308,046	-1,54
308,259	-44,54
308,472	55,81
308,684	102,91
308,897	-50,69
309,109	-58,88
309,322	-65,02
309,535	102,91
309,747	111,1
309,96	41,47
310,172	107,01
310,385	47,62
310,597	-52,74
310,81	16,9
311,022	-22,02
311,235	-77,31
311,447	-44,54
311,66	31,23
311,872	25,09
312,085	-1,54
312,297	-36,35
312,51	-46,59
312,722	37,38
312,934	20,99
313,147	-93,69
313,359	-60,93
313,572	-44,54
313,784	-40,45
313,996	94,72
314,209	152,06
314,421	-24,06
314,633	-48,64
314,846	-11,78
315,058	29,18
315,27	12,8
315,483	-62,98
315,695	-3,58
315,907	-9,73
316,119	-26,11
316,332	-73,21
316,544	53,76
316,756	72,19
316,968	45,57
317,181	-52,74
317,393	-22,02
317,605	80,38
317,817	55,81
318,029	57,86
318,241	-62,98
318,454	39,42
318,666	70,14
318,878	-67,07
319,09	-17,92
319,302	43,52
319,514	104,96
319,726	49,66
319,938	25,09
320,15	102,91
320,362	23,04
320,574	-93,69
320,786	20,99
320,999	12,8
321,211	127,49
321,423	39,42
321,635	-9,73
321,847	-1,54
322,058	-19,97
322,27	20,99
322,482	78,33
322,694	43,52
322,906	-3,58
323,118	45,57
323,33	33,28
323,542	4,61
323,754	14,85
323,966	-73,21
324,178	45,57
324,389	25,09
324,601	78,33
324,813	-19,97
325,025	61,95
325,237	-44,54
325,449	6,66
325,66	-11,78
325,872	31,23
326,084	96,77
326,296	-11,78
326,507	61,95
326,719	-30,21
326,931	-75,26
327,143	88,57
327,354	201,21
327,566	45,57
327,778	131,58
327,989	4,61
328,201	-3,58
328,413	37,38
328,624	145,92
328,836	6,66
329,048	-77,31
329,259	33,28
329,471	-9,73
329,682	-28,16
329,894	49,66
330,106	6,66
330,317	33,28
330,529	2,56
330,74	-13,82
330,952	2,56
331,163	-7,68
331,375	49,66
331,586	-11,78
331,798	61,95
332,009	23,04
332,221	14,85
332,432	49,66
332,644	55,81
332,855	23,04
333,067	2,56
333,278	23,04
333,489	92,67
333,701	-9,73
333,912	-17,92
334,124	39,42
334,335	-40,45
334,546	-56,83
334,758	-83,45
334,969	246,27
335,18	98,81
335,392	29,18
335,603	47,62
335,814	8,7
336,025	-28,16
336,237	-67,07
336,448	-32,26
336,659	53,76
336,87	90,62
337,082	209,4
337,293	43,52
337,504	123,39
337,715	61,95
337,926	0,51
338,138	53,76
338,349	61,95
338,56	61,95
338,771	23,04
338,982	94,72
339,193	29,18
339,404	80,38
339,616	0,51
339,827	43,52
340,038	20,99
340,249	-13,82
340,46	47,62
340,671	-5,63
340,882	176,64
341,093	61,95
341,304	51,71
341,515	47,62
341,726	49,66
341,937	123,39
342,148	113,15
342,359	-69,12
342,57	37,38
342,781	227,84
342,992	41,47
343,203	127,49
343,414	131,58
343,624	-36,35
343,835	96,77
344,046	41,47
344,257	168,45
344,468	102,91
344,679	113,15
344,89	162,3
345,1	94,72
345,311	145,92
345,522	264,7
345,733	197,12
345,944	160,25
346,154	160,25
346,365	291,32
346,576	119,29
346,787	86,53
346,997	188,93
347,208	150,01
347,419	111,1
347,629	260,6
347,84	225,79
348,051	78,33
348,261	90,62
348,472	29,18
348,683	66,05
348,893	66,05
349,104	-58,88
349,315	-19,97
349,525	102,91
349,736	37,38
349,946	94,72
350,157	193,02
350,368	178,69
350,578	88,57
350,789	217,6
350,999	119,29
351,21	266,75
351,42	135,68
351,631	291,32
351,841	156,16
352,052	334,33
352,262	352,76
352,472	258,56
352,683	281,08
352,893	209,4
353,104	221,69
353,314	180,73
353,525	492,02
353,735	96,77
353,945	88,57
354,156	86,53
354,366	115,2
354,576	88,57
354,787	61,95
354,997	-11,78
355,207	-34,3
355,418	-30,21
355,628	-77,31
355,838	-11,78
356,048	29,18
356,259	53,76
356,469	27,14
356,679	61,95
356,889	53,76
357,1	-24,06
357,31	20,99
357,52	16,9
357,73	-11,78
357,94	31,23
358,15	16,9
358,361	61,95
358,571	94,72
358,781	160,25
358,991	16,9
359,201	98,81
359,411	102,91
359,621	102,91
359,831	205,31
360,041	86,53
360,251	160,25
360,461	70,14
360,672	119,29
360,882	29,18
361,092	-1,54
361,302	78,33
361,512	78,33
361,721	8,7
361,931	4,61
362,141	39,42
362,351	31,23
362,561	135,68
362,771	47,62
362,981	80,38
363,191	-28,16
363,401	57,86
363,611	29,18
363,821	-83,45
364,03	-56,83
364,24	0,51
364,45	61,95
364,66	274,94
364,87	-17,92
365,08	111,1
365,289	61,95
365,499	47,62
365,709	111,1
365,919	-26,11
366,128	-85,5
366,338	92,67
366,548	8,7
366,758	107,01
366,967	-17,92
367,177	45,57
367,387	-36,35
367,596	-17,92
367,806	72,19
368,016	-44,54
368,225	109,05
368,435	88,57
368,644	80,38
368,854	-50,69
369,064	39,42
369,273	66,05
369,483	-38,4
369,692	-73,21
369,902	-19,97
370,111	88,57
370,321	20,99
370,53	8,7
370,74	-24,06
370,949	66,05
371,159	41,47
371,368	-32,26
371,578	90,62
371,787	78,33
371,997	102,91
372,206	4,61
372,416	70,14
372,625	-15,87
372,834	61,95
373,044	-28,16
373,253	127,49
373,462	72,19
373,672	-17,92
373,881	12,8
374,09	27,14
374,3	-5,63
374,509	-19,97
374,718	-32,26
374,928	72,19
375,137	27,14
375,346	-34,3
375,555	135,68
375,765	4,61
375,974	41,47
376,183	90,62
376,392	61,95
376,601	70,14
376,811	-42,5
377,02	94,72
377,229	90,62
377,438	109,05
377,647	-34,3
377,856	-15,87
378,065	49,66
378,275	14,85
378,484	33,28
378,693	33,28
378,902	16,9
379,111	25,09
379,32	37,38
379,529	-11,78
379,738	8,7
379,947	-26,11
380,156	61,95
380,365	70,14
380,574	49,66
380,783	-11,78
380,992	-60,93
381,201	6,66
381,41	-77,31
381,619	-15,87
381,828	-50,69
382,037	-54,78
382,245	107,01
382,454	127,49
382,663	-24,06
382,872	-24,06
383,081	-3,58
383,29	152,06
383,499	-67,07
383,707	12,8
383,916	45,57
384,125	-11,78
384,334	-11,78
384,542	86,53
384,751	53,76
384,96	61,95
385,169	-93,69
385,377	53,76
385,586	-36,35
385,795	86,53
386,004	80,38
386,212	-19,97
386,421	-28,16
386,63	57,86
386,838	98,81
387,047	72,19
387,255	41,47
387,464	72,19
387,673	45,57
387,881	78,33
388,09	107,01
388,298	78,33
388,507	61,95
388,715	41,47
388,924	86,53
389,133	-42,5
389,341	-75,26
389,55	53,76
389,758	45,57
389,967	20,99
390,175	47,62
390,383	61,95
390,592	111,1
390,8	14,85
391,009	-5,63
391,217	70,14
391,426	145,92
391,634	-48,64
391,842	-62,98
392,051	-65,02
392,259	20,99
392,467	78,33
392,676	-60,93
392,884	10,75
393,092	4,61
393,301	25,09
393,509	102,91
393,717	121,34
393,925	-9,73
394,134	-36,35
394,342	33,28
394,55	0,51
394,758	0,51
394,967	10,75
395,175	-79,36
395,383	-17,92
395,591	31,23
395,799	14,85
396,007	-67,07
396,216	139,77
396,424	45,57
396,632	104,96
396,84	-75,26
397,048	16,9
397,256	92,67
397,464	37,38
397,672	57,86
397,88	-28,16
398,088	-44,54
398,296	20,99
398,504	-19,97
398,712	-5,63
398,92	57,86
399,128	-28,16
399,336	74,24
399,544	6,66
399,752	-3,58
399,96	35,33
400,168	29,18
400,376	45,57
400,584	27,14
400,792	66,05
401	49,66
401,207	-42,5
401,415	-36,35
401,623	25,09
401,831	-36,35
402,039	131,58
402,247	-34,3
402,454	86,53
402,662	37,38
402,87	55,81
403,078	117,25
403,285	96,77
403,493	4,61
403,701	-15,87
403,909	-19,97
404,116	94,72
404,324	41,47
404,532	61,95
404,739	-38,4
404,947	0,51
405,155	102,91
405,362	86,53
405,57	64
405,778	-85,5
405,985	78,33
406,193	29,18
406,4	-105,98
406,608	129,53
406,816	-32,26
407,023	55,81
407,231	-5,63
407,438	37,38
407,646	14,85
407,853	-46,59
408,061	-50,69
408,268	78,33
408,476	-73,21
408,683	49,66
408,89	20,99
409,098	84,48
409,305	16,9
409,513	64
409,72	47,62
409,927	39,42
410,135	98,81
410,342	-11,78
410,55	55,81
410,757	45,57
410,964	0,51
411,172	47,62
411,379	8,7
411,586	-7,68
411,793	-9,73
412,001	4,61
412,208	29,18
412,415	37,38
412,622	20,99
412,83	20,99
413,037	78,33
413,244	-110,08
413,451	39,42
413,658	86,53
413,866	61,95
414,073	-26,11
414,28	78,33
414,487	-60,93
414,694	104,96
414,901	37,38
415,108	45,57
415,315	-19,97
415,522	80,38
415,73	23,04
415,937	-11,78
416,144	-65,02
416,351	-36,35
416,558	-11,78
416,765	98,81
416,972	-9,73
417,179	57,86
417,386	12,8
417,593	20,99
417,8	-48,64
418,006	94,72
418,213	20,99
418,42	23,04
418,627	61,95
418,834	-85,5
419,041	12,8
419,248	0,51
419,455	55,81
419,661	47,62
419,868	-17,92
420,075	37,38
420,282	-52,74
420,489	-9,73
420,696	20,99
420,902	129,53
421,109	102,91
421,316	61,95
421,523	6,66
421,729	-3,58
421,936	-26,11
422,143	123,39
422,349	0,51
422,556	0,51
422,763	20,99
422,969	33,28
423,176	-44,54
423,383	43,52
423,589	242,17
423,796	86,53
424,002	-44,54
424,209	84,48
424,416	53,76
424,622	-15,87
424,829	-58,88
425,035	-28,16
425,242	12,8
425,448	-11,78
425,655	86,53
425,861	-3,58
426,068	90,62
426,274	111,1
426,481	4,61
426,687	82,43
426,894	-44,54
427,1	4,61
427,306	-69,12
427,513	74,24
427,719	4,61
427,926	25,09
428,132	18,94
428,338	14,85
428,545	61,95
428,751	-56,83
428,957	4,61
429,163	49,66
429,37	107,01
429,576	4,61
429,782	41,47
429,989	47,62
430,195	57,86
430,401	61,95
430,607	2,56
430,813	39,42
431,02	23,04
431,226	23,04
431,432	14,85
431,638	6,66
431,844	12,8
432,05	-42,5
432,257	-13,82
432,463	23,04
432,669	78,33
432,875	8,7
433,081	-52,74
433,287	6,66
433,493	-48,64
433,699	25,09
433,905	47,62
434,111	-83,45
434,317	20,99
434,523	90,62
434,729	61,95
434,935	-77,31
435,141	113,15
435,347	4,61
435,553	29,18
435,759	-69,12
435,965	-56,83
436,171	31,23
436,377	86,53
436,582	98,81
436,788	-42,5
436,994	61,95
437,2	-60,93
437,406	80,38
437,612	66,05
437,818	47,62
438,023	-116,22
438,229	47,62
438,435	61,95
438,641	-3,58
438,846	-11,78
439,052	-17,92
439,258	119,29
439,464	-26,11
439,669	-19,97
439,875	119,29
440,081	20,99
440,286	-28,16
440,492	-11,78
440,698	-48,64
440,903	-1,54
441,109	113,15
441,314	-58,88
441,52	-15,87
441,726	41,47
441,931	-69,12
442,137	-28,16
442,342	-3,58
442,548	49,66
442,753	107,01
442,959	-36,35
443,164	20,99
443,37	39,42
443,575	49,66
443,781	-28,16
443,986	121,34
444,192	-32,26
444,397	61,95
444,602	-28,16
444,808	45,57
445,013	29,18
445,219	-19,97
445,424	31,23
445,629	29,18
445,835	125,44
446,04	6,66
446,245	-91,65
446,451	-24,06
446,656	-19,97
446,861	-42,5
447,066	76,29
447,272	115,2
447,477	-1,54
447,682	20,99
447,887	-15,87
448,093	6,66
448,298	64
448,503	-58,88
448,708	6,66
448,913	-69,12
449,118	72,19
449,324	57,86
449,529	139,77
449,734	41,47
449,939	-73,21
450,144	20,99
450,349	92,67
450,554	4,61
450,759	37,38
450,964	-15,87
451,169	14,85
451,374	23,04
451,579	-44,54
451,784	-19,97
451,989	10,75
452,194	88,57
452,399	12,8
452,604	-19,97
452,809	59,9
453,014	14,85
453,219	-26,11
453,424	68,09
453,629	39,42
453,833	12,8
454,038	94,72
454,243	72,19
454,448	14,85
454,653	88,57
454,858	-73,21
455,062	-28,16
455,267	0,51
455,472	92,67
455,677	-75,26
455,882	-5,63
456,086	121,34
456,291	74,24
456,496	-9,73
456,7	37,38
456,905	41,47
457,11	47,62
457,314	0,51
457,519	-85,5
457,724	51,71
457,928	-3,58
458,133	90,62
458,338	70,14
458,542	-19,97
458,747	4,61
458,951	-50,69
459,156	74,24
459,36	-60,93
459,565	88,57
459,769	-65,02
459,974	8,7
460,178	-28,16
460,383	-85,5
460,587	14,85
460,792	55,81
460,996	25,09
461,201	12,8
461,405	4,61
461,61	-1,54
461,814	53,76
462,018	64
462,223	0,51
462,427	-11,78
462,631	-15,87
462,836	111,1
463,04	14,85
463,244	137,73
463,449	-91,65
463,653	123,39
463,857	61,95
464,062	127,49
464,266	-13,82
464,47	-3,58
464,674	6,66
464,878	94,72
465,083	-7,68
465,287	57,86
465,491	-3,58
465,695	14,85
465,899	-58,88
466,104	29,18
466,308	82,43
466,512	78,33
466,716	80,38
466,92	-7,68
467,124	29,18
467,328	-1,54
467,532	84,48
467,736	10,75
467,94	88,57
468,144	-1,54
468,348	55,81
468,552	129,53
468,756	45,57
468,96	72,19
469,164	-65,02
469,368	49,66
469,572	-26,11
469,776	76,29
469,98	29,18
470,184	90,62
470,388	143,87
470,591	117,25
470,795	162,3
470,999	164,35
471,203	139,77
471,407	160,25
471,611	100,86
471,814	61,95
472,018	2,56
472,222	127,49
472,426	145,92
472,63	12,8
472,833	109,05
473,037	78,33
473,241	72,19
473,444	45,57
473,648	487,93
473,852	31,23
474,055	12,8
474,259	47,62
474,463	-11,78
474,666	74,24
474,87	78,33
475,074	12,8
475,277	86,53
475,481	104,96
475,684	-15,87
475,888	-11,78
476,091	20,99
476,295	86,53
476,498	-58,88
476,702	39,42
476,905	57,86
477,109	72,19
477,312	-17,92
477,516	37,38
477,719	29,18
477,923	29,18
478,126	23,04
478,329	-3,58
478,533	4,61
478,736	84,48
478,94	86,53
479,143	29,18
479,346	12,8
479,55	57,86
479,753	53,76
479,956	-77,31
480,159	-85,5
480,363	66,05
480,566	57,86
480,769	-19,97
480,972	-34,3
481,176	2,56
481,379	107,01
481,582	109,05
481,785	-60,93
481,988	72,19
482,192	64
482,395	98,81
482,598	94,72
482,801	64
483,004	113,15
483,207	135,68
483,41	61,95
483,613	78,33
483,817	88,57
484,02	53,76
484,223	55,81
484,426	12,8
484,629	-3,58
484,832	127,49
485,035	4,61
485,238	61,95
485,441	-19,97
485,644	0,51
485,846	61,95
486,049	-24,06
486,252	64
486,455	-91,65
486,658	-3,58
486,861	72,19
487,064	170,49
487,267	37,38
487,47	82,43
487,672	111,1
487,875	94,72
488,078	41,47
488,281	90,62
488,484	16,9
488,686	53,76
488,889	8,7
489,092	-1,54
489,295	47,62
489,497	102,91
489,7	45,57
489,903	25,09
490,105	-108,03
490,308	94,72
490,511	-7,68
490,713	31,23
490,916	-26,11
491,118	25,09
491,321	18,94
491,524	-32,26
491,726	6,66
491,929	-87,55
492,131	8,7
492,334	-28,16
492,536	53,76
492,739	16,9
492,941	98,81
493,144	-32,26
493,346	-15,87
493,549	53,76
493,751	66,05
493,954	47,62
494,156	25,09
494,359	53,76
494,561	-30,21
494,763	29,18
494,966	55,81
495,168	113,15
495,37	-60,93
495,573	20,99
495,775	70,14
495,977	49,66
496,18	23,04
496,382	82,43
496,584	64
496,787	102,91
496,989	-7,68
497,191	-13,82
497,393	100,86
497,595	37,38
497,798	29,18
498	29,18
498,202	78,33
498,404	4,61
498,606	-7,68
498,808	123,39
499,011	70,14
499,213	53,76
499,415	-7,68
499,617	88,57
499,819	82,43
500,021	61,95
500,223	-17,92
500,425	49,66
500,627	23,04
500,829	86,53
501,031	37,38
501,233	-7,68
501,435	90,62
501,637	119,29
501,839	123,39
502,041	2,56
502,243	96,77
502,445	49,66
502,647	80,38
502,848	78,33
503,05	111,1
503,252	145,92
503,454	197,12
503,656	221,69
503,858	270,84
504,059	262,65
504,261	203,26
504,463	367,1
504,665	225,79
504,867	209,4
505,068	176,64
505,27	94,72
505,472	113,15
505,673	86,53
505,875	61,95
506,077	20,99
506,278	-69,12
506,48	12,8
506,682	-22,02
506,883	31,23
507,085	45,57
507,287	45,57
507,488	127,49
507,69	94,72
507,891	53,76
508,093	283,13
508,294	107,01
508,496	70,14
508,697	98,81
508,899	121,34
509,1	205,31
509,302	168,45
509,503	94,72
509,705	94,72
509,906	113,15
510,108	-1,54
510,309	111,1
510,51	80,38
510,712	86,53
510,913	139,77
511,114	82,43
511,316	45,57
511,517	111,1
511,718	178,69
511,92	145,92
512,121	266,75
512,322	209,4
512,524	250,36
512,725	203,26
512,926	160,25
513,127	121,34
513,329	164,35
513,53	123,39
513,731	127,49
513,932	94,72
514,133	94,72
514,334	53,76
514,536	176,64
514,737	217,6
514,938	184,83
515,139	115,2
515,34	37,38
515,541	178,69
515,742	131,58
515,943	213,5
516,144	162,3
516,345	143,87
516,546	-15,87
516,747	53,76
516,948	82,43
517,149	20,99
517,35	-15,87
517,551	39,42
517,752	4,61
517,953	41,47
518,154	98,81
518,355	156,16
518,556	82,43
518,756	147,97
518,957	143,87
519,158	209,4
519,359	141,82
519,56	178,69
519,761	250,36
519,961	211,45
520,162	283,13
520,363	86,53
520,564	102,91
520,764	242,17
520,965	119,29
521,166	233,98
521,366	201,21
521,567	137,73
521,768	178,69
521,968	102,91
522,169	72,19
522,37	131,58
522,57	33,28
522,771	53,76
522,972	-40,45
523,172	195,07
523,373	94,72
523,573	119,29
523,774	33,28
523,974	119,29
524,175	27,14
524,375	80,38
524,576	4,61
524,776	6,66
524,977	51,71
525,177	96,77
525,378	-50,69
525,578	117,25
525,778	43,52
525,979	53,76
526,179	-3,58
526,38	-1,54
526,58	-3,58
526,78	-58,88
526,981	152,06
527,181	94,72
527,381	16,9
527,582	102,91
527,782	96,77
527,982	111,1
528,182	4,61
528,383	43,52
528,583	23,04
528,783	-3,58
528,983	25,09
529,183	-13,82
529,384	64
529,584	193,02
529,784	201,21
529,984	119,29
530,184	23,04
530,384	55,81
530,584	76,29
530,784	119,29
530,984	53,76
531,185	193,02
531,385	178,69
531,585	129,53
531,785	61,95
531,985	82,43
532,185	123,39
532,385	104,96
532,585	184,83
532,785	254,46
532,984	324,09
533,184	418,3
533,384	446,97
533,584	512,5
533,784	569,85
533,984	500,22
534,184	545,27
534,384	567,8
534,583	743,92
534,783	561,66
534,983	543,22
535,183	449,02
535,383	309,76
535,582	377,34
535,782	291,32
535,982	338,43
536,182	139,77
536,381	100,86
536,581	72,19
536,781	113,15
536,98	37,38
537,18	98,81
537,38	76,29
537,579	-13,82
537,779	20,99
537,979	37,38
538,178	64
538,378	147,97
538,577	-22,02
538,777	96,77
538,976	168,45
539,176	225,79
539,376	176,64
539,575	283,13
539,774	371,19
539,974	373,24
540,173	545,27
540,373	563,7
540,572	594,42
540,772	584,18
540,971	500,22
541,171	541,18
541,37	332,28
541,569	332,28
541,769	283,13
541,968	154,11
542,167	164,35
542,367	193,02
542,566	-9,73
542,765	43,52
542,965	14,85
543,164	94,72
543,363	-9,73
543,562	-7,68
543,761	127,49
543,961	45,57
544,16	-73,21
544,359	186,88
544,558	139,77
544,757	37,38
544,957	61,95
545,156	88,57
545,355	-1,54
545,554	86,53
545,753	-3,58
545,952	72,19
546,151	111,1
546,35	107,01
546,549	23,04
546,748	72,19
546,947	33,28
547,146	-26,11
547,345	39,42
547,544	-15,87
547,743	-114,17
547,942	29,18
548,141	45,57
548,34	45,57
548,539	45,57
548,738	0,51
548,937	78,33
549,135	86,53
549,334	8,7
549,533	20,99
549,732	61,95
549,931	129,53
550,13	-26,11
550,328	-52,74
550,527	-7,68
550,726	61,95
550,925	-28,16
551,123	96,77
551,322	51,71
551,521	39,42
551,72	-13,82
551,918	25,09
552,117	111,1
552,315	45,57
552,514	39,42
552,713	29,18
552,911	-19,97
553,11	-28,16
553,309	-11,78
553,507	16,9
553,706	-7,68
553,904	53,76
554,103	37,38
554,301	78,33
554,5	12,8
554,698	143,87
554,897	80,38
555,095	29,18
555,294	-11,78
555,492	14,85
555,69	96,77
555,889	16,9
556,087	135,68
556,286	160,25
556,484	131,58
556,682	61,95
556,881	111,1
557,079	84,48
557,277	74,24
557,476	143,87
557,674	61,95
557,872	102,91
558,07	45,57
558,269	33,28
558,467	51,71
558,665	70,14
558,863	-11,78
559,062	70,14
559,26	49,66
559,458	-11,78
559,656	-28,16
559,854	-34,3
560,052	14,85
560,25	23,04
560,449	260,6
560,647	37,38
560,845	-3,58
561,043	80,38
561,241	123,39
561,439	94,72
561,637	45,57
561,835	51,71
562,033	152,06
562,231	-7,68
562,429	-34,3
562,627	72,19
562,825	6,66
563,023	64
563,221	-83,45
563,418	29,18
563,616	37,38
563,814	203,26
564,012	-15,87
564,21	107,01
564,408	72,19
564,605	78,33
564,803	8,7
565,001	274,94
565,199	33,28
565,397	164,35
565,594	217,6
565,792	285,18
565,99	137,73
566,188	233,98
566,385	283,13
566,583	221,69
566,781	170,49
566,978	74,24
567,176	170,49
567,373	184,83
567,571	154,11
567,769	53,76
567,966	80,38
568,164	176,64
568,361	0,51
568,559	152,06
568,756	39,42
568,954	160,25
569,151	162,3
569,349	152,06
569,546	94,72
569,744	233,98
569,941	98,81
570,139	129,53
570,336	131,58
570,534	150,01
570,731	-24,06
570,928	74,24
571,126	184,83
571,323	100,86
571,52	55,81
571,718	125,44
571,915	205,31
572,112	12,8
572,31	55,81
572,507	143,87
572,704	102,91
572,901	102,91
573,099	25,09
573,296	158,21
573,493	49,66
573,69	51,71
573,887	111,1
574,085	233,98
574,282	164,35
574,479	178,69
574,676	262,65
574,873	217,6
575,07	315,9
575,267	291,32
575,464	414,2
575,661	461,3
575,858	506,36
576,055	680,44
576,252	809,46
576,449	780,79
576,646	965,11
576,843	942,58
577,04	1036,78
577,237	1036,78
577,434	866,8
577,631	782,84
577,828	721,4
578,025	508,41
578,222	373,24
578,419	334,33
578,615	291,32
578,812	205,31
579,009	61,95
579,206	94,72
579,403	176,64
579,599	233,98
579,796	137,73
579,993	176,64
580,19	160,25
580,386	283,13
580,583	242,17
580,78	254,46
580,976	326,14
581,173	295,42
581,37	408,06
581,566	424,44
581,763	496,12
581,96	571,9
582,156	567,8
582,353	643,57
582,549	733,68
582,746	610,81
582,942	582,14
583,139	619
583,335	621,05
583,532	1022,45
583,728	1741,29
583,925	2822,61
584,121	4075,97
584,318	6334,88
584,514	8735,1
584,711	12005,7
584,907	15741,2
585,103	19976,4
585,3	23541,91
585,496	26900,58
585,693	29106,24
585,889	29874,23
586,085	28831,82
586,281	26181,74
586,478	22452,39
586,674	19341,53
586,87	16814,34
587,067	14006,57
587,263	11325,78
587,459	8321,41
587,655	6570,4
587,851	5675,43
588,048	5249,46
588,244	5099,95
588,44	5722,54
588,636	5812,65
588,832	5757,35
589,028	5833,13
589,224	5112,24
589,42	4495,8
589,617	3887,56
589,813	3430,86
590,009	2939,35
590,205	2365,92
590,401	1913,31
590,597	1425,9
590,793	1319,4
590,989	1081,84
591,185	938,48
591,38	913,91
591,576	768,5
591,772	725,49
591,968	684,53
592,164	606,71
592,36	514,55
592,556	434,68
592,752	608,76
592,948	668,15
593,143	979,44
593,339	1315,31
593,535	1976,8
593,731	2920,92
593,926	3856,84
594,122	4880,82
594,318	6156,71
594,514	7526,8
594,709	8667,52
594,905	9449,84
595,101	9781,61
595,296	9277,81
595,492	8511,87
595,688	7545,23
595,883	6558,11
596,079	5933,48
596,275	4999,6
596,47	4090,31
596,666	3406,28
596,861	2654,68
597,057	2273,76
597,252	2161,12
597,448	2251,23
597,643	2552,28
597,839	2732,5
598,034	2734,55
598,23	2699,73
598,425	2707,93
598,621	2347,48
598,816	2013,67
599,011	1823,2
599,207	1632,74
599,402	1366,51
599,597	1110,51
599,793	868,85
599,988	598,52
600,183	483,83
600,379	424,44
600,574	307,71
600,769	276,99
600,965	287,23
601,16	229,88
601,355	145,92
601,55	307,71
601,745	430,59
601,941	573,94
602,136	735,73
602,331	1069,55
602,526	1266,16
602,721	1507,82
602,916	1788,39
603,111	2240,99
603,307	2447,83
603,502	2689,49
603,697	2583
603,892	2431,45
604,087	2415,07
604,282	2142,69
604,477	1950,18
604,672	1401,32
604,867	1161,71
605,062	956,91
605,257	776,69
605,452	643,57
605,646	463,35
605,841	496,12
606,036	692,73
606,231	1200,62
606,426	1688,04
606,621	2427,35
606,816	3199,44
607,01	4438,46
607,205	5501,36
607,4	6662,55
607,595	7844,23
607,79	8681,85
607,984	9294,19
608,179	9359,73
608,374	9394,54
608,569	9408,88
608,763	9384,3
608,958	9619,82
609,153	10613,09
609,347	11321,68
609,542	12204,36
609,736	12710,21
609,931	13058,36
610,126	13189,43
610,32	13099,32
610,515	12235,08
610,709	11305,3
610,904	9711,98
611,098	8270,21
611,293	7168,4
611,487	5878,18
611,682	4608,44
611,876	3353,04
612,071	2300,38
612,265	1567,21
612,46	1118,7
612,654	1294,83
612,848	1731,05
613,043	2707,93
613,237	3791,3
613,432	5325,23
613,626	7066
613,82	9517,42
614,014	12079,43
614,209	14829,85
614,403	17256,7
614,597	19783,89
614,792	20627,65
614,986	20992,19
615,18	20400,33
615,374	19015,9
615,568	16879,87
615,763	15323,41
615,957	14192,94
616,151	12761,41
616,345	12165,45
616,539	10410,34
616,733	9199,99
616,927	7887,24
617,121	7027,09
617,316	6238,62
617,51	5411,25
617,704	4604,35
617,898	4039,11
618,092	3477,96
618,286	2972,11
618,48	2193,89
618,674	1847,78
618,868	1360,36
619,061	883,19
619,255	791,03
619,449	614,9
619,643	432,63
619,837	459,26
620,031	369,15
620,225	561,66
620,419	631,29
620,612	954,87
620,806	1210,86
621	1618,41
621,194	2007,52
621,388	2642,39
621,581	3084,75
621,775	3668,42
621,969	4112,83
622,162	4342,21
622,356	4395,45
622,55	4252,1
622,743	3953,09
622,937	3570,12
623,131	2961,87
623,324	2724,31
623,518	2251,23
623,712	1841,64
623,905	1286,64
624,099	1106,42
624,292	741,88
624,486	418,3
624,679	401,91
624,873	350,71
625,066	465,4
625,26	795,12
625,453	1284,59
625,647	1870,31
625,84	2675,16
626,034	3684,81
626,227	4692,41
626,42	5886,37
626,614	7164,31
626,807	8239,49
627	9187,7
627,194	9335,15
627,387	9548,14
627,58	8800,63
627,774	8102,28
627,967	7092,63
628,16	6123,94
628,353	5413,29
628,547	4764,09
628,74	3727,82
628,933	2793,94
629,126	2265,57
629,319	1724,9
629,513	1673,7
629,706	1765,86
629,899	2275,81
630,092	2693,59
630,285	3178,96
630,478	3719,62
630,671	4256,19
630,864	4727,22
631,057	4747,7
631,25	4653,5
631,443	4362,69
631,636	4190,66
631,829	3893,7
632,022	4186,56
632,215	4387,26
632,408	4788,66
632,601	5542,32
632,794	6783,38
632,987	8214,91
633,18	9769,32
633,373	11333,97
633,566	12996,92
633,758	13955,37
633,951	15120,67
634,144	15071,51
634,337	14430,5
634,53	13228,34
634,722	11714,89
634,915	9836,91
635,108	8784,25
635,301	7696,78
635,493	6336,93
635,686	4927,92
635,879	3275,21
636,071	1972,71
636,264	1470,95
636,457	1049,07
636,649	868,85
636,842	1118,7
637,034	1559,02
637,227	2380,25
637,42	3086,8
637,612	4428,22
637,805	5779,88
637,997	7584,14
638,19	8872,31
638,382	10680,67
638,575	12503,36
638,767	14676,26
638,96	17311,99
639,152	20379,85
639,344	23298,2
639,537	26964,07
639,729	31739,93
639,922	37105,61
640,114	43229,04
640,306	48252,7
640,499	51345,14
640,691	52641,5
640,883	52657,88
641,075	50456,32
641,268	46055,23
641,46	40142,75
641,652	34613,23
641,844	29927,48
642,037	26597,48
642,229	21680,31
642,421	17203,45
642,613	12431,68
642,805	7651,72
642,998	4891,06
643,19	3129,81
643,382	2032,1
643,574	1462,76
643,766	936,43
643,958	825,84
644,15	713,21
644,342	557,56
644,534	541,18
644,726	360,95
644,918	375,29
645,11	342,52
645,302	287,23
645,494	342,52
645,686	217,6
645,878	180,73
646,07	317,95
646,262	240,12
646,453	135,68
646,645	164,35
646,837	176,64
647,029	217,6
647,221	174,59
647,413	135,68
647,604	127,49
647,796	113,15
647,988	176,64
648,18	162,3
648,371	70,14
648,563	131,58
648,755	233,98
648,947	236,03
649,138	602,61
649,33	1487,34
649,521	2556,38
649,713	3996,1
649,905	5484,97
650,096	7696,78
650,288	10289,51
650,479	12515,65
650,671	15038,75
650,863	17060,09
651,054	18266,35
651,246	18788,58
651,437	18026,73
651,629	17449,21
651,82	15835,41
652,011	13928,75
652,203	12562,75
652,394	11749,71
652,586	10619,23
652,777	9400,69
652,968	8171,91
653,16	6820,25
653,351	6230,43
653,542	5816,74
653,734	5466,54
653,925	5071,28
654,116	4897,21
654,308	4448,7
654,499	4006,34
654,69	3383,76
654,881	2994,64
655,073	2642,39
655,264	2413,02
655,455	1825,25
655,646	1421,8
655,837	1153,52
656,028	745,97
656,219	414,2
656,411	324,09
656,602	209,4
656,793	190,97
656,984	201,21
657,175	135,68
657,366	94,72
657,557	160,25
657,748	102,91
657,939	109,05
658,13	154,11
658,321	225,79
658,512	444,92
658,703	854,51
658,894	1401,32
659,084	1802,72
659,275	2425,31
659,466	3258,83
659,657	3965,38
659,848	4979,12
660,039	5681,58
660,23	6187,43
660,42	6443,42
660,611	6338,98
660,802	6128,03
660,993	5697,96
661,183	4884,92
661,374	4325,82
661,565	3912,13
661,755	3559,88
661,946	2783,7
662,137	2359,77
662,327	1722,85
662,518	1186,29
662,709	725,49
662,899	463,35
663,09	381,43
663,28	283,13
663,471	119,29
663,662	291,32
663,852	211,45
664,043	139,77
664,233	160,25
664,424	188,93
664,614	74,24
664,804	127,49
664,995	115,2
665,185	111,1
665,376	72,19
665,566	229,88
665,756	86,53
665,947	111,1
666,137	303,61
666,328	467,45
666,518	803,32
666,708	1667,56
666,898	2357,72
667,089	3572,17
667,279	4858,29
667,469	6222,24
667,659	7819,66
667,85	8948,09
668,04	10277,22
668,23	10754,4
668,42	11311,44
668,61	10926,43
668,8	10400,1
668,991	9343,35
669,181	8483,2
669,371	7334,29
669,561	6594,97
669,751	5669,29
669,941	4891,06
670,131	3940,8
670,321	3152,34
670,511	2570,71
670,701	2382,3
670,891	2527,71
671,081	2935,25
671,271	3756,49
671,461	4346,3
671,651	5005,75
671,841	5972,39
672,03	6734,23
672,22	6912,41
672,41	6746,52
672,6	6478,24
672,79	5945,77
672,98	5304,75
673,169	4651,45
673,359	4178,37
673,549	3748,29
673,739	3084,75
673,928	2585,05
674,118	2005,47
674,308	1516,01
674,497	963,06
674,687	545,27
674,877	279,04
675,066	342,52
675,256	258,56
675,446	209,4
675,635	152,06
675,825	78,33
676,014	88,57
676,204	80,38
676,393	111,1
676,583	55,81
676,772	135,68
676,962	51,71
677,151	86,53
677,341	-17,92
677,53	88,57
677,72	25,09
677,909	129,53
678,099	-19,97
678,288	-85,5
678,477	78,33
678,667	78,33
678,856	184,83
679,045	6,66
679,235	111,1
679,424	176,64
679,613	123,39
679,802	-1,54
679,992	41,47
680,181	6,66
680,37	94,72
680,559	14,85
680,748	70,14
680,938	94,72
681,127	-28,16
681,316	107,01
681,505	25,09
681,694	-44,54
681,883	61,95
682,072	20,99
682,261	45,57
682,45	6,66
682,639	-24,06
682,828	102,91
683,017	135,68
683,206	53,76
683,395	94,72
683,584	41,47
683,773	82,43
683,962	41,47
684,151	53,76
684,34	53,76
684,529	4,61
684,718	-15,87
684,907	86,53
685,095	61,95
685,284	127,49
685,473	53,76
685,662	39,42
685,851	119,29
686,039	59,9
686,228	115,2
686,417	12,8
686,606	123,39
686,794	82,43
686,983	-44,54
687,172	70,14
687,36	45,57
687,549	84,48
687,738	31,23
687,926	8,7
688,115	72,19
688,303	53,76
688,492	74,24
688,68	12,8
688,869	16,9
689,057	-19,97
689,246	4,61
689,434	90,62
689,623	4,61
689,811	82,43
690	82,43
690,188	-69,12
690,377	-28,16
690,565	86,53
690,753	166,4
690,942	125,44
691,13	37,38
691,318	113,15
691,507	334,33
691,695	856,56
691,883	1386,99
692,072	2365,92
692,26	3451,34
692,448	4428,22
692,636	5632,43
692,824	6846,87
693,013	8049,03
693,201	8950,14
693,389	9220,47
693,577	9326,96
693,765	9359,73
693,953	8839,55
694,141	8044,93
694,329	6984,09
694,518	6025,64
694,706	5550,51
694,894	4862,39
695,082	4118,98
695,27	3471,82
695,458	2808,28
695,646	1980,9
695,834	1393,13
696,022	913,91
696,209	449,02
696,397	352,76
696,585	244,22
696,773	225,79
696,961	123,39
697,149	96,77
697,337	221,69
697,525	143,87
697,712	117,25
697,9	78,33
698,088	61,95
698,276	104,96
698,463	55,81
698,651	129,53
698,839	39,42
699,027	154,11
699,214	82,43
699,402	45,57
699,59	59,9
699,777	57,86
699,965	102,91
700,152	61,95
700,34	14,85
700,528	-9,73
700,715	102,91
700,903	76,29
701,09	72,19
701,278	227,84
701,465	209,4
701,653	317,95
701,84	649,72
702,028	1501,67
702,215	2437,59
702,402	3408,33
702,59	4989,36
702,777	6496,67
702,965	7901,58
703,152	9701,74
703,339	10971,48
703,527	12151,11
703,714	11974,99
703,901	12061
704,088	11735,37
704,276	10899,8
704,463	9867,63
704,65	8581,5
704,837	7803,27
705,025	7016,85
705,212	6158,75
705,399	5314,99
705,586	4633,02
705,773	3723,72
705,96	2888,15
706,147	1962,47
706,335	1352,17
706,522	1028,59
706,709	709,11
706,896	596,47
707,083	438,78
707,27	324,09
707,457	320
707,644	320
707,831	201,21
708,018	113,15
708,205	84,48
708,392	137,73
708,578	250,36
708,765	72,19
708,952	96,77
709,139	55,81
709,326	29,18
709,513	55,81
709,7	70,14
709,886	166,4
710,073	156,16
710,26	160,25
710,447	39,42
710,633	64
710,82	4,61
711,007	29,18
711,193	31,23
711,38	-38,4
711,567	31,23
711,753	102,91
711,94	139,77
712,127	66,05
712,313	80,38
712,5	88,57
712,686	139,77
712,873	-93,69
713,059	37,38
713,246	104,96
713,432	64
713,619	-19,97
713,805	64
713,992	152,06
714,178	-19,97
714,365	41,47
714,551	115,2
714,737	-9,73
714,924	-58,88
715,11	102,91
715,297	-19,97
715,483	-11,78
715,669	53,76
715,855	94,72
716,042	107,01
716,228	180,73
716,414	418,3
716,6	586,23
716,787	797,17
716,973	1006,06
717,159	1305,07
717,345	1587,69
717,531	1692,13
717,718	1937,89
717,904	1810,92
718,09	1806,82
718,276	1753,57
718,462	1757,67
718,648	1585,64
718,834	1374,7
719,02	1229,29
719,206	1073,65
719,392	932,34
719,578	805,36
719,764	670,2
719,95	606,71
720,136	532,98
720,322	315,9
720,508	340,47
720,694	135,68
720,879	70,14
721,065	184,83
721,251	51,71
721,437	102,91
721,623	96,77
721,809	133,63
721,994	0,51
722,18	-110,08
722,366	4,61
722,552	94,72
722,737	37,38
722,923	78,33
723,109	176,64
723,294	428,54
723,48	811,51
723,666	1298,92
723,851	1831,4
724,037	2480,6
724,222	3267,02
724,408	3971,52
724,593	4248
724,779	5028,28
724,965	4972,98
725,15	5177,78
725,336	4999,6
725,521	4604,35
725,706	4127,17
725,892	3670,47
726,077	3207,63
726,263	3013,07
726,448	2630,1
726,634	2193,89
726,819	2040,29
727,004	1958,37
727,19	1489,39
727,375	1151,47
727,56	817,65
727,745	520,7
727,931	424,44
728,116	184,83
728,301	84,48
728,486	170,49
728,672	76,29
728,857	125,44
729,042	88,57
729,227	23,04
729,412	47,62
729,597	6,66
729,783	61,95
729,968	137,73
730,153	102,91
730,338	25,09
730,523	82,43
730,708	14,85
730,893	18,94
731,078	37,38
731,263	-9,73
731,448	-1,54
731,633	-28,16
731,818	-36,35
732,003	31,23
732,187	-3,58
732,372	-42,5
732,557	43,52
732,742	-28,16
732,927	-58,88
733,112	100,86
733,297	4,61
733,481	20,99
733,666	6,66
733,851	25,09
734,036	-28,16
734,22	12,8
734,405	162,3
734,59	12,8
734,774	80,38
734,959	35,33
735,144	61,95
735,328	18,94
735,513	-26,11
735,698	20,99
735,882	98,81
736,067	129,53
736,251	35,33
736,436	0,51
736,62	16,9
736,805	-38,4
736,989	133,63
737,174	-56,83
737,358	-3,58
737,543	47,62
737,727	127,49
737,911	131,58
738,096	-34,3
738,28	94,72
738,465	-17,92
738,649	20,99
738,833	-1,54
739,018	16,9
739,202	61,95
739,386	23,04
739,57	10,75
739,755	70,14
739,939	111,1
740,123	-19,97
740,307	57,86
740,491	111,1
740,676	-36,35
740,86	125,44
741,044	33,28
741,228	76,29
741,412	-11,78
741,596	4,61
741,78	-28,16
741,964	-9,73
742,148	-60,93
742,332	31,23
742,516	-3,58
742,7	107,01
742,884	213,5
743,068	322,04
743,252	414,2
743,436	643,57
743,62	606,71
743,804	1120,75
743,988	1180,14
744,172	1223,15
744,356	1233,39
744,539	1235,44
744,723	1184,24
744,907	1032,69
745,091	938,48
745,275	905,71
745,458	821,75
745,642	686,58
745,826	590,33
746,009	580,09
746,193	479,74
746,377	471,54
746,56	406,01
746,744	367,1
746,928	176,64
747,111	250,36
747,295	115,2
747,478	211,45
747,662	119,29
747,846	242,17
748,029	317,95
748,213	168,45
748,396	291,32
748,58	406,01
748,763	393,72
748,946	381,43
749,13	522,74
749,313	496,12
749,497	520,7
749,68	410,11
749,863	412,15
750,047	315,9
750,23	352,76
750,413	422,39
750,597	307,71
750,78	168,45
750,963	266,75
751,146	145,92
751,33	227,84
751,513	170,49
751,696	180,73
751,879	164,35
752,062	-22,02
752,246	96,77
752,429	236,03
752,612	131,58
752,795	147,97
752,978	197,12
753,161	135,68
753,344	260,6
753,527	317,95
753,71	336,38
753,893	481,78
754,076	449,02
754,259	504,31
754,442	422,39
754,625	453,11
754,808	475,64
754,991	446,97
755,174	332,28
755,357	326,14
755,539	315,9
755,722	315,9
755,905	207,36
756,088	242,17
756,271	188,93
756,453	199,16
756,636	92,67
756,819	154,11
757,002	86,53
757,184	154,11
757,367	154,11
757,55	109,05
757,732	127,49
757,915	29,18
758,098	64
758,28	-19,97
758,463	61,95
758,645	45,57
758,828	29,18
759,011	135,68
759,193	-32,26
759,376	6,66
759,558	-3,58
759,741	-15,87
759,923	14,85
760,105	45,57
760,288	-26,11
760,47	-40,45
760,653	6,66
760,835	37,38
761,017	-1,54
761,2	53,76
761,382	55,81
761,564	4,61
761,747	20,99
761,929	-157,18
762,111	31,23
762,294	51,71
762,476	158,21
762,658	88,57
762,84	221,69
763,022	68,09
763,205	80,38
763,387	145,92
763,569	37,38
763,751	-42,5
763,933	-13,82
764,115	-77,31
764,297	0,51
764,479	39,42
764,661	45,57
764,843	76,29
765,025	78,33
765,207	84,48
765,389	6,66
765,571	-67,07
765,753	53,76
765,935	-1,54
766,117	55,81
766,299	102,91
766,481	135,68
766,663	-34,3
766,845	-60,93
767,026	4,61
767,208	55,81
767,39	-13,82
767,572	-15,87
767,753	102,91
767,935	115,2
768,117	74,24
768,299	123,39
768,48	-11,78
768,662	64
768,844	-19,97
769,025	123,39
769,207	27,14
769,389	-13,82
769,57	33,28
769,752	61,95
769,933	-24,06
770,115	64
770,296	111,1
770,478	102,91
770,659	31,23
770,841	258,56
771,022	37,38
771,204	57,86
771,385	33,28
771,567	143,87
771,748	113,15
771,929	-28,16
772,111	8,7
772,292	86,53
772,473	-32,26
772,655	78,33
772,836	-36,35
773,017	121,34
773,199	49,66
773,38	29,18
773,561	49,66
773,742	137,73
773,923	8,7
774,105	96,77
774,286	12,8
774,467	68,09
774,648	-1,54
774,829	88,57
775,01	-9,73
775,191	-73,21
775,372	127,49
775,553	53,76
775,734	-91,65
775,915	-60,93
776,096	37,38
776,277	20,99
776,458	-9,73
776,639	20,99
776,82	102,91
777,001	-28,16
777,182	23,04
777,363	53,76
777,544	-9,73
777,725	152,06
777,906	-17,92
778,086	-24,06
778,267	51,71
778,448	12,8
778,629	-44,54
778,809	111,1
778,99	6,66
779,171	33,28
779,352	86,53
779,532	-85,5
779,713	-28,16
779,894	25,09
780,074	152,06
780,255	-3,58
780,435	39,42
780,616	82,43
780,797	82,43
780,977	-28,16
781,158	-40,45
781,338	12,8
781,519	-17,92
781,699	195,07
781,88	23,04
782,06	121,34
782,241	-77,31
782,421	-52,74
782,601	53,76
782,782	37,38
782,962	115,2
783,142	-44,54
783,323	4,61
783,503	39,42
783,683	29,18
783,864	47,62
784,044	82,43
784,224	45,57
784,404	16,9
784,585	16,9
784,765	-26,11
784,945	86,53
785,125	37,38
785,305	10,75
785,485	160,25
785,666	111,1
785,846	-112,13
786,026	20,99
786,206	20,99
786,386	82,43
786,566	70,14
786,746	68,09
786,926	45,57
787,106	-26,11
787,286	-7,68
787,466	72,19
787,646	-26,11
787,826	6,66
788,006	78,33
788,185	61,95
788,365	-116,22
788,545	156,16
788,725	-38,4
788,905	113,15
789,085	66,05
789,264	-1,54
789,444	113,15
789,624	29,18
789,804	72,19
789,983	45,57
790,163	64
790,343	66,05
790,522	78,33
790,702	53,76
790,882	-56,83
791,061	147,97
791,241	70,14
791,42	20,99
791,6	131,58
791,78	82,43
791,959	-36,35
792,139	-32,26
792,318	102,91
792,498	37,38
792,677	98,81
792,856	2,56
793,036	70,14
793,215	70,14
793,395	109,05
793,574	94,72
793,753	135,68
793,933	244,22
794,112	143,87
794,291	-15,87
794,471	168,45
794,65	129,53
794,829	119,29
795,008	37,38
795,188	115,2
795,367	143,87
795,546	111,1
795,725	127,49
795,904	16,9
796,084	102,91
796,263	188,93
796,442	86,53
796,621	88,57
796,8	145,92
796,979	61,95
797,158	20,99
797,337	78,33
797,516	127,49
797,695	147,97
797,874	51,71
798,053	86,53
798,232	12,8
798,411	-52,74
798,59	-24,06
798,769	-34,3
798,947	-50,69
799,126	20,99
799,305	57,86
799,484	16,9
799,663	-67,07
799,842	68,09
800,02	119,29
800,199	-36,35
800,378	123,39
800,557	45,57
800,735	-17,92
800,914	39,42
801,093	43,52
801,271	102,91
801,45	55,81
801,628	23,04
801,807	51,71
801,986	-7,68
802,164	115,2
802,343	-42,5
802,521	4,61
802,7	88,57
802,878	94,72
803,057	4,61
803,235	29,18
803,414	45,57
803,592	152,06
803,771	55,81
803,949	61,95
804,127	-65,02
804,306	86,53
804,484	-11,78
804,662	4,61
804,841	-110,08
805,019	115,2
805,197	88,57
805,375	29,18
805,554	-7,68
805,732	27,14
805,91	-42,5
806,088	94,72
806,266	-19,97
806,445	10,75
806,623	64
806,801	70,14
806,979	45,57
807,157	143,87
807,335	-85,5
807,513	41,47
807,691	37,38
807,869	41,47
808,047	-75,26
808,225	-26,11
808,403	33,28
808,581	37,38
808,759	219,64
808,937	23,04
809,115	-24,06
809,293	90,62
809,471	29,18
809,649	66,05
809,826	23,04
810,004	72,19
810,182	-48,64
810,36	23,04
810,538	66,05
810,715	86,53
810,893	-58,88
811,071	72,19
811,248	94,72
811,426	76,29
811,604	129,53
811,781	88,57
811,959	94,72
812,137	10,75
812,314	43,52
812,492	2,56
812,669	125,44
812,847	119,29
813,024	45,57
813,202	162,3
813,379	61,95
813,557	78,33
813,734	193,02
813,912	113,15
814,089	61,95
814,267	143,87
814,444	102,91
814,621	55,81
814,799	8,7
814,976	86,53
815,153	119,29
815,331	25,09
815,508	96,77
815,685	-24,06
815,862	107,01
816,04	-3,58
816,217	29,18
816,394	70,14
816,571	82,43
816,748	162,3
816,926	70,14
817,103	270,84
817,28	31,23
817,457	29,18
817,634	201,21
817,811	-44,54
817,988	8,7
818,165	-19,97
818,342	49,66
818,519	-42,5
818,696	-19,97
818,873	-22,02
819,05	139,77
819,227	25,09
819,404	-19,97
819,581	16,9
819,758	-11,78
819,934	37,38
820,111	-26,11
820,288	45,57
820,465	96,77
820,642	57,86
820,818	20,99
820,995	12,8
821,172	98,81
821,349	68,09
821,525	55,81
821,702	61,95
821,879	-56,83
822,055	45,57
822,232	-17,92
822,409	-7,68
822,585	121,34
822,762	135,68
822,938	47,62
823,115	47,62
823,291	72,19
823,468	82,43
823,644	45,57
823,821	78,33
823,997	29,18
824,174	-48,64
824,35	14,85
824,527	70,14
824,703	74,24
824,879	45,57
825,056	-36,35
825,232	49,66
825,408	64
825,585	29,18
825,761	53,76
825,937	41,47
826,113	111,1
826,29	94,72
826,466	-28,16
826,642	401,91
826,818	47,62
826,994	2,56
827,17	31,23
827,347	-101,89
827,523	-26,11
827,699	25,09
827,875	-26,11
828,051	-9,73
828,227	94,72
828,403	123,39
828,579	125,44
828,755	98,81
828,931	-9,73
829,107	102,91
829,283	209,4
829,459	90,62
829,635	150,01
829,811	109,05
829,986	113,15
830,162	98,81
830,338	88,57
830,514	102,91
830,69	147,97
830,865	25,09
831,041	33,28
831,217	80,38
831,393	78,33
831,568	90,62
831,744	96,77
831,92	31,23
832,095	29,18
832,271	121,34
832,447	23,04
832,622	152,06
832,798	98,81
832,973	152,06
833,149	68,09
833,325	64
833,5	70,14
833,676	104,96
833,851	80,38
834,027	29,18
834,202	61,95
834,377	53,76
834,553	172,54
834,728	47,62
834,904	31,23
835,079	-7,68
835,254	16,9
835,43	37,38
835,605	55,81
835,78	-24,06
835,955	86,53
836,131	-19,97
836,306	-3,58
836,481	8,7
836,656	111,1
836,832	188,93
837,007	221,69
837,182	172,54
837,357	242,17
837,532	375,29
837,707	395,77
837,882	444,92
838,057	422,39
838,232	532,98
838,407	330,23
838,582	342,52
838,757	324,09
838,932	326,14
839,107	217,6
839,282	184,83
839,457	217,6
839,632	233,98
839,807	326,14
839,982	184,83
840,157	201,21
840,332	229,88
840,506	229,88
840,681	107,01
840,856	119,29
841,031	156,16
841,205	162,3
841,38	287,23
841,555	184,83
841,73	242,17
841,904	102,91
842,079	162,3
842,254	92,67
842,428	104,96
842,603	43,52
842,777	-30,21
842,952	20,99
843,126	37,38
843,301	66,05
843,476	4,61
843,65	72,19
843,825	102,91
843,999	61,95
844,173	20,99
844,348	96,77
844,522	70,14
844,697	0,51
844,871	78,33
845,045	102,91
845,22	119,29
845,394	111,1
845,568	47,62
845,743	143,87
845,917	4,61
846,091	-11,78
846,265	41,47
846,44	55,81
846,614	86,53
846,788	-15,87
846,962	51,71
847,136	37,38
847,31	-26,11
847,485	233,98
847,659	-40,45
847,833	-28,16
848,007	57,86
848,181	-42,5
848,355	4,61
848,529	123,39
848,703	145,92
848,877	78,33
849,051	156,16
849,225	145,92
849,399	170,49
849,573	74,24
849,746	143,87
849,92	274,94
850,094	238,08
850,268	164,35
850,442	227,84
850,616	102,91
850,789	102,91
850,963	61,95
851,137	78,33
851,311	172,54
851,484	180,73
851,658	119,29
851,832	31,23
852,005	143,87
852,179	100,86
852,352	121,34
852,526	121,34
852,7	154,11
852,873	20,99
853,047	168,45
853,22	111,1
853,394	137,73
853,567	74,24
853,741	59,9
853,914	8,7
854,088	104,96
854,261	33,28
854,434	-19,97
854,608	-11,78
854,781	-67,07
854,955	74,24
855,128	88,57
855,301	-28,16
855,475	64
855,648	-52,74
855,821	70,14
855,994	98,81
856,168	29,18
856,341	70,14
856,514	-58,88
856,687	-3,58
856,86	115,2
857,033	72,19
857,207	12,8
857,38	20,99
857,553	137,73
857,726	-11,78
857,899	184,83
858,072	4,61
858,245	39,42
858,418	137,73
858,591	6,66
858,764	29,18
858,937	45,57
859,11	164,35
859,283	102,91
859,455	94,72
859,628	129,53
859,801	160,25
859,974	176,64
860,147	29,18
860,32	96,77
860,492	49,66
860,665	-50,69
860,838	119,29
861,011	-3,58
861,183	141,82
861,356	152,06
861,529	123,39
861,701	68,09
861,874	86,53
862,047	172,54
862,219	55,81
862,392	213,5
862,564	66,05
862,737	90,62
862,909	119,29
863,082	74,24
863,254	162,3
863,427	121,34
863,599	197,12
863,772	135,68
863,944	96,77
864,117	88,57
864,289	61,95
864,461	94,72
864,634	141,82
864,806	14,85
864,978	209,4
865,151	119,29
865,323	217,6
865,495	240,12
865,667	174,59
865,84	283,13
866,012	45,57
866,184	291,32
866,356	102,91
866,528	147,97
866,7	86,53
866,873	147,97
867,045	139,77
867,217	45,57
867,389	203,26
867,561	41,47
867,733	170,49
867,905	68,09
868,077	172,54
868,249	152,06
868,421	135,68
868,593	139,77
868,765	274,94
868,936	90,62
869,108	115,2
869,28	213,5
869,452	152,06
869,624	6,66
869,796	117,25
869,968	68,09
870,139	88,57
870,311	33,28
870,483	121,34
870,654	23,04
870,826	39,42
870,998	25,09
871,17	29,18
871,341	49,66
871,513	96,77
871,684	6,66
871,856	37,38
872,028	35,33
872,199	-65,02
872,371	-36,35
872,542	61,95
872,714	4,61
872,885	137,73
873,057	-3,58
873,228	-26,11
873,4	78,33
873,571	145,92
873,742	-42,5
873,914	37,38
874,085	31,23
874,256	43,52
874,428	-11,78
874,599	-9,73
874,77	74,24
874,942	-11,78
875,113	29,18
875,284	33,28
875,455	-56,83
875,626	-3,58
875,798	-77,31
875,969	-24,06
876,14	47,62
876,311	70,14
876,482	53,76
876,653	49,66
876,824	96,77
876,995	49,66
877,166	125,44
877,337	86,53
877,508	8,7
877,679	57,86
877,85	94,72
878,021	115,2
878,192	160,25
878,363	113,15
878,534	66,05
878,705	94,72
878,876	166,4
879,047	217,6
879,217	131,58
879,388	129,53
879,559	178,69
879,73	197,12
879,9	119,29
880,071	152,06
880,242	121,34
880,413	176,64
880,583	78,33
880,754	193,02
880,924	47,62
881,095	-9,73
881,266	49,66
881,436	139,77
881,607	127,49
881,777	121,34
881,948	102,91
882,118	64
882,289	39,42
882,459	78,33
882,63	147,97
882,8	164,35
882,971	78,33
883,141	47,62
883,311	78,33
883,482	78,33
883,652	115,2
883,822	18,94
883,993	37,38
884,163	4,61
884,333	45,57
884,504	121,34
884,674	94,72
884,844	68,09
885,014	47,62
885,184	-24,06
885,355	4,61
885,525	-30,21
885,695	135,68
885,865	131,58
886,035	156,16
886,205	61,95
886,375	135,68
886,545	72,19
886,715	4,61
886,885	47,62
887,055	39,42
887,225	14,85
887,395	-40,45
887,565	160,25
887,735	129,53
887,905	113,15
888,075	102,91
888,244	96,77
888,414	47,62
888,584	41,47
888,754	111,1
888,924	131,58
889,093	227,84
889,263	-15,87
889,433	70,14
889,603	29,18
889,772	0,51
889,942	111,1
890,111	16,9
890,281	6,66
890,451	27,14
890,62	6,66
890,79	25,09
890,959	51,71
891,129	49,66
891,298	47,62
891,468	39,42
891,637	12,8
891,807	72,19
891,976	55,81
892,146	-26,11
892,315	47,62
892,485	119,29
892,654	-44,54
892,823	6,66
892,993	-60,93
893,162	12,8
893,331	45,57
893,501	29,18
893,67	37,38
893,839	-15,87
894,008	20,99
894,177	45,57
894,347	90,62
894,516	78,33
894,685	29,18
894,854	-62,98
895,023	20,99
895,192	33,28
