Data from neon_USB4F104161__3__11-46-31-964.txt Node

Date: Tue Apr 14 11:46:31 EDT 2026
User: LaboPhy
Spectrometer: USB4F10416
Trigger mode: 4
Integration Time (sec): 1,000000E-1
Scans to average: 1
Electric dark correction enabled: true
Nonlinearity correction enabled: false
Boxcar width: 0
XAxis mode: Wavelengths
Number of Pixels in Spectrum: 3648
>>>>>Begin Spectral Data<<<<<
177,847	-238,08
178,066	-238,08
178,284	-238,08
178,502	-168,45
178,72	-147,97
178,939	40,45
179,157	13,82
179,375	-14,85
179,593	77,31
179,812	-4,61
180,03	-39,42
180,248	17,92
180,466	-23,04
180,685	-2,56
180,903	-61,95
181,121	-20,99
181,339	17,92
181,557	17,92
181,775	-55,81
181,994	-35,33
182,212	1,54
182,43	28,16
182,648	11,78
182,866	108,03
183,084	83,45
183,302	-66,05
183,52	13,82
183,739	19,97
183,957	60,93
184,175	28,16
184,393	-20,99
184,611	77,31
184,829	89,6
185,047	1,54
185,265	44,54
185,483	28,16
185,701	77,31
185,919	52,74
186,137	-27,14
186,355	-31,23
186,573	77,31
186,791	85,5
187,009	58,88
187,227	69,12
187,445	-31,23
187,663	1,54
187,881	-37,38
188,098	118,27
188,316	77,31
188,534	116,22
188,752	1,54
188,97	17,92
189,188	81,41
189,406	83,45
189,624	71,17
189,841	-6,66
190,059	-66,05
190,277	-64
190,495	17,92
190,713	11,78
190,931	169,47
191,148	87,55
191,366	-29,18
191,584	81,41
191,802	83,45
192,019	144,89
192,237	60,93
192,455	54,78
192,673	108,03
192,89	-37,38
193,108	17,92
193,326	-12,8
193,543	159,23
193,761	54,78
193,979	32,26
194,196	26,11
194,414	19,97
194,632	71,17
194,849	-68,09
195,067	52,74
195,285	50,69
195,502	-86,53
195,72	-23,04
195,937	9,73
196,155	19,97
196,373	95,74
196,59	-4,61
196,808	71,17
197,025	79,36
197,243	202,24
197,46	42,5
197,678	75,26
197,895	50,69
198,113	34,3
198,33	-2,56
198,548	11,78
198,765	-31,23
198,983	17,92
199,2	-0,51
199,418	50,69
199,635	13,82
199,853	17,92
200,07	52,74
200,288	26,11
200,505	-16,9
200,722	-8,7
200,94	34,3
201,157	67,07
201,375	85,5
201,592	60,93
201,809	54,78
202,027	65,02
202,244	34,3
202,461	-20,99
202,679	30,21
202,896	9,73
203,113	9,73
203,331	-14,85
203,548	60,93
203,765	-18,94
203,982	140,8
204,2	-29,18
204,417	1,54
204,634	206,33
204,851	48,64
205,069	-4,61
205,286	83,45
205,503	42,5
205,72	87,55
205,937	67,07
206,155	13,82
206,372	169,47
206,589	-55,81
206,806	153,09
207,023	-53,76
207,24	15,87
207,458	-111,1
207,675	-64
207,892	44,54
208,109	-57,86
208,326	-23,04
208,543	-8,7
208,76	-2,56
208,977	69,12
209,194	85,5
209,411	-8,7
209,628	58,88
209,845	9,73
210,062	-47,62
210,279	-35,33
210,496	-14,85
210,713	-12,8
210,93	17,92
211,147	116,22
211,364	69,12
211,581	58,88
211,798	60,93
212,015	-10,75
212,232	7,68
212,449	9,73
212,666	9,73
212,883	-10,75
213,1	-43,52
213,317	-6,66
213,533	38,4
213,75	11,78
213,967	50,69
214,184	-92,67
214,401	54,78
214,618	-64
214,835	-14,85
215,051	44,54
215,268	103,93
215,485	1,54
215,702	-39,42
215,919	3,58
216,135	142,85
216,352	-47,62
216,569	22,02
216,786	77,31
217,002	-18,94
217,219	-23,04
217,436	19,97
217,652	85,5
217,869	13,82
218,086	19,97
218,302	118,27
218,519	34,3
218,736	-12,8
218,952	-70,14
219,169	93,69
219,386	-14,85
219,602	56,83
219,819	17,92
220,036	19,97
220,252	77,31
220,469	-12,8
220,685	-6,66
220,902	75,26
221,118	75,26
221,335	-47,62
221,552	-14,85
221,768	77,31
221,985	58,88
222,201	9,73
222,418	30,21
222,634	17,92
222,851	3,58
223,067	62,98
223,284	17,92
223,5	13,82
223,716	9,73
223,933	-23,04
224,149	-29,18
224,366	3,58
224,582	77,31
224,799	22,02
225,015	60,93
225,231	11,78
225,448	-16,9
225,664	34,3
225,88	-31,23
226,097	75,26
226,313	-2,56
226,529	-6,66
226,746	19,97
226,962	85,5
227,178	81,41
227,395	19,97
227,611	116,22
227,827	67,07
228,044	17,92
228,26	99,84
228,476	-35,33
228,692	112,13
228,909	1,54
229,125	19,97
229,341	-72,19
229,557	54,78
229,773	-70,14
229,99	13,82
230,206	-80,38
230,422	50,69
230,638	-55,81
230,854	-6,66
231,07	-61,95
231,286	140,8
231,503	34,3
231,719	-55,81
231,935	38,4
232,151	-53,76
232,367	118,27
232,583	46,59
232,799	34,3
233,015	62,98
233,231	-23,04
233,447	5,63
233,663	-78,33
233,879	9,73
234,095	-43,52
234,311	85,5
234,527	132,61
234,743	122,37
234,959	151,04
235,175	-53,76
235,391	-51,71
235,607	-33,28
235,823	44,54
236,039	22,02
236,255	30,21
236,471	83,45
236,687	-51,71
236,903	-31,23
237,118	75,26
237,334	-47,62
237,55	-31,23
237,766	-53,76
237,982	126,46
238,198	83,45
238,413	-64
238,629	99,84
238,845	69,12
239,061	38,4
239,277	1,54
239,492	60,93
239,708	-2,56
239,924	-74,24
240,14	-12,8
240,355	128,51
240,571	24,06
240,787	3,58
241,003	179,71
241,218	-6,66
241,434	26,11
241,65	85,5
241,865	-59,9
242,081	36,35
242,297	-84,48
242,512	42,5
242,728	52,74
242,944	-37,38
243,159	54,78
243,375	5,63
243,59	-23,04
243,806	40,45
244,022	50,69
244,237	1,54
244,453	50,69
244,668	-6,66
244,884	120,32
245,099	26,11
245,315	87,55
245,53	114,17
245,746	108,03
245,961	81,41
246,177	34,3
246,392	85,5
246,608	17,92
246,823	-43,52
247,039	-76,29
247,254	-55,81
247,47	19,97
247,685	93,69
247,9	17,92
248,116	19,97
248,331	9,73
248,547	116,22
248,762	1,54
248,977	108,03
249,193	85,5
249,408	56,83
249,623	69,12
249,839	1,54
250,054	-35,33
250,269	58,88
250,485	116,22
250,7	-39,42
250,915	58,88
251,13	69,12
251,346	-4,61
251,561	136,7
251,776	118,27
251,991	-23,04
252,207	142,85
252,422	19,97
252,637	3,58
252,852	11,78
253,067	-14,85
253,283	-4,61
253,498	34,3
253,713	67,07
253,928	-35,33
254,143	28,16
254,358	-4,61
254,573	17,92
254,788	-45,57
255,004	34,3
255,219	-78,33
255,434	67,07
255,649	-6,66
255,864	-6,66
256,079	22,02
256,294	44,54
256,509	-12,8
256,724	91,65
256,939	97,79
257,154	13,82
257,369	34,3
257,584	67,07
257,799	-37,38
258,014	-66,05
258,229	67,07
258,444	54,78
258,659	50,69
258,874	69,12
259,089	101,89
259,304	67,07
259,518	-143,87
259,733	44,54
259,948	-2,56
260,163	19,97
260,378	99,84
260,593	36,35
260,808	69,12
261,022	-39,42
261,237	77,31
261,452	30,21
261,667	-6,66
261,882	-41,47
262,096	46,59
262,311	108,03
262,526	-64
262,741	65,02
262,955	-115,2
263,17	83,45
263,385	-27,14
263,6	9,73
263,814	17,92
264,029	-33,28
264,244	42,5
264,458	50,69
264,673	30,21
264,888	87,55
265,102	42,5
265,317	17,92
265,532	-6,66
265,746	30,21
265,961	9,73
266,175	77,31
266,39	32,26
266,605	-92,67
266,819	75,26
267,034	42,5
267,248	9,73
267,463	54,78
267,677	-6,66
267,892	52,74
268,106	-154,11
268,321	-6,66
268,535	52,74
268,75	65,02
268,964	-14,85
269,179	-45,57
269,393	50,69
269,608	58,88
269,822	-35,33
270,036	54,78
270,251	1,54
270,465	17,92
270,68	26,11
270,894	24,06
271,108	116,22
271,323	-94,72
271,537	-10,75
271,752	11,78
271,966	60,93
272,18	-41,47
272,394	-20,99
272,609	-2,56
272,823	1,54
273,037	22,02
273,252	7,68
273,466	54,78
273,68	44,54
273,894	81,41
274,109	46,59
274,323	30,21
274,537	1,54
274,751	-8,7
274,966	42,5
275,18	-119,29
275,394	-6,66
275,608	-29,18
275,822	-16,9
276,036	5,63
276,25	58,88
276,465	67,07
276,679	19,97
276,893	-39,42
277,107	112,13
277,321	22,02
277,535	79,36
277,749	77,31
277,963	44,54
278,177	9,73
278,391	62,98
278,605	-115,2
278,819	17,92
279,033	-31,23
279,247	-29,18
279,461	36,35
279,675	-6,66
279,889	11,78
280,103	73,21
280,317	128,51
280,531	-45,57
280,745	44,54
280,959	-4,61
281,173	38,4
281,387	112,13
281,601	-20,99
281,815	116,22
282,029	-80,38
282,242	17,92
282,456	-6,66
282,67	60,93
282,884	-33,28
283,098	-53,76
283,312	36,35
283,525	-37,38
283,739	50,69
283,953	19,97
284,167	60,93
284,381	-37,38
284,594	77,31
284,808	34,3
285,022	-23,04
285,235	-4,61
285,449	-14,85
285,663	81,41
285,877	-51,71
286,09	36,35
286,304	77,31
286,518	42,5
286,731	-96,77
286,945	30,21
287,159	-88,57
287,372	30,21
287,586	-47,62
287,799	34,3
288,013	9,73
288,227	28,16
288,44	226,81
288,654	85,5
288,867	17,92
289,081	-4,61
289,294	19,97
289,508	124,41
289,721	-4,61
289,935	-10,75
290,148	116,22
290,362	15,87
290,575	67,07
290,789	3,58
291,002	-18,94
291,216	75,26
291,429	-39,42
291,643	52,74
291,856	-4,61
292,069	1,54
292,283	-61,95
292,496	85,5
292,71	48,64
292,923	17,92
293,136	13,82
293,35	11,78
293,563	-8,7
293,776	46,59
293,99	-20,99
294,203	34,3
294,416	28,16
294,63	-4,61
294,843	50,69
295,056	87,55
295,269	-10,75
295,483	-94,72
295,696	11,78
295,909	-18,94
296,122	19,97
296,335	42,5
296,549	69,12
296,762	28,16
296,975	-4,61
297,188	17,92
297,401	79,36
297,615	36,35
297,828	50,69
298,041	140,8
298,254	-66,05
298,467	19,97
298,68	-27,14
298,893	-43,52
299,106	-43,52
299,319	17,92
299,532	101,89
299,745	52,74
299,958	34,3
300,171	11,78
300,384	19,97
300,598	-94,72
300,81	42,5
301,023	30,21
301,236	-16,9
301,449	-2,56
301,662	-14,85
301,875	38,4
302,088	1,54
302,301	19,97
302,514	-2,56
302,727	-23,04
302,94	-55,81
303,153	17,92
303,366	17,92
303,579	-12,8
303,791	17,92
304,004	-25,09
304,217	101,89
304,43	99,84
304,643	50,69
304,855	-57,86
305,068	140,8
305,281	116,22
305,494	30,21
305,707	11,78
305,919	173,57
306,132	50,69
306,345	30,21
306,558	93,69
306,77	30,21
306,983	-29,18
307,196	83,45
307,408	9,73
307,621	56,83
307,834	-43,52
308,046	-25,09
308,259	-27,14
308,472	-33,28
308,684	75,26
308,897	-47,62
309,109	60,93
309,322	-64
309,535	67,07
309,747	165,37
309,96	124,41
310,172	132,61
310,385	85,5
310,597	-4,61
310,81	-23,04
311,022	-72,19
311,235	26,11
311,447	19,97
311,66	-2,56
311,872	77,31
312,085	77,31
312,297	-8,7
312,51	-55,81
312,722	3,58
312,934	22,02
313,147	-51,71
313,359	-14,85
313,572	1,54
313,784	-20,99
313,996	30,21
314,209	22,02
314,421	-2,56
314,633	34,3
314,846	19,97
315,058	52,74
315,27	50,69
315,483	-14,85
315,695	5,63
315,907	-55,81
316,119	-37,38
316,332	36,35
316,544	116,22
316,756	75,26
316,968	67,07
317,181	-33,28
317,393	-88,57
317,605	-47,62
317,817	5,63
318,029	114,17
318,241	52,74
318,454	44,54
318,666	17,92
318,878	-57,86
319,09	-49,66
319,302	118,27
319,514	-80,38
319,726	9,73
319,938	198,14
320,15	38,4
320,362	138,75
320,574	-39,42
320,786	-39,42
320,999	-88,57
321,211	138,75
321,423	67,07
321,635	-23,04
321,847	-4,61
322,058	-31,23
322,27	32,26
322,482	136,7
322,694	89,6
322,906	34,3
323,118	19,97
323,33	67,07
323,542	26,11
323,754	17,92
323,966	-96,77
324,178	52,74
324,389	108,03
324,601	28,16
324,813	24,06
325,025	26,11
325,237	34,3
325,449	58,88
325,66	32,26
325,872	15,87
326,084	36,35
326,296	-39,42
326,507	38,4
326,719	95,74
326,931	-102,91
327,143	108,03
327,354	79,36
327,566	58,88
327,778	42,5
327,989	132,61
328,201	3,58
328,413	19,97
328,624	75,26
328,836	1,54
329,048	-64
329,259	19,97
329,471	42,5
329,682	3,58
329,894	-84,48
330,106	26,11
330,317	-6,66
330,529	-23,04
330,74	-25,09
330,952	38,4
331,163	26,11
331,375	34,3
331,586	99,84
331,798	-6,66
332,009	-8,7
332,221	17,92
332,432	69,12
332,644	24,06
332,855	-18,94
333,067	-51,71
333,278	46,59
333,489	77,31
333,701	-82,43
333,912	26,11
334,124	-55,81
334,335	-6,66
334,546	-47,62
334,758	-39,42
334,969	216,57
335,18	54,78
335,392	-55,81
335,603	95,74
335,814	75,26
336,025	-55,81
336,237	42,5
336,448	-72,19
336,659	-14,85
336,87	95,74
337,082	173,57
337,293	67,07
337,504	-39,42
337,715	24,06
337,926	11,78
338,138	44,54
338,349	7,68
338,56	-43,52
338,771	-4,61
338,982	17,92
339,193	17,92
339,404	17,92
339,616	83,45
339,827	19,97
340,038	22,02
340,249	75,26
340,46	26,11
340,671	-43,52
340,882	214,52
341,093	85,5
341,304	34,3
341,515	11,78
341,726	17,92
341,937	50,69
342,148	28,16
342,359	30,21
342,57	60,93
342,781	142,85
342,992	-6,66
343,203	50,69
343,414	122,37
343,624	-20,99
343,835	91,65
344,046	91,65
344,257	75,26
344,468	75,26
344,679	93,69
344,89	120,32
345,1	116,22
345,311	181,76
345,522	214,52
345,733	157,18
345,944	206,33
346,154	271,87
346,365	226,81
346,576	169,47
346,787	163,33
346,997	259,58
347,208	216,57
347,419	126,46
347,629	208,38
347,84	169,47
348,051	169,47
348,261	77,31
348,472	-6,66
348,683	36,35
348,893	69,12
349,104	22,02
349,315	9,73
349,525	24,06
349,736	95,74
349,946	60,93
350,157	157,18
350,368	218,62
350,578	79,36
350,789	208,38
350,999	128,51
351,21	265,72
351,42	108,03
351,631	206,33
351,841	253,44
352,052	323,07
352,262	402,94
352,472	290,3
352,683	224,76
352,893	226,81
353,104	95,74
353,314	169,47
353,525	513,53
353,735	140,8
353,945	40,45
354,156	15,87
354,366	95,74
354,576	73,21
354,787	132,61
354,997	-12,8
355,207	-61,95
355,418	38,4
355,628	-23,04
355,838	28,16
356,048	-4,61
356,259	81,41
356,469	-39,42
356,679	34,3
356,889	62,98
357,1	-33,28
357,31	54,78
357,52	-92,67
357,73	-20,99
357,94	60,93
358,15	17,92
358,361	126,46
358,571	151,04
358,781	99,84
358,991	-6,66
359,201	134,65
359,411	124,41
359,621	134,65
359,831	239,1
360,041	120,32
360,251	134,65
360,461	103,93
360,672	65,02
360,882	-70,14
361,092	71,17
361,302	56,83
361,512	28,16
361,721	50,69
361,931	36,35
362,141	5,63
362,351	-35,33
362,561	126,46
362,771	-45,57
362,981	56,83
363,191	60,93
363,401	-14,85
363,611	77,31
363,821	-80,38
364,03	13,82
364,24	-35,33
364,45	142,85
364,66	296,44
364,87	9,73
365,08	69,12
365,289	-12,8
365,499	52,74
365,709	69,12
365,919	40,45
366,128	58,88
366,338	34,3
366,548	-16,9
366,758	26,11
366,967	-12,8
367,177	1,54
367,387	-6,66
367,596	1,54
367,806	91,65
368,016	38,4
368,225	112,13
368,435	91,65
368,644	42,5
368,854	-64
369,064	99,84
369,273	77,31
369,483	-33,28
369,692	-45,57
369,902	17,92
370,111	34,3
370,321	-23,04
370,53	50,69
370,74	-23,04
370,949	71,17
371,159	65,02
371,368	71,17
371,578	30,21
371,787	50,69
371,997	13,82
372,206	77,31
372,416	75,26
372,625	54,78
372,834	13,82
373,044	-39,42
373,253	28,16
373,462	56,83
373,672	1,54
373,881	101,89
374,09	-27,14
374,3	-47,62
374,509	44,54
374,718	-47,62
374,928	75,26
375,137	13,82
375,346	-25,09
375,555	120,32
375,765	58,88
375,974	9,73
376,183	26,11
376,392	32,26
376,601	124,41
376,811	60,93
377,02	103,93
377,229	28,16
377,438	67,07
377,647	-23,04
377,856	-31,23
378,065	-47,62
378,275	-43,52
378,484	9,73
378,693	67,07
378,902	9,73
379,111	34,3
379,32	-14,85
379,529	30,21
379,738	60,93
379,947	87,55
380,156	-14,85
380,365	-47,62
380,574	38,4
380,783	-59,9
380,992	-10,75
381,201	3,58
381,41	-55,81
381,619	60,93
381,828	-4,61
382,037	9,73
382,245	42,5
382,454	73,21
382,663	9,73
382,872	-20,99
383,081	30,21
383,29	56,83
383,499	-39,42
383,707	128,51
383,916	54,78
384,125	1,54
384,334	-37,38
384,542	108,03
384,751	-4,61
384,96	28,16
385,169	-14,85
385,377	-59,9
385,586	9,73
385,795	38,4
386,004	124,41
386,212	-125,44
386,421	-20,99
386,63	50,69
386,838	5,63
387,047	148,99
387,255	30,21
387,464	44,54
387,673	71,17
387,881	17,92
388,09	87,55
388,298	159,23
388,507	110,08
388,715	17,92
388,924	65,02
389,133	-113,15
389,341	-10,75
389,55	-55,81
389,758	9,73
389,967	44,54
390,175	3,58
390,383	75,26
390,592	58,88
390,8	-45,57
391,009	9,73
391,217	73,21
391,426	87,55
391,634	-25,09
391,842	77,31
392,051	1,54
392,259	-6,66
392,467	-80,38
392,676	-45,57
392,884	-2,56
393,092	-70,14
393,301	1,54
393,509	-53,76
393,717	73,21
393,925	-31,23
394,134	-78,33
394,342	9,73
394,55	75,26
394,758	-6,66
394,967	11,78
395,175	-4,61
395,383	36,35
395,591	-14,85
395,799	108,03
396,007	1,54
396,216	132,61
396,424	-4,61
396,632	17,92
396,84	-23,04
397,048	56,83
397,256	65,02
397,464	-31,23
397,672	-2,56
397,88	-61,95
398,088	-29,18
398,296	19,97
398,504	-25,09
398,712	28,16
398,92	-12,8
399,128	50,69
399,336	19,97
399,544	-23,04
399,752	-12,8
399,96	3,58
400,168	-6,66
400,376	-31,23
400,584	30,21
400,792	-20,99
401	-23,04
401,207	26,11
401,415	67,07
401,623	54,78
401,831	-14,85
402,039	83,45
402,247	99,84
402,454	77,31
402,662	95,74
402,87	52,74
403,078	83,45
403,285	108,03
403,493	-43,52
403,701	17,92
403,909	50,69
404,116	26,11
404,324	91,65
404,532	22,02
404,739	42,5
404,947	-47,62
405,155	19,97
405,362	153,09
405,57	34,3
405,778	-31,23
405,985	-39,42
406,193	-35,33
406,4	7,68
406,608	75,26
406,816	17,92
407,023	9,73
407,231	-39,42
407,438	132,61
407,646	95,74
407,853	91,65
408,061	-27,14
408,268	3,58
408,476	79,36
408,683	48,64
408,89	91,65
409,098	26,11
409,305	-25,09
409,513	71,17
409,72	11,78
409,927	-78,33
410,135	91,65
410,342	-27,14
410,55	67,07
410,757	-4,61
410,964	-84,48
411,172	7,68
411,379	-14,85
411,586	17,92
411,793	-55,81
412,001	-39,42
412,208	17,92
412,415	-6,66
412,622	75,26
412,83	17,92
413,037	36,35
413,244	-31,23
413,451	-35,33
413,658	42,5
413,866	89,6
414,073	-45,57
414,28	101,89
414,487	-4,61
414,694	-20,99
414,901	-12,8
415,108	50,69
415,315	-39,42
415,522	93,69
415,73	-61,95
415,937	-88,57
416,144	-51,71
416,351	-51,71
416,558	-61,95
416,765	52,74
416,972	9,73
417,179	-20,99
417,386	62,98
417,593	-18,94
417,8	3,58
418,006	9,73
418,213	-64
418,42	116,22
418,627	128,51
418,834	97,79
419,041	-31,23
419,248	17,92
419,455	85,5
419,661	60,93
419,868	-47,62
420,075	-18,94
420,282	-125,44
420,489	-51,71
420,696	26,11
420,902	85,5
421,109	101,89
421,316	-35,33
421,523	1,54
421,729	26,11
421,936	-64
422,143	83,45
422,349	17,92
422,556	-37,38
422,763	22,02
422,969	44,54
423,176	3,58
423,383	-47,62
423,589	275,96
423,796	-10,75
424,002	34,3
424,209	67,07
424,416	81,41
424,622	-47,62
424,829	67,07
425,035	-68,09
425,242	-27,14
425,448	-6,66
425,655	42,5
425,861	-37,38
426,068	83,45
426,274	140,8
426,481	-14,85
426,687	50,69
426,894	-8,7
427,1	28,16
427,306	-41,47
427,513	-6,66
427,719	42,5
427,926	-14,85
428,132	69,12
428,338	62,98
428,545	44,54
428,751	-23,04
428,957	13,82
429,163	-41,47
429,37	101,89
429,576	34,3
429,782	91,65
429,989	-20,99
430,195	77,31
430,401	36,35
430,607	-0,51
430,813	-29,18
431,02	120,32
431,226	46,59
431,432	-4,61
431,638	3,58
431,844	-14,85
432,05	17,92
432,257	-8,7
432,463	42,5
432,669	110,08
432,875	-33,28
433,081	-51,71
433,287	30,21
433,493	-102,91
433,699	3,58
433,905	89,6
434,111	-127,49
434,317	-6,66
434,523	110,08
434,729	28,16
434,935	26,11
435,141	140,8
435,347	-31,23
435,553	-6,66
435,759	11,78
435,965	-6,66
436,171	13,82
436,377	67,07
436,582	120,32
436,788	26,11
436,994	126,46
437,2	38,4
437,406	62,98
437,612	44,54
437,818	44,54
438,023	-88,57
438,229	93,69
438,435	75,26
438,641	-104,96
438,846	22,02
439,052	36,35
439,258	116,22
439,464	-53,76
439,669	52,74
439,875	108,03
440,081	26,11
440,286	-23,04
440,492	-45,57
440,698	42,5
440,903	34,3
441,109	60,93
441,314	-6,66
441,52	-53,76
441,726	67,07
441,931	60,93
442,137	140,8
442,342	50,69
442,548	69,12
442,753	110,08
442,959	17,92
443,164	42,5
443,37	46,59
443,575	26,11
443,781	17,92
443,986	99,84
444,192	-39,42
444,397	26,11
444,602	1,54
444,808	-6,66
445,013	-31,23
445,219	-23,04
445,424	101,89
445,629	15,87
445,835	132,61
446,04	-29,18
446,245	-18,94
446,451	9,73
446,656	28,16
446,861	44,54
447,066	69,12
447,272	101,89
447,477	50,69
447,682	26,11
447,887	9,73
448,093	5,63
448,298	148,99
448,503	13,82
448,708	-45,57
448,913	-41,47
449,118	93,69
449,324	-57,86
449,529	67,07
449,734	26,11
449,939	-51,71
450,144	95,74
450,349	87,55
450,554	-14,85
450,759	-70,14
450,964	93,69
451,169	-23,04
451,374	19,97
451,579	36,35
451,784	34,3
451,989	-14,85
452,194	22,02
452,399	60,93
452,604	-12,8
452,809	-47,62
453,014	32,26
453,219	44,54
453,424	110,08
453,629	-23,04
453,833	-92,67
454,038	101,89
454,243	-6,66
454,448	103,93
454,653	75,26
454,858	69,12
455,062	28,16
455,267	1,54
455,472	155,13
455,677	-14,85
455,882	1,54
456,086	110,08
456,291	19,97
456,496	-59,9
456,7	-2,56
456,905	36,35
457,11	116,22
457,314	-18,94
457,519	3,58
457,724	60,93
457,928	-16,9
458,133	75,26
458,338	42,5
458,542	-18,94
458,747	-29,18
458,951	1,54
459,156	79,36
459,36	-119,29
459,565	142,85
459,769	-43,52
459,974	52,74
460,178	17,92
460,383	-31,23
460,587	52,74
460,792	9,73
460,996	-23,04
461,201	34,3
461,405	91,65
461,61	-23,04
461,814	-4,61
462,018	-39,42
462,223	-8,7
462,427	-12,8
462,631	32,26
462,836	69,12
463,04	50,69
463,244	85,5
463,449	3,58
463,653	132,61
463,857	17,92
464,062	69,12
464,266	-2,56
464,47	67,07
464,674	34,3
464,878	42,5
465,083	-82,43
465,287	99,84
465,491	-23,04
465,695	13,82
465,899	-135,68
466,104	110,08
466,308	9,73
466,512	-20,99
466,716	108,03
466,92	89,6
467,124	118,27
467,328	-10,75
467,532	67,07
467,736	5,63
467,94	91,65
468,144	28,16
468,348	-39,42
468,552	157,18
468,756	-35,33
468,96	11,78
469,164	-31,23
469,368	118,27
469,572	24,06
469,776	91,65
469,98	38,4
470,184	36,35
470,388	148,99
470,591	99,84
470,795	171,52
470,999	99,84
471,203	132,61
471,407	67,07
471,611	144,89
471,814	50,69
472,018	36,35
472,222	91,65
472,426	38,4
472,63	75,26
472,833	99,84
473,037	83,45
473,241	26,11
473,444	38,4
473,648	585,21
473,852	-10,75
474,055	36,35
474,259	9,73
474,463	-29,18
474,666	42,5
474,87	9,73
475,074	42,5
475,277	48,64
475,481	101,89
475,684	17,92
475,888	85,5
476,091	-51,71
476,295	11,78
476,498	-6,66
476,702	3,58
476,905	75,26
477,109	71,17
477,312	58,88
477,516	-64
477,719	28,16
477,923	-64
478,126	-39,42
478,329	34,3
478,533	46,59
478,736	91,65
478,94	56,83
479,143	-8,7
479,346	46,59
479,55	26,11
479,753	-92,67
479,956	-64
480,159	9,73
480,363	77,31
480,566	36,35
480,769	-23,04
480,972	34,3
481,176	34,3
481,379	112,13
481,582	112,13
481,785	-33,28
481,988	110,08
482,192	99,84
482,395	67,07
482,598	42,5
482,801	3,58
483,004	110,08
483,207	-92,67
483,41	95,74
483,613	75,26
483,817	116,22
484,02	-37,38
484,223	-70,14
484,426	-4,61
484,629	13,82
484,832	157,18
485,035	71,17
485,238	44,54
485,441	28,16
485,644	42,5
485,846	79,36
486,049	17,92
486,252	-64
486,455	9,73
486,658	9,73
486,861	116,22
487,064	118,27
487,267	-6,66
487,47	151,04
487,672	58,88
487,875	83,45
488,078	3,58
488,281	67,07
488,484	62,98
488,686	9,73
488,889	9,73
489,092	-25,09
489,295	36,35
489,497	99,84
489,7	69,12
489,903	42,5
490,105	-23,04
490,308	38,4
490,511	-14,85
490,713	46,59
490,916	34,3
491,118	-43,52
491,321	28,16
491,524	-31,23
491,726	26,11
491,929	-18,94
492,131	-12,8
492,334	-78,33
492,536	58,88
492,739	-2,56
492,941	83,45
493,144	19,97
493,346	38,4
493,549	46,59
493,751	26,11
493,954	26,11
494,156	48,64
494,359	46,59
494,561	-12,8
494,763	-6,66
494,966	38,4
495,168	83,45
495,37	17,92
495,573	-55,81
495,775	30,21
495,977	116,22
496,18	42,5
496,382	110,08
496,584	-59,9
496,787	155,13
496,989	-25,09
497,191	83,45
497,393	58,88
497,595	34,3
497,798	-20,99
498	58,88
498,202	89,6
498,404	11,78
498,606	11,78
498,808	91,65
499,011	95,74
499,213	108,03
499,415	-55,81
499,617	75,26
499,819	110,08
500,021	108,03
500,223	58,88
500,425	85,5
500,627	26,11
500,829	34,3
501,031	62,98
501,233	9,73
501,435	13,82
501,637	13,82
501,839	159,23
502,041	-6,66
502,243	116,22
502,445	3,58
502,647	44,54
502,848	128,51
503,05	132,61
503,252	126,46
503,454	173,57
503,656	181,76
503,858	267,77
504,059	230,91
504,261	296,44
504,463	323,07
504,665	167,42
504,867	216,57
505,068	136,7
505,27	83,45
505,472	95,74
505,673	85,5
505,875	30,21
506,077	26,11
506,278	83,45
506,48	36,35
506,682	67,07
506,883	7,68
507,085	99,84
507,287	3,58
507,488	198,14
507,69	212,48
507,891	134,65
508,093	181,76
508,294	101,89
508,496	99,84
508,697	140,8
508,899	128,51
509,1	110,08
509,302	124,41
509,503	93,69
509,705	140,8
509,906	22,02
510,108	32,26
510,309	17,92
510,51	110,08
510,712	42,5
510,913	97,79
511,114	189,95
511,316	9,73
511,517	169,47
511,718	110,08
511,92	218,62
512,121	169,47
512,322	198,14
512,524	239,1
512,725	124,41
512,926	173,57
513,127	108,03
513,329	112,13
513,53	95,74
513,731	157,18
513,932	50,69
514,133	54,78
514,334	110,08
514,536	194,05
514,737	120,32
514,938	239,1
515,139	255,48
515,34	67,07
515,541	300,54
515,742	75,26
515,943	194,05
516,144	183,81
516,345	54,78
516,546	118,27
516,747	19,97
516,948	26,11
517,149	26,11
517,35	-23,04
517,551	-12,8
517,752	-25,09
517,953	44,54
518,154	38,4
518,355	83,45
518,556	85,5
518,756	167,42
518,957	140,8
519,158	198,14
519,359	181,76
519,56	87,55
519,761	216,57
519,961	161,28
520,162	265,72
520,363	114,17
520,564	120,32
520,764	339,45
520,965	161,28
521,166	198,14
521,366	140,8
521,567	181,76
521,768	140,8
521,968	108,03
522,169	42,5
522,37	136,7
522,57	-31,23
522,771	38,4
522,972	34,3
523,172	192
523,373	116,22
523,573	69,12
523,774	58,88
523,974	132,61
524,175	11,78
524,375	58,88
524,576	32,26
524,776	36,35
524,977	-14,85
525,177	67,07
525,378	-39,42
525,578	67,07
525,778	112,13
525,979	50,69
526,179	-49,66
526,38	42,5
526,58	-10,75
526,78	-96,77
526,981	134,65
527,181	91,65
527,381	46,59
527,582	79,36
527,782	50,69
527,982	17,92
528,182	34,3
528,383	69,12
528,583	75,26
528,783	91,65
528,983	9,73
529,183	11,78
529,384	13,82
529,584	216,57
529,784	161,28
529,984	161,28
530,184	32,26
530,384	52,74
530,584	22,02
530,784	46,59
530,984	50,69
531,185	91,65
531,385	116,22
531,585	124,41
531,785	218,62
531,985	101,89
532,185	58,88
532,385	134,65
532,585	247,29
532,785	269,82
532,984	400,89
533,184	445,95
533,384	437,75
533,584	433,66
533,784	558,58
533,984	595,45
534,184	640,5
534,384	525,82
534,583	646,65
534,783	540,15
534,983	527,86
535,183	378,36
535,383	370,17
535,582	378,36
535,782	255,48
535,982	263,68
536,182	169,47
536,381	58,88
536,581	118,27
536,781	50,69
536,98	69,12
537,18	134,65
537,38	128,51
537,579	91,65
537,779	11,78
537,979	93,69
538,178	34,3
538,378	153,09
538,577	101,89
538,777	24,06
538,976	58,88
539,176	175,61
539,376	173,57
539,575	214,52
539,774	394,75
539,974	382,46
540,173	568,82
540,373	568,82
540,572	593,4
540,772	648,69
540,971	476,66
541,171	499,19
541,37	374,27
541,569	353,79
541,769	228,86
541,968	185,85
542,167	144,89
542,367	75,26
542,566	3,58
542,765	58,88
542,965	-10,75
543,164	134,65
543,363	17,92
543,562	9,73
543,761	-4,61
543,961	124,41
544,16	-12,8
544,359	169,47
544,558	116,22
544,757	19,97
544,957	67,07
545,156	228,86
545,355	38,4
545,554	5,63
545,753	-57,86
545,952	-20,99
546,151	79,36
546,35	95,74
546,549	69,12
546,748	79,36
546,947	17,92
547,146	-88,57
547,345	22,02
547,544	28,16
547,743	-47,62
547,942	83,45
548,141	-2,56
548,34	79,36
548,539	-53,76
548,738	38,4
548,937	58,88
549,135	52,74
549,334	-47,62
549,533	60,93
549,732	3,58
549,931	85,5
550,13	50,69
550,328	-45,57
550,527	34,3
550,726	83,45
550,925	-39,42
551,123	79,36
551,322	-88,57
551,521	155,13
551,72	-16,9
551,918	138,75
552,117	26,11
552,315	30,21
552,514	26,11
552,713	9,73
552,911	-4,61
553,11	-43,52
553,309	32,26
553,507	-6,66
553,706	-14,85
553,904	77,31
554,103	67,07
554,301	52,74
554,5	-6,66
554,698	108,03
554,897	48,64
555,095	-90,62
555,294	-6,66
555,492	19,97
555,69	103,93
555,889	-6,66
556,087	108,03
556,286	128,51
556,484	110,08
556,682	-2,56
556,881	132,61
557,079	75,26
557,277	91,65
557,476	134,65
557,674	210,43
557,872	144,89
558,07	17,92
558,269	5,63
558,467	36,35
558,665	155,13
558,863	77,31
559,062	38,4
559,26	108,03
559,458	-72,19
559,656	58,88
559,854	71,17
560,052	-0,51
560,25	34,3
560,449	280,06
560,647	22,02
560,845	-12,8
561,043	99,84
561,241	134,65
561,439	116,22
561,637	48,64
561,835	34,3
562,033	26,11
562,231	-23,04
562,429	19,97
562,627	52,74
562,825	26,11
563,023	75,26
563,221	-4,61
563,418	9,73
563,616	17,92
563,814	120,32
564,012	34,3
564,21	97,79
564,408	110,08
564,605	54,78
564,803	-14,85
565,001	347,64
565,199	36,35
565,397	167,42
565,594	204,28
565,792	192
565,99	155,13
566,188	212,48
566,385	148,99
566,583	216,57
566,781	255,48
566,978	136,7
567,176	304,64
567,373	177,66
567,571	114,17
567,769	85,5
567,966	36,35
568,164	71,17
568,361	62,98
568,559	81,41
568,756	130,56
568,954	134,65
569,151	210,43
569,349	210,43
569,546	79,36
569,744	271,87
569,941	222,72
570,139	77,31
570,336	101,89
570,534	169,47
570,731	22,02
570,928	44,54
571,126	224,76
571,323	126,46
571,52	50,69
571,718	132,61
571,915	140,8
572,112	19,97
572,31	75,26
572,507	187,9
572,704	91,65
572,901	85,5
573,099	132,61
573,296	239,1
573,493	11,78
573,69	30,21
573,887	67,07
574,085	206,33
574,282	116,22
574,479	151,04
574,676	247,29
574,873	316,92
575,07	251,39
575,267	278,01
575,464	370,17
575,661	554,49
575,858	505,34
576,055	564,73
576,252	722,42
576,449	726,52
576,646	910,83
576,843	863,73
577,04	1025,52
577,237	978,42
577,434	892,4
577,631	798,2
577,828	689,65
578,025	511,48
578,222	468,47
578,419	355,83
578,615	206,33
578,812	151,04
579,009	126,46
579,206	134,65
579,403	202,24
579,599	173,57
579,796	99,84
579,993	359,93
580,19	99,84
580,386	192
580,583	275,96
580,78	292,35
580,976	411,13
581,173	292,35
581,37	458,23
581,566	396,79
581,763	437,75
581,96	525,82
582,156	542,2
582,353	681,46
582,549	687,61
582,746	665,08
582,942	660,98
583,139	593,4
583,335	566,78
583,532	970,23
583,728	1660,39
583,925	2969,04
584,121	4189,63
584,318	6231,46
584,514	8734,07
584,711	12021,06
584,907	15721,74
585,103	20059,34
585,3	23291,04
585,496	27169,89
585,693	29373,5
585,889	29850,68
586,085	28681,29
586,281	26289,26
586,478	22684,84
586,674	19393,75
586,87	16868,61
587,067	14415,14
587,263	11236,69
587,459	8570,24
587,655	6452,64
587,851	5574,06
588,048	5260,72
588,244	5414,32
588,44	5842,34
588,636	5930,41
588,832	5928,36
589,028	5780,9
589,224	4957,62
589,42	4468,16
589,617	3884,48
589,813	3450,32
590,009	2893,27
590,205	2483,67
590,401	1887,72
590,597	1467,88
590,793	1179,12
590,989	1091,06
591,185	982,51
591,38	914,93
591,576	781,81
591,772	751,09
591,968	693,75
592,164	574,97
592,36	544,25
592,556	427,51
592,752	550,39
592,948	708,09
593,143	906,74
593,339	1420,78
593,535	2033,12
593,731	2858,45
593,926	4050,37
594,122	5039,54
594,318	6161,83
594,514	7529,87
594,709	8850,81
594,905	9454,96
595,101	9768,3
595,296	9266,55
595,492	8521,09
595,688	7404,94
595,883	6639
596,079	5756,33
596,275	5014,96
596,47	4228,54
596,666	3294,67
596,861	2655,7
597,057	2182,62
597,252	2135,52
597,448	2207,2
597,643	2590,17
597,839	2729,43
598,034	2754,01
598,23	2631,13
598,425	2751,96
598,621	2412
598,816	1965,54
599,011	1762,79
599,207	1461,74
599,402	1451,5
599,597	1205,74
599,793	894,45
599,988	560,63
600,183	411,13
600,379	372,22
600,574	370,17
600,769	368,12
600,965	255,48
601,16	263,68
601,355	161,28
601,55	419,32
601,745	402,94
601,941	546,3
602,136	755,19
602,331	951,79
602,526	1244,65
602,721	1633,77
602,916	1918,43
603,111	2272,73
603,307	2455
603,502	2575,83
603,697	2735,57
603,892	2551,26
604,087	2311,64
604,282	2117,09
604,477	1840,61
604,672	1533,42
604,867	1289,71
605,062	951,79
605,257	689,65
605,452	650,74
605,646	445,95
605,841	536,06
606,036	740,85
606,231	1168,88
606,426	1734,12
606,621	2409,95
606,816	3485,13
607,01	4351,42
607,205	5549,48
607,4	6712,73
607,595	7988,61
607,79	8516,99
607,984	9389,42
608,179	9495,92
608,374	9561,45
608,569	9504,11
608,763	9237,88
608,958	9753,96
609,153	10630,49
609,347	11298,13
609,542	12027,21
609,736	12768,57
609,931	12928,31
610,126	13264,18
610,32	13038,91
610,515	12258,63
610,709	11582,8
610,904	9766,25
611,098	8365,44
611,293	7046,55
611,487	5959,08
611,682	4675
611,876	3415,5
612,071	2297,31
612,265	1500,65
612,46	1187,31
612,654	1279,47
612,848	1779,17
613,043	2577,88
613,237	3892,68
613,432	5268,91
613,626	7273,87
613,82	9598,32
614,014	12270,92
614,209	14886,17
614,403	17171,71
614,597	19778,77
614,792	20593,86
614,986	21155,01
615,18	20399,3
615,374	18978,01
615,568	16846,08
615,763	15381,78
615,957	14191,91
616,151	12772,67
616,345	11965,77
616,539	10454,37
616,733	9106,81
616,927	7921,03
617,121	6956,44
617,316	6331,81
617,51	5455,28
617,704	4736,44
617,898	4142,53
618,092	3536,33
618,286	3012,05
618,48	2289,12
618,674	1844,71
618,868	1246,7
619,061	896,5
619,255	806,39
619,449	583,16
619,643	427,51
619,837	515,58
620,031	411,13
620,225	527,86
620,419	667,13
620,612	882,16
620,806	1254,89
621	1605,1
621,194	2045,41
621,388	2526,68
621,581	3065,3
621,775	3706,31
621,969	4232,64
622,162	4279,74
622,356	4330,94
622,55	4244,93
622,743	4050,37
622,937	3491,27
623,131	2942,42
623,324	2581,98
623,518	2280,93
623,712	1811,94
623,905	1439,21
624,099	1062,38
624,292	697,85
624,486	445,95
624,679	386,55
624,873	271,87
625,066	558,58
625,26	830,96
625,453	1123,82
625,647	1807,84
625,84	2772,44
626,034	3673,54
626,227	4801,97
626,42	6016,42
626,614	7234,96
626,807	8510,85
627	9217,4
627,194	9397,62
627,387	9446,77
627,58	8957,3
627,774	7937,41
627,967	7212,43
628,16	6245,79
628,353	5451,18
628,547	4629,95
628,74	3941,83
628,933	2907,6
629,126	2194,91
629,319	1697,25
629,513	1717,73
629,706	1861,09
629,899	2207,2
630,092	2749,91
630,285	3124,69
630,478	3657,16
630,671	4107,71
630,864	4683,19
631,057	4687,29
631,25	4662,71
631,443	4482,49
631,636	4175,3
631,829	3937,73
632,022	3995,08
632,215	4314,56
632,408	4885,94
632,601	5467,56
632,794	6682,01
632,987	8160,64
633,18	9784,68
633,373	11466,07
633,566	12981,56
633,758	13905,2
633,951	15156,5
634,144	15015,19
634,337	14517,54
634,53	13239,61
634,722	11746,64
634,915	9854,31
635,108	9014,65
635,301	7746,95
635,493	6614,43
635,686	4806,07
635,879	3272,14
636,071	2069,98
636,264	1500,65
636,457	1070,58
636,649	796,15
636,842	1148,4
637,034	1553,9
637,227	2256,35
637,42	3179,98
637,612	4353,47
637,805	5721,51
637,997	7619,98
638,19	9112,95
638,382	10653,02
638,575	12576,06
638,767	15039,77
638,96	17163,51
639,152	20264,14
639,344	23432,35
639,537	27126,88
639,729	31810,59
639,922	37397,45
640,114	43205,48
640,306	48200,48
640,499	51378,93
640,691	53002,97
640,883	53367,51
641,075	50606,84
641,268	46355,26
641,46	40180,63
641,652	34567,15
641,844	30194,74
642,037	26653,8
642,229	22039,73
642,421	17128,7
642,613	12227,91
642,805	7783,82
642,998	4711,86
643,19	3089,87
643,382	2049,5
643,574	1377,77
643,766	955,89
643,958	820,72
644,15	722,42
644,342	574,97
644,534	468,47
644,726	335,35
644,918	372,22
645,11	257,53
645,302	284,16
645,494	372,22
645,686	196,09
645,878	108,03
646,07	208,38
646,262	259,58
646,453	216,57
646,645	159,23
646,837	255,48
647,029	206,33
647,221	181,76
647,413	151,04
647,604	200,19
647,796	124,41
647,988	136,7
648,18	144,89
648,371	108,03
648,563	105,98
648,755	210,43
648,947	214,52
649,138	691,7
649,33	1517,03
649,521	2551,26
649,713	3909,06
649,905	5475,76
650,096	7726,47
650,288	10186,08
650,479	12766,53
650,671	15142,17
650,863	17134,84
651,054	18189,55
651,246	18740,45
651,437	18228,46
651,629	17632,5
651,82	15781,14
652,011	13866,28
652,203	12631,36
652,394	11607,37
652,586	10532,19
652,777	9463,15
652,968	8154,5
653,16	7042,45
653,351	6305,18
653,542	5901,73
653,734	5350,83
653,925	5129,65
654,116	4871,61
654,308	4466,11
654,499	3696,07
654,69	3538,38
654,881	2905,56
655,073	2745,81
655,264	2389,47
655,455	1820,13
655,646	1404,39
655,837	1089,01
656,028	716,28
656,219	333,31
656,411	341,5
656,602	235
656,793	167,42
656,984	241,15
657,175	93,69
657,366	140,8
657,557	142,85
657,748	116,22
657,939	165,37
658,13	124,41
658,321	353,79
658,512	431,61
658,703	845,3
658,894	1222,13
659,084	1773,03
659,275	2635,22
659,466	3214,8
659,657	3958,21
659,848	5064,11
660,039	5524,91
660,23	6270,37
660,42	6530,46
660,611	6172,07
660,802	6284,7
660,993	5563,82
661,183	5057,97
661,374	4443,58
661,565	3966,4
661,755	3319,25
661,946	2868,69
662,137	2330,08
662,327	1691,11
662,518	1129,97
662,709	822,77
662,899	411,13
663,09	337,4
663,28	296,44
663,471	222,72
663,662	318,97
663,852	243,2
664,043	87,55
664,233	83,45
664,424	179,71
664,614	91,65
664,804	153,09
664,995	216,57
665,185	116,22
665,376	101,89
665,566	189,95
665,756	67,07
665,947	93,69
666,137	222,72
666,328	513,53
666,518	849,4
666,708	1566,18
666,898	2379,23
667,089	3521,99
667,279	4806,07
667,469	6196,64
667,659	7841,16
667,85	9127,28
668,04	10235,24
668,23	10931,55
668,42	11257,17
668,61	10995,03
668,8	10349,92
668,991	9583,98
669,181	8267,14
669,371	7239,06
669,561	6503,84
669,751	5819,82
669,941	4867,51
670,131	3851,72
670,321	3124,69
670,511	2672,09
670,701	2418,14
670,891	2510,3
671,081	2880,98
671,271	3722,7
671,461	4433,34
671,651	5293,49
671,841	6118,82
672,03	6516,12
672,22	6768,02
672,41	6800,79
672,6	6503,84
672,79	5950,89
672,98	5223,86
673,169	4539,83
673,359	4081,09
673,549	3687,88
673,739	3208,66
673,928	2565,59
674,118	2063,84
674,308	1388,01
674,497	976,37
674,687	529,91
674,877	372,22
675,066	312,83
675,256	173,57
675,446	169,47
675,635	67,07
675,825	50,69
676,014	108,03
676,204	42,5
676,393	91,65
676,583	118,27
676,772	148,99
676,962	26,11
677,151	67,07
677,341	50,69
677,53	11,78
677,72	99,84
677,909	93,69
678,099	11,78
678,288	-45,57
678,477	140,8
678,667	91,65
678,856	99,84
679,045	101,89
679,235	75,26
679,424	116,22
679,613	161,28
679,802	-39,42
679,992	93,69
680,181	67,07
680,37	22,02
680,559	95,74
680,748	17,92
680,938	19,97
681,127	42,5
681,316	118,27
681,505	71,17
681,694	-14,85
681,883	50,69
682,072	-14,85
682,261	83,45
682,45	-25,09
682,639	52,74
682,828	5,63
683,017	136,7
683,206	75,26
683,395	105,98
683,584	83,45
683,773	83,45
683,962	62,98
684,151	-14,85
684,34	75,26
684,529	110,08
684,718	28,16
684,907	38,4
685,095	157,18
685,284	124,41
685,473	3,58
685,662	46,59
685,851	75,26
686,039	30,21
686,228	34,3
686,417	-18,94
686,606	99,84
686,794	65,02
686,983	-35,33
687,172	75,26
687,36	67,07
687,549	32,26
687,738	38,4
687,926	11,78
688,115	30,21
688,303	32,26
688,492	167,42
688,68	77,31
688,869	58,88
689,057	15,87
689,246	1,54
689,434	44,54
689,623	50,69
689,811	124,41
690	-33,28
690,188	28,16
690,377	112,13
690,565	124,41
690,753	58,88
690,942	126,46
691,13	75,26
691,318	122,37
691,507	345,59
691,695	773,62
691,883	1476,07
692,072	2303,45
692,26	3343,82
692,448	4421,05
692,636	5768,62
692,824	7064,98
693,013	8056,2
693,201	8824,19
693,389	9356,66
693,577	9334,13
693,765	9436,53
693,953	8856,95
694,141	8015,24
694,329	6919,57
694,518	5977,51
694,706	5631,4
694,894	5039,54
695,082	4285,89
695,27	3683,78
695,458	2647,51
695,646	2016,74
695,834	1418,73
696,022	882,16
696,209	703,99
696,397	402,94
696,585	263,68
696,773	169,47
696,961	177,66
697,149	128,51
697,337	75,26
697,525	138,75
697,712	130,56
697,9	67,07
698,088	93,69
698,276	58,88
698,463	-6,66
698,651	101,89
698,839	77,31
699,027	108,03
699,214	169,47
699,402	26,11
699,59	54,78
699,777	42,5
699,965	165,37
700,152	-35,33
700,34	9,73
700,528	9,73
700,715	67,07
700,903	91,65
701,09	144,89
701,278	204,28
701,465	257,53
701,653	364,03
701,84	691,7
702,028	1488,36
702,215	2495,96
702,402	3573,19
702,59	4941,24
702,777	6464,93
702,965	7939,46
703,152	9545,07
703,339	10964,31
703,527	12098,89
703,714	12143,94
703,901	12078,41
704,088	11930,95
704,276	11093,33
704,463	9786,73
704,65	8766,84
704,837	7583,12
705,025	7280,02
705,212	6112,67
705,399	5408,17
705,586	4597,18
705,773	3821
705,96	2827,73
706,147	2117,09
706,335	1304,04
706,522	1017,33
706,709	693,75
706,896	478,71
707,083	347,64
707,27	339,45
707,457	308,73
707,644	282,11
707,831	167,42
708,018	151,04
708,205	175,61
708,392	157,18
708,578	214,52
708,765	38,4
708,952	1,54
709,139	50,69
709,326	42,5
709,513	103,93
709,7	38,4
709,886	116,22
710,073	136,7
710,26	140,8
710,447	-20,99
710,633	50,69
710,82	120,32
711,007	38,4
711,193	93,69
711,38	60,93
711,567	13,82
711,753	50,69
711,94	42,5
712,127	108,03
712,313	108,03
712,5	26,11
712,686	60,93
712,873	19,97
713,059	28,16
713,246	85,5
713,432	-6,66
713,619	-37,38
713,805	11,78
713,992	151,04
714,178	-31,23
714,365	50,69
714,551	99,84
714,737	69,12
714,924	-43,52
715,11	124,41
715,297	-12,8
715,483	-29,18
715,669	28,16
715,855	95,74
716,042	91,65
716,228	206,33
716,414	423,42
716,6	542,2
716,787	847,35
716,973	1019,38
717,159	1281,52
717,345	1533,42
717,531	1770,98
717,718	1766,89
717,904	1885,67
718,09	1947,11
718,276	1848,8
718,462	1701,35
718,648	1590,76
718,834	1357,29
719,02	1263,08
719,206	1142,25
719,392	878,07
719,578	830,96
719,764	675,32
719,95	501,24
720,136	644,6
720,322	325,12
720,508	257,53
720,694	169,47
720,879	101,89
721,065	181,76
721,251	-29,18
721,437	58,88
721,623	124,41
721,809	52,74
721,994	34,3
722,18	30,21
722,366	128,51
722,552	9,73
722,737	42,5
722,923	132,61
723,109	140,8
723,294	404,99
723,48	869,87
723,666	1371,63
723,851	1902,05
724,037	2549,21
724,222	3323,34
724,408	3984,84
724,593	4421,05
724,779	4945,33
724,965	5002,68
725,15	5086,64
725,336	5121,46
725,521	4754,87
725,706	4160,96
725,892	3847,62
726,077	3315,15
726,263	3050,96
726,448	2684,38
726,634	2328,03
726,819	2106,85
727,004	1740,26
727,19	1433,07
727,375	1107,44
727,56	773,62
727,745	396,79
727,931	404,99
728,116	198,14
728,301	173,57
728,486	189,95
728,672	87,55
728,857	132,61
729,042	87,55
729,227	9,73
729,412	83,45
729,597	-47,62
729,783	-14,85
729,968	11,78
730,153	75,26
730,338	50,69
730,523	-53,76
730,708	-45,57
730,893	-47,62
731,078	28,16
731,263	17,92
731,448	-47,62
731,633	83,45
731,818	-61,95
732,003	-20,99
732,187	-72,19
732,372	52,74
732,557	91,65
732,742	-61,95
732,927	9,73
733,112	83,45
733,297	-12,8
733,481	54,78
733,666	67,07
733,851	-6,66
734,036	-45,57
734,22	-14,85
734,405	200,19
734,59	-94,72
734,774	67,07
734,959	1,54
735,144	103,93
735,328	-16,9
735,513	-20,99
735,698	26,11
735,882	99,84
736,067	67,07
736,251	52,74
736,436	-6,66
736,62	81,41
736,805	-25,09
736,989	126,46
737,174	-96,77
737,358	9,73
737,543	42,5
737,727	5,63
737,911	118,27
738,096	17,92
738,28	157,18
738,465	44,54
738,649	26,11
738,833	50,69
739,018	-29,18
739,202	-4,61
739,386	-29,18
739,57	44,54
739,755	91,65
739,939	87,55
740,123	-33,28
740,307	58,88
740,491	69,12
740,676	-18,94
740,86	46,59
741,044	40,45
741,228	58,88
741,412	-14,85
741,596	7,68
741,78	-133,63
741,964	91,65
742,148	26,11
742,332	50,69
742,516	-20,99
742,7	157,18
742,884	157,18
743,068	308,73
743,252	517,62
743,436	607,73
743,62	689,65
743,804	1127,92
743,988	1242,61
744,172	1218,03
744,356	1193,45
744,539	1197,55
744,723	1117,68
744,907	951,79
745,091	986,61
745,275	880,11
745,458	777,72
745,642	642,55
745,826	560,63
746,009	577,02
746,193	513,53
746,377	519,67
746,56	394,75
746,744	409,08
746,928	253,44
747,111	257,53
747,295	114,17
747,478	153,09
747,662	91,65
747,846	189,95
748,029	296,44
748,213	206,33
748,396	339,45
748,58	419,32
748,763	353,79
748,946	374,27
749,13	439,8
749,313	370,17
749,497	574,97
749,68	464,38
749,863	404,99
750,047	415,23
750,23	304,64
750,413	321,02
750,597	273,92
750,78	114,17
750,963	302,59
751,146	148,99
751,33	120,32
751,513	169,47
751,696	165,37
751,879	116,22
752,062	7,68
752,246	142,85
752,429	138,75
752,612	93,69
752,795	181,76
752,978	159,23
753,161	120,32
753,344	245,24
753,527	378,36
753,71	374,27
753,893	531,96
754,076	476,66
754,259	476,66
754,442	423,42
754,625	491
754,808	534,01
754,991	425,47
755,174	396,79
755,357	333,31
755,539	331,26
755,722	321,02
755,905	216,57
756,088	181,76
756,271	146,94
756,453	151,04
756,636	60,93
756,819	196,09
757,002	62,98
757,184	206,33
757,367	167,42
757,55	36,35
757,732	134,65
757,915	1,54
758,098	-23,04
758,28	87,55
758,463	9,73
758,645	-37,38
758,828	83,45
759,011	69,12
759,193	26,11
759,376	7,68
759,558	-53,76
759,741	-55,81
759,923	-6,66
760,105	1,54
760,288	52,74
760,47	-80,38
760,653	7,68
760,835	-37,38
761,017	-25,09
761,2	85,5
761,382	71,17
761,564	-18,94
761,747	105,98
761,929	34,3
762,111	-14,85
762,294	52,74
762,476	132,61
762,658	34,3
762,84	116,22
763,022	42,5
763,205	71,17
763,387	118,27
763,569	60,93
763,751	-88,57
763,933	-12,8
764,115	-39,42
764,297	26,11
764,479	-6,66
764,661	58,88
764,843	181,76
765,025	34,3
765,207	77,31
765,389	-12,8
765,571	-80,38
765,753	28,16
765,935	54,78
766,117	38,4
766,299	99,84
766,481	103,93
766,663	-29,18
766,845	22,02
767,026	-18,94
767,208	81,41
767,39	24,06
767,572	-39,42
767,753	67,07
767,935	54,78
768,117	116,22
768,299	185,85
768,48	-31,23
768,662	75,26
768,844	26,11
769,025	108,03
769,207	11,78
769,389	5,63
769,57	67,07
769,752	62,98
769,933	17,92
770,115	67,07
770,296	30,21
770,478	40,45
770,659	-88,57
770,841	185,85
771,022	58,88
771,204	48,64
771,385	67,07
771,567	108,03
771,748	128,51
771,929	-59,9
772,111	7,68
772,292	110,08
772,473	19,97
772,655	58,88
772,836	34,3
773,017	144,89
773,199	1,54
773,38	56,83
773,561	165,37
773,742	1,54
773,923	-39,42
774,105	124,41
774,286	42,5
774,467	22,02
774,648	-49,66
774,829	42,5
775,01	1,54
775,191	-72,19
775,372	42,5
775,553	50,69
775,734	58,88
775,915	79,36
776,096	93,69
776,277	34,3
776,458	1,54
776,639	50,69
776,82	67,07
777,001	30,21
777,182	-45,57
777,363	5,63
777,544	108,03
777,725	95,74
777,906	62,98
778,086	-0,51
778,267	28,16
778,448	38,4
778,629	19,97
778,809	52,74
778,99	-4,61
779,171	-2,56
779,352	26,11
779,532	5,63
779,713	-12,8
779,894	-70,14
780,074	167,42
780,255	81,41
780,435	85,5
780,616	71,17
780,797	108,03
780,977	-18,94
781,158	-39,42
781,338	-18,94
781,519	-107,01
781,699	177,66
781,88	1,54
782,06	32,26
782,241	-64
782,421	-49,66
782,601	50,69
782,782	-10,75
782,962	75,26
783,142	-119,29
783,323	26,11
783,503	42,5
783,683	34,3
783,864	58,88
784,044	-10,75
784,224	83,45
784,404	42,5
784,585	58,88
784,765	26,11
784,945	165,37
785,125	-14,85
785,305	91,65
785,485	114,17
785,666	42,5
785,846	-51,71
786,026	28,16
786,206	1,54
786,386	30,21
786,566	19,97
786,746	42,5
786,926	60,93
787,106	-80,38
787,286	89,6
787,466	48,64
787,646	77,31
787,826	58,88
788,006	69,12
788,185	22,02
788,365	-113,15
788,545	71,17
788,725	26,11
788,905	58,88
789,085	108,03
789,264	-20,99
789,444	50,69
789,624	108,03
789,804	-4,61
789,983	142,85
790,163	-39,42
790,343	48,64
790,522	17,92
790,702	17,92
790,882	-64
791,061	153,09
791,241	19,97
791,42	32,26
791,6	99,84
791,78	19,97
791,959	19,97
792,139	-55,81
792,318	-39,42
792,498	67,07
792,677	26,11
792,856	44,54
793,036	22,02
793,215	17,92
793,395	165,37
793,574	50,69
793,753	128,51
793,933	112,13
794,112	91,65
794,291	91,65
794,471	161,28
794,65	87,55
794,829	17,92
795,008	148,99
795,188	85,5
795,367	204,28
795,546	83,45
795,725	65,02
795,904	60,93
796,084	65,02
796,263	130,56
796,442	108,03
796,621	34,3
796,8	93,69
796,979	34,3
797,158	65,02
797,337	-47,62
797,516	71,17
797,695	140,8
797,874	36,35
798,053	87,55
798,232	3,58
798,411	-45,57
798,59	-45,57
798,769	-14,85
798,947	17,92
799,126	36,35
799,305	50,69
799,484	87,55
799,663	60,93
799,842	99,84
800,02	52,74
800,199	-10,75
800,378	52,74
800,557	-37,38
800,735	-55,81
800,914	-0,51
801,093	34,3
801,271	30,21
801,45	79,36
801,628	58,88
801,807	56,83
801,986	62,98
802,164	65,02
802,343	-94,72
802,521	-39,42
802,7	36,35
802,878	1,54
803,057	-12,8
803,235	11,78
803,414	34,3
803,592	44,54
803,771	50,69
803,949	1,54
804,127	38,4
804,306	132,61
804,484	-55,81
804,662	26,11
804,841	-31,23
805,019	13,82
805,197	58,88
805,375	-0,51
805,554	40,45
805,732	-49,66
805,91	5,63
806,088	79,36
806,266	-49,66
806,445	62,98
806,623	30,21
806,801	-0,51
806,979	116,22
807,157	46,59
807,335	-31,23
807,513	1,54
807,691	126,46
807,869	-102,91
808,047	71,17
808,225	3,58
808,403	50,69
808,581	-10,75
808,759	116,22
808,937	75,26
809,115	124,41
809,293	97,79
809,471	9,73
809,649	30,21
809,826	95,74
810,004	34,3
810,182	34,3
810,36	-27,14
810,538	69,12
810,715	83,45
810,893	-53,76
811,071	83,45
811,248	132,61
811,426	50,69
811,604	58,88
811,781	136,7
811,959	101,89
812,137	48,64
812,314	-14,85
812,492	42,5
812,669	65,02
812,847	42,5
813,024	85,5
813,202	175,61
813,379	19,97
813,557	151,04
813,734	247,29
813,912	103,93
814,089	1,54
814,267	208,38
814,444	83,45
814,621	93,69
814,799	50,69
814,976	134,65
815,153	103,93
815,331	71,17
815,508	50,69
815,685	3,58
815,862	69,12
816,04	77,31
816,217	-45,57
816,394	81,41
816,571	52,74
816,748	161,28
816,926	157,18
817,103	214,52
817,28	60,93
817,457	9,73
817,634	189,95
817,811	-14,85
817,988	19,97
818,165	-39,42
818,342	60,93
818,519	15,87
818,696	-12,8
818,873	22,02
819,05	69,12
819,227	-23,04
819,404	58,88
819,581	-6,66
819,758	26,11
819,934	-14,85
820,111	-94,72
820,288	-29,18
820,465	34,3
820,642	28,16
820,818	67,07
820,995	15,87
821,172	75,26
821,349	22,02
821,525	26,11
821,702	93,69
821,879	-18,94
822,055	52,74
822,232	-18,94
822,409	9,73
822,585	126,46
822,762	114,17
822,938	97,79
823,115	-6,66
823,291	-55,81
823,468	103,93
823,644	1,54
823,821	75,26
823,997	1,54
824,174	-20,99
824,35	-8,7
824,527	50,69
824,703	69,12
824,879	54,78
825,056	9,73
825,232	124,41
825,408	83,45
825,585	91,65
825,761	-4,61
825,937	11,78
826,113	19,97
826,29	36,35
826,466	30,21
826,642	366,07
826,818	42,5
826,994	42,5
827,17	9,73
827,347	-6,66
827,523	-109,05
827,699	110,08
827,875	85,5
828,051	99,84
828,227	52,74
828,403	42,5
828,579	75,26
828,755	34,3
828,931	110,08
829,107	81,41
829,283	142,85
829,459	73,21
829,635	91,65
829,811	159,23
829,986	101,89
830,162	91,65
830,338	124,41
830,514	60,93
830,69	67,07
830,865	42,5
831,041	58,88
831,217	5,63
831,393	60,93
831,568	50,69
831,744	38,4
831,92	44,54
832,095	75,26
832,271	13,82
832,447	22,02
832,622	192
832,798	132,61
832,973	-27,14
833,149	85,5
833,325	83,45
833,5	42,5
833,676	46,59
833,851	69,12
834,027	15,87
834,202	97,79
834,377	124,41
834,553	1,54
834,728	75,26
834,904	69,12
835,079	81,41
835,254	83,45
835,43	-37,38
835,605	26,11
835,78	24,06
835,955	93,69
836,131	36,35
836,306	-51,71
836,481	24,06
836,656	101,89
836,832	148,99
837,007	243,2
837,182	216,57
837,357	366,07
837,532	255,48
837,707	454,14
837,882	460,28
838,057	484,86
838,232	503,29
838,407	355,83
838,582	288,25
838,757	304,64
838,932	284,16
839,107	267,77
839,282	181,76
839,457	253,44
839,632	189,95
839,807	275,96
839,982	200,19
840,157	157,18
840,332	206,33
840,506	122,37
840,681	148,99
840,856	183,81
841,031	151,04
841,205	210,43
841,38	208,38
841,555	273,92
841,73	134,65
841,904	73,21
842,079	54,78
842,254	108,03
842,428	95,74
842,603	42,5
842,777	17,92
842,952	26,11
843,126	5,63
843,301	140,8
843,476	36,35
843,65	75,26
843,825	71,17
843,999	67,07
844,173	34,3
844,348	17,92
844,522	91,65
844,697	9,73
844,871	19,97
845,045	118,27
845,22	83,45
845,394	126,46
845,568	52,74
845,743	50,69
845,917	13,82
846,091	-14,85
846,265	-27,14
846,44	91,65
846,614	28,16
846,788	24,06
846,962	54,78
847,136	83,45
847,31	62,98
847,485	69,12
847,659	28,16
847,833	128,51
848,007	118,27
848,181	-23,04
848,355	3,58
848,529	153,09
848,703	200,19
848,877	60,93
849,051	165,37
849,225	228,86
849,399	214,52
849,573	142,85
849,746	116,22
849,92	243,2
850,094	179,71
850,268	128,51
850,442	255,48
850,616	112,13
850,789	87,55
850,963	83,45
851,137	30,21
851,311	304,64
851,484	114,17
851,658	99,84
851,832	40,45
852,005	30,21
852,179	75,26
852,352	142,85
852,526	93,69
852,7	173,57
852,873	87,55
853,047	112,13
853,22	93,69
853,394	148,99
853,567	83,45
853,741	-6,66
853,914	-27,14
854,088	140,8
854,261	-23,04
854,434	50,69
854,608	22,02
854,781	-55,81
854,955	9,73
855,128	52,74
855,301	-84,48
855,475	58,88
855,648	17,92
855,821	9,73
855,994	50,69
856,168	110,08
856,341	81,41
856,514	-23,04
856,687	91,65
856,86	44,54
857,033	17,92
857,207	-25,09
857,38	-16,9
857,553	83,45
857,726	30,21
857,899	52,74
858,072	-6,66
858,245	-39,42
858,418	101,89
858,591	62,98
858,764	165,37
858,937	34,3
859,11	157,18
859,283	108,03
859,455	128,51
859,628	140,8
859,801	99,84
859,974	192
860,147	-23,04
860,32	144,89
860,492	75,26
860,665	-31,23
860,838	58,88
861,011	38,4
861,183	157,18
861,356	44,54
861,529	99,84
861,701	79,36
861,874	-55,81
862,047	126,46
862,219	50,69
862,392	124,41
862,564	67,07
862,737	116,22
862,909	153,09
863,082	26,11
863,254	161,28
863,427	42,5
863,599	157,18
863,772	69,12
863,944	153,09
864,117	17,92
864,289	134,65
864,461	118,27
864,634	165,37
864,806	157,18
864,978	189,95
865,151	114,17
865,323	226,81
865,495	194,05
865,667	210,43
865,84	339,45
866,012	169,47
866,184	232,96
866,356	58,88
866,528	185,85
866,7	128,51
866,873	173,57
867,045	118,27
867,217	91,65
867,389	128,51
867,561	144,89
867,733	124,41
867,905	181,76
868,077	128,51
868,249	67,07
868,421	34,3
868,593	169,47
868,765	237,05
868,936	108,03
869,108	194,05
869,28	177,66
869,452	28,16
869,624	-29,18
869,796	75,26
869,968	26,11
870,139	159,23
870,311	62,98
870,483	120,32
870,654	-23,04
870,826	-2,56
870,998	1,54
871,17	58,88
871,341	26,11
871,513	116,22
871,684	13,82
871,856	50,69
872,028	112,13
872,199	-35,33
872,371	42,5
872,542	26,11
872,714	17,92
872,885	140,8
873,057	91,65
873,228	34,3
873,4	-4,61
873,571	103,93
873,742	-64
873,914	85,5
874,085	99,84
874,256	85,5
874,428	-2,56
874,599	-14,85
874,77	52,74
874,942	1,54
875,113	22,02
875,284	-47,62
875,455	-20,99
875,626	-6,66
875,798	9,73
875,969	11,78
876,14	17,92
876,311	101,89
876,482	83,45
876,653	89,6
876,824	77,31
876,995	30,21
877,166	17,92
877,337	118,27
877,508	44,54
877,679	89,6
877,85	26,11
878,021	101,89
878,192	165,37
878,363	87,55
878,534	132,61
878,705	101,89
878,876	189,95
879,047	220,67
879,217	24,06
879,388	148,99
879,559	71,17
879,73	144,89
879,9	112,13
880,071	159,23
880,242	148,99
880,413	126,46
880,583	97,79
880,754	208,38
880,924	97,79
881,095	77,31
881,266	105,98
881,436	69,12
881,607	175,61
881,777	44,54
881,948	77,31
882,118	95,74
882,289	83,45
882,459	99,84
882,63	95,74
882,8	58,88
882,971	60,93
883,141	118,27
883,311	9,73
883,482	69,12
883,652	-39,42
883,822	-18,94
883,993	42,5
884,163	48,64
884,333	42,5
884,504	38,4
884,674	44,54
884,844	38,4
885,014	-25,09
885,184	38,4
885,355	44,54
885,525	58,88
885,695	83,45
885,865	159,23
886,035	83,45
886,205	54,78
886,375	148,99
886,545	108,03
886,715	-23,04
886,885	67,07
887,055	11,78
887,225	5,63
887,395	83,45
887,565	157,18
887,735	101,89
887,905	19,97
888,075	-14,85
888,244	161,28
888,414	83,45
888,584	77,31
888,754	15,87
888,924	9,73
889,093	194,05
889,263	52,74
889,433	5,63
889,603	120,32
889,772	69,12
889,942	148,99
890,111	28,16
890,281	99,84
890,451	38,4
890,62	52,74
890,79	42,5
890,959	46,59
891,129	26,11
891,298	50,69
891,468	58,88
891,637	-29,18
891,807	19,97
891,976	52,74
892,146	9,73
892,315	22,02
892,485	136,7
892,654	19,97
892,823	30,21
892,993	26,11
893,162	54,78
893,331	48,64
893,501	79,36
893,67	99,84
893,839	79,36
894,008	26,11
894,177	19,97
894,347	7,68
894,516	58,88
894,685	54,78
894,854	-14,85
895,023	60,93
895,192	3,58
