Data from neon_USB4F104161__11__11-46-32-701.txt Node

Date: Tue Apr 14 11:46:32 EDT 2026
User: LaboPhy
Spectrometer: USB4F10416
Trigger mode: 4
Integration Time (sec): 1,000000E-1
Scans to average: 1
Electric dark correction enabled: true
Nonlinearity correction enabled: false
Boxcar width: 0
XAxis mode: Wavelengths
Number of Pixels in Spectrum: 3648
>>>>>Begin Spectral Data<<<<<
177,847	-218,96
178,066	-218,96
178,284	-218,96
178,502	-202,58
178,72	-208,72
178,939	-51,03
179,157	-63,32
179,375	-28,5
179,593	28,84
179,812	26,79
180,03	51,37
180,248	-22,36
180,466	34,99
180,685	16,55
180,903	26,79
181,121	-38,74
181,339	18,6
181,557	-79,7
181,775	-46,93
181,994	-22,36
182,212	-71,51
182,43	-14,17
182,648	20,65
182,866	26,79
183,084	51,37
183,302	-87,89
183,52	-30,55
183,739	69,8
183,957	26,79
184,175	-69,46
184,393	-94,04
184,611	-38,74
184,829	-10,07
185,047	-18,26
185,265	51,37
185,483	-44,88
185,701	51,37
185,919	26,79
186,137	10,41
186,355	59,56
186,573	18,6
186,791	26,79
187,009	28,84
187,227	86,19
187,445	12,46
187,663	-8,02
187,881	-55,12
188,098	18,6
188,316	14,51
188,534	45,23
188,752	-120,66
188,97	-85,84
189,188	-36,69
189,406	53,42
189,624	4,27
189,841	-10,07
190,059	-110,42
190,277	-104,28
190,495	-1,88
190,713	-30,55
190,931	161,96
191,148	18,6
191,366	-22,36
191,584	-114,52
191,802	-12,12
192,019	86,19
192,237	2,22
192,455	51,37
192,673	96,43
192,89	-32,6
193,108	-5,97
193,326	8,36
193,543	-24,4
193,761	26,79
193,979	-38,74
194,196	-132,95
194,414	37,03
194,632	22,7
194,849	-116,56
195,067	-73,56
195,285	30,89
195,502	-151,38
195,72	-10,07
195,937	39,08
196,155	18,6
196,373	-22,36
196,59	-12,12
196,808	-16,21
197,025	65,71
197,243	178,34
197,46	14,51
197,678	-36,69
197,895	-30,55
198,113	-36,69
198,33	8,36
198,548	55,47
198,765	-5,97
198,983	-28,5
199,2	-87,89
199,418	34,99
199,635	-69,46
199,853	10,41
200,07	-1,88
200,288	-59,22
200,505	14,51
200,722	59,56
200,94	-14,17
201,157	12,46
201,375	47,27
201,592	34,99
201,809	2,22
202,027	20,65
202,244	45,23
202,461	-24,4
202,679	18,6
202,896	-30,55
203,113	-34,64
203,331	-79,7
203,548	-63,32
203,765	2,22
203,982	59,56
204,2	30,89
204,417	-75,6
204,634	125,1
204,851	86,19
205,069	-63,32
205,286	2,22
205,503	22,7
205,72	-22,36
205,937	2,22
206,155	-46,93
206,372	39,08
206,589	-112,47
206,806	-36,69
207,023	-120,66
207,24	-1,88
207,458	-36,69
207,675	-10,07
207,892	14,51
208,109	-1,88
208,326	-38,74
208,543	-48,98
208,76	-83,8
208,977	67,75
209,194	26,79
209,411	-14,17
209,628	10,41
209,845	8,36
210,062	51,37
210,279	-85,84
210,496	18,6
210,713	-69,46
210,93	-55,12
211,147	32,94
211,364	32,94
211,581	-34,64
211,798	20,65
212,015	-118,61
212,232	37,03
212,449	-102,23
212,666	-36,69
212,883	24,75
213,1	-44,88
213,317	-96,08
213,533	-94,04
213,75	-30,55
213,967	-24,4
214,184	-59,22
214,401	-36,69
214,618	-102,23
214,835	4,27
215,051	67,75
215,268	-16,21
215,485	-16,21
215,702	-67,41
215,919	-36,69
216,135	108,71
216,352	-12,12
216,569	4,27
216,786	18,6
217,002	-12,12
217,219	-22,36
217,436	-1,88
217,652	-34,64
217,869	-26,45
218,086	28,84
218,302	-30,55
218,519	67,75
218,736	-36,69
218,952	-63,32
219,169	14,51
219,386	12,46
219,602	16,55
219,819	14,51
220,036	-79,7
220,252	-5,97
220,469	-55,12
220,685	-38,74
220,902	-46,93
221,118	-61,27
221,335	-30,55
221,552	-87,89
221,768	-30,55
221,985	-22,36
222,201	63,66
222,418	26,79
222,634	-20,31
222,851	-3,93
223,067	-55,12
223,284	-3,93
223,5	-22,36
223,716	-89,94
223,933	4,27
224,149	28,84
224,366	28,84
224,582	-71,51
224,799	-75,6
225,015	-48,98
225,231	-46,93
225,448	-104,28
225,664	51,37
225,88	-87,89
226,097	20,65
226,313	-46,93
226,529	-38,74
226,746	-85,84
226,962	-18,26
227,178	-38,74
227,395	-18,26
227,611	-22,36
227,827	-48,98
228,044	18,6
228,26	41,13
228,476	-24,4
228,692	102,57
228,909	6,31
229,125	-67,41
229,341	-42,84
229,557	-102,23
229,773	-71,51
229,99	-14,17
230,206	-85,84
230,422	-85,84
230,638	-63,32
230,854	32,94
231,07	-202,58
231,286	55,47
231,503	2,22
231,719	-55,12
231,935	-65,36
232,151	-89,94
232,367	102,57
232,583	16,55
232,799	-51,03
233,015	88,23
233,231	-61,27
233,447	-16,21
233,663	-67,41
233,879	18,6
234,095	-77,65
234,311	10,41
234,527	-38,74
234,743	121
234,959	-38,74
235,175	-5,97
235,391	-77,65
235,607	63,66
235,823	28,84
236,039	-61,27
236,255	-59,22
236,471	-26,45
236,687	-3,93
236,903	-10,07
237,118	-22,36
237,334	-59,22
237,55	-38,74
237,766	-141,14
237,982	61,61
238,198	43,18
238,413	-96,08
238,629	2,22
238,845	-63,32
239,061	-30,55
239,277	-51,03
239,492	18,6
239,708	-14,17
239,924	-89,94
240,14	-5,97
240,355	184,49
240,571	8,36
240,787	12,46
241,003	45,23
241,218	-61,27
241,434	-44,88
241,65	-46,93
241,865	-63,32
242,081	20,65
242,297	-71,51
242,512	-73,56
242,728	59,56
242,944	-5,97
243,159	53,42
243,375	-81,75
243,59	-51,03
243,806	2,22
244,022	-14,17
244,237	-108,37
244,453	10,41
244,668	100,52
244,884	110,76
245,099	-36,69
245,315	110,76
245,53	104,62
245,746	51,37
245,961	71,85
246,177	-87,89
246,392	67,75
246,608	67,75
246,823	43,18
247,039	-71,51
247,254	-55,12
247,47	75,95
247,685	-44,88
247,9	10,41
248,116	10,41
248,331	-44,88
248,547	106,67
248,762	-104,28
248,977	47,27
249,193	34,99
249,408	-3,93
249,623	-1,88
249,839	-94,04
250,054	-30,55
250,269	-3,93
250,485	14,51
250,7	2,22
250,915	-36,69
251,13	4,27
251,346	-28,5
251,561	94,38
251,776	-42,84
251,991	-89,94
252,207	45,23
252,422	-59,22
252,637	-61,27
252,852	-46,93
253,067	18,6
253,283	34,99
253,498	16,55
253,713	-63,32
253,928	-79,7
254,143	24,75
254,358	10,41
254,573	-61,27
254,788	-91,99
255,004	-63,32
255,219	-96,08
255,434	-28,5
255,649	-46,93
255,864	10,41
256,079	12,46
256,294	-67,41
256,509	-87,89
256,724	55,47
256,939	-32,6
257,154	-59,22
257,369	-55,12
257,584	12,46
257,799	-26,45
258,014	-44,88
258,229	84,14
258,444	18,6
258,659	10,41
258,874	12,46
259,089	65,71
259,304	-5,97
259,518	-55,12
259,733	24,75
259,948	-61,27
260,163	26,79
260,378	37,03
260,593	-3,93
260,808	10,41
261,022	-55,12
261,237	51,37
261,452	-104,28
261,667	-73,56
261,882	-28,5
262,096	-30,55
262,311	61,61
262,526	-18,26
262,741	-61,27
262,955	-94,04
263,17	-1,88
263,385	-20,31
263,6	-26,45
263,814	-85,84
264,029	-36,69
264,244	43,18
264,458	6,31
264,673	22,7
264,888	18,6
265,102	45,23
265,317	-38,74
265,532	-137,04
265,746	2,22
265,961	-1,88
266,175	30,89
266,39	-38,74
266,605	20,65
266,819	-30,55
267,034	4,27
267,248	-137,04
267,463	45,23
267,677	28,84
267,892	-63,32
268,106	-173,91
268,321	-63,32
268,535	-38,74
268,75	22,7
268,964	-5,97
269,179	39,08
269,393	-63,32
269,608	-44,88
269,822	-67,41
270,036	-42,84
270,251	6,31
270,465	-61,27
270,68	26,79
270,894	-5,97
271,108	84,14
271,323	-71,51
271,537	-79,7
271,752	14,51
271,966	-26,45
272,18	-108,37
272,394	-77,65
272,609	43,18
272,823	-53,08
273,037	-48,98
273,252	-53,08
273,466	-38,74
273,68	-26,45
273,894	65,71
274,109	-18,26
274,323	8,36
274,537	16,55
274,751	-81,75
274,966	34,99
275,18	-130,9
275,394	-126,8
275,608	-77,65
275,822	-85,84
276,036	-51,03
276,25	45,23
276,465	-14,17
276,679	-30,55
276,893	-104,28
277,107	8,36
277,321	-46,93
277,535	-5,97
277,749	-104,28
277,963	18,6
278,177	-137,04
278,391	2,22
278,605	-83,8
278,819	39,08
279,033	-96,08
279,247	-38,74
279,461	-3,93
279,675	-10,07
279,889	-36,69
280,103	-14,17
280,317	45,23
280,531	-120,66
280,745	-59,22
280,959	-55,12
281,173	28,84
281,387	-20,31
281,601	-22,36
281,815	77,99
282,029	-200,53
282,242	6,31
282,456	-71,51
282,67	51,37
282,884	-94,04
283,098	-1,88
283,312	-28,5
283,525	-38,74
283,739	-3,93
283,953	37,03
284,167	-32,6
284,381	-20,31
284,594	-102,23
284,808	-12,12
285,022	-22,36
285,235	-20,31
285,449	-46,93
285,663	-44,88
285,877	-128,85
286,09	-59,22
286,304	67,75
286,518	-10,07
286,731	-96,08
286,945	84,14
287,159	-85,84
287,372	-26,45
287,586	-57,17
287,799	14,51
288,013	-104,28
288,227	-114,52
288,44	182,44
288,654	43,18
288,867	-22,36
289,081	-71,51
289,294	37,03
289,508	20,65
289,721	-46,93
289,935	10,41
290,148	6,31
290,362	14,51
290,575	-48,98
290,789	-26,45
291,002	-77,65
291,216	-18,26
291,429	22,7
291,643	-28,5
291,856	-63,32
292,069	-5,97
292,283	-30,55
292,496	-38,74
292,71	84,14
292,923	10,41
293,136	10,41
293,35	-61,27
293,563	-104,28
293,776	-67,41
293,99	51,37
294,203	-5,97
294,416	-5,97
294,63	-30,55
294,843	-42,84
295,056	10,41
295,269	37,03
295,483	-63,32
295,696	10,41
295,909	22,7
296,122	-12,12
296,335	-63,32
296,549	20,65
296,762	-55,12
296,975	-24,4
297,188	20,65
297,401	26,79
297,615	2,22
297,828	-77,65
298,041	67,75
298,254	-143,19
298,467	10,41
298,68	-91,99
298,893	-14,17
299,106	-102,23
299,319	30,89
299,532	28,84
299,745	37,03
299,958	-75,6
300,171	-46,93
300,384	26,79
300,598	-198,48
300,81	59,56
301,023	-110,42
301,236	-89,94
301,449	-34,64
301,662	-110,42
301,875	-79,7
302,088	-5,97
302,301	-55,12
302,514	-40,79
302,727	28,84
302,94	-40,79
303,153	18,6
303,366	-77,65
303,579	-112,47
303,791	43,18
304,004	-159,57
304,217	8,36
304,43	34,99
304,643	20,65
304,855	-126,8
305,068	51,37
305,281	-30,55
305,494	43,18
305,707	-69,46
305,919	53,42
306,132	-79,7
306,345	-42,84
306,558	45,23
306,77	-75,6
306,983	-30,55
307,196	24,75
307,408	-30,55
307,621	-1,88
307,834	-46,93
308,046	-34,64
308,259	-83,8
308,472	-40,79
308,684	-30,55
308,897	-63,32
309,109	-53,08
309,322	-85,84
309,535	18,6
309,747	157,86
309,96	-5,97
310,172	51,37
310,385	4,27
310,597	-42,84
310,81	-1,88
311,022	-51,03
311,235	-1,88
311,447	-71,51
311,66	-81,75
311,872	30,89
312,085	0,17
312,297	16,55
312,51	-75,6
312,722	-75,6
312,934	92,33
313,147	-96,08
313,359	-42,84
313,572	-100,18
313,784	-12,12
313,996	-10,07
314,209	69,8
314,421	-98,13
314,633	-81,75
314,846	-112,47
315,058	-1,88
315,27	-44,88
315,483	-104,28
315,695	-5,97
315,907	-22,36
316,119	-69,46
316,332	-77,65
316,544	-1,88
316,756	-30,55
316,968	-32,6
317,181	-46,93
317,393	-5,97
317,605	-51,03
317,817	-40,79
318,029	47,27
318,241	12,46
318,454	45,23
318,666	-71,51
318,878	-34,64
319,09	20,65
319,302	-10,07
319,514	14,51
319,726	-46,93
319,938	67,75
320,15	63,66
320,362	18,6
320,574	-79,7
320,786	-83,8
320,999	-110,42
321,211	51,37
321,423	43,18
321,635	-22,36
321,847	18,6
322,058	-77,65
322,27	2,22
322,482	53,42
322,694	32,94
322,906	112,81
323,118	-12,12
323,33	51,37
323,542	-120,66
323,754	-34,64
323,966	-87,89
324,178	-24,4
324,389	28,84
324,601	-14,17
324,813	-59,22
325,025	10,41
325,237	-28,5
325,449	14,51
325,66	12,46
325,872	-46,93
326,084	-120,66
326,296	-10,07
326,507	-14,17
326,719	45,23
326,931	-122,71
327,143	51,37
327,354	59,56
327,566	-34,64
327,778	45,23
327,989	71,85
328,201	-28,5
328,413	47,27
328,624	94,38
328,836	-53,08
329,048	-96,08
329,259	10,41
329,471	-5,97
329,682	-22,36
329,894	-137,04
330,106	8,36
330,317	-46,93
330,529	49,32
330,74	-118,61
330,952	-5,97
331,163	18,6
331,375	26,79
331,586	10,41
331,798	51,37
332,009	-20,31
332,221	-61,27
332,432	-14,17
332,644	6,31
332,855	-46,93
333,067	6,31
333,278	-3,93
333,489	26,79
333,701	-79,7
333,912	-79,7
334,124	-38,74
334,335	-46,93
334,546	-135
334,758	-5,97
334,969	63,66
335,18	-32,6
335,392	-22,36
335,603	2,22
335,814	73,9
336,025	-100,18
336,237	-12,12
336,448	-128,85
336,659	6,31
336,87	-28,5
337,082	86,19
337,293	-1,88
337,504	-42,84
337,715	-30,55
337,926	10,41
338,138	-44,88
338,349	-85,84
338,56	12,46
338,771	-20,31
338,982	-3,93
339,193	4,27
339,404	75,95
339,616	-63,32
339,827	67,75
340,038	-28,5
340,249	4,27
340,46	-53,08
340,671	51,37
340,882	98,47
341,093	18,6
341,304	-14,17
341,515	26,79
341,726	-63,32
341,937	-3,93
342,148	20,65
342,359	-20,31
342,57	49,32
342,781	73,9
342,992	-22,36
343,203	-30,55
343,414	86,19
343,624	-98,13
343,835	26,79
344,046	22,7
344,257	2,22
344,468	-10,07
344,679	28,84
344,89	129,19
345,1	51,37
345,311	161,96
345,522	69,8
345,733	141,48
345,944	176,3
346,154	159,91
346,365	198,82
346,576	147,62
346,787	86,19
346,997	129,19
347,208	207,02
347,419	34,99
347,629	108,71
347,84	149,67
348,051	84,14
348,261	59,56
348,472	-87,89
348,683	59,56
348,893	-85,84
349,104	4,27
349,315	10,41
349,525	26,79
349,736	10,41
349,946	149,67
350,157	182,44
350,368	61,61
350,578	18,6
350,789	125,1
350,999	149,67
351,21	239,78
351,42	51,37
351,631	190,63
351,841	215,21
352,052	276,65
352,262	297,13
352,472	200,87
352,683	159,91
352,893	196,78
353,104	61,61
353,314	123,05
353,525	469,16
353,735	43,18
353,945	-55,12
354,156	-94,04
354,366	-18,26
354,576	-28,5
354,787	-63,32
354,997	-77,65
355,207	-71,51
355,418	10,41
355,628	-112,47
355,838	-110,42
356,048	-61,27
356,259	30,89
356,469	26,79
356,679	26,79
356,889	12,46
357,1	-153,43
357,31	-61,27
357,52	-1,88
357,73	-61,27
357,94	26,79
358,15	-5,97
358,361	28,84
358,571	18,6
358,781	135,34
358,991	59,56
359,201	84,14
359,411	12,46
359,621	47,27
359,831	198,82
360,041	67,75
360,251	110,76
360,461	2,22
360,672	-22,36
360,882	-75,6
361,092	-22,36
361,302	108,71
361,512	18,6
361,721	-81,75
361,931	43,18
362,141	-20,31
362,351	-59,22
362,561	-28,5
362,771	-20,31
362,981	102,57
363,191	-71,51
363,401	-34,64
363,611	34,99
363,821	-63,32
364,03	-102,23
364,24	37,03
364,45	28,84
364,66	145,58
364,87	-14,17
365,08	37,03
365,289	-128,85
365,499	-3,93
365,709	45,23
365,919	55,47
366,128	-61,27
366,338	59,56
366,548	-5,97
366,758	-38,74
366,967	4,27
367,177	-30,55
367,387	14,51
367,596	20,65
367,806	-1,88
368,016	2,22
368,225	16,55
368,435	-8,02
368,644	-26,45
368,854	30,89
369,064	-12,12
369,273	4,27
369,483	10,41
369,692	-87,89
369,902	-71,51
370,111	34,99
370,321	-22,36
370,53	47,27
370,74	-96,08
370,949	-48,98
371,159	-24,4
371,368	34,99
371,578	-46,93
371,787	16,55
371,997	14,51
372,206	-10,07
372,416	18,6
372,625	4,27
372,834	-120,66
373,044	-22,36
373,253	-30,55
373,462	47,27
373,672	-102,23
373,881	-36,69
374,09	2,22
374,3	-42,84
374,509	-42,84
374,718	-3,93
374,928	88,23
375,137	20,65
375,346	-69,46
375,555	69,8
375,765	63,66
375,974	-69,46
376,183	51,37
376,392	14,51
376,601	0,17
376,811	-63,32
377,02	18,6
377,229	18,6
377,438	18,6
377,647	14,51
377,856	-132,95
378,065	-30,55
378,275	-5,97
378,484	-59,22
378,693	-77,65
378,902	-75,6
379,111	-44,88
379,32	-83,8
379,529	-112,47
379,738	10,41
379,947	-14,17
380,156	18,6
380,365	-55,12
380,574	26,79
380,783	-96,08
380,992	-96,08
381,201	-98,13
381,41	-91,99
381,619	-61,27
381,828	10,41
382,037	-108,37
382,245	45,23
382,454	-34,64
382,663	-12,12
382,872	-30,55
383,081	-63,32
383,29	67,75
383,499	-42,84
383,707	51,37
383,916	65,71
384,125	100,52
384,334	-91,99
384,542	2,22
384,751	-18,26
384,96	10,41
385,169	-71,51
385,377	-46,93
385,586	-42,84
385,795	34,99
386,004	86,19
386,212	-132,95
386,421	-79,7
386,63	2,22
386,838	26,79
387,047	-61,27
387,255	37,03
387,464	34,99
387,673	-79,7
387,881	77,99
388,09	24,75
388,298	-8,02
388,507	34,99
388,715	-63,32
388,924	-8,02
389,133	-38,74
389,341	-94,04
389,55	34,99
389,758	-104,28
389,967	6,31
390,175	18,6
390,383	116,9
390,592	39,08
390,8	-61,27
391,009	18,6
391,217	-26,45
391,426	67,75
391,634	-42,84
391,842	22,7
392,051	-36,69
392,259	-1,88
392,467	-96,08
392,676	-12,12
392,884	-63,32
393,092	-32,6
393,301	-55,12
393,509	-104,28
393,717	-14,17
393,925	10,41
394,134	-34,64
394,342	-30,55
394,55	49,32
394,758	2,22
394,967	-87,89
395,175	-30,55
395,383	-48,98
395,591	2,22
395,799	34,99
396,007	-69,46
396,216	22,7
396,424	26,79
396,632	-32,6
396,84	-96,08
397,048	-8,02
397,256	10,41
397,464	-3,93
397,672	4,27
397,88	22,7
398,088	-8,02
398,296	-69,46
398,504	-38,74
398,712	-28,5
398,92	12,46
399,128	-63,32
399,336	-61,27
399,544	-55,12
399,752	-53,08
399,96	2,22
400,168	2,22
400,376	-14,17
400,584	-42,84
400,792	-22,36
401	-46,93
401,207	-65,36
401,415	-51,03
401,623	-30,55
401,831	-85,84
402,039	-12,12
402,247	-14,17
402,454	41,13
402,662	14,51
402,87	-32,6
403,078	10,41
403,285	22,7
403,493	-3,93
403,701	-38,74
403,909	-53,08
404,116	20,65
404,324	-42,84
404,532	-61,27
404,739	-22,36
404,947	-77,65
405,155	-10,07
405,362	84,14
405,57	37,03
405,778	-69,46
405,985	-5,97
406,193	-26,45
406,4	-63,32
406,608	2,22
406,816	-36,69
407,023	63,66
407,231	-40,79
407,438	-5,97
407,646	-46,93
407,853	12,46
408,061	-63,32
408,268	20,65
408,476	-61,27
408,683	-12,12
408,89	92,33
409,098	18,6
409,305	-59,22
409,513	-26,45
409,72	-55,12
409,927	14,51
410,135	94,38
410,342	-26,45
410,55	10,41
410,757	-102,23
410,964	-38,74
411,172	14,51
411,379	-30,55
411,586	10,41
411,793	-14,17
412,001	-89,94
412,208	-38,74
412,415	26,79
412,622	61,61
412,83	28,84
413,037	34,99
413,244	-73,56
413,451	-16,21
413,658	10,41
413,866	6,31
414,073	-30,55
414,28	67,75
414,487	-28,5
414,694	18,6
414,901	2,22
415,108	-42,84
415,315	26,79
415,522	-10,07
415,73	-8,02
415,937	-81,75
416,144	-112,47
416,351	-38,74
416,558	-53,08
416,765	2,22
416,972	-69,46
417,179	-10,07
417,386	32,94
417,593	-42,84
417,8	2,22
418,006	37,03
418,213	-14,17
418,42	-30,55
418,627	-36,69
418,834	-79,7
419,041	0,17
419,248	-36,69
419,455	2,22
419,661	-24,4
419,868	-59,22
420,075	-46,93
420,282	-59,22
420,489	-44,88
420,696	-55,12
420,902	-40,79
421,109	80,04
421,316	-10,07
421,523	-8,02
421,729	-22,36
421,936	-59,22
422,143	2,22
422,349	2,22
422,556	-38,74
422,763	-34,64
422,969	6,31
423,176	-143,19
423,383	-20,31
423,589	280,74
423,796	-36,69
424,002	-20,31
424,209	59,56
424,416	20,65
424,622	-98,13
424,829	-69,46
425,035	-67,41
425,242	116,9
425,448	-55,12
425,655	55,47
425,861	-22,36
426,068	-14,17
426,274	112,81
426,481	4,27
426,687	45,23
426,894	-5,97
427,1	2,22
427,306	-96,08
427,513	-79,7
427,719	26,79
427,926	-55,12
428,132	37,03
428,338	-22,36
428,545	18,6
428,751	-59,22
428,957	-12,12
429,163	-14,17
429,37	-12,12
429,576	-30,55
429,782	28,84
429,989	-22,36
430,195	-79,7
430,401	12,46
430,607	-12,12
430,813	-71,51
431,02	-110,42
431,226	-40,79
431,432	-20,31
431,638	-30,55
431,844	-85,84
432,05	-104,28
432,257	-26,45
432,463	-14,17
432,669	-14,17
432,875	-14,17
433,081	-145,24
433,287	-120,66
433,493	-55,12
433,699	18,6
433,905	-18,26
434,111	-79,7
434,317	-55,12
434,523	67,75
434,729	34,99
434,935	-102,23
435,141	51,37
435,347	-36,69
435,553	-71,51
435,759	-87,89
435,965	-12,12
436,171	-12,12
436,377	2,22
436,582	-59,22
436,788	-102,23
436,994	37,03
437,2	-5,97
437,406	-63,32
437,612	-38,74
437,818	18,6
438,023	-118,61
438,229	104,62
438,435	53,42
438,641	-116,56
438,846	-28,5
439,052	-87,89
439,258	34,99
439,464	-53,08
439,669	39,08
439,875	133,29
440,081	-3,93
440,286	-55,12
440,492	-5,97
440,698	-73,56
440,903	-42,84
441,109	112,81
441,314	-85,84
441,52	-73,56
441,726	6,31
441,931	-30,55
442,137	43,18
442,342	16,55
442,548	34,99
442,753	67,75
442,959	-137,04
443,164	-22,36
443,37	-32,6
443,575	-63,32
443,781	-14,17
443,986	84,14
444,192	-63,32
444,397	-22,36
444,602	-77,65
444,808	-75,6
445,013	-112,47
445,219	-24,4
445,424	73,9
445,629	-28,5
445,835	45,23
446,04	-94,04
446,245	-71,51
446,451	6,31
446,656	-104,28
446,861	-53,08
447,066	2,22
447,272	-1,88
447,477	-71,51
447,682	-14,17
447,887	43,18
448,093	51,37
448,298	108,71
448,503	-71,51
448,708	-5,97
448,913	-71,51
449,118	34,99
449,324	-18,26
449,529	73,9
449,734	-34,64
449,939	-59,22
450,144	24,75
450,349	-85,84
450,554	-67,41
450,759	-36,69
450,964	-5,97
451,169	18,6
451,374	22,7
451,579	6,31
451,784	2,22
451,989	-67,41
452,194	-89,94
452,399	-77,65
452,604	20,65
452,809	-63,32
453,014	-18,26
453,219	-24,4
453,424	4,27
453,629	-87,89
453,833	-30,55
454,038	37,03
454,243	-5,97
454,448	39,08
454,653	133,29
454,858	-26,45
455,062	-5,97
455,267	-87,89
455,472	18,6
455,677	-81,75
455,882	-20,31
456,086	6,31
456,291	-44,88
456,496	-161,62
456,7	43,18
456,905	-18,26
457,11	-1,88
457,314	26,79
457,519	-65,36
457,724	-38,74
457,928	43,18
458,133	-22,36
458,338	-5,97
458,542	-77,65
458,747	41,13
458,951	39,08
459,156	80,04
459,36	-51,03
459,565	18,6
459,769	-69,46
459,974	6,31
460,178	-75,6
460,383	-137,04
460,587	-75,6
460,792	-28,5
460,996	-63,32
461,201	2,22
461,405	-61,27
461,61	-100,18
461,814	63,66
462,018	-118,61
462,223	10,41
462,427	-18,26
462,631	-87,89
462,836	18,6
463,04	-63,32
463,244	129,19
463,449	10,41
463,653	51,37
463,857	18,6
464,062	-1,88
464,266	18,6
464,47	26,79
464,674	-30,55
464,878	-24,4
465,083	2,22
465,287	12,46
465,491	-44,88
465,695	-5,97
465,899	18,6
466,104	69,8
466,308	-44,88
466,512	67,75
466,716	26,79
466,92	-1,88
467,124	80,04
467,328	-34,64
467,532	84,14
467,736	8,36
467,94	-14,17
468,144	24,75
468,348	-20,31
468,552	43,18
468,756	20,65
468,96	-20,31
469,164	-75,6
469,368	-38,74
469,572	26,79
469,776	106,67
469,98	-5,97
470,184	-44,88
470,388	71,85
470,591	67,75
470,795	90,28
470,999	77,99
471,203	77,99
471,407	30,89
471,611	86,19
471,814	30,89
472,018	53,42
472,222	39,08
472,426	92,33
472,63	-10,07
472,833	-5,97
473,037	0,17
473,241	14,51
473,444	34,99
473,648	465,06
473,852	-26,45
474,055	-38,74
474,259	-26,45
474,463	57,51
474,666	49,32
474,87	2,22
475,074	24,75
475,277	-14,17
475,481	75,95
475,684	30,89
475,888	4,27
476,091	-32,6
476,295	-104,28
476,498	-87,89
476,702	-69,46
476,905	59,56
477,109	110,76
477,312	-3,93
477,516	-81,75
477,719	92,33
477,923	-14,17
478,126	-46,93
478,329	-32,6
478,533	-5,97
478,736	75,95
478,94	-22,36
479,143	-85,84
479,346	-44,88
479,55	92,33
479,753	-79,7
479,956	-48,98
480,159	-1,88
480,363	86,19
480,566	-79,7
480,769	-28,5
480,972	-28,5
481,176	0,17
481,379	-5,97
481,582	45,23
481,785	-63,32
481,988	12,46
482,192	84,14
482,395	51,37
482,598	59,56
482,801	84,14
483,004	104,62
483,207	22,7
483,41	26,79
483,613	75,95
483,817	51,37
484,02	-51,03
484,223	-71,51
484,426	12,46
484,629	-38,74
484,832	63,66
485,035	20,65
485,238	39,08
485,441	69,8
485,644	71,85
485,846	37,03
486,049	-46,93
486,252	-46,93
486,455	34,99
486,658	-14,17
486,861	55,47
487,064	63,66
487,267	-34,64
487,47	12,46
487,672	10,41
487,875	-71,51
488,078	18,6
488,281	10,41
488,484	18,6
488,686	10,41
488,889	-36,69
489,092	-36,69
489,295	12,46
489,497	86,19
489,7	-87,89
489,903	22,7
490,105	34,99
490,308	26,79
490,511	-8,02
490,713	34,99
490,916	-10,07
491,118	26,79
491,321	-57,17
491,524	-87,89
491,726	-14,17
491,929	-145,24
492,131	-34,64
492,334	-75,6
492,536	-110,42
492,739	67,75
492,941	2,22
493,144	51,37
493,346	-75,6
493,549	-1,88
493,751	2,22
493,954	34,99
494,156	-77,65
494,359	18,6
494,561	-83,8
494,763	-67,41
494,966	77,99
495,168	43,18
495,37	-61,27
495,573	18,6
495,775	63,66
495,977	-14,17
496,18	43,18
496,382	161,96
496,584	114,86
496,787	34,99
496,989	-46,93
497,191	-79,7
497,393	80,04
497,595	-30,55
497,798	-18,26
498	10,41
498,202	-14,17
498,404	-77,65
498,606	-8,02
498,808	110,76
499,011	-3,93
499,213	37,03
499,415	-63,32
499,617	6,31
499,819	2,22
500,021	77,99
500,223	-14,17
500,425	-69,46
500,627	-48,98
500,829	-83,8
501,031	22,7
501,233	-38,74
501,435	86,19
501,637	98,47
501,839	20,65
502,041	26,79
502,243	-69,46
502,445	-32,6
502,647	18,6
502,848	135,34
503,05	92,33
503,252	159,91
503,454	192,68
503,656	116,9
503,858	280,74
504,059	284,84
504,261	182,44
504,463	272,55
504,665	125,1
504,867	94,38
505,068	194,73
505,27	63,66
505,472	155,82
505,673	26,79
505,875	-100,18
506,077	-42,84
506,278	-96,08
506,48	-30,55
506,682	-55,12
506,883	-61,27
507,085	30,89
507,287	-3,93
507,488	82,09
507,69	182,44
507,891	43,18
508,093	219,3
508,294	26,79
508,496	47,27
508,697	45,23
508,899	61,61
509,1	118,95
509,302	108,71
509,503	55,47
509,705	22,7
509,906	2,22
510,108	-12,12
510,309	18,6
510,51	12,46
510,712	63,66
510,913	-10,07
511,114	71,85
511,316	-5,97
511,517	186,54
511,718	143,53
511,92	129,19
512,121	192,68
512,322	127,14
512,524	190,63
512,725	161,96
512,926	159,91
513,127	67,75
513,329	170,15
513,53	118,95
513,731	100,52
513,932	41,13
514,133	67,75
514,334	6,31
514,536	59,56
514,737	159,91
514,938	127,14
515,139	84,14
515,34	55,47
515,541	161,96
515,742	114,86
515,943	182,44
516,144	55,47
516,345	151,72
516,546	75,95
516,747	53,42
516,948	-1,88
517,149	34,99
517,35	-126,8
517,551	-77,65
517,752	12,46
517,953	26,79
518,154	-38,74
518,355	133,29
518,556	92,33
518,756	-20,31
518,957	133,29
519,158	231,59
519,359	125,1
519,56	10,41
519,761	141,48
519,961	184,49
520,162	215,21
520,363	110,76
520,564	77,99
520,764	223,4
520,965	112,81
521,166	118,95
521,366	67,75
521,567	129,19
521,768	186,54
521,968	43,18
522,169	98,47
522,37	-12,12
522,57	-71,51
522,771	26,79
522,972	-28,5
523,172	170,15
523,373	108,71
523,573	75,95
523,774	69,8
523,974	151,72
524,175	-5,97
524,375	18,6
524,576	-53,08
524,776	20,65
524,977	-5,97
525,177	6,31
525,378	-12,12
525,578	63,66
525,778	26,79
525,979	-20,31
526,179	2,22
526,38	-51,03
526,58	-63,32
526,78	-10,07
526,981	43,18
527,181	2,22
527,381	-5,97
527,582	18,6
527,782	108,71
527,982	34,99
528,182	57,51
528,383	-1,88
528,583	-145,24
528,783	92,33
528,983	16,55
529,183	-24,4
529,384	2,22
529,584	112,81
529,784	184,49
529,984	121
530,184	71,85
530,384	53,42
530,584	-14,17
530,784	75,95
530,984	26,79
531,185	118,95
531,385	94,38
531,585	67,75
531,785	153,77
531,985	-14,17
532,185	100,52
532,385	77,99
532,585	200,87
532,785	233,64
532,984	309,41
533,184	405,67
533,384	432,29
533,584	346,28
533,784	555,17
533,984	575,65
534,184	518,31
534,384	600,23
534,583	628,9
534,783	546,98
534,983	454,82
535,183	331,94
535,383	288,93
535,582	301,22
535,782	184,49
535,982	260,26
536,182	102,57
536,381	100,52
536,581	137,38
536,781	26,79
536,98	-22,36
537,18	73,9
537,38	102,57
537,579	51,37
537,779	-75,6
537,979	37,03
538,178	4,27
538,378	94,38
538,577	-10,07
538,777	59,56
538,976	75,95
539,176	118,95
539,376	104,62
539,575	151,72
539,774	293,03
539,974	391,33
540,173	460,96
540,373	501,92
540,572	536,74
540,772	602,27
540,971	493,73
541,171	469,16
541,37	305,32
541,569	313,51
541,769	272,55
541,968	98,47
542,167	151,72
542,367	22,7
542,566	-12,12
542,765	45,23
542,965	-26,45
543,164	26,79
543,363	-38,74
543,562	-42,84
543,761	22,7
543,961	-36,69
544,16	-87,89
544,359	135,34
544,558	14,51
544,757	12,46
544,957	26,79
545,156	75,95
545,355	34,99
545,554	47,27
545,753	-10,07
545,952	-53,08
546,151	59,56
546,35	28,84
546,549	45,23
546,748	84,14
546,947	-8,02
547,146	-98,13
547,345	-5,97
547,544	-55,12
547,743	-75,6
547,942	-26,45
548,141	-38,74
548,34	-18,26
548,539	43,18
548,738	-67,41
548,937	129,19
549,135	-30,55
549,334	-22,36
549,533	2,22
549,732	-16,21
549,931	-30,55
550,13	37,03
550,328	-10,07
550,527	-57,17
550,726	10,41
550,925	-104,28
551,123	77,99
551,322	-51,03
551,521	26,79
551,72	-10,07
551,918	-14,17
552,117	34,99
552,315	-75,6
552,514	-55,12
552,713	-40,79
552,911	-42,84
553,11	-104,28
553,309	10,41
553,507	16,55
553,706	-8,02
553,904	8,36
554,103	-22,36
554,301	59,56
554,5	-42,84
554,698	14,51
554,897	-42,84
555,095	-75,6
555,294	-55,12
555,492	-63,32
555,69	84,14
555,889	-36,69
556,087	69,8
556,286	106,67
556,484	-5,97
556,682	37,03
556,881	59,56
557,079	102,57
557,277	149,67
557,476	59,56
557,674	45,23
557,872	51,37
558,07	-104,28
558,269	-44,88
558,467	-85,84
558,665	67,75
558,863	-40,79
559,062	14,51
559,26	22,7
559,458	-100,18
559,656	10,41
559,854	-77,65
560,052	-22,36
560,25	-1,88
560,449	174,25
560,647	63,66
560,845	-149,33
561,043	-38,74
561,241	86,19
561,439	75,95
561,637	-55,12
561,835	26,79
562,033	116,9
562,231	-16,21
562,429	-10,07
562,627	-20,31
562,825	-63,32
563,023	0,17
563,221	-63,32
563,418	12,46
563,616	26,79
563,814	59,56
564,012	-22,36
564,21	28,84
564,408	20,65
564,605	102,57
564,803	-46,93
565,001	254,12
565,199	14,51
565,397	63,66
565,594	284,84
565,792	157,86
565,99	84,14
566,188	282,79
566,385	157,86
566,583	69,8
566,781	178,34
566,978	141,48
567,176	184,49
567,373	20,65
567,571	67,75
567,769	4,27
567,966	-63,32
568,164	12,46
568,361	61,61
568,559	26,79
568,756	75,95
568,954	73,9
569,151	180,39
569,349	192,68
569,546	55,47
569,744	188,58
569,941	100,52
570,139	116,9
570,336	-28,5
570,534	77,99
570,731	-1,88
570,928	10,41
571,126	141,48
571,323	43,18
571,52	-18,26
571,718	71,85
571,915	94,38
572,112	75,95
572,31	88,23
572,507	153,77
572,704	59,56
572,901	20,65
573,099	84,14
573,296	100,52
573,493	30,89
573,69	-3,93
573,887	-51,03
574,085	143,53
574,282	39,08
574,479	198,82
574,676	157,86
574,873	225,45
575,07	268,45
575,267	278,69
575,464	370,85
575,661	440,48
575,858	391,33
576,055	592,03
576,252	700,58
576,449	764,06
576,646	985,24
576,843	938,14
577,04	968,86
577,237	880,8
577,434	854,17
577,631	676
577,828	643,23
578,025	436,39
578,222	362,66
578,419	317,61
578,615	198,82
578,812	145,58
579,009	51,37
579,206	84,14
579,403	67,75
579,599	141,48
579,796	41,13
579,993	268,45
580,19	149,67
580,386	155,82
580,583	272,55
580,78	227,5
580,976	288,93
581,173	293,03
581,37	399,52
581,566	430,24
581,763	401,57
581,96	485,54
582,156	495,78
582,353	587,94
582,549	661,66
582,746	616,61
582,942	571,55
583,139	616,61
583,335	526,5
583,532	932
583,728	1558,67
583,925	2730,11
584,121	4288,62
584,318	6309,96
584,514	8615,98
584,711	12093,43
584,907	15378,37
585,103	19599,23
585,3	23074,63
585,496	26380,06
585,693	28886,77
585,889	29546,22
586,085	28417,79
586,281	25978,65
586,478	22407
586,674	18976,65
586,87	16811,95
587,067	13891,54
587,263	11114,5
587,459	8321,07
587,655	6592,58
587,851	5417,05
588,048	5242,97
588,244	5326,94
588,44	5654,61
588,636	5900,37
588,832	5664,85
589,028	5576,79
589,224	4911,2
589,42	4296,81
589,617	3723,38
589,813	3309,69
590,009	2713,73
590,205	2328,71
590,401	1872,01
590,597	1364,12
590,793	1198,23
590,989	1114,27
591,185	987,29
591,38	907,42
591,576	813,21
591,772	768,16
591,968	616,61
592,164	553,12
592,36	448,68
592,556	379,04
592,752	487,59
592,948	606,37
593,143	886,94
593,339	1304,73
593,535	1888,4
593,731	2746,5
593,926	3858,54
594,122	4778,08
594,318	6002,77
594,514	7403,58
594,709	8581,16
594,905	9269,28
595,101	9517,08
595,296	9181,21
595,492	8554,54
595,688	7555,13
595,883	6506,57
596,079	5697,62
596,275	4941,92
596,47	3930,22
596,666	3197,05
596,861	2494,6
597,057	2181,26
597,252	2050,19
597,448	2250,89
597,643	2484,36
597,839	2607,23
598,034	2594,95
598,23	2496,64
598,425	2562,18
598,621	2402,44
598,816	1976,46
599,011	1736,85
599,207	1568,91
599,402	1269,91
599,597	1136,79
599,793	913,56
599,988	553,12
600,183	321,7
600,379	348,33
600,574	247,97
600,769	280,74
600,965	139,43
601,16	209,06
601,355	94,38
601,55	250,02
601,745	317,61
601,941	542,88
602,136	702,62
602,331	929,95
602,526	1312,92
602,721	1554,58
602,916	1820,81
603,111	2128,01
603,307	2478,21
603,502	2594,95
603,697	2601,09
603,892	2500,74
604,087	2263,18
604,282	2111,63
604,477	1757,33
604,672	1372,31
604,867	1208,47
605,062	895,13
605,257	772,25
605,452	637,09
605,646	465,06
605,841	477,35
606,036	725,15
606,231	1077,4
606,426	1577,11
606,621	2394,25
606,816	3154,04
607,01	4307,05
607,205	5361,75
607,4	6226
607,595	7727,16
607,79	8521,77
607,984	9089,06
608,179	9222,17
608,374	9375,77
608,569	9408,54
608,763	9066,53
608,958	9611,29
609,153	10504,2
609,347	10924,04
609,542	11857,91
609,736	12476,4
609,931	12769,26
610,126	13072,36
610,32	13004,77
610,515	12236,78
610,709	11083,78
610,904	9656,34
611,098	8224,81
611,293	7161,92
611,487	5834,83
611,682	4421,74
611,876	3391,61
612,071	2130,06
612,265	1642,64
612,46	1206,42
612,654	1276,06
612,848	1751,18
613,043	2472,07
613,237	3706,99
613,432	5181,53
613,626	7123,01
613,82	9439,26
614,014	11960,31
614,209	14591,95
614,403	16857
614,597	19449,73
614,792	20479,86
614,986	21030,76
615,18	20240,25
615,374	18442,13
615,568	16873,39
615,763	15312,83
615,957	14206,93
616,151	12720,1
616,345	11851,77
616,539	10352,65
616,733	9093,15
616,927	7712,82
617,121	6940,74
617,316	6156,36
617,51	5369,94
617,704	4442,21
617,898	4173,93
618,092	3537,01
618,286	2877,57
618,48	2283,66
618,674	1788,05
618,868	1362,07
619,061	768,16
619,255	716,96
619,449	532,64
619,643	471,2
619,837	561,31
620,031	354,47
620,225	524,45
620,419	608,42
620,612	901,28
620,806	1222,81
621	1478,8
621,194	1929,36
621,388	2492,55
621,581	2967,68
621,775	3614,84
621,969	4059,24
622,162	4223,08
622,356	4462,69
622,55	4102,25
622,743	3874,93
622,937	3471,48
623,131	2969,73
623,324	2648,19
623,518	2328,71
623,712	1855,63
623,905	1413,27
624,099	1042,59
624,292	719,01
624,486	481,44
624,679	340,13
624,873	247,97
625,066	495,78
625,26	733,34
625,453	1231
625,647	1800,34
625,84	2674,82
626,034	3563,64
626,227	4671,59
626,42	5818,45
626,614	6885,44
626,807	8177,71
627	9050,14
627,194	9369,63
627,387	9357,34
627,58	8982,56
627,774	8001,58
627,967	7014,46
628,16	6041,68
628,353	5466,2
628,547	4794,47
628,74	3801,2
628,933	2734,21
629,126	2023,56
629,319	1814,67
629,513	1624,21
629,706	1738,9
629,899	2218,12
630,092	2640
630,285	3158,14
630,478	3682,42
630,671	4083,82
630,864	4642,92
631,057	4548,71
631,25	4532,33
631,443	4409,45
631,636	4200,55
631,829	3876,98
632,022	3928,17
632,215	4098,16
632,408	4749,41
632,601	5453,91
632,794	6522,95
632,987	8136,75
633,18	9416,73
633,373	11388,92
633,566	12810,22
633,758	13514,72
633,951	15124,42
634,144	14976,97
634,337	14276,56
634,53	13117,41
634,722	11565,05
634,915	9418,78
635,108	8855,59
635,301	7571,51
635,493	6297,67
635,686	4827,23
635,879	3246,2
636,071	2033,8
636,264	1452,18
636,457	1042,59
636,649	794,78
636,842	1085,59
637,034	1568,91
637,227	2246,79
637,42	3141,75
637,612	4272,23
637,805	5740,63
637,997	7424,06
638,19	8820,77
638,382	10553,35
638,575	12236,78
638,767	14868,42
638,96	16992,17
639,152	19662,72
639,344	23013,2
639,537	26826,51
639,729	30955,22
639,922	36691,58
640,114	42591,78
640,306	47658,45
640,499	51107,23
640,691	52315,53
640,883	52462,99
641,075	49681,84
641,268	45397,49
641,46	39374,42
641,652	34616,99
641,844	30050,02
642,037	26128,16
642,229	21972,83
642,421	17156
642,613	12257,26
642,805	7800,88
642,998	4765,79
643,19	3057,79
643,382	2017,42
643,574	1370,26
643,766	913,56
643,958	813,21
644,15	696,48
644,342	485,54
644,534	440,48
644,726	338,09
644,918	290,98
645,11	258,21
645,302	327,85
645,494	309,41
645,686	174,25
645,878	168,1
646,07	194,73
646,262	192,68
646,453	161,96
646,645	211,11
646,837	217,26
647,029	100,52
647,221	127,14
647,413	110,76
647,604	127,14
647,796	80,04
647,988	217,26
648,18	104,62
648,371	65,71
648,563	151,72
648,755	145,58
648,947	270,5
649,138	557,22
649,33	1419,41
649,521	2478,21
649,713	3885,17
649,905	5406,81
650,096	7731,25
650,288	9844,76
650,479	12363,76
650,671	14778,31
650,863	16592,81
651,054	18229,14
651,246	18567,06
651,437	17809,31
651,629	17072,04
651,82	15521,73
652,011	13813,72
652,203	12283,89
652,394	11700,22
652,586	10457,1
652,777	9326,62
652,968	7888,95
653,16	6885,44
653,351	6158,41
653,542	5632,08
653,734	5400,66
653,925	5085,28
654,116	4769,89
654,308	4302,95
654,499	3795,06
654,69	3352,7
654,881	2902,14
655,073	2525,32
655,264	2338,95
655,455	1773,71
655,646	1398,93
655,837	1063,07
656,028	661,66
656,219	411,81
656,411	211,11
656,602	239,78
656,793	161,96
656,984	145,58
657,175	34,99
657,366	100,52
657,557	145,58
657,748	51,37
657,939	-12,12
658,13	102,57
658,321	194,73
658,512	440,48
658,703	813,21
658,894	1288,34
659,084	1691,79
659,275	2412,68
659,466	3143,8
659,657	3999,85
659,848	4917,34
660,039	5447,77
660,23	5967,95
660,42	6326,35
660,611	6334,54
660,802	5937,23
660,993	5605,46
661,183	4800,61
661,374	4329,58
661,565	4008,05
661,755	3352,7
661,946	2828,42
662,137	2349,19
662,327	1695,89
662,518	1118,36
662,709	784,54
662,899	354,47
663,09	315,56
663,28	200,87
663,471	59,56
663,662	288,93
663,852	174,25
664,043	166,06
664,233	145,58
664,424	96,43
664,614	67,75
664,804	2,22
664,995	125,1
665,185	149,67
665,376	-18,26
665,566	166,06
665,756	37,03
665,947	137,38
666,137	198,82
666,328	463,01
666,518	848,03
666,708	1435,8
666,898	2254,98
667,089	3547,25
667,279	4649,06
667,469	6238,28
667,659	7665,72
667,85	8998,95
668,04	10336,27
668,23	10733,57
668,42	11147,26
668,61	10758,15
668,8	10197,01
668,991	9232,41
669,181	8261,68
669,371	7350,33
669,561	6477,9
669,751	5654,61
669,941	4706,4
670,131	3754,1
670,321	2896
670,511	2592,9
670,701	2371,72
670,891	2439,3
671,081	2996,35
671,271	3596,4
671,461	4245,61
671,651	5146,72
671,841	6035,53
672,03	6475,85
672,22	6797,38
672,41	6731,84
672,6	6543,43
672,79	5797,97
672,98	5304,41
673,169	4581,48
673,359	3983,47
673,549	3401,85
673,739	3111,04
673,928	2693,25
674,118	2003,08
674,308	1292,44
674,497	915,61
674,687	544,93
674,877	356,52
675,066	247,97
675,256	135,34
675,446	178,34
675,635	92,33
675,825	14,51
676,014	149,67
676,204	24,75
676,393	73,9
676,583	82,09
676,772	92,33
676,962	-22,36
677,151	37,03
677,341	-8,02
677,53	-42,84
677,72	67,75
677,909	18,6
678,099	-14,17
678,288	-69,46
678,477	-5,97
678,667	-28,5
678,856	92,33
679,045	71,85
679,235	94,38
679,424	30,89
679,613	114,86
679,802	2,22
679,992	-14,17
680,181	-5,97
680,37	80,04
680,559	43,18
680,748	149,67
680,938	57,51
681,127	30,89
681,316	-10,07
681,505	-28,5
681,694	-51,03
681,883	-20,31
682,072	-46,93
682,261	100,52
682,45	-30,55
682,639	-63,32
682,828	84,14
683,017	8,36
683,206	30,89
683,395	26,79
683,584	71,85
683,773	55,47
683,962	-46,93
684,151	-30,55
684,34	4,27
684,529	-59,22
684,718	0,17
684,907	-34,64
685,095	63,66
685,284	75,95
685,473	18,6
685,662	-44,88
685,851	59,56
686,039	-16,21
686,228	-18,26
686,417	-67,41
686,606	133,29
686,794	30,89
686,983	-46,93
687,172	2,22
687,36	34,99
687,549	-63,32
687,738	43,18
687,926	-44,88
688,115	-22,36
688,303	-20,31
688,492	-1,88
688,68	-59,22
688,869	-55,12
689,057	-53,08
689,246	-77,65
689,434	92,33
689,623	-51,03
689,811	75,95
690	-20,31
690,188	-46,93
690,377	-14,17
690,565	94,38
690,753	-3,93
690,942	-30,55
691,13	125,1
691,318	26,79
691,507	280,74
691,695	680,1
691,883	1351,83
692,072	2257,03
692,26	3147,9
692,448	4380,78
692,636	5632,08
692,824	6826,05
693,013	7931,95
693,201	8656,93
693,389	9179,17
693,577	9254,94
693,765	9439,26
693,953	8622,12
694,141	8091,7
694,329	6836,29
694,518	6021,2
694,706	5605,46
694,894	4753,51
695,082	4118,64
695,27	3532,92
695,458	2812,03
695,646	1919,12
695,834	1286,3
696,022	813,21
696,209	542,88
696,397	346,28
696,585	235,69
696,773	176,3
696,961	149,67
697,149	-5,97
697,337	129,19
697,525	100,52
697,712	59,56
697,9	121
698,088	100,52
698,276	34,99
698,463	43,18
698,651	116,9
698,839	24,75
699,027	-10,07
699,214	39,08
699,402	30,89
699,59	2,22
699,777	2,22
699,965	75,95
700,152	-53,08
700,34	-3,93
700,528	10,41
700,715	8,36
700,903	63,66
701,09	43,18
701,278	149,67
701,465	268,45
701,653	202,92
701,84	587,94
702,028	1403,03
702,215	2295,94
702,402	3500,15
702,59	4884,58
702,777	6547,53
702,965	7802,93
703,152	9480,22
703,339	10844,17
703,527	11743,22
703,714	11847,67
703,901	12044,27
704,088	11694,07
704,276	10907,65
704,463	9642,01
704,65	8466,47
704,837	7591,99
705,025	6830,15
705,212	6105,17
705,399	5458,01
705,586	4497,51
705,773	3803,25
705,96	2760,83
706,147	2099,34
706,335	1282,2
706,522	970,91
706,709	700,58
706,896	524,45
707,083	381,09
707,27	290,98
707,457	290,98
707,644	211,11
707,831	166,06
708,018	88,23
708,205	116,9
708,392	67,75
708,578	135,34
708,765	-14,17
708,952	-14,17
709,139	-20,31
709,326	4,27
709,513	-3,93
709,7	-18,26
709,886	92,33
710,073	14,51
710,26	112,81
710,447	-16,21
710,633	-5,97
710,82	10,41
711,007	12,46
711,193	-3,93
711,38	-14,17
711,567	51,37
711,753	-14,17
711,94	47,27
712,127	22,7
712,313	26,79
712,5	18,6
712,686	75,95
712,873	30,89
713,059	-71,51
713,246	-14,17
713,432	34,99
713,619	-61,27
713,805	4,27
713,992	53,42
714,178	63,66
714,365	-67,41
714,551	116,9
714,737	-3,93
714,924	-104,28
715,11	2,22
715,297	-55,12
715,483	-44,88
715,669	-1,88
715,855	24,75
716,042	92,33
716,228	223,4
716,414	452,77
716,6	487,59
716,787	782,49
716,973	995,48
717,159	1304,73
717,345	1495,19
717,531	1697,94
717,718	1863,82
717,904	1841,29
718,09	1798,29
718,276	1722,51
718,462	1628,31
718,648	1517,72
718,834	1251,48
719,02	1165,46
719,206	1028,25
719,392	874,65
719,578	684,19
719,764	651,42
719,95	559,27
720,136	546,98
720,322	352,42
720,508	157,86
720,694	161,96
720,879	45,23
721,065	151,72
721,251	37,03
721,437	26,79
721,623	63,66
721,809	39,08
721,994	94,38
722,18	-42,84
722,366	10,41
722,552	4,27
722,737	18,6
722,923	88,23
723,109	100,52
723,294	407,72
723,48	776,35
723,666	1296,53
723,851	1783,95
724,037	2558,08
724,222	3246,2
724,408	3903,6
724,593	4305
724,779	4755,55
724,965	5064,8
725,15	4943,97
725,336	4825,19
725,521	4667,49
725,706	4069,48
725,892	3614,84
726,077	3211,39
726,263	2953,34
726,448	2705,54
726,634	2254,98
726,819	1968,27
727,004	1779,86
727,19	1360,02
727,375	1067,16
727,56	690,34
727,745	366,76
727,931	399,52
728,116	225,45
728,301	157,86
728,486	82,09
728,672	94,38
728,857	133,29
729,042	34,99
729,227	-44,88
729,412	24,75
729,597	-3,93
729,783	26,79
729,968	-30,55
730,153	-85,84
730,338	30,89
730,523	-12,12
730,708	22,7
730,893	-61,27
731,078	-69,46
731,263	-12,12
731,448	-14,17
731,633	28,84
731,818	-100,18
732,003	-16,21
732,187	18,6
732,372	-30,55
732,557	39,08
732,742	-36,69
732,927	-55,12
733,112	-22,36
733,297	-53,08
733,481	69,8
733,666	67,75
733,851	-16,21
734,036	-44,88
734,22	-46,93
734,405	96,43
734,59	-28,5
734,774	34,99
734,959	-77,65
735,144	92,33
735,328	28,84
735,513	-59,22
735,698	-38,74
735,882	53,42
736,067	28,84
736,251	43,18
736,436	-38,74
736,62	-55,12
736,805	34,99
736,989	94,38
737,174	-83,8
737,358	-51,03
737,543	18,6
737,727	47,27
737,911	127,14
738,096	-57,17
738,28	37,03
738,465	34,99
738,649	69,8
738,833	-61,27
739,018	-46,93
739,202	-53,08
739,386	-53,08
739,57	-71,51
739,755	-20,31
739,939	18,6
740,123	-77,65
740,307	-59,22
740,491	-3,93
740,676	2,22
740,86	37,03
741,044	-44,88
741,228	-61,27
741,412	-108,37
741,596	-44,88
741,78	-55,12
741,964	-44,88
742,148	-38,74
742,332	-53,08
742,516	-36,69
742,7	104,62
742,884	110,76
743,068	360,61
743,252	387,24
743,436	651,42
743,62	657,57
743,804	1026,2
743,988	1198,23
744,172	1222,81
744,356	1231
744,539	1138,84
744,723	1069,21
744,907	1030,3
745,091	899,23
745,275	792,73
745,458	778,4
745,642	626,85
745,826	594,08
746,009	567,46
746,193	530,59
746,377	501,92
746,56	356,52
746,744	403,62
746,928	207,02
747,111	176,3
747,295	67,75
747,478	100,52
747,662	75,95
747,846	241,83
748,029	194,73
748,213	176,3
748,396	219,3
748,58	315,56
748,763	313,51
748,946	305,32
749,13	460,96
749,313	411,81
749,497	520,35
749,68	405,67
749,863	362,66
750,047	325,8
750,23	362,66
750,413	284,84
750,597	223,4
750,78	137,38
750,963	166,06
751,146	157,86
751,33	133,29
751,513	118,95
751,696	104,62
751,879	116,9
752,062	-20,31
752,246	43,18
752,429	110,76
752,612	6,31
752,795	59,56
752,978	125,1
753,161	108,71
753,344	237,74
753,527	288,93
753,71	374,95
753,893	471,2
754,076	446,63
754,259	499,88
754,442	428,2
754,625	346,28
754,808	456,87
754,991	411,81
755,174	297,13
755,357	231,59
755,539	213,16
755,722	223,4
755,905	188,58
756,088	194,73
756,271	155,82
756,453	51,37
756,636	-12,12
756,819	63,66
757,002	59,56
757,184	104,62
757,367	135,34
757,55	10,41
757,732	49,32
757,915	-26,45
758,098	18,6
758,28	67,75
758,463	34,99
758,645	-61,27
758,828	73,9
759,011	-14,17
759,193	-3,93
759,376	18,6
759,558	-5,97
759,741	-71,51
759,923	-20,31
760,105	-28,5
760,288	22,7
760,47	-167,76
760,653	-96,08
760,835	-28,5
761,017	-94,04
761,2	-59,22
761,382	63,66
761,564	-38,74
761,747	4,27
761,929	-36,69
762,111	-57,17
762,294	45,23
762,476	94,38
762,658	12,46
762,84	24,75
763,022	-38,74
763,205	-12,12
763,387	14,51
763,569	-38,74
763,751	-44,88
763,933	-59,22
764,115	-69,46
764,297	24,75
764,479	22,7
764,661	-30,55
764,843	-10,07
765,025	-79,7
765,207	6,31
765,389	-59,22
765,571	-71,51
765,753	-38,74
765,935	28,84
766,117	4,27
766,299	100,52
766,481	102,57
766,663	-14,17
766,845	-135
767,026	-30,55
767,208	-38,74
767,39	-30,55
767,572	-79,7
767,753	20,65
767,935	4,27
768,117	-14,17
768,299	39,08
768,48	-24,4
768,662	-30,55
768,844	-22,36
769,025	118,95
769,207	-22,36
769,389	-71,51
769,57	-22,36
769,752	-18,26
769,933	-67,41
770,115	67,75
770,296	45,23
770,478	53,42
770,659	-14,17
770,841	192,68
771,022	-38,74
771,204	-3,93
771,385	-71,51
771,567	45,23
771,748	32,94
771,929	-30,55
772,111	-36,69
772,292	34,99
772,473	-5,97
772,655	-1,88
772,836	65,71
773,017	4,27
773,199	-42,84
773,38	63,66
773,561	16,55
773,742	59,56
773,923	-36,69
774,105	-26,45
774,286	84,14
774,467	-18,26
774,648	-85,84
774,829	14,51
775,01	-44,88
775,191	-71,51
775,372	-30,55
775,553	-14,17
775,734	-77,65
775,915	-16,21
776,096	-63,32
776,277	-12,12
776,458	-126,8
776,639	59,56
776,82	84,14
777,001	43,18
777,182	-59,22
777,363	-75,6
777,544	-87,89
777,725	86,19
777,906	4,27
778,086	2,22
778,267	-20,31
778,448	-1,88
778,629	-53,08
778,809	26,79
778,99	-42,84
779,171	-63,32
779,352	-30,55
779,532	-137,04
779,713	-36,69
779,894	18,6
780,074	4,27
780,255	-30,55
780,435	-12,12
780,616	10,41
780,797	12,46
780,977	-44,88
781,158	-38,74
781,338	-34,64
781,519	2,22
781,699	127,14
781,88	-53,08
782,06	30,89
782,241	-30,55
782,421	-135
782,601	-44,88
782,782	45,23
782,962	43,18
783,142	-61,27
783,323	59,56
783,503	43,18
783,683	-30,55
783,864	-38,74
784,044	-38,74
784,224	92,33
784,404	4,27
784,585	34,99
784,765	45,23
784,945	116,9
785,125	-71,51
785,305	67,75
785,485	69,8
785,666	30,89
785,846	-87,89
786,026	-18,26
786,206	-44,88
786,386	-38,74
786,566	-38,74
786,746	-55,12
786,926	30,89
787,106	-112,47
787,286	-26,45
787,466	43,18
787,646	39,08
787,826	-42,84
788,006	30,89
788,185	26,79
788,365	-102,23
788,545	71,85
788,725	-20,31
788,905	-26,45
789,085	45,23
789,264	-79,7
789,444	-5,97
789,624	43,18
789,804	-46,93
789,983	-53,08
790,163	2,22
790,343	12,46
790,522	-63,32
790,702	22,7
790,882	-38,74
791,061	34,99
791,241	-83,8
791,42	-96,08
791,6	75,95
791,78	-1,88
791,959	-18,26
792,139	-14,17
792,318	-55,12
792,498	39,08
792,677	-85,84
792,856	-22,36
793,036	-12,12
793,215	6,31
793,395	131,24
793,574	-18,26
793,753	51,37
793,933	88,23
794,112	153,77
794,291	-5,97
794,471	182,44
794,65	26,79
794,829	-22,36
795,008	86,19
795,188	59,56
795,367	149,67
795,546	34,99
795,725	26,79
795,904	24,75
796,084	10,41
796,263	67,75
796,442	67,75
796,621	20,65
796,8	133,29
796,979	43,18
797,158	-42,84
797,337	18,6
797,516	-3,93
797,695	96,43
797,874	28,84
798,053	22,7
798,232	-22,36
798,411	-53,08
798,59	-116,56
798,769	-40,79
798,947	-18,26
799,126	86,19
799,305	22,7
799,484	133,29
799,663	-67,41
799,842	96,43
800,02	4,27
800,199	-28,5
800,378	-12,12
800,557	-55,12
800,735	-53,08
800,914	-71,51
801,093	67,75
801,271	-22,36
801,45	82,09
801,628	112,81
801,807	-55,12
801,986	-10,07
802,164	-46,93
802,343	-128,85
802,521	-145,24
802,7	34,99
802,878	2,22
803,057	-55,12
803,235	-34,64
803,414	-24,4
803,592	43,18
803,771	-46,93
803,949	32,94
804,127	-104,28
804,306	90,28
804,484	-55,12
804,662	10,41
804,841	-190,29
805,019	-22,36
805,197	32,94
805,375	18,6
805,554	-5,97
805,732	-30,55
805,91	-42,84
806,088	59,56
806,266	-128,85
806,445	-75,6
806,623	26,79
806,801	-5,97
806,979	14,51
807,157	-1,88
807,335	26,79
807,513	-34,64
807,691	-44,88
807,869	-51,03
808,047	-71,51
808,225	-94,04
808,403	6,31
808,581	-51,03
808,759	51,37
808,937	2,22
809,115	53,42
809,293	45,23
809,471	-46,93
809,649	63,66
809,826	2,22
810,004	-1,88
810,182	-71,51
810,36	-28,5
810,538	45,23
810,715	26,79
810,893	-118,61
811,071	-1,88
811,248	94,38
811,426	-71,51
811,604	12,46
811,781	30,89
811,959	59,56
812,137	34,99
812,314	-69,46
812,492	10,41
812,669	47,27
812,847	37,03
813,024	45,23
813,202	116,9
813,379	-18,26
813,557	86,19
813,734	174,25
813,912	121
814,089	10,41
814,267	88,23
814,444	-10,07
814,621	75,95
814,799	-102,23
814,976	77,99
815,153	37,03
815,331	63,66
815,508	6,31
815,685	-38,74
815,862	96,43
816,04	2,22
816,217	-12,12
816,394	8,36
816,571	12,46
816,748	145,58
816,926	69,8
817,103	284,84
817,28	37,03
817,457	-38,74
817,634	18,6
817,811	-75,6
817,988	26,79
818,165	-38,74
818,342	4,27
818,519	-32,6
818,696	-89,94
818,873	-89,94
819,05	75,95
819,227	-63,32
819,404	28,84
819,581	-51,03
819,758	-110,42
819,934	-28,5
820,111	-73,56
820,288	-20,31
820,465	37,03
820,642	14,51
820,818	69,8
820,995	-63,32
821,172	55,47
821,349	37,03
821,525	-3,93
821,702	34,99
821,879	-120,66
822,055	-79,7
822,232	-40,79
822,409	-44,88
822,585	67,75
822,762	43,18
822,938	2,22
823,115	86,19
823,291	-120,66
823,468	106,67
823,644	55,47
823,821	53,42
823,997	-108,37
824,174	-53,08
824,35	-87,89
824,527	10,41
824,703	-26,45
824,879	12,46
825,056	55,47
825,232	102,57
825,408	-40,79
825,585	-30,55
825,761	6,31
825,937	4,27
826,113	-38,74
826,29	37,03
826,466	-26,45
826,642	403,62
826,818	94,38
826,994	-18,26
827,17	-79,7
827,347	-112,47
827,523	-38,74
827,699	59,56
827,875	37,03
828,051	-46,93
828,227	30,89
828,403	4,27
828,579	-12,12
828,755	98,47
828,931	-63,32
829,107	-3,93
829,283	137,38
829,459	34,99
829,635	-22,36
829,811	125,1
829,986	121
830,162	45,23
830,338	141,48
830,514	-18,26
830,69	-3,93
830,865	-3,93
831,041	67,75
831,217	-46,93
831,393	12,46
831,568	-53,08
831,744	57,51
831,92	34,99
832,095	26,79
832,271	26,79
832,447	6,31
832,622	143,53
832,798	71,85
832,973	-38,74
833,149	47,27
833,325	20,65
833,5	37,03
833,676	-10,07
833,851	67,75
834,027	-59,22
834,202	10,41
834,377	-5,97
834,553	2,22
834,728	-63,32
834,904	26,79
835,079	-24,4
835,254	-18,26
835,43	-28,5
835,605	-36,69
835,78	2,22
835,955	-48,98
836,131	12,46
836,306	-46,93
836,481	-42,84
836,656	45,23
836,832	151,72
837,007	118,95
837,182	108,71
837,357	284,84
837,532	264,36
837,707	383,14
837,882	463,01
838,057	358,57
838,232	399,52
838,407	258,21
838,582	247,97
838,757	225,45
838,932	229,54
839,107	200,87
839,282	88,23
839,457	256,17
839,632	247,97
839,807	129,19
839,982	149,67
840,157	137,38
840,332	190,63
840,506	108,71
840,681	53,42
840,856	96,43
841,031	34,99
841,205	159,91
841,38	196,78
841,555	223,4
841,73	96,43
841,904	77,99
842,079	84,14
842,254	92,33
842,428	-20,31
842,603	43,18
842,777	-61,27
842,952	-3,93
843,126	-14,17
843,301	75,95
843,476	-38,74
843,65	18,6
843,825	84,14
843,999	-10,07
844,173	26,79
844,348	-3,93
844,522	47,27
844,697	4,27
844,871	10,41
845,045	102,57
845,22	-12,12
845,394	102,57
845,568	-38,74
845,743	-14,17
845,917	55,47
846,091	-46,93
846,265	-48,98
846,44	-30,55
846,614	18,6
846,788	-63,32
846,962	84,14
847,136	67,75
847,31	-38,74
847,485	166,06
847,659	-30,55
847,833	-1,88
848,007	14,51
848,181	-28,5
848,355	-22,36
848,529	53,42
848,703	133,29
848,877	16,55
849,051	153,77
849,225	104,62
849,399	143,53
849,573	123,05
849,746	131,24
849,92	166,06
850,094	53,42
850,268	168,1
850,442	196,78
850,616	45,23
850,789	34,99
850,963	77,99
851,137	-12,12
851,311	157,86
851,484	125,1
851,658	84,14
851,832	-51,03
852,005	80,04
852,179	-18,26
852,352	37,03
852,526	-34,64
852,7	118,95
852,873	26,79
853,047	77,99
853,22	77,99
853,394	110,76
853,567	102,57
853,741	-59,22
853,914	-14,17
854,088	-3,93
854,261	-63,32
854,434	-96,08
854,608	-75,6
854,781	-102,23
854,955	-5,97
855,128	26,79
855,301	-26,45
855,475	26,79
855,648	2,22
855,821	61,61
855,994	14,51
856,168	-18,26
856,341	53,42
856,514	-30,55
856,687	-28,5
856,86	71,85
857,033	59,56
857,207	12,46
857,38	-63,32
857,553	92,33
857,726	-3,93
857,899	12,46
858,072	-75,6
858,245	-14,17
858,418	47,27
858,591	32,94
858,764	-1,88
858,937	121
859,11	98,47
859,283	57,51
859,455	6,31
859,628	45,23
859,801	92,33
859,974	108,71
860,147	-51,03
860,32	108,71
860,492	69,8
860,665	-81,75
860,838	94,38
861,011	100,52
861,183	106,67
861,356	102,57
861,529	135,34
861,701	10,41
861,874	69,8
862,047	75,95
862,219	37,03
862,392	34,99
862,564	-20,31
862,737	14,51
862,909	141,48
863,082	-48,98
863,254	53,42
863,427	67,75
863,599	155,82
863,772	-42,84
863,944	-5,97
864,117	18,6
864,289	88,23
864,461	55,47
864,634	108,71
864,806	30,89
864,978	172,2
865,151	43,18
865,323	141,48
865,495	190,63
865,667	147,62
865,84	272,55
866,012	32,94
866,184	252,07
866,356	92,33
866,528	133,29
866,7	80,04
866,873	39,08
867,045	67,75
867,217	67,75
867,389	164,01
867,561	143,53
867,733	92,33
867,905	166,06
868,077	172,2
868,249	73,9
868,421	141,48
868,593	59,56
868,765	143,53
868,936	59,56
869,108	67,75
869,28	133,29
869,452	12,46
869,624	45,23
869,796	39,08
869,968	12,46
870,139	112,81
870,311	16,55
870,483	67,75
870,654	-77,65
870,826	55,47
870,998	-46,93
871,17	43,18
871,341	-14,17
871,513	65,71
871,684	-1,88
871,856	-20,31
872,028	-10,07
872,199	-24,4
872,371	-22,36
872,542	-55,12
872,714	4,27
872,885	112,81
873,057	-53,08
873,228	37,03
873,4	37,03
873,571	-5,97
873,742	-91,99
873,914	32,94
874,085	10,41
874,256	-44,88
874,428	-57,17
874,599	2,22
874,77	102,57
874,942	-44,88
875,113	-36,69
875,284	-46,93
875,455	-40,79
875,626	-32,6
875,798	-44,88
875,969	22,7
876,14	-5,97
876,311	34,99
876,482	43,18
876,653	71,85
876,824	45,23
876,995	20,65
877,166	4,27
877,337	20,65
877,508	4,27
877,679	22,7
877,85	16,55
878,021	22,7
878,192	94,38
878,363	90,28
878,534	84,14
878,705	69,8
878,876	112,81
879,047	149,67
879,217	-18,26
879,388	86,19
879,559	67,75
879,73	129,19
879,9	100,52
880,071	63,66
880,242	149,67
880,413	149,67
880,583	110,76
880,754	141,48
880,924	53,42
881,095	-20,31
881,266	18,6
881,436	100,52
881,607	143,53
881,777	39,08
881,948	45,23
882,118	186,54
882,289	-3,93
882,459	59,56
882,63	-28,5
882,8	-38,74
882,971	4,27
883,141	-34,64
883,311	10,41
883,482	-24,4
883,652	-139,09
883,822	-73,56
883,993	-36,69
884,163	-5,97
884,333	-14,17
884,504	12,46
884,674	34,99
884,844	-44,88
885,014	-51,03
885,184	16,55
885,355	-87,89
885,525	12,46
885,695	28,84
885,865	71,85
886,035	116,9
886,205	-14,17
886,375	100,52
886,545	4,27
886,715	12,46
886,885	-28,5
887,055	-22,36
887,225	-85,84
887,395	14,51
887,565	71,85
887,735	2,22
887,905	34,99
888,075	-30,55
888,244	43,18
888,414	-14,17
888,584	45,23
888,754	20,65
888,924	20,65
889,093	207,02
889,263	-22,36
889,433	-59,22
889,603	30,89
889,772	67,75
889,942	59,56
890,111	12,46
890,281	57,51
890,451	18,6
890,62	-63,32
890,79	-3,93
890,959	18,6
891,129	6,31
891,298	84,14
891,468	12,46
891,637	-10,07
891,807	34,99
891,976	-5,97
892,146	-30,55
892,315	-16,21
892,485	10,41
892,654	-75,6
892,823	-28,5
892,993	-32,6
893,162	51,37
893,331	59,56
893,501	47,27
893,67	-40,79
893,839	-38,74
894,008	-42,84
894,177	34,99
894,347	-22,36
894,516	55,47
894,685	-5,97
894,854	-42,84
895,023	75,95
895,192	4,27
