Data from neon_USB4F104161__10__11-46-32-624.txt Node

Date: Tue Apr 14 11:46:32 EDT 2026
User: LaboPhy
Spectrometer: USB4F10416
Trigger mode: 4
Integration Time (sec): 1,000000E-1
Scans to average: 1
Electric dark correction enabled: true
Nonlinearity correction enabled: false
Boxcar width: 0
XAxis mode: Wavelengths
Number of Pixels in Spectrum: 3648
>>>>>Begin Spectral Data<<<<<
177,847	-79,7
178,066	-79,7
178,284	-79,7
178,502	-229,2
178,72	-221,01
178,939	24,75
179,157	-42,84
179,375	-10,07
179,593	59,56
179,812	14,51
180,03	6,31
180,248	-10,07
180,466	30,89
180,685	10,41
180,903	-30,55
181,121	-65,36
181,339	12,46
181,557	-30,55
181,775	65,71
181,994	-75,6
182,212	-63,32
182,43	51,37
182,648	-51,03
182,866	39,08
183,084	43,18
183,302	-40,79
183,52	-20,31
183,739	32,94
183,957	106,67
184,175	-1,88
184,393	59,56
184,611	24,75
184,829	39,08
185,047	10,41
185,265	-1,88
185,483	8,36
185,701	47,27
185,919	-1,88
186,137	67,75
186,355	14,51
186,573	16,55
186,791	65,71
187,009	51,37
187,227	98,47
187,445	30,89
187,663	41,13
187,881	-42,84
188,098	30,89
188,316	37,03
188,534	92,33
188,752	-30,55
188,97	4,27
189,188	32,94
189,406	123,05
189,624	57,51
189,841	-24,4
190,059	-51,03
190,277	-48,98
190,495	-42,84
190,713	114,86
190,931	155,82
191,148	80,04
191,366	-24,4
191,584	14,51
191,802	92,33
192,019	96,43
192,237	30,89
192,455	-51,03
192,673	24,75
192,89	-38,74
193,108	37,03
193,326	-34,64
193,543	90,28
193,761	18,6
193,979	47,27
194,196	-30,55
194,414	41,13
194,632	63,66
194,849	-16,21
195,067	-91,99
195,285	6,31
195,502	-34,64
195,72	6,31
195,937	86,19
196,155	63,66
196,373	63,66
196,59	18,6
196,808	6,31
197,025	92,33
197,243	252,07
197,46	112,81
197,678	71,85
197,895	71,85
198,113	-16,21
198,33	0,17
198,548	88,23
198,765	-42,84
198,983	26,79
199,2	-40,79
199,418	-1,88
199,635	-51,03
199,853	-1,88
200,07	-16,21
200,288	80,04
200,505	-42,84
200,722	129,19
200,94	39,08
201,157	39,08
201,375	39,08
201,592	41,13
201,809	82,09
202,027	104,62
202,244	-24,4
202,461	37,03
202,679	-16,21
202,896	106,67
203,113	-100,18
203,331	16,55
203,548	-1,88
203,765	32,94
203,982	96,43
204,2	8,36
204,417	2,22
204,634	139,43
204,851	47,27
205,069	47,27
205,286	-1,88
205,503	59,56
205,72	-8,02
205,937	22,7
206,155	-42,84
206,372	135,34
206,589	-18,26
206,806	-8,02
207,023	-22,36
207,24	43,18
207,458	-10,07
207,675	-26,45
207,892	63,66
208,109	-32,6
208,326	-40,79
208,543	-28,5
208,76	26,79
208,977	90,28
209,194	47,27
209,411	0,17
209,628	24,75
209,845	-3,93
210,062	88,23
210,279	-26,45
210,496	16,55
210,713	-67,41
210,93	-38,74
211,147	96,43
211,364	-18,26
211,581	-14,17
211,798	94,38
212,015	-38,74
212,232	-83,8
212,449	14,51
212,666	20,65
212,883	-16,21
213,1	2,22
213,317	-24,4
213,533	34,99
213,75	-18,26
213,967	-8,02
214,184	-51,03
214,401	22,7
214,618	-51,03
214,835	-1,88
215,051	47,27
215,268	-36,69
215,485	88,23
215,702	-26,45
215,919	-63,32
216,135	180,39
216,352	57,51
216,569	24,75
216,786	26,79
217,002	32,94
217,219	153,77
217,436	-51,03
217,652	-36,69
217,869	49,32
218,086	63,66
218,302	-24,4
218,519	30,89
218,736	12,46
218,952	22,7
219,169	6,31
219,386	104,62
219,602	6,31
219,819	-3,93
220,036	14,51
220,252	149,67
220,469	-10,07
220,685	8,36
220,902	-16,21
221,118	-1,88
221,335	-5,97
221,552	-16,21
221,768	49,32
221,985	39,08
222,201	-32,6
222,418	0,17
222,634	-30,55
222,851	34,99
223,067	10,41
223,284	-87,89
223,5	28,84
223,716	-18,26
223,933	96,43
224,149	2,22
224,366	-16,21
224,582	10,41
224,799	-1,88
225,015	32,94
225,231	39,08
225,448	2,22
225,664	26,79
225,88	-46,93
226,097	49,32
226,313	-44,88
226,529	10,41
226,746	26,79
226,962	22,7
227,178	-24,4
227,395	-38,74
227,611	37,03
227,827	22,7
228,044	43,18
228,26	49,32
228,476	80,04
228,692	137,38
228,909	67,75
229,125	-1,88
229,341	-57,17
229,557	-1,88
229,773	-10,07
229,99	71,85
230,206	-73,56
230,422	24,75
230,638	-1,88
230,854	-8,02
231,07	-51,03
231,286	65,71
231,503	65,71
231,719	-83,8
231,935	0,17
232,151	45,23
232,367	53,42
232,583	16,55
232,799	112,81
233,015	145,58
233,231	18,6
233,447	-32,6
233,663	-55,12
233,879	26,79
234,095	-34,64
234,311	92,33
234,527	63,66
234,743	47,27
234,959	49,32
235,175	0,17
235,391	-16,21
235,607	8,36
235,823	-16,21
236,039	-73,56
236,255	-42,84
236,471	-42,84
236,687	-30,55
236,903	41,13
237,118	55,47
237,334	22,7
237,55	22,7
237,766	-83,8
237,982	47,27
238,198	65,71
238,413	43,18
238,629	43,18
238,845	47,27
239,061	2,22
239,277	6,31
239,492	43,18
239,708	16,55
239,924	-22,36
240,14	0,17
240,355	149,67
240,571	-24,4
240,787	6,31
241,003	88,23
241,218	-12,12
241,434	-26,45
241,65	71,85
241,865	-22,36
242,081	22,7
242,297	-51,03
242,512	77,99
242,728	-16,21
242,944	-14,17
243,159	84,14
243,375	10,41
243,59	32,94
243,806	-51,03
244,022	39,08
244,237	47,27
244,453	71,85
244,668	39,08
244,884	61,61
245,099	-3,93
245,315	73,9
245,53	96,43
245,746	65,71
245,961	61,61
246,177	-14,17
246,392	86,19
246,608	59,56
246,823	-26,45
247,039	-26,45
247,254	-48,98
247,47	30,89
247,685	-1,88
247,9	30,89
248,116	45,23
248,331	-59,22
248,547	123,05
248,762	-75,6
248,977	2,22
249,193	57,51
249,408	96,43
249,623	43,18
249,839	41,13
250,054	-51,03
250,269	22,7
250,485	6,31
250,7	14,51
250,915	63,66
251,13	104,62
251,346	22,7
251,561	114,86
251,776	100,52
251,991	-10,07
252,207	80,04
252,422	-10,07
252,637	65,71
252,852	-73,56
253,067	51,37
253,283	98,47
253,498	41,13
253,713	-10,07
253,928	0,17
254,143	-14,17
254,358	51,37
254,573	-51,03
254,788	-48,98
255,004	30,89
255,219	-71,51
255,434	-57,17
255,649	-51,03
255,864	20,65
256,079	39,08
256,294	71,85
256,509	-36,69
256,724	22,7
256,939	-46,93
257,154	8,36
257,369	8,36
257,584	106,67
257,799	-112,47
258,014	-40,79
258,229	75,95
258,444	34,99
258,659	26,79
258,874	159,91
259,089	63,66
259,304	-44,88
259,518	-24,4
259,733	41,13
259,948	39,08
260,163	153,77
260,378	61,61
260,593	-18,26
260,808	106,67
261,022	-94,04
261,237	49,32
261,452	0,17
261,667	-1,88
261,882	100,52
262,096	108,71
262,311	106,67
262,526	-20,31
262,741	-8,02
262,955	-57,17
263,17	49,32
263,385	30,89
263,6	-69,46
263,814	-71,51
264,029	-18,26
264,244	71,85
264,458	24,75
264,673	16,55
264,888	39,08
265,102	71,85
265,317	49,32
265,532	-10,07
265,746	-10,07
265,961	73,9
266,175	90,28
266,39	10,41
266,605	-20,31
266,819	-8,02
267,034	90,28
267,248	-79,7
267,463	49,32
267,677	-59,22
267,892	26,79
268,106	-91,99
268,321	18,6
268,535	139,43
268,75	22,7
268,964	-42,84
269,179	104,62
269,393	49,32
269,608	90,28
269,822	-75,6
270,036	-69,46
270,251	-8,02
270,465	49,32
270,68	-18,26
270,894	67,75
271,108	80,04
271,323	2,22
271,537	-40,79
271,752	59,56
271,966	-8,02
272,18	-73,56
272,394	-10,07
272,609	39,08
272,823	30,89
273,037	59,56
273,252	16,55
273,466	53,42
273,68	55,47
273,894	71,85
274,109	-18,26
274,323	55,47
274,537	-67,41
274,751	-10,07
274,966	18,6
275,18	8,36
275,394	30,89
275,608	-151,38
275,822	-83,8
276,036	-18,26
276,25	6,31
276,465	30,89
276,679	63,66
276,893	4,27
277,107	100,52
277,321	-1,88
277,535	92,33
277,749	108,71
277,963	71,85
278,177	-22,36
278,391	-65,36
278,605	-42,84
278,819	80,04
279,033	-57,17
279,247	-5,97
279,461	96,43
279,675	30,89
279,889	-61,27
280,103	55,47
280,317	114,86
280,531	-59,22
280,745	-14,17
280,959	-30,55
281,173	2,22
281,387	88,23
281,601	14,51
281,815	37,03
282,029	-34,64
282,242	32,94
282,456	8,36
282,67	10,41
282,884	-1,88
283,098	2,22
283,312	73,9
283,525	34,99
283,739	57,51
283,953	6,31
284,167	96,43
284,381	49,32
284,594	-57,17
284,808	49,32
285,022	18,6
285,235	-51,03
285,449	32,94
285,663	69,8
285,877	80,04
286,09	43,18
286,304	57,51
286,518	-22,36
286,731	-67,41
286,945	2,22
287,159	-1,88
287,372	-22,36
287,586	47,27
287,799	30,89
288,013	-1,88
288,227	0,17
288,44	209,06
288,654	67,75
288,867	43,18
289,081	-14,17
289,294	10,41
289,508	125,1
289,721	45,23
289,935	-79,7
290,148	4,27
290,362	-32,6
290,575	47,27
290,789	-48,98
291,002	-1,88
291,216	84,14
291,429	49,32
291,643	63,66
291,856	-8,02
292,069	-59,22
292,283	-32,6
292,496	-51,03
292,71	73,9
292,923	32,94
293,136	14,51
293,35	59,56
293,563	16,55
293,776	47,27
293,99	-26,45
294,203	63,66
294,416	-51,03
294,63	8,36
294,843	-1,88
295,056	80,04
295,269	-59,22
295,483	-14,17
295,696	24,75
295,909	30,89
296,122	0,17
296,335	-5,97
296,549	14,51
296,762	32,94
296,975	-26,45
297,188	32,94
297,401	-16,21
297,615	67,75
297,828	-59,22
298,041	86,19
298,254	14,51
298,467	8,36
298,68	6,31
298,893	-40,79
299,106	-42,84
299,319	47,27
299,532	90,28
299,745	-63,32
299,958	-81,75
300,171	-38,74
300,384	-22,36
300,598	-71,51
300,81	-1,88
301,023	-24,4
301,236	80,04
301,449	114,86
301,662	-26,45
301,875	-61,27
302,088	-5,97
302,301	104,62
302,514	-67,41
302,727	6,31
302,94	14,51
303,153	14,51
303,366	30,89
303,579	-40,79
303,791	65,71
304,004	10,41
304,217	73,9
304,43	137,38
304,643	22,7
304,855	-67,41
305,068	110,76
305,281	-42,84
305,494	14,51
305,707	-34,64
305,919	188,58
306,132	2,22
306,345	63,66
306,558	39,08
306,77	-57,17
306,983	26,79
307,196	90,28
307,408	-26,45
307,621	10,41
307,834	0,17
308,046	39,08
308,259	10,41
308,472	-32,6
308,684	30,89
308,897	2,22
309,109	-83,8
309,322	-8,02
309,535	30,89
309,747	114,86
309,96	161,96
310,172	8,36
310,385	39,08
310,597	-67,41
310,81	45,23
311,022	16,55
311,235	6,31
311,447	0,17
311,66	-26,45
311,872	16,55
312,085	-51,03
312,297	-36,69
312,51	-169,81
312,722	-14,17
312,934	22,7
313,147	-91,99
313,359	-18,26
313,572	-32,6
313,784	-67,41
313,996	34,99
314,209	45,23
314,421	18,6
314,633	-65,36
314,846	8,36
315,058	43,18
315,27	-51,03
315,483	41,13
315,695	18,6
315,907	49,32
316,119	-18,26
316,332	-16,21
316,544	82,09
316,756	-8,02
316,968	18,6
317,181	41,13
317,393	92,33
317,605	55,47
317,817	73,9
318,029	45,23
318,241	-5,97
318,454	10,41
318,666	75,95
318,878	-130,9
319,09	-26,45
319,302	30,89
319,514	22,7
319,726	71,85
319,938	112,81
320,15	63,66
320,362	71,85
320,574	-28,5
320,786	-42,84
320,999	-12,12
321,211	73,9
321,423	41,13
321,635	-38,74
321,847	100,52
322,058	-30,55
322,27	-67,41
322,482	102,57
322,694	106,67
322,906	8,36
323,118	104,62
323,33	49,32
323,542	63,66
323,754	55,47
323,966	-28,5
324,178	108,71
324,389	-63,32
324,601	75,95
324,813	-55,12
325,025	10,41
325,237	-8,02
325,449	61,61
325,66	6,31
325,872	-12,12
326,084	-51,03
326,296	43,18
326,507	71,85
326,719	-1,88
326,931	-32,6
327,143	71,85
327,354	80,04
327,566	63,66
327,778	10,41
327,989	104,62
328,201	8,36
328,413	104,62
328,624	61,61
328,836	22,7
329,048	-10,07
329,259	75,95
329,471	22,7
329,682	2,22
329,894	22,7
330,106	-32,6
330,317	20,65
330,529	26,79
330,74	-51,03
330,952	18,6
331,163	-10,07
331,375	30,89
331,586	43,18
331,798	-26,45
332,009	-1,88
332,221	14,51
332,432	55,47
332,644	65,71
332,855	6,31
333,067	-38,74
333,278	-22,36
333,489	112,81
333,701	6,31
333,912	-42,84
334,124	16,55
334,335	-38,74
334,546	-57,17
334,758	-1,88
334,969	194,73
335,18	41,13
335,392	51,37
335,603	80,04
335,814	49,32
336,025	-57,17
336,237	84,14
336,448	-48,98
336,659	24,75
336,87	80,04
337,082	121
337,293	-32,6
337,504	-38,74
337,715	22,7
337,926	32,94
338,138	-22,36
338,349	10,41
338,56	-59,22
338,771	-16,21
338,982	39,08
339,193	30,89
339,404	94,38
339,616	-18,26
339,827	10,41
340,038	-75,6
340,249	71,85
340,46	49,32
340,671	96,43
340,882	223,4
341,093	71,85
341,304	6,31
341,515	47,27
341,726	-16,21
341,937	80,04
342,148	69,8
342,359	59,56
342,57	41,13
342,781	180,39
342,992	4,27
343,203	6,31
343,414	96,43
343,624	6,31
343,835	47,27
344,046	30,89
344,257	92,33
344,468	80,04
344,679	75,95
344,89	114,86
345,1	108,71
345,311	106,67
345,522	219,3
345,733	102,57
345,944	204,97
346,154	233,64
346,365	245,93
346,576	108,71
346,787	129,19
346,997	168,1
347,208	182,44
347,419	147,62
347,629	153,77
347,84	239,78
348,051	112,81
348,261	106,67
348,472	47,27
348,683	90,28
348,893	22,7
349,104	12,46
349,315	106,67
349,525	16,55
349,736	98,47
349,946	8,36
350,157	141,48
350,368	155,82
350,578	39,08
350,789	194,73
350,999	168,1
351,21	227,5
351,42	127,14
351,631	252,07
351,841	311,46
352,052	303,27
352,262	379,04
352,472	239,78
352,683	243,88
352,893	194,73
353,104	121
353,314	239,78
353,525	458,92
353,735	71,85
353,945	75,95
354,156	-63,32
354,366	121
354,576	129,19
354,787	39,08
354,997	24,75
355,207	-46,93
355,418	2,22
355,628	-26,45
355,838	-55,12
356,048	104,62
356,259	41,13
356,469	16,55
356,679	71,85
356,889	63,66
357,1	6,31
357,31	47,27
357,52	63,66
357,73	-26,45
357,94	14,51
358,15	-59,22
358,361	41,13
358,571	39,08
358,781	96,43
358,991	14,51
359,201	18,6
359,411	41,13
359,621	75,95
359,831	114,86
360,041	153,77
360,251	137,38
360,461	73,9
360,672	55,47
360,882	8,36
361,092	14,51
361,302	-26,45
361,512	57,51
361,721	28,84
361,931	88,23
362,141	-55,12
362,351	30,89
362,561	-10,07
362,771	63,66
362,981	129,19
363,191	-63,32
363,401	20,65
363,611	0,17
363,821	55,47
364,03	-42,84
364,24	16,55
364,45	34,99
364,66	243,88
364,87	-75,6
365,08	-18,26
365,289	-34,64
365,499	-10,07
365,709	61,61
365,919	39,08
366,128	-8,02
366,338	26,79
366,548	-18,26
366,758	-42,84
366,967	43,18
367,177	30,89
367,387	-83,8
367,596	63,66
367,806	14,51
368,016	-18,26
368,225	30,89
368,435	116,9
368,644	-3,93
368,854	-59,22
369,064	59,56
369,273	2,22
369,483	24,75
369,692	-10,07
369,902	59,56
370,111	77,99
370,321	10,41
370,53	47,27
370,74	-10,07
370,949	-8,02
371,159	47,27
371,368	61,61
371,578	2,22
371,787	-22,36
371,997	-48,98
372,206	-30,55
372,416	16,55
372,625	71,85
372,834	34,99
373,044	-75,6
373,253	18,6
373,462	32,94
373,672	-34,64
373,881	59,56
374,09	-3,93
374,3	84,14
374,509	2,22
374,718	-36,69
374,928	96,43
375,137	-63,32
375,346	30,89
375,555	94,38
375,765	39,08
375,974	6,31
376,183	30,89
376,392	-48,98
376,601	75,95
376,811	71,85
377,02	106,67
377,229	51,37
377,438	94,38
377,647	-69,46
377,856	-16,21
378,065	43,18
378,275	-32,6
378,484	8,36
378,693	-8,02
378,902	6,31
379,111	39,08
379,32	-67,41
379,529	0,17
379,738	-71,51
379,947	47,27
380,156	63,66
380,365	-8,02
380,574	-1,88
380,783	-132,95
380,992	8,36
381,201	-51,03
381,41	-161,62
381,619	30,89
381,828	-34,64
382,037	-42,84
382,245	96,43
382,454	51,37
382,663	71,85
382,872	-26,45
383,081	-8,02
383,29	96,43
383,499	-75,6
383,707	96,43
383,916	-24,4
384,125	133,29
384,334	67,75
384,542	90,28
384,751	-34,64
384,96	-28,5
385,169	-24,4
385,377	26,79
385,586	-10,07
385,795	-51,03
386,004	-26,45
386,212	-67,41
386,421	-48,98
386,63	-8,02
386,838	59,56
387,047	57,51
387,255	-22,36
387,464	-1,88
387,673	-10,07
387,881	84,14
388,09	112,81
388,298	96,43
388,507	112,81
388,715	26,79
388,924	55,47
389,133	-12,12
389,341	-65,36
389,55	137,38
389,758	-10,07
389,967	47,27
390,175	-57,17
390,383	32,94
390,592	161,96
390,8	18,6
391,009	8,36
391,217	51,37
391,426	133,29
391,634	-46,93
391,842	-18,26
392,051	-16,21
392,259	34,99
392,467	-42,84
392,676	-53,08
392,884	8,36
393,092	-1,88
393,301	-5,97
393,509	-10,07
393,717	47,27
393,925	34,99
394,134	41,13
394,342	41,13
394,55	82,09
394,758	34,99
394,967	-1,88
395,175	-75,6
395,383	14,51
395,591	-18,26
395,799	10,41
396,007	-10,07
396,216	55,47
396,424	18,6
396,632	20,65
396,84	-30,55
397,048	-5,97
397,256	-75,6
397,464	80,04
397,672	-32,6
397,88	-18,26
398,088	2,22
398,296	10,41
398,504	12,46
398,712	-100,18
398,92	75,95
399,128	-8,02
399,336	6,31
399,544	28,84
399,752	-18,26
399,96	10,41
400,168	47,27
400,376	-104,28
400,584	75,95
400,792	-28,5
401	-10,07
401,207	-24,4
401,415	71,85
401,623	-1,88
401,831	6,31
402,039	71,85
402,247	-10,07
402,454	114,86
402,662	88,23
402,87	28,84
403,078	176,3
403,285	100,52
403,493	-10,07
403,701	137,38
403,909	-34,64
404,116	114,86
404,324	4,27
404,532	-8,02
404,739	-20,31
404,947	41,13
405,155	20,65
405,362	20,65
405,57	90,28
405,778	-63,32
405,985	28,84
406,193	14,51
406,4	-61,27
406,608	26,79
406,816	26,79
407,023	67,75
407,231	-57,17
407,438	14,51
407,646	49,32
407,853	16,55
408,061	6,31
408,268	71,85
408,476	34,99
408,683	55,47
408,89	10,41
409,098	47,27
409,305	53,42
409,513	49,32
409,72	-18,26
409,927	71,85
410,135	47,27
410,342	-73,56
410,55	63,66
410,757	10,41
410,964	-40,79
411,172	-26,45
411,379	-38,74
411,586	96,43
411,793	-8,02
412,001	6,31
412,208	-28,5
412,415	-14,17
412,622	55,47
412,83	-30,55
413,037	43,18
413,244	-18,26
413,451	28,84
413,658	108,71
413,866	55,47
414,073	-18,26
414,28	90,28
414,487	-65,36
414,694	-20,31
414,901	63,66
415,108	47,27
415,315	-40,79
415,522	55,47
415,73	-51,03
415,937	-24,4
416,144	-40,79
416,351	-73,56
416,558	-18,26
416,765	-40,79
416,972	30,89
417,179	2,22
417,386	-18,26
417,593	14,51
417,8	39,08
418,006	26,79
418,213	57,51
418,42	123,05
418,627	37,03
418,834	-112,47
419,041	-26,45
419,248	18,6
419,455	43,18
419,661	100,52
419,868	14,51
420,075	39,08
420,282	-40,79
420,489	-48,98
420,696	-67,41
420,902	18,6
421,109	112,81
421,316	-67,41
421,523	49,32
421,729	39,08
421,936	47,27
422,143	0,17
422,349	12,46
422,556	-67,41
422,763	0,17
422,969	-12,12
423,176	-28,5
423,383	92,33
423,589	235,69
423,796	26,79
424,002	30,89
424,209	-28,5
424,416	65,71
424,622	-59,22
424,829	-8,02
425,035	-75,6
425,242	34,99
425,448	30,89
425,655	18,6
425,861	-1,88
426,068	-38,74
426,274	123,05
426,481	18,6
426,687	47,27
426,894	-12,12
427,1	39,08
427,306	39,08
427,513	-30,55
427,719	-65,36
427,926	22,7
428,132	2,22
428,338	45,23
428,545	45,23
428,751	-26,45
428,957	57,51
429,163	-32,6
429,37	57,51
429,576	8,36
429,782	39,08
429,989	-91,99
430,195	-1,88
430,401	-14,17
430,607	-30,55
430,813	-48,98
431,02	24,75
431,226	-14,17
431,432	14,51
431,638	-10,07
431,844	-87,89
432,05	-67,41
432,257	-26,45
432,463	8,36
432,669	39,08
432,875	-114,52
433,081	-16,21
433,287	-12,12
433,493	-18,26
433,699	-1,88
433,905	73,9
434,111	-14,17
434,317	-51,03
434,523	88,23
434,729	24,75
434,935	-65,36
435,141	84,14
435,347	47,27
435,553	-8,02
435,759	-26,45
435,965	-18,26
436,171	18,6
436,377	-14,17
436,582	24,75
436,788	-147,28
436,994	106,67
437,2	26,79
437,406	-48,98
437,612	-51,03
437,818	61,61
438,023	-46,93
438,229	80,04
438,435	39,08
438,641	18,6
438,846	-8,02
439,052	-8,02
439,258	114,86
439,464	-18,26
439,669	-18,26
439,875	67,75
440,081	-1,88
440,286	-20,31
440,492	-87,89
440,698	47,27
440,903	-32,6
441,109	118,95
441,314	-34,64
441,52	-30,55
441,726	71,85
441,931	77,99
442,137	26,79
442,342	-8,02
442,548	65,71
442,753	116,9
442,959	-42,84
443,164	18,6
443,37	6,31
443,575	18,6
443,781	-26,45
443,986	123,05
444,192	-16,21
444,397	16,55
444,602	-59,22
444,808	-53,08
445,013	-51,03
445,219	-65,36
445,424	57,51
445,629	-5,97
445,835	53,42
446,04	49,32
446,245	-46,93
446,451	-16,21
446,656	30,89
446,861	67,75
447,066	10,41
447,272	71,85
447,477	47,27
447,682	-106,32
447,887	24,75
448,093	14,51
448,298	166,06
448,503	24,75
448,708	-26,45
448,913	-51,03
449,118	4,27
449,324	39,08
449,529	10,41
449,734	53,42
449,939	-34,64
450,144	141,48
450,349	22,7
450,554	41,13
450,759	10,41
450,964	73,9
451,169	55,47
451,374	-42,84
451,579	22,7
451,784	34,99
451,989	-42,84
452,194	63,66
452,399	57,51
452,604	-40,79
452,809	-26,45
453,014	39,08
453,219	-18,26
453,424	34,99
453,629	-18,26
453,833	-34,64
454,038	71,85
454,243	30,89
454,448	80,04
454,653	112,81
454,858	32,94
455,062	34,99
455,267	-42,84
455,472	55,47
455,677	10,41
455,882	-42,84
456,086	92,33
456,291	51,37
456,496	-30,55
456,7	-1,88
456,905	73,9
457,11	55,47
457,314	-10,07
457,519	12,46
457,724	-32,6
457,928	20,65
458,133	-34,64
458,338	39,08
458,542	10,41
458,747	20,65
458,951	-87,89
459,156	41,13
459,36	-71,51
459,565	145,58
459,769	-1,88
459,974	47,27
460,178	6,31
460,383	-55,12
460,587	-26,45
460,792	49,32
460,996	39,08
461,201	104,62
461,405	-24,4
461,61	6,31
461,814	0,17
462,018	-46,93
462,223	-5,97
462,427	-53,08
462,631	43,18
462,836	73,9
463,04	-16,21
463,244	92,33
463,449	-5,97
463,653	43,18
463,857	26,79
464,062	4,27
464,266	-18,26
464,47	32,94
464,674	-1,88
464,878	127,14
465,083	-42,84
465,287	164,01
465,491	2,22
465,695	69,8
465,899	22,7
466,104	-38,74
466,308	32,94
466,512	6,31
466,716	-8,02
466,92	73,9
467,124	121
467,328	8,36
467,532	110,76
467,736	47,27
467,94	84,14
468,144	-81,75
468,348	51,37
468,552	184,49
468,756	116,9
468,96	0,17
469,164	-22,36
469,368	-1,88
469,572	-98,13
469,776	164,01
469,98	26,79
470,184	55,47
470,388	147,62
470,591	192,68
470,795	153,77
470,999	88,23
471,203	149,67
471,407	82,09
471,611	153,77
471,814	143,53
472,018	2,22
472,222	65,71
472,426	114,86
472,63	24,75
472,833	30,89
473,037	71,85
473,241	32,94
473,444	123,05
473,648	448,68
473,852	-32,6
474,055	-30,55
474,259	-57,17
474,463	94,38
474,666	32,94
474,87	30,89
475,074	8,36
475,277	82,09
475,481	129,19
475,684	32,94
475,888	28,84
476,091	39,08
476,295	-30,55
476,498	30,89
476,702	102,57
476,905	114,86
477,109	43,18
477,312	32,94
477,516	47,27
477,719	143,53
477,923	-26,45
478,126	2,22
478,329	47,27
478,533	-32,6
478,736	47,27
478,94	30,89
479,143	34,99
479,346	22,7
479,55	-12,12
479,753	0,17
479,956	0,17
480,159	-83,8
480,363	49,32
480,566	-57,17
480,769	2,22
480,972	43,18
481,176	14,51
481,379	90,28
481,582	88,23
481,785	-57,17
481,988	6,31
482,192	61,61
482,395	-10,07
482,598	-22,36
482,801	26,79
483,004	131,24
483,207	49,32
483,41	-1,88
483,613	28,84
483,817	71,85
484,02	22,7
484,223	-18,26
484,426	112,81
484,629	-1,88
484,832	59,56
485,035	32,94
485,238	-8,02
485,441	75,95
485,644	67,75
485,846	-40,79
486,049	-8,02
486,252	63,66
486,455	-96,08
486,658	57,51
486,861	22,7
487,064	63,66
487,267	-1,88
487,47	67,75
487,672	34,99
487,875	57,51
488,078	-81,75
488,281	22,7
488,484	98,47
488,686	-18,26
488,889	-51,03
489,092	-22,36
489,295	6,31
489,497	108,71
489,7	57,51
489,903	24,75
490,105	-73,56
490,308	2,22
490,511	18,6
490,713	-26,45
490,916	55,47
491,118	22,7
491,321	0,17
491,524	-34,64
491,726	-42,84
491,929	-100,18
492,131	80,04
492,334	-18,26
492,536	-24,4
492,739	-1,88
492,941	32,94
493,144	37,03
493,346	39,08
493,549	43,18
493,751	-5,97
493,954	-1,88
494,156	-18,26
494,359	100,52
494,561	-32,6
494,763	12,46
494,966	65,71
495,168	112,81
495,37	6,31
495,573	43,18
495,775	143,53
495,977	94,38
496,18	67,75
496,382	112,81
496,584	51,37
496,787	39,08
496,989	-1,88
497,191	0,17
497,393	57,51
497,595	-1,88
497,798	49,32
498	39,08
498,202	100,52
498,404	-65,36
498,606	67,75
498,808	137,38
499,011	34,99
499,213	90,28
499,415	41,13
499,617	-48,98
499,819	-1,88
500,021	112,81
500,223	-1,88
500,425	2,22
500,627	-24,4
500,829	-5,97
501,031	-8,02
501,233	-14,17
501,435	67,75
501,637	153,77
501,839	112,81
502,041	30,89
502,243	22,7
502,445	47,27
502,647	116,9
502,848	104,62
503,05	63,66
503,252	270,5
503,454	227,5
503,656	256,17
503,858	260,26
504,059	202,92
504,261	211,11
504,463	231,59
504,665	106,67
504,867	161,96
505,068	215,21
505,27	88,23
505,472	153,77
505,673	63,66
505,875	90,28
506,077	-10,07
506,278	-114,52
506,48	24,75
506,682	22,7
506,883	-12,12
507,085	82,09
507,287	57,51
507,488	12,46
507,69	106,67
507,891	16,55
508,093	260,26
508,294	151,72
508,496	10,41
508,697	106,67
508,899	108,71
509,1	149,67
509,302	80,04
509,503	63,66
509,705	69,8
509,906	86,19
510,108	-40,79
510,309	49,32
510,51	-1,88
510,712	14,51
510,913	10,41
511,114	147,62
511,316	69,8
511,517	243,88
511,718	149,67
511,92	155,82
512,121	204,97
512,322	254,12
512,524	266,41
512,725	221,35
512,926	147,62
513,127	84,14
513,329	207,02
513,53	96,43
513,731	153,77
513,932	82,09
514,133	90,28
514,334	131,24
514,536	170,15
514,737	233,64
514,938	137,38
515,139	231,59
515,34	180,39
515,541	245,93
515,742	88,23
515,943	135,34
516,144	211,11
516,345	96,43
516,546	71,85
516,747	96,43
516,948	43,18
517,149	39,08
517,35	4,27
517,551	-28,5
517,752	49,32
517,953	118,95
518,154	71,85
518,355	96,43
518,556	90,28
518,756	112,81
518,957	114,86
519,158	147,62
519,359	186,54
519,56	153,77
519,761	215,21
519,961	219,3
520,162	313,51
520,363	108,71
520,564	159,91
520,764	293,03
520,965	149,67
521,166	233,64
521,366	161,96
521,567	256,17
521,768	161,96
521,968	108,71
522,169	147,62
522,37	92,33
522,57	104,62
522,771	106,67
522,972	-51,03
523,172	174,25
523,373	84,14
523,573	24,75
523,774	39,08
523,974	118,95
524,175	65,71
524,375	22,7
524,576	24,75
524,776	26,79
524,977	22,7
525,177	80,04
525,378	-5,97
525,578	55,47
525,778	67,75
525,979	32,94
526,179	4,27
526,38	-10,07
526,58	-32,6
526,78	-40,79
526,981	112,81
527,181	69,8
527,381	16,55
527,582	96,43
527,782	80,04
527,982	71,85
528,182	26,79
528,383	63,66
528,583	24,75
528,783	121
528,983	71,85
529,183	6,31
529,384	-38,74
529,584	151,72
529,784	245,93
529,984	141,48
530,184	100,52
530,384	71,85
530,584	6,31
530,784	118,95
530,984	39,08
531,185	88,23
531,385	213,16
531,585	141,48
531,785	106,67
531,985	30,89
532,185	100,52
532,385	102,57
532,585	227,5
532,785	303,27
532,984	331,94
533,184	409,76
533,384	442,53
533,584	391,33
533,784	653,47
533,984	622,75
534,184	506,02
534,384	579,75
534,583	665,76
534,783	542,88
534,983	563,36
535,183	434,34
535,383	321,7
535,582	397,48
535,782	243,88
535,982	303,27
536,182	147,62
536,381	153,77
536,581	-30,55
536,781	123,05
536,98	145,58
537,18	88,23
537,38	69,8
537,579	123,05
537,779	34,99
537,979	90,28
538,178	73,9
538,378	116,9
538,577	55,47
538,777	18,6
538,976	104,62
539,176	161,96
539,376	137,38
539,575	170,15
539,774	362,66
539,974	393,38
540,173	563,36
540,373	587,94
540,572	567,46
540,772	581,79
540,971	489,64
541,171	522,4
541,37	336,04
541,569	342,18
541,769	207,02
541,968	164,01
542,167	90,28
542,367	104,62
542,566	-18,26
542,765	-1,88
542,965	39,08
543,164	100,52
543,363	51,37
543,562	2,22
543,761	47,27
543,961	55,47
544,16	6,31
544,359	121
544,558	63,66
544,757	-67,41
544,957	75,95
545,156	139,43
545,355	57,51
545,554	133,29
545,753	-14,17
545,952	53,42
546,151	39,08
546,35	114,86
546,549	28,84
546,748	28,84
546,947	18,6
547,146	-51,03
547,345	47,27
547,544	-63,32
547,743	-42,84
547,942	14,51
548,141	-1,88
548,34	82,09
548,539	16,55
548,738	6,31
548,937	69,8
549,135	65,71
549,334	32,94
549,533	22,7
549,732	0,17
549,931	71,85
550,13	63,66
550,328	26,79
550,527	-46,93
550,726	51,37
550,925	-10,07
551,123	63,66
551,322	6,31
551,521	55,47
551,72	22,7
551,918	80,04
552,117	55,47
552,315	-12,12
552,514	-42,84
552,713	-8,02
552,911	-38,74
553,11	-89,94
553,309	22,7
553,507	88,23
553,706	59,56
553,904	39,08
554,103	55,47
554,301	51,37
554,5	47,27
554,698	6,31
554,897	75,95
555,095	47,27
555,294	-32,6
555,492	59,56
555,69	139,43
555,889	20,65
556,087	188,58
556,286	170,15
556,484	71,85
556,682	116,9
556,881	47,27
557,079	92,33
557,277	161,96
557,476	80,04
557,674	84,14
557,872	121
558,07	67,75
558,269	30,89
558,467	55,47
558,665	71,85
558,863	41,13
559,062	67,75
559,26	47,27
559,458	-65,36
559,656	28,84
559,854	0,17
560,052	39,08
560,25	22,7
560,449	219,3
560,647	55,47
560,845	-42,84
561,043	116,9
561,241	139,43
561,439	98,47
561,637	14,51
561,835	-65,36
562,033	88,23
562,231	-16,21
562,429	57,51
562,627	98,47
562,825	6,31
563,023	80,04
563,221	-42,84
563,418	51,37
563,616	88,23
563,814	209,06
564,012	45,23
564,21	39,08
564,408	100,52
564,605	47,27
564,803	14,51
565,001	358,57
565,199	47,27
565,397	186,54
565,594	213,16
565,792	262,31
565,99	149,67
566,188	180,39
566,385	235,69
566,583	161,96
566,781	284,84
566,978	172,2
567,176	250,02
567,373	145,58
567,571	82,09
567,769	67,75
567,966	6,31
568,164	114,86
568,361	96,43
568,559	77,99
568,756	114,86
568,954	129,19
569,151	202,92
569,349	153,77
569,546	166,06
569,744	121
569,941	121
570,139	94,38
570,336	65,71
570,534	186,54
570,731	-22,36
570,928	59,56
571,126	252,07
571,323	77,99
571,52	47,27
571,718	88,23
571,915	137,38
572,112	71,85
572,31	82,09
572,507	151,72
572,704	80,04
572,901	88,23
573,099	16,55
573,296	262,31
573,493	16,55
573,69	39,08
573,887	157,86
574,085	219,3
574,282	149,67
574,479	196,78
574,676	235,69
574,873	245,93
575,07	313,51
575,267	297,13
575,464	467,11
575,661	499,88
575,858	491,68
576,055	657,57
576,252	768,16
576,449	776,35
576,646	899,23
576,843	1022,11
577,04	993,44
577,237	975
577,434	899,23
577,631	741,54
577,828	678,05
578,025	452,77
578,222	358,57
578,419	362,66
578,615	227,5
578,812	147,62
579,009	129,19
579,206	63,66
579,403	153,77
579,599	153,77
579,796	80,04
579,993	254,12
580,19	182,44
580,386	252,07
580,583	282,79
580,78	200,87
580,976	309,41
581,173	374,95
581,37	399,52
581,566	420
581,763	469,16
581,96	575,65
582,156	600,23
582,353	731,3
582,549	735,39
582,746	606,37
582,942	563,36
583,139	669,86
583,335	612,51
583,532	964,76
583,728	1603,73
583,925	2914,43
584,121	4292,71
584,318	6391,88
584,514	8611,88
584,711	11722,74
584,907	15267,78
585,103	19748,73
585,3	23254,86
585,496	26402,58
585,693	29306,6
585,889	29304,56
586,085	28196,6
586,281	25706,27
586,478	22312,79
586,674	19394,43
586,87	16703,4
587,067	13899,73
587,263	11204,61
587,459	8501,29
587,655	6391,88
587,851	5478,49
588,048	5292,12
588,244	5187,68
588,44	5742,68
588,636	5916,75
588,832	5777,49
589,028	5630,04
589,224	5011,55
589,42	4313,19
589,617	3831,92
589,813	3496,05
590,009	2924,67
590,205	2324,62
590,401	1998,99
590,597	1437,84
590,793	1243,29
590,989	1132,7
591,185	927,9
591,38	862,37
591,576	686,24
591,772	710,82
591,968	620,71
592,164	661,66
592,36	620,71
592,556	432,29
592,752	506,02
592,948	671,9
593,143	956,57
593,339	1448,08
593,535	2064,52
593,731	2818,18
593,926	3856,5
594,122	4999,26
594,318	6101,07
594,514	7360,57
594,709	8765,48
594,905	9234,46
595,101	9871,38
595,296	9021,47
595,492	8462,38
595,688	7432,25
595,883	6309,96
596,079	5904,46
596,275	4980,83
596,47	4108,4
596,666	3127,42
596,861	2609,28
597,057	2324,62
597,252	2240,65
597,448	2291,85
597,643	2494,6
597,839	2680,96
598,034	2572,42
598,23	2685,06
598,425	2556,04
598,621	2392,2
598,816	1906,83
599,011	1738,9
599,207	1579,15
599,402	1423,51
599,597	1181,85
599,793	901,28
599,988	596,13
600,183	483,49
600,379	401,57
600,574	350,37
600,769	307,37
600,965	254,12
601,16	147,62
601,355	137,38
601,55	325,8
601,745	379,04
601,941	620,71
602,136	800,93
602,331	981,15
602,526	1263,77
602,721	1515,67
602,916	1906,83
603,111	2191,5
603,307	2455,69
603,502	2713,73
603,697	2668,67
603,892	2545,8
604,087	2283,66
604,282	2128,01
604,477	1751,18
604,672	1398,93
604,867	1378,45
605,062	999,58
605,257	782,49
605,452	579,75
605,646	456,87
605,841	522,4
606,036	757,92
606,231	1206,42
606,426	1581,2
606,621	2369,67
606,816	3473,53
607,01	4380,78
607,205	5544,02
607,4	6355,02
607,595	7807,03
607,79	8542,25
607,984	9207,84
608,179	9324,57
608,374	9627,67
608,569	9422,87
608,763	9072,67
608,958	9574,42
609,153	10463,24
609,347	11094,02
609,542	11735,03
609,736	12689,39
609,931	12826,6
610,126	13107,17
610,32	13019,11
610,515	12320,75
610,709	11417,6
610,904	9949,2
611,098	8382,51
611,293	6971,46
611,487	5875,79
611,682	4716,64
611,876	3356,79
612,071	2287,75
612,265	1538,2
612,46	1177,75
612,654	1251,48
612,848	1742,99
613,043	2472,07
613,237	3866,74
613,432	5093,47
613,626	7002,18
613,82	9390,11
614,014	11900,92
614,209	14673,87
614,403	16822,19
614,597	19511,17
614,792	20555,63
614,986	20969,32
615,18	20301,68
615,374	18841,48
615,568	16605,1
615,763	15466,43
615,957	14120,92
616,151	12769,26
616,345	11706,36
616,539	10520,59
616,733	9115,68
616,927	7686,2
617,121	6953,02
617,316	6260,81
617,51	5316,7
617,704	4528,23
617,898	4118,64
618,092	3446,9
618,286	2861,18
618,48	2361,48
618,674	1988,75
618,868	1245,34
619,061	850,08
619,255	825,5
619,449	587,94
619,643	448,68
619,837	546,98
620,031	463,01
620,225	530,59
620,419	608,42
620,612	852,13
620,806	1128,6
621	1624,21
621,194	2064,52
621,388	2515,08
621,581	3119,23
621,775	3532,92
621,969	3922,03
622,162	4135,02
622,356	4388,97
622,55	4139,12
622,743	3967,09
622,937	3446,9
623,131	3096,7
623,324	2570,37
623,518	2293,9
623,712	1824,91
623,905	1458,32
624,099	1050,78
624,292	776,35
624,486	450,72
624,679	387,24
624,873	358,57
625,066	546,98
625,26	833,69
625,453	1202,33
625,647	1771,66
625,84	2652,29
626,034	3727,47
626,227	4659,3
626,42	5896,27
626,614	7182,4
626,807	8353,84
627	9117,73
627,194	9154,59
627,387	9381,92
627,58	8837,16
627,774	7981,1
627,967	7176,25
628,16	6240,33
628,353	5505,11
628,547	4741,22
628,74	3754,1
628,933	2832,51
629,126	2168,97
629,319	1718,42
629,513	1669,27
629,706	1810,58
629,899	2209,93
630,092	2553,99
630,285	3176,57
630,478	3573,88
630,671	4155,5
630,864	4702,31
631,057	4749,41
631,25	4577,38
631,443	4515,94
631,636	4024,43
631,829	3850,35
632,022	4053,1
632,215	4241,51
632,408	4839,52
632,601	5668,95
632,794	6658,12
632,987	8181,81
633,18	9773,08
633,373	11337,73
633,566	12802,02
633,758	13834,2
633,951	15062,98
634,144	14845,9
634,337	14202,83
634,53	13119,46
634,722	11517,95
634,915	9562,14
635,108	8972,32
635,301	7583,8
635,493	6332,49
635,686	4827,23
635,879	3180,67
636,071	2046,09
636,264	1464,47
636,457	1063,07
636,649	792,73
636,842	1024,16
637,034	1534,1
637,227	2203,79
637,42	3291,26
637,612	4266,09
637,805	5840,98
637,997	7499,83
638,19	8845,35
638,382	10508,3
638,575	12134,39
638,767	14612,43
638,96	17020,84
639,152	19888
639,344	22818,64
639,537	26808,08
639,729	31383,24
639,922	36925,05
640,114	42741,28
640,306	47220,19
640,499	50929,06
640,691	51916,18
640,883	52153,74
641,075	50124,21
641,268	45594,1
641,46	39564,88
641,652	34498,2
641,844	29695,72
642,037	26359,58
642,229	21688,16
642,421	17461,15
642,613	12079,09
642,805	7555,13
642,998	4814,95
643,19	3139,71
643,382	2115,72
643,574	1353,88
643,766	858,27
643,958	825,5
644,15	714,91
644,342	577,7
644,534	546,98
644,726	440,48
644,918	383,14
645,11	174,25
645,302	336,04
645,494	278,69
645,686	202,92
645,878	211,11
646,07	235,69
646,262	213,16
646,453	202,92
646,645	270,5
646,837	176,3
647,029	254,12
647,221	153,77
647,413	180,39
647,604	121
647,796	211,11
647,988	149,67
648,18	137,38
648,371	194,73
648,563	166,06
648,755	209,06
648,947	231,59
649,138	604,32
649,33	1390,74
649,521	2607,23
649,713	3932,27
649,905	5451,86
650,096	7825,46
650,288	9928,72
650,479	12265,46
650,671	14747,59
650,863	16695,21
651,054	17717,15
651,246	18483,09
651,437	18198,42
651,629	17086,37
651,82	15708,09
652,011	13940,69
652,203	12330,99
652,394	11474,94
652,586	10514,44
652,777	9414,68
652,968	8101,94
653,16	6879,3
653,351	6131,79
653,542	5806,16
653,734	5425,24
653,925	5060,7
654,116	4847,71
654,308	4339,82
654,499	3803,25
654,69	3401,85
654,881	2951,29
655,073	2535,56
655,264	2279,56
655,455	1786
655,646	1310,87
655,837	1161,37
656,028	661,66
656,219	391,33
656,411	409,76
656,602	243,88
656,793	155,82
656,984	280,74
657,175	172,2
657,366	155,82
657,557	209,06
657,748	147,62
657,939	125,1
658,13	186,54
658,321	264,36
658,512	440,48
658,703	958,62
658,894	1286,3
659,084	1851,53
659,275	2470,02
659,466	3233,91
659,657	4104,3
659,848	4913,25
660,039	5531,73
660,23	6058,06
660,42	6367,31
660,611	6260,81
660,802	6123,6
660,993	5568,6
661,183	4954,21
661,374	4364,39
661,565	3893,36
661,755	3424,37
661,946	2891,9
662,137	2302,09
662,327	1646,74
662,518	1083,55
662,709	768,16
662,899	450,72
663,09	295,08
663,28	194,73
663,471	262,31
663,662	262,31
663,852	217,26
664,043	137,38
664,233	98,47
664,424	114,86
664,614	114,86
664,804	88,23
664,995	196,78
665,185	245,93
665,376	80,04
665,566	198,82
665,756	55,47
665,947	102,57
666,137	157,86
666,328	563,36
666,518	936,09
666,708	1595,54
666,898	2353,29
667,089	3467,38
667,279	4618,34
667,469	6289,48
667,659	7436,35
667,85	8947,75
668,04	10174,48
668,23	10911,75
668,42	11284,48
668,61	11026,43
668,8	10373,13
668,991	9424,92
669,181	8323,12
669,371	7362,62
669,561	6438,98
669,751	5750,87
669,941	4925,54
670,131	3858,54
670,321	3121,28
670,511	2584,71
670,701	2343,05
670,891	2455,69
671,081	2803,84
671,271	3688,56
671,461	4171,88
671,651	5316,7
671,841	5926,99
672,03	6486,09
672,22	6697,03
672,41	6733,89
672,6	6389,83
672,79	5900,37
672,98	5249,11
673,169	4538,47
673,359	4169,84
673,549	3631,22
673,739	3229,82
673,928	2541,7
674,118	1892,49
674,308	1497,24
674,497	1034,39
674,687	630,95
674,877	360,61
675,066	290,98
675,256	180,39
675,446	190,63
675,635	90,28
675,825	129,19
676,014	157,86
676,204	84,14
676,393	114,86
676,583	104,62
676,772	145,58
676,962	65,71
677,151	80,04
677,341	-8,02
677,53	47,27
677,72	39,08
677,909	82,09
678,099	63,66
678,288	-26,45
678,477	57,51
678,667	57,51
678,856	94,38
679,045	129,19
679,235	-5,97
679,424	71,85
679,613	100,52
679,802	75,95
679,992	14,51
680,181	39,08
680,37	2,22
680,559	30,89
680,748	153,77
680,938	75,95
681,127	30,89
681,316	100,52
681,505	71,85
681,694	32,94
681,883	90,28
682,072	24,75
682,261	30,89
682,45	10,41
682,639	-14,17
682,828	63,66
683,017	157,86
683,206	32,94
683,395	-30,55
683,584	77,99
683,773	155,82
683,962	-26,45
684,151	-3,93
684,34	32,94
684,529	32,94
684,718	92,33
684,907	30,89
685,095	88,23
685,284	90,28
685,473	24,75
685,662	-5,97
685,851	223,4
686,039	80,04
686,228	22,7
686,417	24,75
686,606	164,01
686,794	-24,4
686,983	43,18
687,172	14,51
687,36	55,47
687,549	-26,45
687,738	41,13
687,926	37,03
688,115	90,28
688,303	34,99
688,492	114,86
688,68	41,13
688,869	41,13
689,057	2,22
689,246	39,08
689,434	88,23
689,623	57,51
689,811	82,09
690	34,99
690,188	22,7
690,377	96,43
690,565	145,58
690,753	86,19
690,942	82,09
691,13	121
691,318	221,35
691,507	231,59
691,695	876,7
691,883	1474,71
692,072	2183,31
692,26	3342,46
692,448	4407,4
692,636	5658,71
692,824	6756,42
693,013	7886,9
693,201	8773,67
693,389	9181,21
693,577	9203,74
693,765	9345,05
693,953	8724,52
694,141	7923,76
694,329	6991,94
694,518	5892,18
694,706	5453,91
694,894	4835,42
695,082	4069,48
695,27	3504,25
695,458	2779,26
695,646	1947,79
695,834	1269,91
696,022	891,04
696,209	563,36
696,397	432,29
696,585	213,16
696,773	178,34
696,961	98,47
697,149	96,43
697,337	153,77
697,525	131,24
697,712	71,85
697,9	141,48
698,088	92,33
698,276	92,33
698,463	145,58
698,651	129,19
698,839	-1,88
699,027	96,43
699,214	118,95
699,402	55,47
699,59	-55,12
699,777	-1,88
699,965	98,47
700,152	0,17
700,34	73,9
700,528	43,18
700,715	22,7
700,903	73,9
701,09	204,97
701,278	104,62
701,465	213,16
701,653	237,74
701,84	655,52
702,028	1497,24
702,215	2351,24
702,402	3467,38
702,59	4956,26
702,777	6326,35
702,965	8044,59
703,152	9555,99
703,339	10756,1
703,527	11853,81
703,714	11808,76
703,901	12136,43
704,088	11798,52
704,276	10942,47
704,463	9871,38
704,65	8564,78
704,837	7669,81
705,025	6832,19
705,212	6103,12
705,399	5294,17
705,586	4606,05
705,773	3686,51
705,96	2812,03
706,147	1915,02
706,335	1390,74
706,522	950,43
706,709	686,24
706,896	532,64
707,083	417,96
707,27	366,76
707,457	395,43
707,644	196,78
707,831	164,01
708,018	114,86
708,205	129,19
708,392	219,3
708,578	127,14
708,765	30,89
708,952	51,37
709,139	55,47
709,326	22,7
709,513	57,51
709,7	88,23
709,886	96,43
710,073	108,71
710,26	121
710,447	43,18
710,633	57,51
710,82	80,04
711,007	43,18
711,193	47,27
711,38	71,85
711,567	84,14
711,753	63,66
711,94	69,8
712,127	96,43
712,313	135,34
712,5	47,27
712,686	104,62
712,873	8,36
713,059	2,22
713,246	92,33
713,432	59,56
713,619	-75,6
713,805	0,17
713,992	94,38
714,178	-28,5
714,365	92,33
714,551	157,86
714,737	43,18
714,924	-42,84
715,11	49,32
715,297	26,79
715,483	43,18
715,669	-3,93
715,855	14,51
716,042	53,42
716,228	207,02
716,414	368,81
716,6	497,83
716,787	762,02
716,973	1054,87
717,159	1321,11
717,345	1501,33
717,531	1638,55
717,718	1829,01
717,904	1841,29
718,09	1853,58
718,276	1906,83
718,462	1740,94
718,648	1364,12
718,834	1351,83
719,02	1253,53
719,206	1167,51
719,392	956,57
719,578	841,89
719,764	721,06
719,95	624,8
720,136	583,84
720,322	284,84
720,508	260,26
720,694	139,43
720,879	57,51
721,065	139,43
721,251	30,89
721,437	10,41
721,623	127,14
721,809	104,62
721,994	22,7
722,18	75,95
722,366	24,75
722,552	22,7
722,737	55,47
722,923	180,39
723,109	196,78
723,294	364,71
723,48	825,5
723,666	1382,55
723,851	1890,45
724,037	2492,55
724,222	3178,62
724,408	3932,27
724,593	4397,16
724,779	4913,25
724,965	4989,02
725,15	5079,13
725,336	4880,48
725,521	4773,99
725,706	4114,54
725,892	3549,3
726,077	3170,43
726,263	2988,16
726,448	2668,67
726,634	2304,14
726,819	1982,6
727,004	1835,15
727,19	1376,41
727,375	1130,65
727,56	647,33
727,745	401,57
727,931	379,04
728,116	71,85
728,301	180,39
728,486	161,96
728,672	75,95
728,857	161,96
729,042	71,85
729,227	-10,07
729,412	57,51
729,597	26,79
729,783	6,31
729,968	2,22
730,153	26,79
730,338	30,89
730,523	-14,17
730,708	22,7
730,893	24,75
731,078	2,22
731,263	24,75
731,448	-10,07
731,633	32,94
731,818	6,31
732,003	2,22
732,187	-67,41
732,372	0,17
732,557	112,81
732,742	6,31
732,927	-48,98
733,112	30,89
733,297	39,08
733,481	-26,45
733,666	96,43
733,851	-24,4
734,036	22,7
734,22	-100,18
734,405	96,43
734,59	-22,36
734,774	34,99
734,959	37,03
735,144	47,27
735,328	39,08
735,513	-51,03
735,698	65,71
735,882	125,1
736,067	137,38
736,251	67,75
736,436	-40,79
736,62	30,89
736,805	-79,7
736,989	98,47
737,174	-16,21
737,358	-42,84
737,543	8,36
737,727	84,14
737,911	80,04
738,096	71,85
738,28	71,85
738,465	12,46
738,649	67,75
738,833	-8,02
739,018	16,55
739,202	6,31
739,386	-12,12
739,57	10,41
739,755	28,84
739,939	114,86
740,123	-32,6
740,307	63,66
740,491	63,66
740,676	-67,41
740,86	90,28
741,044	98,47
741,228	30,89
741,412	-102,23
741,596	-30,55
741,78	-1,88
741,964	34,99
742,148	39,08
742,332	-1,88
742,516	30,89
742,7	239,78
742,884	227,5
743,068	387,24
743,252	456,87
743,436	663,71
743,62	686,24
743,804	1173,66
743,988	1124,51
744,172	1185,94
744,356	1239,19
744,539	1224,86
744,723	1104,03
744,907	999,58
745,091	1011,87
745,275	837,79
745,458	751,78
745,642	592,03
745,826	606,37
746,009	559,27
746,193	475,3
746,377	415,91
746,56	448,68
746,744	354,47
746,928	288,93
747,111	188,58
747,295	153,77
747,478	194,73
747,662	166,06
747,846	108,71
748,029	229,54
748,213	229,54
748,396	243,88
748,58	358,57
748,763	319,65
748,946	368,81
749,13	450,72
749,313	444,58
749,497	546,98
749,68	508,07
749,863	434,34
750,047	293,03
750,23	329,89
750,413	321,7
750,597	272,55
750,78	145,58
750,963	344,23
751,146	131,24
751,33	186,54
751,513	155,82
751,696	73,9
751,879	116,9
752,062	-32,6
752,246	92,33
752,429	116,9
752,612	28,84
752,795	82,09
752,978	121
753,161	178,34
753,344	245,93
753,527	342,18
753,71	383,14
753,893	399,52
754,076	434,34
754,259	555,17
754,442	473,25
754,625	366,76
754,808	467,11
754,991	446,63
755,174	342,18
755,357	379,04
755,539	252,07
755,722	327,85
755,905	270,5
756,088	129,19
756,271	145,58
756,453	186,54
756,636	106,67
756,819	170,15
757,002	39,08
757,184	284,84
757,367	172,2
757,55	71,85
757,732	65,71
757,915	-18,26
758,098	8,36
758,28	100,52
758,463	14,51
758,645	121
758,828	24,75
759,011	55,47
759,193	8,36
759,376	71,85
759,558	18,6
759,741	8,36
759,923	-36,69
760,105	22,7
760,288	22,7
760,47	-100,18
760,653	75,95
760,835	-16,21
761,017	-34,64
761,2	-14,17
761,382	141,48
761,564	-46,93
761,747	112,81
761,929	-22,36
762,111	-48,98
762,294	41,13
762,476	170,15
762,658	6,31
762,84	170,15
763,022	-26,45
763,205	100,52
763,387	55,47
763,569	104,62
763,751	-114,52
763,933	-20,31
764,115	16,55
764,297	8,36
764,479	153,77
764,661	63,66
764,843	59,56
765,025	51,37
765,207	6,31
765,389	45,23
765,571	-87,89
765,753	129,19
765,935	39,08
766,117	39,08
766,299	139,43
766,481	98,47
766,663	-22,36
766,845	-51,03
767,026	26,79
767,208	100,52
767,39	-73,56
767,572	-65,36
767,753	80,04
767,935	-85,84
768,117	16,55
768,299	41,13
768,48	10,41
768,662	73,9
768,844	26,79
769,025	71,85
769,207	45,23
769,389	-1,88
769,57	16,55
769,752	24,75
769,933	-26,45
770,115	16,55
770,296	8,36
770,478	73,9
770,659	-91,99
770,841	161,96
771,022	51,37
771,204	131,24
771,385	63,66
771,567	41,13
771,748	166,06
771,929	8,36
772,111	-10,07
772,292	59,56
772,473	6,31
772,655	75,95
772,836	-34,64
773,017	121
773,199	30,89
773,38	96,43
773,561	-1,88
773,742	-24,4
773,923	-16,21
774,105	108,71
774,286	73,9
774,467	-34,64
774,648	-8,02
774,829	92,33
775,01	-75,6
775,191	2,22
775,372	-26,45
775,553	10,41
775,734	-10,07
775,915	-34,64
776,096	-5,97
776,277	16,55
776,458	8,36
776,639	-5,97
776,82	39,08
777,001	-34,64
777,182	6,31
777,363	-67,41
777,544	-18,26
777,725	55,47
777,906	71,85
778,086	22,7
778,267	92,33
778,448	6,31
778,629	-1,88
778,809	8,36
778,99	41,13
779,171	20,65
779,352	14,51
779,532	-34,64
779,713	-130,9
779,894	-24,4
780,074	102,57
780,255	39,08
780,435	63,66
780,616	-30,55
780,797	55,47
780,977	-51,03
781,158	-46,93
781,338	-30,55
781,519	-5,97
781,699	235,69
781,88	47,27
782,06	6,31
782,241	16,55
782,421	-30,55
782,601	30,89
782,782	92,33
782,962	57,51
783,142	-79,7
783,323	34,99
783,503	57,51
783,683	55,47
783,864	30,89
784,044	55,47
784,224	55,47
784,404	8,36
784,585	41,13
784,765	14,51
784,945	82,09
785,125	-16,21
785,305	86,19
785,485	153,77
785,666	30,89
785,846	-5,97
786,026	-5,97
786,206	-91,99
786,386	-26,45
786,566	-22,36
786,746	-26,45
786,926	39,08
787,106	22,7
787,286	18,6
787,466	39,08
787,646	-32,6
787,826	6,31
788,006	108,71
788,185	59,56
788,365	-24,4
788,545	49,32
788,725	-57,17
788,905	32,94
789,085	-1,88
789,264	22,7
789,444	-51,03
789,624	63,66
789,804	47,27
789,983	45,23
790,163	-14,17
790,343	-24,4
790,522	-14,17
790,702	26,79
790,882	-1,88
791,061	96,43
791,241	10,41
791,42	84,14
791,6	98,47
791,78	41,13
791,959	-30,55
792,139	-18,26
792,318	0,17
792,498	45,23
792,677	22,7
792,856	41,13
793,036	-16,21
793,215	-32,6
793,395	90,28
793,574	28,84
793,753	22,7
793,933	71,85
794,112	131,24
794,291	32,94
794,471	168,1
794,65	57,51
794,829	43,18
795,008	112,81
795,188	114,86
795,367	153,77
795,546	14,51
795,725	71,85
795,904	22,7
796,084	-40,79
796,263	41,13
796,442	88,23
796,621	-14,17
796,8	131,24
796,979	71,85
797,158	-18,26
797,337	-32,6
797,516	71,85
797,695	131,24
797,874	118,95
798,053	26,79
798,232	32,94
798,411	-38,74
798,59	39,08
798,769	71,85
798,947	43,18
799,126	-26,45
799,305	88,23
799,484	47,27
799,663	6,31
799,842	24,75
800,02	43,18
800,199	-24,4
800,378	24,75
800,557	8,36
800,735	-38,74
800,914	8,36
801,093	73,9
801,271	24,75
801,45	-14,17
801,628	65,71
801,807	65,71
801,986	55,47
802,164	75,95
802,343	22,7
802,521	-42,84
802,7	26,79
802,878	96,43
803,057	55,47
803,235	34,99
803,414	133,29
803,592	100,52
803,771	51,37
803,949	37,03
804,127	-10,07
804,306	96,43
804,484	16,55
804,662	77,99
804,841	-112,47
805,019	16,55
805,197	73,9
805,375	108,71
805,554	-24,4
805,732	-67,41
805,91	34,99
806,088	-59,22
806,266	-32,6
806,445	-32,6
806,623	-16,21
806,801	75,95
806,979	71,85
807,157	43,18
807,335	-59,22
807,513	30,89
807,691	88,23
807,869	-48,98
808,047	39,08
808,225	-42,84
808,403	57,51
808,581	75,95
808,759	131,24
808,937	82,09
809,115	129,19
809,293	88,23
809,471	75,95
809,649	71,85
809,826	92,33
810,004	16,55
810,182	-32,6
810,36	-16,21
810,538	145,58
810,715	16,55
810,893	-42,84
811,071	63,66
811,248	96,43
811,426	-8,02
811,604	55,47
811,781	39,08
811,959	32,94
812,137	0,17
812,314	-59,22
812,492	-1,88
812,669	98,47
812,847	71,85
813,024	32,94
813,202	164,01
813,379	80,04
813,557	147,62
813,734	143,53
813,912	137,38
814,089	145,58
814,267	114,86
814,444	112,81
814,621	65,71
814,799	32,94
814,976	82,09
815,153	123,05
815,331	41,13
815,508	125,1
815,685	41,13
815,862	80,04
816,04	-48,98
816,217	102,57
816,394	18,6
816,571	102,57
816,748	129,19
816,926	182,44
817,103	284,84
817,28	32,94
817,457	34,99
817,634	137,38
817,811	47,27
817,988	-48,98
818,165	14,51
818,342	63,66
818,519	63,66
818,696	-5,97
818,873	6,31
819,05	57,51
819,227	-22,36
819,404	-40,79
819,581	39,08
819,758	12,46
819,934	-30,55
820,111	-18,26
820,288	55,47
820,465	106,67
820,642	-42,84
820,818	114,86
820,995	57,51
821,172	-34,64
821,349	20,65
821,525	90,28
821,702	47,27
821,879	-3,93
822,055	14,51
822,232	18,6
822,409	-83,8
822,585	24,75
822,762	121
822,938	4,27
823,115	-10,07
823,291	121
823,468	153,77
823,644	55,47
823,821	90,28
823,997	-55,12
824,174	-32,6
824,35	14,51
824,527	90,28
824,703	63,66
824,879	4,27
825,056	61,61
825,232	112,81
825,408	-14,17
825,585	137,38
825,761	63,66
825,937	14,51
826,113	49,32
826,29	116,9
826,466	14,51
826,642	327,85
826,818	0,17
826,994	88,23
827,17	22,7
827,347	-67,41
827,523	-8,02
827,699	135,34
827,875	32,94
828,051	-24,4
828,227	84,14
828,403	96,43
828,579	41,13
828,755	57,51
828,931	-12,12
829,107	84,14
829,283	166,06
829,459	14,51
829,635	123,05
829,811	229,54
829,986	69,8
830,162	106,67
830,338	186,54
830,514	6,31
830,69	90,28
830,865	98,47
831,041	71,85
831,217	6,31
831,393	55,47
831,568	104,62
831,744	157,86
831,92	88,23
832,095	55,47
832,271	-59,22
832,447	104,62
832,622	116,9
832,798	18,6
832,973	39,08
833,149	65,71
833,325	18,6
833,5	88,23
833,676	69,8
833,851	-40,79
834,027	14,51
834,202	71,85
834,377	108,71
834,553	6,31
834,728	116,9
834,904	49,32
835,079	-8,02
835,254	28,84
835,43	-34,64
835,605	-42,84
835,78	16,55
835,955	-14,17
836,131	-34,64
836,306	-38,74
836,481	-18,26
836,656	129,19
836,832	204,97
837,007	186,54
837,182	204,97
837,357	297,13
837,532	366,76
837,707	323,75
837,882	450,72
838,057	458,92
838,232	422,05
838,407	293,03
838,582	219,3
838,757	301,22
838,932	358,57
839,107	258,21
839,282	196,78
839,457	200,87
839,632	235,69
839,807	221,35
839,982	280,74
840,157	213,16
840,332	213,16
840,506	174,25
840,681	129,19
840,856	223,4
841,031	65,71
841,205	164,01
841,38	186,54
841,555	245,93
841,73	170,15
841,904	65,71
842,079	123,05
842,254	71,85
842,428	100,52
842,603	39,08
842,777	-14,17
842,952	90,28
843,126	16,55
843,301	63,66
843,476	49,32
843,65	47,27
843,825	131,24
843,999	127,14
844,173	-14,17
844,348	-59,22
844,522	86,19
844,697	-8,02
844,871	8,36
845,045	131,24
845,22	67,75
845,394	155,82
845,568	2,22
845,743	129,19
845,917	-30,55
846,091	18,6
846,265	73,9
846,44	153,77
846,614	14,51
846,788	22,7
846,962	18,6
847,136	55,47
847,31	55,47
847,485	153,77
847,659	-75,6
847,833	55,47
848,007	39,08
848,181	106,67
848,355	-12,12
848,529	80,04
848,703	159,91
848,877	75,95
849,051	190,63
849,225	149,67
849,399	170,15
849,573	190,63
849,746	94,38
849,92	180,39
850,094	207,02
850,268	121
850,442	174,25
850,616	80,04
850,789	114,86
850,963	96,43
851,137	39,08
851,311	268,45
851,484	186,54
851,658	88,23
851,832	16,55
852,005	106,67
852,179	92,33
852,352	86,19
852,526	-8,02
852,7	94,38
852,873	22,7
853,047	121
853,22	30,89
853,394	73,9
853,567	96,43
853,741	24,75
853,914	73,9
854,088	80,04
854,261	6,31
854,434	8,36
854,608	6,31
854,781	-18,26
854,955	-8,02
855,128	80,04
855,301	-30,55
855,475	-1,88
855,648	-10,07
855,821	84,14
855,994	80,04
856,168	0,17
856,341	65,71
856,514	-34,64
856,687	41,13
856,86	98,47
857,033	51,37
857,207	53,42
857,38	-67,41
857,553	127,14
857,726	57,51
857,899	96,43
858,072	-30,55
858,245	-69,46
858,418	73,9
858,591	63,66
858,764	55,47
858,937	125,1
859,11	82,09
859,283	100,52
859,455	125,1
859,628	18,6
859,801	98,47
859,974	202,92
860,147	-18,26
860,32	96,43
860,492	96,43
860,665	-20,31
860,838	71,85
861,011	131,24
861,183	223,4
861,356	123,05
861,529	51,37
861,701	71,85
861,874	55,47
862,047	112,81
862,219	-8,02
862,392	145,58
862,564	63,66
862,737	63,66
862,909	204,97
863,082	-8,02
863,254	153,77
863,427	90,28
863,599	161,96
863,772	82,09
863,944	174,25
864,117	147,62
864,289	157,86
864,461	80,04
864,634	55,47
864,806	73,9
864,978	127,14
865,151	174,25
865,323	186,54
865,495	325,8
865,667	176,3
865,84	235,69
866,012	149,67
866,184	221,35
866,356	22,7
866,528	129,19
866,7	61,61
866,873	123,05
867,045	100,52
867,217	43,18
867,389	110,76
867,561	178,34
867,733	141,48
867,905	77,99
868,077	116,9
868,249	155,82
868,421	88,23
868,593	98,47
868,765	235,69
868,936	112,81
869,108	149,67
869,28	161,96
869,452	108,71
869,624	-16,21
869,796	65,71
869,968	90,28
870,139	71,85
870,311	47,27
870,483	186,54
870,654	-71,51
870,826	92,33
870,998	55,47
871,17	39,08
871,341	-51,03
871,513	149,67
871,684	28,84
871,856	34,99
872,028	32,94
872,199	0,17
872,371	-20,31
872,542	57,51
872,714	43,18
872,885	92,33
873,057	18,6
873,228	30,89
873,4	63,66
873,571	104,62
873,742	-10,07
873,914	65,71
874,085	6,31
874,256	47,27
874,428	-83,8
874,599	-42,84
874,77	125,1
874,942	14,51
875,113	16,55
875,284	-42,84
875,455	-38,74
875,626	-12,12
875,798	-30,55
875,969	8,36
876,14	30,89
876,311	137,38
876,482	129,19
876,653	43,18
876,824	22,7
876,995	51,37
877,166	80,04
877,337	106,67
877,508	39,08
877,679	57,51
877,85	39,08
878,021	135,34
878,192	159,91
878,363	129,19
878,534	129,19
878,705	116,9
878,876	104,62
879,047	223,4
879,217	43,18
879,388	157,86
879,559	55,47
879,73	84,14
879,9	100,52
880,071	141,48
880,242	147,62
880,413	153,77
880,583	106,67
880,754	123,05
880,924	172,2
881,095	63,66
881,266	47,27
881,436	30,89
881,607	211,11
881,777	98,47
881,948	59,56
882,118	57,51
882,289	104,62
882,459	123,05
882,63	16,55
882,8	75,95
882,971	145,58
883,141	24,75
883,311	75,95
883,482	104,62
883,652	49,32
883,822	-26,45
883,993	14,51
884,163	63,66
884,333	-34,64
884,504	82,09
884,674	104,62
884,844	47,27
885,014	-12,12
885,184	84,14
885,355	-32,6
885,525	57,51
885,695	-5,97
885,865	149,67
886,035	47,27
886,205	-26,45
886,375	104,62
886,545	26,79
886,715	8,36
886,885	98,47
887,055	-38,74
887,225	30,89
887,395	116,9
887,565	71,85
887,735	112,81
887,905	108,71
888,075	0,17
888,244	131,24
888,414	24,75
888,584	75,95
888,754	104,62
888,924	73,9
889,093	170,15
889,263	43,18
889,433	32,94
889,603	39,08
889,772	114,86
889,942	139,43
890,111	43,18
890,281	71,85
890,451	-1,88
890,62	8,36
890,79	47,27
890,959	14,51
891,129	0,17
891,298	-46,93
891,468	30,89
891,637	90,28
891,807	-5,97
891,976	73,9
892,146	-1,88
892,315	20,65
892,485	71,85
892,654	-59,22
892,823	-18,26
892,993	34,99
893,162	47,27
893,331	106,67
893,501	-75,6
893,67	59,56
893,839	-79,7
894,008	20,65
894,177	22,7
894,347	57,51
894,516	82,09
894,685	71,85
894,854	8,36
895,023	73,9
895,192	47,27
