Data from neon_USB4F104161__2__11-46-31-887.txt Node

Date: Tue Apr 14 11:46:31 EDT 2026
User: LaboPhy
Spectrometer: USB4F10416
Trigger mode: 4
Integration Time (sec): 1,000000E-1
Scans to average: 1
Electric dark correction enabled: true
Nonlinearity correction enabled: false
Boxcar width: 0
XAxis mode: Wavelengths
Number of Pixels in Spectrum: 3648
>>>>>Begin Spectral Data<<<<<
177,847	-217,94
178,066	-217,94
178,284	-217,94
178,502	-164,69
178,72	-179,03
178,939	33,96
179,157	-4,95
179,375	40,11
179,593	-15,19
179,812	-41,81
180,03	27,82
180,248	9,39
180,466	-31,57
180,685	23,72
180,903	-0,85
181,121	-105,3
181,339	64,68
181,557	-50
181,775	-66,39
181,994	33,96
182,212	-47,96
182,43	-39,76
182,648	9,39
182,866	66,73
183,084	126,12
183,302	48,3
183,52	5,29
183,739	68,78
183,957	89,26
184,175	23,72
184,393	36,01
184,611	66,73
184,829	-17,24
185,047	11,43
185,265	72,87
185,483	-9,05
185,701	68,78
185,919	-25,43
186,137	-9,05
186,355	19,63
186,573	72,87
186,791	25,77
187,009	56,49
187,227	154,79
187,445	-25,43
187,663	-7
187,881	-41,81
188,098	48,3
188,316	42,15
188,534	1,19
188,752	-33,62
188,97	-0,85
189,188	-41,81
189,406	105,64
189,624	64,68
189,841	-7
190,059	-80,72
190,277	1,19
190,495	13,48
190,713	31,91
190,931	97,45
191,148	79,02
191,366	19,63
191,584	15,53
191,802	23,72
192,019	40,11
192,237	33,96
192,455	-41,81
192,673	13,48
192,89	-66,39
193,108	-2,9
193,326	11,43
193,543	52,39
193,761	-7
193,979	36,01
194,196	-70,48
194,414	-17,24
194,632	154,79
194,849	-15,19
195,067	-119,64
195,285	83,11
195,502	-84,82
195,72	-41,81
195,937	-37,72
196,155	-15,19
196,373	-25,43
196,59	-66,39
196,808	-31,57
197,025	101,55
197,243	162,98
197,46	76,97
197,678	64,68
197,895	-9,05
198,113	-17,24
198,33	-43,86
198,548	99,5
198,765	-45,91
198,983	42,15
199,2	-45,91
199,418	81,07
199,635	-43,86
199,853	-4,95
200,07	36,01
200,288	36,01
200,505	-33,62
200,722	81,07
200,94	-9,05
201,157	-0,85
201,375	-17,24
201,592	-4,95
201,809	36,01
202,027	17,58
202,244	56,49
202,461	40,11
202,679	56,49
202,896	40,11
203,113	-33,62
203,331	-31,57
203,548	-15,19
203,765	-23,38
203,982	1,19
204,2	-58,2
204,417	-64,34
204,634	158,89
204,851	31,91
205,069	17,58
205,286	36,01
205,503	36,01
205,72	5,29
205,937	105,64
206,155	-33,62
206,372	97,45
206,589	-58,2
206,806	40,11
207,023	-17,24
207,24	-60,24
207,458	1,19
207,675	-39,76
207,892	91,31
208,109	3,24
208,326	56,49
208,543	-62,29
208,76	-21,33
208,977	3,24
209,194	66,73
209,411	-17,24
209,628	-0,85
209,845	83,11
210,062	-41,81
210,279	-64,34
210,496	-23,38
210,713	-21,33
210,93	-43,86
211,147	66,73
211,364	66,73
211,581	-0,85
211,798	105,64
212,015	-107,35
212,232	1,19
212,449	-9,05
212,666	124,07
212,883	15,53
213,1	-7
213,317	-25,43
213,533	-17,24
213,75	-37,72
213,967	52,39
214,184	-45,91
214,401	7,34
214,618	-82,77
214,835	-58,2
215,051	31,91
215,268	17,58
215,485	56,49
215,702	-37,72
215,919	-50
216,135	181,42
216,352	-52,05
216,569	-9,05
216,786	-0,85
217,002	11,43
217,219	83,11
217,436	27,82
217,652	-15,19
217,869	13,48
218,086	58,54
218,302	48,3
218,519	11,43
218,736	38,06
218,952	-58,2
219,169	83,11
219,386	9,39
219,602	3,24
219,819	-0,85
220,036	-9,05
220,252	101,55
220,469	-82,77
220,685	48,3
220,902	3,24
221,118	23,72
221,335	-29,52
221,552	-17,24
221,768	56,49
221,985	-50
222,201	-7
222,418	50,35
222,634	-13,14
222,851	-31,57
223,067	-47,96
223,284	13,48
223,5	46,25
223,716	23,72
223,933	72,87
224,149	-17,24
224,366	68,78
224,582	-7
224,799	-45,91
225,015	-56,15
225,231	1,19
225,448	-41,81
225,664	-62,29
225,88	-68,44
226,097	54,44
226,313	27,82
226,529	13,48
226,746	-9,05
226,962	23,72
227,178	40,11
227,395	-11,09
227,611	42,15
227,827	25,77
228,044	36,01
228,26	-25,43
228,476	42,15
228,692	99,5
228,909	-7
229,125	-7
229,341	-0,85
229,557	-82,77
229,773	-54,1
229,99	62,63
230,206	36,01
230,422	17,58
230,638	-27,48
230,854	-47,96
231,07	-74,58
231,286	81,07
231,503	25,77
231,719	-25,43
231,935	-9,05
232,151	-64,34
232,367	74,92
232,583	3,24
232,799	81,07
233,015	11,43
233,231	23,72
233,447	11,43
233,663	15,53
233,879	89,26
234,095	-9,05
234,311	56,49
234,527	74,92
234,743	83,11
234,959	91,31
235,175	25,77
235,391	40,11
235,607	40,11
235,823	115,88
236,039	56,49
236,255	-82,77
236,471	64,68
236,687	-35,67
236,903	56,49
237,118	89,26
237,334	-29,52
237,55	-9,05
237,766	-84,82
237,982	-21,33
238,198	113,83
238,413	7,34
238,629	87,21
238,845	-74,58
239,061	-15,19
239,277	-37,72
239,492	-127,83
239,708	-0,85
239,924	-74,58
240,14	-11,09
240,355	126,12
240,571	5,29
240,787	-50
241,003	146,6
241,218	-52,05
241,434	-45,91
241,65	109,74
241,865	-33,62
242,081	15,53
242,297	-115,54
242,512	27,82
242,728	29,87
242,944	60,59
243,159	-9,05
243,375	40,11
243,59	-68,44
243,806	19,63
244,022	-66,39
244,237	-45,91
244,453	-23,38
244,668	50,35
244,884	81,07
245,099	-50
245,315	97,45
245,53	97,45
245,746	62,63
245,961	38,06
246,177	9,39
246,392	150,7
246,608	-0,85
246,823	-15,19
247,039	-9,05
247,254	-25,43
247,47	-23,38
247,685	-62,29
247,9	-15,19
248,116	64,68
248,331	-31,57
248,547	105,64
248,762	-70,48
248,977	42,15
249,193	19,63
249,408	62,63
249,623	-9,05
249,839	23,72
250,054	-74,58
250,269	-13,14
250,485	48,3
250,7	27,82
250,915	23,72
251,13	25,77
251,346	-7
251,561	72,87
251,776	52,39
251,991	-56,15
252,207	91,31
252,422	-50
252,637	-31,57
252,852	-45,91
253,067	-13,14
253,283	-39,76
253,498	-17,24
253,713	17,58
253,928	15,53
254,143	-25,43
254,358	-2,9
254,573	-13,14
254,788	-78,68
255,004	33,96
255,219	-90,96
255,434	-41,81
255,649	-17,24
255,864	-50
256,079	-45,91
256,294	-7
256,509	1,19
256,724	44,2
256,939	1,19
257,154	-13,14
257,369	25,77
257,584	48,3
257,799	-39,76
258,014	17,58
258,229	97,45
258,444	31,91
258,659	72,87
258,874	81,07
259,089	42,15
259,304	-64,34
259,518	-43,86
259,733	19,63
259,948	-62,29
260,163	38,06
260,378	23,72
260,593	-23,38
260,808	25,77
261,022	-95,06
261,237	81,07
261,452	-9,05
261,667	7,34
261,882	89,26
262,096	17,58
262,311	76,97
262,526	-99,16
262,741	7,34
262,955	-47,96
263,17	48,3
263,385	9,39
263,6	13,48
263,814	-142,16
264,029	72,87
264,244	-15,19
264,458	50,35
264,673	-0,85
264,888	46,25
265,102	44,2
265,317	-29,52
265,532	-107,35
265,746	-23,38
265,961	58,54
266,175	-13,14
266,39	-9,05
266,605	19,63
266,819	64,68
267,034	23,72
267,248	-99,16
267,463	-23,38
267,677	-58,2
267,892	-45,91
268,106	-88,92
268,321	66,73
268,535	40,11
268,75	9,39
268,964	-13,14
269,179	93,35
269,393	-66,39
269,608	99,5
269,822	-107,35
270,036	-127,83
270,251	-13,14
270,465	-66,39
270,68	42,15
270,894	-13,14
271,108	56,49
271,323	23,72
271,537	11,43
271,752	105,64
271,966	-21,33
272,18	-25,43
272,394	25,77
272,609	-80,72
272,823	-9,05
273,037	64,68
273,252	-0,85
273,466	19,63
273,68	74,92
273,894	48,3
274,109	-31,57
274,323	-9,05
274,537	7,34
274,751	7,34
274,966	-31,57
275,18	-39,76
275,394	-4,95
275,608	-80,72
275,822	-9,05
276,036	-21,33
276,25	79,02
276,465	25,77
276,679	-4,95
276,893	-64,34
277,107	140,46
277,321	7,34
277,535	23,72
277,749	66,73
277,963	7,34
278,177	-82,77
278,391	-31,57
278,605	-17,24
278,819	-7
279,033	-107,35
279,247	33,96
279,461	50,35
279,675	-9,05
279,889	38,06
280,103	1,19
280,317	89,26
280,531	-50
280,745	31,91
280,959	-4,95
281,173	15,53
281,387	-25,43
281,601	64,68
281,815	52,39
282,029	-62,29
282,242	1,19
282,456	7,34
282,67	52,39
282,884	-27,48
283,098	-0,85
283,312	56,49
283,525	-0,85
283,739	48,3
283,953	-25,43
284,167	-0,85
284,381	11,43
284,594	58,54
284,808	-39,76
285,022	-39,76
285,235	-0,85
285,449	-64,34
285,663	46,25
285,877	-7
286,09	50,35
286,304	113,83
286,518	7,34
286,731	-109,4
286,945	13,48
287,159	-66,39
287,372	56,49
287,586	7,34
287,799	-23,38
288,013	-82,77
288,227	15,53
288,44	212,14
288,654	-15,19
288,867	-15,19
289,081	-9,05
289,294	-17,24
289,508	111,78
289,721	7,34
289,935	42,15
290,148	89,26
290,362	7,34
290,575	64,68
290,789	-21,33
291,002	9,39
291,216	48,3
291,429	-7
291,643	72,87
291,856	-33,62
292,069	25,77
292,283	-74,58
292,496	-25,43
292,71	-0,85
292,923	1,19
293,136	-39,76
293,35	-35,67
293,563	-41,81
293,776	64,68
293,99	101,55
294,203	42,15
294,416	13,48
294,63	42,15
294,843	9,39
295,056	81,07
295,269	-47,96
295,483	-64,34
295,696	19,63
295,909	-15,19
296,122	44,2
296,335	27,82
296,549	56,49
296,762	1,19
296,975	15,53
297,188	-90,96
297,401	27,82
297,615	89,26
297,828	-25,43
298,041	91,31
298,254	-109,4
298,467	9,39
298,68	-72,53
298,893	50,35
299,106	-84,82
299,319	23,72
299,532	29,87
299,745	-9,05
299,958	-41,81
300,171	-9,05
300,384	-7
300,598	-140,12
300,81	-25,43
301,023	-7
301,236	-62,29
301,449	-17,24
301,662	-21,33
301,875	-39,76
302,088	-82,77
302,301	46,25
302,514	-33,62
302,727	60,59
302,94	-74,58
303,153	-50
303,366	-9,05
303,579	-70,48
303,791	9,39
304,004	-62,29
304,217	25,77
304,43	17,58
304,643	1,19
304,855	-95,06
305,068	66,73
305,281	31,91
305,494	40,11
305,707	42,15
305,919	130,22
306,132	-0,85
306,345	-9,05
306,558	68,78
306,77	-33,62
306,983	-54,1
307,196	99,5
307,408	7,34
307,621	44,2
307,834	-23,38
308,046	50,35
308,259	-66,39
308,472	-99,16
308,684	97,45
308,897	-105,3
309,109	-76,63
309,322	-86,87
309,535	-33,62
309,747	60,59
309,96	64,68
310,172	36,01
310,385	40,11
310,597	-107,35
310,81	25,77
311,022	13,48
311,235	-88,92
311,447	-29,52
311,66	7,34
311,872	23,72
312,085	64,68
312,297	-17,24
312,51	-119,64
312,722	-4,95
312,934	3,24
313,147	-90,96
313,359	-54,1
313,572	-15,19
313,784	-0,85
313,996	25,77
314,209	56,49
314,421	-66,39
314,633	-47,96
314,846	-37,72
315,058	70,83
315,27	27,82
315,483	-66,39
315,695	-23,38
315,907	-58,2
316,119	-37,72
316,332	-64,34
316,544	44,2
316,756	-25,43
316,968	66,73
317,181	50,35
317,393	-13,14
317,605	-0,85
317,817	25,77
318,029	56,49
318,241	-45,91
318,454	56,49
318,666	-21,33
318,878	-43,86
319,09	-103,25
319,302	7,34
319,514	42,15
319,726	33,96
319,938	66,73
320,15	7,34
320,362	113,83
320,574	-50
320,786	-101,2
320,999	-25,43
321,211	42,15
321,423	-15,19
321,635	-37,72
321,847	31,91
322,058	-70,48
322,27	50,35
322,482	42,15
322,694	44,2
322,906	-19,29
323,118	33,96
323,33	31,91
323,542	-7
323,754	33,96
323,966	-97,11
324,178	93,35
324,389	15,53
324,601	97,45
324,813	-13,14
325,025	7,34
325,237	-45,91
325,449	7,34
325,66	-33,62
325,872	19,63
326,084	42,15
326,296	-23,38
326,507	-97,11
326,719	15,53
326,931	-107,35
327,143	72,87
327,354	171,18
327,566	-47,96
327,778	64,68
327,989	60,59
328,201	-9,05
328,413	-0,85
328,624	64,68
328,836	-43,86
329,048	-99,16
329,259	-43,86
329,471	52,39
329,682	25,77
329,894	-50
330,106	-84,82
330,317	9,39
330,529	-21,33
330,74	-7
330,952	52,39
331,163	9,39
331,375	76,97
331,586	-25,43
331,798	15,53
332,009	-47,96
332,221	-56,15
332,432	72,87
332,644	7,34
332,855	1,19
333,067	31,91
333,278	-78,68
333,489	42,15
333,701	-62,29
333,912	15,53
334,124	-64,34
334,335	50,35
334,546	-25,43
334,758	-21,33
334,969	187,56
335,18	97,45
335,392	17,58
335,603	138,41
335,814	134,31
336,025	-58,2
336,237	-60,24
336,448	-127,83
336,659	11,43
336,87	101,55
337,082	103,59
337,293	-31,57
337,504	15,53
337,715	44,2
337,926	1,19
338,138	5,29
338,349	-31,57
338,56	-9,05
338,771	56,49
338,982	44,2
339,193	-15,19
339,404	56,49
339,616	60,59
339,827	7,34
340,038	-78,68
340,249	-4,95
340,46	-0,85
340,671	-0,85
340,882	81,07
341,093	27,82
341,304	7,34
341,515	64,68
341,726	3,24
341,937	103,59
342,148	-25,43
342,359	-0,85
342,57	-0,85
342,781	146,6
342,992	93,35
343,203	-66,39
343,414	142,5
343,624	31,91
343,835	68,78
344,046	126,12
344,257	95,4
344,468	83,11
344,679	117,93
344,89	136,36
345,1	115,88
345,311	212,14
345,522	175,27
345,733	101,55
345,944	183,46
346,154	156,84
346,365	277,67
346,576	144,55
346,787	126,12
346,997	142,5
347,208	148,65
347,419	25,77
347,629	175,27
347,84	222,38
348,051	113,83
348,261	58,54
348,472	17,58
348,683	64,68
348,893	-25,43
349,104	76,97
349,315	19,63
349,525	7,34
349,736	11,43
349,946	7,34
350,157	193,7
350,368	130,22
350,578	31,91
350,789	171,18
350,999	93,35
351,21	169,13
351,42	113,83
351,631	148,65
351,841	228,52
352,052	335,01
352,262	345,25
352,472	232,62
352,683	277,67
352,893	275,62
353,104	107,69
353,314	124,07
353,525	466,08
353,735	33,96
353,945	56,49
354,156	-25,43
354,366	50,35
354,576	93,35
354,787	40,11
354,997	-50
355,207	-115,54
355,418	-0,85
355,628	-90,96
355,838	-33,62
356,048	23,72
356,259	56,49
356,469	-68,44
356,679	15,53
356,889	42,15
357,1	42,15
357,31	-33,62
357,52	-45,91
357,73	-33,62
357,94	40,11
358,15	44,2
358,361	17,58
358,571	56,49
358,781	79,02
358,991	-7
359,201	50,35
359,411	130,22
359,621	56,49
359,831	191,66
360,041	154,79
360,251	105,64
360,461	132,26
360,672	58,54
360,882	-9,05
361,092	-31,57
361,302	81,07
361,512	81,07
361,721	-17,24
361,931	15,53
362,141	46,25
362,351	-39,76
362,561	17,58
362,771	27,82
362,981	74,92
363,191	-39,76
363,401	89,26
363,611	31,91
363,821	-33,62
364,03	-74,58
364,24	-21,33
364,45	74,92
364,66	253,09
364,87	11,43
365,08	-7
365,289	-23,38
365,499	7,34
365,709	48,3
365,919	-7
366,128	-31,57
366,338	36,01
366,548	-107,35
366,758	-25,43
366,967	56,49
367,177	56,49
367,387	52,39
367,596	-80,72
367,806	27,82
368,016	-56,15
368,225	72,87
368,435	107,69
368,644	-11,09
368,854	-19,29
369,064	7,34
369,273	-13,14
369,483	21,67
369,692	-17,24
369,902	44,2
370,111	126,12
370,321	-13,14
370,53	-21,33
370,74	7,34
370,949	23,72
371,159	29,87
371,368	21,67
371,578	-9,05
371,787	52,39
371,997	-31,57
372,206	-0,85
372,416	9,39
372,625	-19,29
372,834	-64,34
373,044	-9,05
373,253	1,19
373,462	38,06
373,672	27,82
373,881	-21,33
374,09	-23,38
374,3	9,39
374,509	-15,19
374,718	-64,34
374,928	36,01
375,137	-41,81
375,346	40,11
375,555	66,73
375,765	-103,25
375,974	-23,38
376,183	58,54
376,392	-88,92
376,601	-15,19
376,811	-13,14
377,02	68,78
377,229	9,39
377,438	38,06
377,647	-45,91
377,856	-56,15
378,065	-54,1
378,275	-95,06
378,484	-41,81
378,693	-70,48
378,902	-21,33
379,111	81,07
379,32	66,73
379,529	-95,06
379,738	-68,44
379,947	17,58
380,156	-25,43
380,365	40,11
380,574	31,91
380,783	-146,26
380,992	-31,57
381,201	-72,53
381,41	23,72
381,619	-13,14
381,828	-19,29
382,037	-25,43
382,245	58,54
382,454	36,01
382,663	31,91
382,872	-15,19
383,081	-31,57
383,29	23,72
383,499	-62,29
383,707	19,63
383,916	-39,76
384,125	79,02
384,334	13,48
384,542	-9,05
384,751	-21,33
384,96	-37,72
385,169	-9,05
385,377	-90,96
385,586	50,35
385,795	15,53
386,004	17,58
386,212	-82,77
386,421	-86,87
386,63	97,45
386,838	-47,96
387,047	40,11
387,255	-45,91
387,464	36,01
387,673	25,77
387,881	36,01
388,09	113,83
388,298	113,83
388,507	44,2
388,715	-0,85
388,924	56,49
389,133	-146,26
389,341	-58,2
389,55	-50
389,758	-9,05
389,967	52,39
390,175	72,87
390,383	130,22
390,592	115,88
390,8	-9,05
391,009	25,77
391,217	9,39
391,426	64,68
391,634	-80,72
391,842	7,34
392,051	-31,57
392,259	7,34
392,467	-99,16
392,676	-152,4
392,884	-21,33
393,092	-64,34
393,301	89,26
393,509	-45,91
393,717	40,11
393,925	-17,24
394,134	-70,48
394,342	31,91
394,55	97,45
394,758	-15,19
394,967	-47,96
395,175	-99,16
395,383	9,39
395,591	-29,52
395,799	23,72
396,007	-43,86
396,216	122,02
396,424	54,44
396,632	-23,38
396,84	-62,29
397,048	-66,39
397,256	1,19
397,464	-41,81
397,672	91,31
397,88	-33,62
398,088	-66,39
398,296	1,19
398,504	-43,86
398,712	9,39
398,92	74,92
399,128	-17,24
399,336	-23,38
399,544	7,34
399,752	1,19
399,96	21,67
400,168	48,3
400,376	-21,33
400,584	-31,57
400,792	-41,81
401	-0,85
401,207	-15,19
401,415	19,63
401,623	60,59
401,831	9,39
402,039	56,49
402,247	11,43
402,454	68,78
402,662	74,92
402,87	42,15
403,078	64,68
403,285	74,92
403,493	-31,57
403,701	74,92
403,909	23,72
404,116	23,72
404,324	93,35
404,532	31,91
404,739	-31,57
404,947	-41,81
405,155	48,3
405,362	-47,96
405,57	31,91
405,778	-25,43
405,985	-7
406,193	-39,76
406,4	-72,53
406,608	33,96
406,816	-9,05
407,023	48,3
407,231	-41,81
407,438	1,19
407,646	-15,19
407,853	-33,62
408,061	-13,14
408,268	50,35
408,476	-31,57
408,683	105,64
408,89	81,07
409,098	7,34
409,305	5,29
409,513	64,68
409,72	-21,33
409,927	-25,43
410,135	48,3
410,342	-54,1
410,55	50,35
410,757	7,34
410,964	-33,62
411,172	-64,34
411,379	21,67
411,586	-60,24
411,793	-33,62
412,001	-58,2
412,208	-84,82
412,415	31,91
412,622	9,39
412,83	-0,85
413,037	-56,15
413,244	-9,05
413,451	-15,19
413,658	97,45
413,866	15,53
414,073	-21,33
414,28	42,15
414,487	-39,76
414,694	1,19
414,901	-58,2
415,108	15,53
415,315	-56,15
415,522	52,39
415,73	1,19
415,937	-88,92
416,144	-33,62
416,351	23,72
416,558	42,15
416,765	-90,96
416,972	7,34
417,179	48,3
417,386	-23,38
417,593	-66,39
417,8	-45,91
418,006	23,72
418,213	13,48
418,42	52,39
418,627	64,68
418,834	-107,35
419,041	-17,24
419,248	31,91
419,455	36,01
419,661	27,82
419,868	-31,57
420,075	31,91
420,282	-111,44
420,489	-31,57
420,696	-9,05
420,902	103,59
421,109	107,69
421,316	-39,76
421,523	126,12
421,729	-47,96
421,936	-17,24
422,143	3,24
422,349	-80,72
422,556	-90,96
422,763	46,25
422,969	-7
423,176	-82,77
423,383	81,07
423,589	181,42
423,796	-0,85
424,002	-33,62
424,209	-17,24
424,416	40,11
424,622	-50
424,829	7,34
425,035	-41,81
425,242	7,34
425,448	-4,95
425,655	-9,05
425,861	-25,43
426,068	15,53
426,274	122,02
426,481	23,72
426,687	97,45
426,894	-35,67
427,1	-66,39
427,306	-39,76
427,513	-4,95
427,719	-19,29
427,926	7,34
428,132	-17,24
428,338	9,39
428,545	1,19
428,751	15,53
428,957	23,72
429,163	-0,85
429,37	-0,85
429,576	25,77
429,782	-21,33
429,989	-21,33
430,195	40,11
430,401	72,87
430,607	-119,64
430,813	-17,24
431,02	9,39
431,226	48,3
431,432	-15,19
431,638	56,49
431,844	-82,77
432,05	-68,44
432,257	-0,85
432,463	-9,05
432,669	19,63
432,875	-0,85
433,081	-33,62
433,287	33,96
433,493	-74,58
433,699	89,26
433,905	19,63
434,111	-41,81
434,317	-95,06
434,523	72,87
434,729	23,72
434,935	-121,68
435,141	97,45
435,347	31,91
435,553	52,39
435,759	-41,81
435,965	15,53
436,171	-17,24
436,377	-31,57
436,582	-0,85
436,788	-88,92
436,994	-23,38
437,2	17,58
437,406	-15,19
437,612	64,68
437,818	40,11
438,023	-64,34
438,229	132,26
438,435	-4,95
438,641	15,53
438,846	-0,85
439,052	-0,85
439,258	72,87
439,464	13,48
439,669	-33,62
439,875	70,83
440,081	68,78
440,286	-58,2
440,492	7,34
440,698	-17,24
440,903	19,63
441,109	162,98
441,314	-0,85
441,52	-50
441,726	-21,33
441,931	23,72
442,137	27,82
442,342	40,11
442,548	48,3
442,753	40,11
442,959	11,43
443,164	-13,14
443,37	60,59
443,575	-29,52
443,781	52,39
443,986	36,01
444,192	27,82
444,397	11,43
444,602	-56,15
444,808	60,59
445,013	-2,9
445,219	-115,54
445,424	17,58
445,629	1,19
445,835	126,12
446,04	-17,24
446,245	3,24
446,451	-39,76
446,656	-47,96
446,861	-50
447,066	15,53
447,272	33,96
447,477	3,24
447,682	-13,14
447,887	-33,62
448,093	23,72
448,298	146,6
448,503	-103,25
448,708	-80,72
448,913	-45,91
449,118	-9,05
449,324	-9,05
449,529	64,68
449,734	-62,29
449,939	-25,43
450,144	-0,85
450,349	23,72
450,554	-74,58
450,759	56,49
450,964	-21,33
451,169	7,34
451,374	-25,43
451,579	-9,05
451,784	-17,24
451,989	-66,39
452,194	23,72
452,399	-41,81
452,604	17,58
452,809	-2,9
453,014	-0,85
453,219	81,07
453,424	56,49
453,629	-9,05
453,833	-21,33
454,038	38,06
454,243	23,72
454,448	50,35
454,653	105,64
454,858	-25,43
455,062	-66,39
455,267	-0,85
455,472	122,02
455,677	27,82
455,882	-17,24
456,086	105,64
456,291	48,3
456,496	-90,96
456,7	23,72
456,905	-9,05
457,11	50,35
457,314	-47,96
457,519	-2,9
457,724	-88,92
457,928	9,39
458,133	-41,81
458,338	58,54
458,542	-7
458,747	31,91
458,951	7,34
459,156	97,45
459,36	15,53
459,565	68,78
459,769	-25,43
459,974	58,54
460,178	-31,57
460,383	-103,25
460,587	-29,52
460,792	25,77
460,996	-41,81
461,201	76,97
461,405	-33,62
461,61	-37,72
461,814	64,68
462,018	-17,24
462,223	-90,96
462,427	11,43
462,631	-37,72
462,836	5,29
463,04	-25,43
463,244	64,68
463,449	-33,62
463,653	162,98
463,857	36,01
464,062	-9,05
464,266	23,72
464,47	42,15
464,674	-64,34
464,878	-54,1
465,083	-0,85
465,287	3,24
465,491	15,53
465,695	-17,24
465,899	7,34
466,104	-7
466,308	15,53
466,512	-15,19
466,716	66,73
466,92	50,35
467,124	74,92
467,328	83,11
467,532	74,92
467,736	21,67
467,94	31,91
468,144	81,07
468,348	25,77
468,552	81,07
468,756	132,26
468,96	-7
469,164	-41,81
469,368	-2,9
469,572	50,35
469,776	21,67
469,98	74,92
470,184	89,26
470,388	89,26
470,591	91,31
470,795	193,7
470,999	138,41
471,203	132,26
471,407	89,26
471,611	150,7
471,814	95,4
472,018	-64,34
472,222	60,59
472,426	140,46
472,63	72,87
472,833	148,65
473,037	-7
473,241	-0,85
473,444	56,49
473,648	371,88
473,852	-9,05
474,055	15,53
474,259	44,2
474,463	15,53
474,666	68,78
474,87	-37,72
475,074	64,68
475,277	64,68
475,481	52,39
475,684	-13,14
475,888	-7
476,091	50,35
476,295	-72,53
476,498	-82,77
476,702	-39,76
476,905	103,59
477,109	72,87
477,312	97,45
477,516	-62,29
477,719	19,63
477,923	40,11
478,126	-66,39
478,329	89,26
478,533	-25,43
478,736	23,72
478,94	40,11
479,143	-17,24
479,346	81,07
479,55	85,16
479,753	31,91
479,956	15,53
480,159	-19,29
480,363	146,6
480,566	25,77
480,769	-72,53
480,972	-66,39
481,176	3,24
481,379	89,26
481,582	87,21
481,785	-21,33
481,988	-78,68
482,192	76,97
482,395	42,15
482,598	76,97
482,801	36,01
483,004	109,74
483,207	-41,81
483,41	113,83
483,613	156,84
483,817	33,96
484,02	-52,05
484,223	-15,19
484,426	-7
484,629	87,21
484,832	56,49
485,035	7,34
485,238	-23,38
485,441	-9,05
485,644	46,25
485,846	-13,14
486,049	-74,58
486,252	-82,77
486,455	-47,96
486,658	-0,85
486,861	74,92
487,064	140,46
487,267	-4,95
487,47	148,65
487,672	130,22
487,875	15,53
488,078	-17,24
488,281	44,2
488,484	3,24
488,686	64,68
488,889	25,77
489,092	3,24
489,295	44,2
489,497	56,49
489,7	23,72
489,903	9,39
490,105	-54,1
490,308	-58,2
490,511	11,43
490,713	-29,52
490,916	-0,85
491,118	72,87
491,321	44,2
491,524	-37,72
491,726	-0,85
491,929	1,19
492,131	42,15
492,334	-41,81
492,536	3,24
492,739	-23,38
492,941	33,96
493,144	36,01
493,346	15,53
493,549	15,53
493,751	74,92
493,954	42,15
494,156	-17,24
494,359	103,59
494,561	-4,95
494,763	87,21
494,966	40,11
495,168	56,49
495,37	19,63
495,573	62,63
495,775	-9,05
495,977	42,15
496,18	-17,24
496,382	115,88
496,584	31,91
496,787	81,07
496,989	-31,57
497,191	-0,85
497,393	48,3
497,595	15,53
497,798	40,11
498	15,53
498,202	7,34
498,404	-25,43
498,606	-2,9
498,808	72,87
499,011	76,97
499,213	-25,43
499,415	42,15
499,617	81,07
499,819	56,49
500,021	74,92
500,223	25,77
500,425	56,49
500,627	19,63
500,829	13,48
501,031	62,63
501,233	7,34
501,435	-0,85
501,637	134,31
501,839	50,35
502,041	-45,91
502,243	81,07
502,445	29,87
502,647	83,11
502,848	97,45
503,05	83,11
503,252	150,7
503,454	208,04
503,656	236,71
503,858	197,8
504,059	261,29
504,261	197,8
504,463	322,73
504,665	144,55
504,867	146,6
505,068	138,41
505,27	40,11
505,472	171,18
505,673	70,83
505,875	-29,52
506,077	-64,34
506,278	9,39
506,48	5,29
506,682	9,39
506,883	-17,24
507,085	29,87
507,287	25,77
507,488	72,87
507,69	138,41
507,891	42,15
508,093	236,71
508,294	138,41
508,496	58,54
508,697	31,91
508,899	23,72
509,1	130,22
509,302	150,7
509,503	81,07
509,705	124,07
509,906	56,49
510,108	23,72
510,309	19,63
510,51	25,77
510,712	89,26
510,913	83,11
511,114	134,31
511,316	31,91
511,517	124,07
511,718	208,04
511,92	197,8
512,121	165,03
512,322	199,85
512,524	195,75
512,725	249
512,926	109,74
513,127	124,07
513,329	134,31
513,53	-9,05
513,731	113,83
513,932	122,02
514,133	21,67
514,334	50,35
514,536	193,7
514,737	255,14
514,938	220,33
515,139	79,02
515,34	33,96
515,541	214,18
515,742	122,02
515,943	171,18
516,144	40,11
516,345	162,98
516,546	60,59
516,747	50,35
516,948	66,73
517,149	31,91
517,35	-25,43
517,551	9,39
517,752	-2,9
517,953	-0,85
518,154	99,5
518,355	113,83
518,556	105,64
518,756	146,6
518,957	97,45
519,158	181,42
519,359	154,79
519,56	171,18
519,761	183,46
519,961	203,94
520,162	310,44
520,363	158,89
520,564	97,45
520,764	304,29
520,965	146,6
521,166	216,23
521,366	187,56
521,567	134,31
521,768	105,64
521,968	99,5
522,169	134,31
522,37	66,73
522,57	66,73
522,771	122,02
522,972	72,87
523,172	95,4
523,373	-41,81
523,573	58,54
523,774	29,87
523,974	70,83
524,175	158,89
524,375	44,2
524,576	5,29
524,776	-31,57
524,977	-0,85
525,177	-74,58
525,378	-64,34
525,578	40,11
525,778	-9,05
525,979	40,11
526,179	1,19
526,38	-31,57
526,58	-129,88
526,78	-29,52
526,981	64,68
527,181	-9,05
527,381	9,39
527,582	119,98
527,782	105,64
527,982	25,77
528,182	-13,14
528,383	54,44
528,583	81,07
528,783	27,82
528,983	-4,95
529,183	97,45
529,384	33,96
529,584	187,56
529,784	109,74
529,984	156,84
530,184	-25,43
530,384	25,77
530,584	33,96
530,784	74,92
530,984	11,43
531,185	56,49
531,385	113,83
531,585	101,55
531,785	74,92
531,985	115,88
532,185	44,2
532,385	103,59
532,585	195,75
532,785	205,99
532,984	277,67
533,184	484,52
533,384	466,08
533,584	502,95
533,784	486,56
533,984	595,11
534,184	558,24
534,384	556,19
534,583	634,02
534,783	498,85
534,983	588,96
535,183	345,25
535,383	246,95
535,582	261,29
535,782	160,94
535,982	271,53
536,182	154,79
536,381	187,56
536,581	68,78
536,781	115,88
536,98	122,02
537,18	109,74
537,38	25,77
537,579	76,97
537,779	-4,95
537,979	70,83
538,178	-45,91
538,378	93,35
538,577	-0,85
538,777	101,55
538,976	68,78
539,176	165,03
539,376	158,89
539,575	179,37
539,774	332,97
539,974	359,59
540,173	511,14
540,373	543,91
540,572	539,81
540,772	515,23
540,971	498,85
541,171	461,99
541,37	384,16
541,569	285,86
541,769	285,86
541,968	142,5
542,167	179,37
542,367	91,31
542,566	97,45
542,765	-21,33
542,965	15,53
543,164	3,24
543,363	27,82
543,562	17,58
543,761	72,87
543,961	81,07
544,16	-129,88
544,359	138,41
544,558	-56,15
544,757	23,72
544,957	7,34
545,156	74,92
545,355	-0,85
545,554	97,45
545,753	-29,52
545,952	-21,33
546,151	56,49
546,35	56,49
546,549	-7
546,748	-62,29
546,947	17,58
547,146	-72,53
547,345	7,34
547,544	31,91
547,743	-31,57
547,942	3,24
548,141	25,77
548,34	31,91
548,539	-41,81
548,738	-37,72
548,937	122,02
549,135	-43,86
549,334	1,19
549,533	23,72
549,732	36,01
549,931	-47,96
550,13	7,34
550,328	7,34
550,527	11,43
550,726	33,96
550,925	1,19
551,123	25,77
551,322	-21,33
551,521	-31,57
551,72	31,91
551,918	58,54
552,117	74,92
552,315	40,11
552,514	-74,58
552,713	44,2
552,911	-9,05
553,11	-56,15
553,309	1,19
553,507	-0,85
553,706	-31,57
553,904	46,25
554,103	19,63
554,301	40,11
554,5	-23,38
554,698	52,39
554,897	15,53
555,095	38,06
555,294	31,91
555,492	76,97
555,69	72,87
555,889	-35,67
556,087	99,5
556,286	171,18
556,484	64,68
556,682	113,83
556,881	74,92
557,079	89,26
557,277	105,64
557,476	52,39
557,674	97,45
557,872	93,35
558,07	7,34
558,269	-64,34
558,467	56,49
558,665	44,2
558,863	-31,57
559,062	23,72
559,26	-9,05
559,458	-74,58
559,656	23,72
559,854	-25,43
560,052	25,77
560,25	42,15
560,449	269,48
560,647	101,55
560,845	-35,67
561,043	40,11
561,241	66,73
561,439	33,96
561,637	44,2
561,835	27,82
562,033	66,73
562,231	-17,24
562,429	-50
562,627	11,43
562,825	-58,2
563,023	76,97
563,221	-33,62
563,418	-0,85
563,616	-33,62
563,814	68,78
564,012	-17,24
564,21	64,68
564,408	60,59
564,605	-0,85
564,803	5,29
565,001	351,4
565,199	97,45
565,397	126,12
565,594	165,03
565,792	154,79
565,99	140,46
566,188	253,09
566,385	253,09
566,583	140,46
566,781	179,37
566,978	132,26
567,176	181,42
567,373	146,6
567,571	132,26
567,769	132,26
567,966	68,78
568,164	91,31
568,361	60,59
568,559	126,12
568,756	85,16
568,954	148,65
569,151	113,83
569,349	222,38
569,546	132,26
569,744	138,41
569,941	113,83
570,139	15,53
570,336	56,49
570,534	162,98
570,731	85,16
570,928	81,07
571,126	173,22
571,323	44,2
571,52	56,49
571,718	40,11
571,915	103,59
572,112	-25,43
572,31	83,11
572,507	220,33
572,704	81,07
572,901	33,96
573,099	56,49
573,296	171,18
573,493	27,82
573,69	72,87
573,887	56,49
574,085	165,03
574,282	81,07
574,479	134,31
574,676	122,02
574,873	230,57
575,07	271,53
575,267	261,29
575,464	400,55
575,661	410,79
575,858	427,17
576,055	556,19
576,252	769,18
576,449	779,42
576,646	853,15
576,843	920,73
577,04	1025,18
577,237	937,12
577,434	814,24
577,631	648,35
577,828	687,26
578,025	425,12
578,222	414,88
578,419	326,82
578,615	203,94
578,812	89,26
579,009	109,74
579,206	134,31
579,403	64,68
579,599	179,37
579,796	115,88
579,993	253,09
580,19	105,64
580,386	212,14
580,583	244,9
580,78	230,57
580,976	355,49
581,173	330,92
581,37	392,36
581,566	464,04
581,763	521,38
581,96	515,23
582,156	576,67
582,353	685,22
582,549	687,26
582,746	679,07
582,942	519,33
583,139	584,87
583,335	615,59
583,532	943,26
583,728	1606,8
583,925	2759,81
584,121	4242,54
584,318	6335,56
584,514	8643,62
584,711	11770,87
584,907	15227,84
585,103	19417,99
585,3	23147,34
585,496	26239,77
585,693	28601,08
585,889	29256,43
586,085	28291,83
586,281	25848,61
586,478	22061,91
586,674	19043,21
586,87	16556,97
587,067	14078,93
587,263	11273,21
587,459	8279,08
587,655	6612,04
587,851	5637,2
588,048	5262,43
588,244	5323,87
588,44	5676,12
588,636	5823,57
588,832	5712,98
589,028	5655,64
589,224	4832,35
589,42	4379,75
589,617	3820,66
589,813	3476,6
590,009	2858,11
590,205	2489,48
590,401	1850,51
590,597	1383,57
590,793	1311,89
590,989	1033,37
591,185	961,69
591,38	910,49
591,576	701,6
591,772	646,3
591,968	613,54
592,164	625,83
592,36	457,89
592,556	441,51
592,752	531,62
592,948	707,74
593,143	990,36
593,339	1453,2
593,535	1957
593,731	2811,01
593,926	3660,91
594,122	4676,71
594,318	5913,68
594,514	7322,68
594,709	8537,13
594,905	9135,14
595,101	9255,97
595,296	9229,34
595,492	8315,95
595,688	7265,34
595,883	6433,86
596,079	5676,12
596,275	4791,39
596,47	4144,24
596,666	3079,29
596,861	2708,61
597,057	2317,45
597,252	2153,61
597,448	2335,88
597,643	2448,52
597,839	2671,75
598,034	2628,74
598,23	2542,72
598,425	2423,94
598,621	2317,45
598,816	2006,16
599,011	1662,1
599,207	1545,36
599,402	1268,89
599,597	1162,39
599,793	814,24
599,988	572,58
600,183	449,7
600,379	351,4
600,574	269,48
600,769	220,33
600,965	115,88
601,16	181,42
601,355	87,21
601,55	296,1
601,745	418,98
601,941	513,19
602,136	642,21
602,331	982,17
602,526	1244,31
602,721	1473,68
602,916	1842,32
603,111	2172,04
603,307	2333,83
603,502	2507,91
603,697	2550,92
603,892	2507,91
604,087	2268,3
604,282	2014,35
604,477	1752,21
604,672	1518,74
604,867	1197,21
605,062	1057,95
605,257	662,69
605,452	582,82
605,646	408,74
605,841	515,23
606,036	705,7
606,231	1014,94
606,426	1670,29
606,621	2325,64
606,816	3243,13
607,01	4351,08
607,205	5348,44
607,4	6343,75
607,595	7658,55
607,79	8619,05
607,984	9016,35
608,179	9274,4
608,374	9329,69
608,569	9255,97
608,763	9247,77
608,958	9487,39
609,153	10476,55
609,347	11119,62
609,542	11899,89
609,736	12403,69
609,931	12643,31
610,126	13048,8
610,32	12966,88
610,515	11918,32
610,709	11043,84
610,904	9632,79
611,098	8215,6
611,293	7040,06
611,487	5866,58
611,682	4443,24
611,876	3366,01
612,071	2282,63
612,265	1490,07
612,46	1154,2
612,654	1172,63
612,848	1776,78
613,043	2407,56
613,237	3742,83
613,432	5168,22
613,626	6937,66
613,82	9440,28
614,014	11674,62
614,209	14711,75
614,403	16991,14
614,597	19135,37
614,792	20063,1
614,986	20956,01
615,18	19942,27
615,374	18539,41
615,568	16589,74
615,763	15422,4
615,957	14023,64
616,151	12684,27
616,345	11709,43
616,539	10376,2
616,733	8965,15
616,927	7666,74
617,121	6833,22
617,316	5987,41
617,51	5456,98
617,704	4482,15
617,898	4047,98
618,092	3449,97
618,286	2839,68
618,48	2235,53
618,674	1864,85
618,868	1332,37
619,061	812,19
619,255	697,5
619,449	611,49
619,643	461,99
619,837	541,86
620,031	396,45
620,225	558,24
620,419	623,78
620,612	892,06
620,806	1170,58
621	1567,89
621,194	1924,24
621,388	2485,38
621,581	3062,91
621,775	3509,37
621,969	3912,81
622,162	4277,35
622,356	4435,05
622,55	4103,28
622,743	3726,45
622,937	3423,35
623,131	2890,88
623,324	2540,68
623,518	2073,74
623,712	1909,9
623,905	1367,19
624,099	943,26
624,292	681,12
624,486	584,87
624,679	320,68
624,873	369,83
625,066	482,47
625,26	769,18
625,453	1277,08
625,647	1803,41
625,84	2616,45
626,034	3501,17
626,227	4697,19
626,42	5717,08
626,614	7042,11
626,807	8260,65
627	9088,03
627,194	9075,74
627,387	9264,16
627,58	8809,51
627,774	7932,98
627,967	6995,01
628,16	5997,65
628,353	5319,77
628,547	4643,94
628,74	3779,7
628,933	2784,38
629,126	2178,19
629,319	1825,93
629,513	1686,67
629,706	1834,13
629,899	2210,95
630,092	2542,72
630,285	3103,87
630,478	3677,3
630,671	4090,99
630,864	4652,13
631,057	4744,29
631,25	4611,17
631,443	4441,19
631,636	4007,02
631,829	3832,94
632,022	3980,4
632,215	4263,02
632,408	5018,72
632,601	5676,12
632,794	6573,13
632,987	7984,18
633,18	9520,15
633,373	11140,1
633,566	12762,09
633,758	13962,2
633,951	14748,62
634,144	14662,6
634,337	14253,01
634,53	13032,42
634,722	11492,35
634,915	9702,42
635,108	8717,35
635,301	7572,54
635,493	6093,9
635,686	4768,87
635,879	3359,86
636,071	2038,92
636,264	1494,16
636,457	984,22
636,649	748,7
636,842	1125,53
637,034	1563,79
637,227	2251,91
637,42	3214,46
637,612	4271,21
637,805	5749,84
637,997	7392,31
638,19	8805,41
638,382	10271,76
638,575	12241,9
638,767	14459,85
638,96	16696,24
639,152	19880,83
639,344	22739,79
639,537	26880,78
639,729	30739,16
639,922	36498,05
640,114	42025,51
640,306	47235,55
640,499	50348,46
640,691	52081,04
640,883	52255,12
641,075	50024,88
641,268	45007,36
641,46	39324,24
641,652	34200,22
641,844	29973,22
642,037	26313,5
642,229	21578,59
642,421	17693,6
642,613	12135,41
642,805	7806
642,998	4770,91
643,19	3005,56
643,382	1977,48
643,574	1322,13
643,766	935,07
643,958	769,18
644,15	666,78
644,342	609,44
644,534	433,32
644,726	287,91
644,918	326,82
645,11	222,38
645,302	335,01
645,494	257,19
645,686	232,62
645,878	177,32
646,07	259,24
646,262	277,67
646,453	169,13
646,645	154,79
646,837	177,32
647,029	162,98
647,221	181,42
647,413	146,6
647,604	93,35
647,796	142,5
647,988	189,61
648,18	132,26
648,371	216,23
648,563	36,01
648,755	214,18
648,947	179,37
649,138	636,06
649,33	1526,93
649,521	2550,92
649,713	3861,62
649,905	5553,24
650,096	7560,25
650,288	9804,82
650,479	12219,38
650,671	14746,57
650,863	16626,6
651,054	17867,67
651,246	18455,44
651,437	18047,9
651,629	16960,42
651,82	15379,39
652,011	13747,16
652,203	12108,79
652,394	11367,42
652,586	10253,33
652,777	9075,74
652,968	7889,97
653,16	6876,23
653,351	6261,84
653,542	5739,6
653,734	5303,39
653,925	5069,92
654,116	4695,14
654,308	4357,22
654,499	3728,5
654,69	3275,9
654,881	2866,3
655,073	2530,44
655,264	2276,49
655,455	1797,26
655,646	1334,42
655,837	1072,28
656,028	687,26
656,219	378,02
656,411	332,97
656,602	179,37
656,793	138,41
656,984	244,9
657,175	105,64
657,366	79,02
657,557	175,27
657,748	117,93
657,939	64,68
658,13	68,78
658,321	195,75
658,512	373,92
658,703	777,37
658,894	1240,22
659,084	1707,15
659,275	2344,07
659,466	3226,75
659,657	4121,71
659,848	4666,47
660,039	5456,98
660,23	6167,63
660,42	6145,1
660,611	6286,41
660,802	5962,83
660,993	5530,71
661,183	4971,61
661,374	4062,32
661,565	3826,8
661,755	3300,47
661,946	2817,15
662,137	2262,15
662,327	1674,39
662,518	1129,63
662,709	760,99
662,899	410,79
663,09	361,64
663,28	242,85
663,471	152,74
663,662	249
663,852	285,86
664,043	79,02
664,233	76,97
664,424	122,02
664,614	46,25
664,804	136,36
664,995	183,46
665,185	138,41
665,376	58,54
665,566	160,94
665,756	48,3
665,947	148,65
666,137	203,94
666,328	449,7
666,518	900,25
666,708	1559,7
666,898	2389,13
667,089	3425,4
667,279	4734,05
667,469	6038,61
667,659	7441,47
667,85	8864,8
668,04	10030,1
668,23	10566,67
668,42	11168,77
668,61	10769,41
668,8	10275,85
668,991	9339,93
669,181	8215,6
669,371	7115,84
669,561	6229,07
669,751	5719,12
669,941	4756,58
670,131	3802,22
670,321	3071,1
670,511	2469
670,701	2237,58
670,891	2444,42
671,081	2983,04
671,271	3679,35
671,461	4267,11
671,651	5008,48
671,841	5868,63
672,03	6544,45
672,22	6624,33
672,41	6636,61
672,6	6282,31
672,79	5987,41
672,98	5260,38
673,169	4574,31
673,359	3988,59
673,549	3542,13
673,739	2983,04
673,928	2657,41
674,118	1991,82
674,308	1242,26
674,497	1002,65
674,687	623,78
674,877	429,22
675,066	283,81
675,256	124,07
675,446	224,42
675,635	140,46
675,825	33,96
676,014	89,26
676,204	128,17
676,393	44,2
676,583	113,83
676,772	97,45
676,962	44,2
677,151	7,34
677,341	15,53
677,53	33,96
677,72	97,45
677,909	58,54
678,099	7,34
678,288	33,96
678,477	97,45
678,667	85,16
678,856	64,68
679,045	91,31
679,235	17,58
679,424	91,31
679,613	89,26
679,802	44,2
679,992	15,53
680,181	7,34
680,37	117,93
680,559	50,35
680,748	97,45
680,938	119,98
681,127	3,24
681,316	93,35
681,505	23,72
681,694	-41,81
681,883	76,97
682,072	85,16
682,261	-9,05
682,45	-62,29
682,639	23,72
682,828	113,83
683,017	68,78
683,206	23,72
683,395	62,63
683,584	-29,52
683,773	99,5
683,962	-50
684,151	9,39
684,34	48,3
684,529	64,68
684,718	-33,62
684,907	-0,85
685,095	76,97
685,284	72,87
685,473	56,49
685,662	-54,1
685,851	148,65
686,039	-52,05
686,228	56,49
686,417	-11,09
686,606	134,31
686,794	81,07
686,983	-80,72
687,172	72,87
687,36	-41,81
687,549	-25,43
687,738	-13,14
687,926	48,3
688,115	-50
688,303	74,92
688,492	48,3
688,68	-33,62
688,869	-25,43
689,057	-15,19
689,246	-39,76
689,434	7,34
689,623	25,77
689,811	52,39
690	23,72
690,188	-58,2
690,377	58,54
690,565	60,59
690,753	113,83
690,942	113,83
691,13	52,39
691,318	109,74
691,507	257,19
691,695	918,68
691,883	1367,19
692,072	2196,62
692,26	3239,03
692,448	4406,38
692,636	5596,25
692,824	6659,14
693,013	7971,89
693,201	8676,39
693,389	9374,75
693,577	9348,12
693,765	9194,53
693,953	8584,23
694,141	7855,15
694,329	6931,52
694,518	5948,5
694,706	5401,69
694,894	4953,18
695,082	4105,32
695,27	3566,71
695,458	2751,62
695,646	1995,92
695,834	1322,13
696,022	875,68
696,209	482,47
696,397	398,5
696,585	246,95
696,773	187,56
696,961	142,5
697,149	-4,95
697,337	122,02
697,525	93,35
697,712	76,97
697,9	124,07
698,088	85,16
698,276	68,78
698,463	68,78
698,651	15,53
698,839	23,72
699,027	44,2
699,214	44,2
699,402	17,58
699,59	-15,19
699,777	-0,85
699,965	33,96
700,152	36,01
700,34	72,87
700,528	11,43
700,715	1,19
700,903	40,11
701,09	150,7
701,278	132,26
701,465	179,37
701,653	351,4
701,84	566,43
702,028	1424,53
702,215	2409,61
702,402	3480,69
702,59	4697,19
702,777	6415,43
702,965	8006,7
703,152	9260,06
703,339	10574,86
703,527	11656,18
703,714	11699,19
703,901	12131,31
704,088	11320,32
704,276	10880
704,463	9774,1
704,65	8608,81
704,837	7601,21
705,025	6800,45
705,212	5882,96
705,399	5413,98
705,586	4521,06
705,773	3804,27
705,96	2743,42
706,147	1916,05
706,335	1313,94
706,522	969,88
706,709	666,78
706,896	613,54
707,083	359,59
707,27	273,57
707,457	404,64
707,644	162,98
707,831	171,18
708,018	23,72
708,205	230,57
708,392	113,83
708,578	244,9
708,765	64,68
708,952	33,96
709,139	7,34
709,326	-0,85
709,513	7,34
709,7	40,11
709,886	117,93
710,073	91,31
710,26	154,79
710,447	72,87
710,633	-9,05
710,82	50,35
711,007	-54,1
711,193	-29,52
711,38	68,78
711,567	91,31
711,753	56,49
711,94	11,43
712,127	40,11
712,313	23,72
712,5	-13,14
712,686	-0,85
712,873	-15,19
713,059	76,97
713,246	97,45
713,432	162,98
713,619	-29,52
713,805	27,82
713,992	89,26
714,178	23,72
714,365	5,29
714,551	81,07
714,737	111,78
714,924	11,43
715,11	130,22
715,297	-17,24
715,483	19,63
715,669	27,82
715,855	56,49
716,042	173,22
716,228	162,98
716,414	406,69
716,6	556,19
716,787	750,75
716,973	912,54
717,159	1248,41
717,345	1508,5
717,531	1664,15
717,718	1772,69
717,904	1809,55
718,09	1846,41
718,276	1834,13
718,462	1705,1
718,648	1537,17
718,834	1301,65
719,02	1217,69
719,206	1113,24
719,392	861,34
719,578	818,33
719,764	773,28
719,95	609,44
720,136	566,43
720,322	300,2
720,508	212,14
720,694	212,14
720,879	99,5
721,065	162,98
721,251	76,97
721,437	56,49
721,623	113,83
721,809	-0,85
721,994	66,73
722,18	-54,1
722,366	-2,9
722,552	60,59
722,737	33,96
722,923	146,6
723,109	146,6
723,294	332,97
723,48	851,1
723,666	1342,61
723,851	1936,53
724,037	2442,37
724,222	3128,44
724,408	3894,38
724,593	4357,22
724,779	4826,21
724,965	4965,47
725,15	4955,23
725,336	4828,26
725,521	4496,49
725,706	4078,7
725,892	3656,82
726,077	3177,59
726,263	2864,25
726,448	2600,07
726,634	2272,39
726,819	2016,4
727,004	1764,5
727,19	1498,26
727,375	1156,25
727,56	765,09
727,745	314,53
727,931	289,96
728,116	150,7
728,301	150,7
728,486	171,18
728,672	23,72
728,857	36,01
729,042	52,39
729,227	25,77
729,412	138,41
729,597	9,39
729,783	-52,05
729,968	-15,19
730,153	83,11
730,338	23,72
730,523	17,58
730,708	-31,57
730,893	72,87
731,078	97,45
731,263	-9,05
731,448	42,15
731,633	13,48
731,818	-74,58
732,003	-0,85
732,187	-15,19
732,372	-4,95
732,557	66,73
732,742	-99,16
732,927	-58,2
733,112	48,3
733,297	15,53
733,481	27,82
733,666	7,34
733,851	-21,33
734,036	7,34
734,22	21,67
734,405	81,07
734,59	48,3
734,774	1,19
734,959	31,91
735,144	68,78
735,328	-39,76
735,513	-4,95
735,698	9,39
735,882	15,53
736,067	66,73
736,251	-47,96
736,436	-0,85
736,62	-25,43
736,805	-47,96
736,989	126,12
737,174	5,29
737,358	-86,87
737,543	89,26
737,727	-7
737,911	91,31
738,096	-21,33
738,28	31,91
738,465	-9,05
738,649	83,11
738,833	44,2
739,018	-7
739,202	-95,06
739,386	3,24
739,57	11,43
739,755	-21,33
739,939	-31,57
740,123	-54,1
740,307	58,54
740,491	36,01
740,676	-101,2
740,86	15,53
741,044	-47,96
741,228	-0,85
741,412	-72,53
741,596	-121,68
741,78	-29,52
741,964	-39,76
742,148	-41,81
742,332	9,39
742,516	-70,48
742,7	134,31
742,884	212,14
743,068	302,25
743,252	490,66
743,436	666,78
743,62	687,26
743,804	1041,56
743,988	1111,19
744,172	1137,82
744,356	1221,78
744,539	1199,26
744,723	1033,37
744,907	1049,75
745,091	969,88
745,275	867,49
745,458	857,25
745,642	648,35
745,826	541,86
746,009	593,06
746,193	449,7
746,377	490,66
746,56	423,08
746,744	375,97
746,928	212,14
747,111	140,46
747,295	95,4
747,478	138,41
747,662	113,83
747,846	222,38
748,029	167,08
748,213	228,52
748,396	269,48
748,58	257,19
748,763	230,57
748,946	386,21
749,13	425,12
749,313	441,51
749,497	496,8
749,68	416,93
749,863	457,89
750,047	273,57
750,23	345,25
750,413	261,29
750,597	271,53
750,78	193,7
750,963	279,72
751,146	101,55
751,33	205,99
751,513	72,87
751,696	154,79
751,879	99,5
752,062	-54,1
752,246	156,84
752,429	154,79
752,612	113,83
752,795	79,02
752,978	66,73
753,161	173,22
753,344	302,25
753,527	287,91
753,71	359,59
753,893	468,13
754,076	353,45
754,259	482,47
754,442	402,6
754,625	478,37
754,808	492,71
754,991	349,35
755,174	349,35
755,357	326,82
755,539	318,63
755,722	265,38
755,905	242,85
756,088	179,37
756,271	171,18
756,453	228,52
756,636	154,79
756,819	181,42
757,002	93,35
757,184	107,69
757,367	40,11
757,55	109,74
757,732	187,56
757,915	-86,87
758,098	-56,15
758,28	36,01
758,463	76,97
758,645	1,19
758,828	40,11
759,011	-33,62
759,193	48,3
759,376	42,15
759,558	-90,96
759,741	-0,85
759,923	-33,62
760,105	-9,05
760,288	-25,43
760,47	-52,05
760,653	-103,25
760,835	7,34
761,017	-45,91
761,2	9,39
761,382	25,77
761,564	-41,81
761,747	21,67
761,929	-7
762,111	81,07
762,294	19,63
762,476	97,45
762,658	64,68
762,84	58,54
763,022	15,53
763,205	-47,96
763,387	132,26
763,569	52,39
763,751	-109,4
763,933	-47,96
764,115	3,24
764,297	-39,76
764,479	50,35
764,661	-0,85
764,843	42,15
765,025	31,91
765,207	-4,95
765,389	-9,05
765,571	-66,39
765,753	-11,09
765,935	-0,85
766,117	-17,24
766,299	17,58
766,481	89,26
766,663	-31,57
766,845	-74,58
767,026	31,91
767,208	91,31
767,39	-17,24
767,572	23,72
767,753	27,82
767,935	7,34
768,117	-9,05
768,299	117,93
768,48	-0,85
768,662	13,48
768,844	-99,16
769,025	109,74
769,207	-31,57
769,389	-78,68
769,57	23,72
769,752	1,19
769,933	-50
770,115	68,78
770,296	-62,29
770,478	124,07
770,659	23,72
770,841	167,08
771,022	31,91
771,204	-7
771,385	-17,24
771,567	50,35
771,748	99,5
771,929	-7
772,111	-33,62
772,292	89,26
772,473	3,24
772,655	48,3
772,836	50,35
773,017	122,02
773,199	3,24
773,38	44,2
773,561	42,15
773,742	17,58
773,923	-0,85
774,105	97,45
774,286	40,11
774,467	19,63
774,648	-27,48
774,829	64,68
775,01	-7
775,191	-82,77
775,372	-15,19
775,553	40,11
775,734	-56,15
775,915	-29,52
776,096	-23,38
776,277	-31,57
776,458	-47,96
776,639	-7
776,82	130,22
777,001	-37,72
777,182	-99,16
777,363	-58,2
777,544	-29,52
777,725	89,26
777,906	-50
778,086	9,39
778,267	81,07
778,448	56,49
778,629	-80,72
778,809	56,49
778,99	15,53
779,171	-23,38
779,352	-29,52
779,532	66,73
779,713	-31,57
779,894	5,29
780,074	140,46
780,255	23,72
780,435	7,34
780,616	31,91
780,797	122,02
780,977	-21,33
781,158	9,39
781,338	-35,67
781,519	-33,62
781,699	132,26
781,88	-62,29
782,06	27,82
782,241	-93,01
782,421	-72,53
782,601	36,01
782,782	128,17
782,962	11,43
783,142	-64,34
783,323	40,11
783,503	97,45
783,683	23,72
783,864	58,54
784,044	31,91
784,224	48,3
784,404	-25,43
784,585	13,48
784,765	31,91
784,945	109,74
785,125	-74,58
785,305	23,72
785,485	144,55
785,666	64,68
785,846	-47,96
786,026	-41,81
786,206	-15,19
786,386	36,01
786,566	-13,14
786,746	-23,38
786,926	27,82
787,106	-123,73
787,286	-29,52
787,466	7,34
787,646	-39,76
787,826	15,53
788,006	113,83
788,185	7,34
788,365	-23,38
788,545	81,07
788,725	-15,19
788,905	81,07
789,085	44,2
789,264	-50
789,444	17,58
789,624	83,11
789,804	-29,52
789,983	122,02
790,163	44,2
790,343	64,68
790,522	25,77
790,702	40,11
790,882	40,11
791,061	85,16
791,241	-25,43
791,42	-45,91
791,6	40,11
791,78	54,44
791,959	-41,81
792,139	-86,87
792,318	33,96
792,498	85,16
792,677	-21,33
792,856	21,67
793,036	-99,16
793,215	-33,62
793,395	89,26
793,574	-29,52
793,753	48,3
793,933	140,46
794,112	146,6
794,291	64,68
794,471	183,46
794,65	1,19
794,829	11,43
795,008	101,55
795,188	117,93
795,367	109,74
795,546	74,92
795,725	56,49
795,904	64,68
796,084	-23,38
796,263	97,45
796,442	74,92
796,621	15,53
796,8	81,07
796,979	44,2
797,158	-41,81
797,337	40,11
797,516	68,78
797,695	134,31
797,874	31,91
798,053	171,18
798,232	-25,43
798,411	-68,44
798,59	-39,76
798,769	-62,29
798,947	-27,48
799,126	21,67
799,305	89,26
799,484	48,3
799,663	-41,81
799,842	-0,85
800,02	74,92
800,199	-33,62
800,378	15,53
800,557	-107,35
800,735	-25,43
800,914	-29,52
801,093	5,29
801,271	40,11
801,45	36,01
801,628	76,97
801,807	3,24
801,986	-17,24
802,164	31,91
802,343	-31,57
802,521	-152,4
802,7	132,26
802,878	17,58
803,057	-11,09
803,235	-25,43
803,414	42,15
803,592	42,15
803,771	31,91
803,949	66,73
804,127	7,34
804,306	72,87
804,484	-23,38
804,662	38,06
804,841	-47,96
805,019	15,53
805,197	40,11
805,375	56,49
805,554	-17,24
805,732	7,34
805,91	-7
806,088	-50
806,266	-50
806,445	48,3
806,623	-37,72
806,801	68,78
806,979	31,91
807,157	17,58
807,335	-31,57
807,513	33,96
807,691	7,34
807,869	-25,43
808,047	-7
808,225	-13,14
808,403	7,34
808,581	72,87
808,759	50,35
808,937	17,58
809,115	91,31
809,293	58,54
809,471	40,11
809,649	72,87
809,826	19,63
810,004	-4,95
810,182	-80,72
810,36	-9,05
810,538	152,74
810,715	-21,33
810,893	-33,62
811,071	5,29
811,248	56,49
811,426	91,31
811,604	101,55
811,781	101,55
811,959	25,77
812,137	19,63
812,314	-21,33
812,492	97,45
812,669	5,29
812,847	-25,43
813,024	138,41
813,202	122,02
813,379	64,68
813,557	81,07
813,734	214,18
813,912	99,5
814,089	107,69
814,267	167,08
814,444	15,53
814,621	109,74
814,799	-9,05
814,976	91,31
815,153	74,92
815,331	87,21
815,508	56,49
815,685	56,49
815,862	58,54
816,04	107,69
816,217	-17,24
816,394	13,48
816,571	93,35
816,748	224,42
816,926	99,5
817,103	216,23
817,28	33,96
817,457	-9,05
817,634	64,68
817,811	36,01
817,988	66,73
818,165	42,15
818,342	-0,85
818,519	42,15
818,696	-39,76
818,873	-113,49
819,05	-4,95
819,227	-58,2
819,404	48,3
819,581	1,19
819,758	-39,76
819,934	48,3
820,111	-31,57
820,288	13,48
820,465	58,54
820,642	15,53
820,818	9,39
820,995	3,24
821,172	117,93
821,349	72,87
821,525	29,87
821,702	25,77
821,879	-123,73
822,055	48,3
822,232	11,43
822,409	-47,96
822,585	1,19
822,762	60,59
822,938	40,11
823,115	7,34
823,291	-9,05
823,468	150,7
823,644	3,24
823,821	17,58
823,997	-9,05
824,174	-17,24
824,35	17,58
824,527	-9,05
824,703	25,77
824,879	7,34
825,056	27,82
825,232	68,78
825,408	-0,85
825,585	-15,19
825,761	40,11
825,937	40,11
826,113	132,26
826,29	40,11
826,466	-50
826,642	492,71
826,818	15,53
826,994	-37,72
827,17	-13,14
827,347	-25,43
827,523	-25,43
827,699	74,92
827,875	-47,96
828,051	74,92
828,227	40,11
828,403	11,43
828,579	173,22
828,755	126,12
828,931	-43,86
829,107	81,07
829,283	156,84
829,459	15,53
829,635	54,44
829,811	119,98
829,986	158,89
830,162	111,78
830,338	195,75
830,514	1,19
830,69	113,83
830,865	-17,24
831,041	142,5
831,217	17,58
831,393	-7
831,568	23,72
831,744	111,78
831,92	-70,48
832,095	31,91
832,271	50,35
832,447	68,78
832,622	191,66
832,798	113,83
832,973	9,39
833,149	91,31
833,325	48,3
833,5	40,11
833,676	-0,85
833,851	44,2
834,027	-33,62
834,202	-0,85
834,377	83,11
834,553	7,34
834,728	101,55
834,904	15,53
835,079	23,72
835,254	-4,95
835,43	44,2
835,605	-35,67
835,78	23,72
835,955	56,49
836,131	21,67
836,306	-25,43
836,481	-45,91
836,656	146,6
836,832	240,81
837,007	128,17
837,182	203,94
837,357	240,81
837,532	363,69
837,707	400,55
837,882	388,26
838,057	404,64
838,232	408,74
838,407	296,1
838,582	236,71
838,757	328,87
838,932	302,25
839,107	240,81
839,282	99,5
839,457	302,25
839,632	261,29
839,807	261,29
839,982	138,41
840,157	124,07
840,332	216,23
840,506	165,03
840,681	113,83
840,856	263,33
841,031	50,35
841,205	122,02
841,38	246,95
841,555	138,41
841,73	122,02
841,904	105,64
842,079	113,83
842,254	113,83
842,428	-21,33
842,603	-25,43
842,777	23,72
842,952	15,53
843,126	11,43
843,301	44,2
843,476	-9,05
843,65	148,65
843,825	107,69
843,999	29,87
844,173	-11,09
844,348	68,78
844,522	162,98
844,697	33,96
844,871	-9,05
845,045	122,02
845,22	19,63
845,394	97,45
845,568	-27,48
845,743	58,54
845,917	50,35
846,091	48,3
846,265	9,39
846,44	113,83
846,614	132,26
846,788	40,11
846,962	89,26
847,136	93,35
847,31	-0,85
847,485	154,79
847,659	9,39
847,833	17,58
848,007	72,87
848,181	19,63
848,355	44,2
848,529	134,31
848,703	156,84
848,877	42,15
849,051	179,37
849,225	203,94
849,399	203,94
849,573	23,72
849,746	99,5
849,92	201,9
850,094	132,26
850,268	130,22
850,442	175,27
850,616	99,5
850,789	83,11
850,963	91,31
851,137	89,26
851,311	220,33
851,484	273,57
851,658	97,45
851,832	42,15
852,005	15,53
852,179	105,64
852,352	33,96
852,526	42,15
852,7	81,07
852,873	-0,85
853,047	50,35
853,22	-27,48
853,394	76,97
853,567	97,45
853,741	-0,85
853,914	9,39
854,088	48,3
854,261	-25,43
854,434	-9,05
854,608	40,11
854,781	-50
854,955	-19,29
855,128	-21,33
855,301	-54,1
855,475	27,82
855,648	-66,39
855,821	23,72
855,994	72,87
856,168	27,82
856,341	81,07
856,514	-23,38
856,687	19,63
856,86	72,87
857,033	72,87
857,207	-0,85
857,38	-45,91
857,553	68,78
857,726	-9,05
857,899	111,78
858,072	-25,43
858,245	3,24
858,418	25,77
858,591	31,91
858,764	-0,85
858,937	122,02
859,11	156,84
859,283	191,66
859,455	79,02
859,628	3,24
859,801	105,64
859,974	158,89
860,147	25,77
860,32	99,5
860,492	68,78
860,665	-62,29
860,838	1,19
861,011	56,49
861,183	17,58
861,356	134,31
861,529	72,87
861,701	66,73
861,874	-39,76
862,047	89,26
862,219	62,63
862,392	52,39
862,564	-35,67
862,737	99,5
862,909	251,05
863,082	9,39
863,254	132,26
863,427	25,77
863,599	154,79
863,772	-13,14
863,944	144,55
864,117	44,2
864,289	89,26
864,461	42,15
864,634	38,06
864,806	36,01
864,978	220,33
865,151	115,88
865,323	214,18
865,495	152,74
865,667	162,98
865,84	345,25
866,012	85,16
866,184	236,71
866,356	50,35
866,528	134,31
866,7	76,97
866,873	64,68
867,045	58,54
867,217	83,11
867,389	56,49
867,561	193,7
867,733	158,89
867,905	68,78
868,077	117,93
868,249	97,45
868,421	220,33
868,593	124,07
868,765	236,71
868,936	48,3
869,108	160,94
869,28	132,26
869,452	81,07
869,624	-2,9
869,796	122,02
869,968	17,58
870,139	167,08
870,311	-13,14
870,483	138,41
870,654	-58,2
870,826	52,39
870,998	91,31
871,17	162,98
871,341	-25,43
871,513	36,01
871,684	-0,85
871,856	7,34
872,028	113,83
872,199	-2,9
872,371	-76,63
872,542	-58,2
872,714	-15,19
872,885	191,66
873,057	-23,38
873,228	44,2
873,4	15,53
873,571	130,22
873,742	17,58
873,914	31,91
874,085	64,68
874,256	31,91
874,428	-72,53
874,599	-82,77
874,77	117,93
874,942	-72,53
875,113	40,11
875,284	-0,85
875,455	-113,49
875,626	1,19
875,798	-58,2
875,969	-0,85
876,14	11,43
876,311	15,53
876,482	89,26
876,653	52,39
876,824	76,97
876,995	81,07
877,166	60,59
877,337	74,92
877,508	56,49
877,679	81,07
877,85	31,91
878,021	140,46
878,192	138,41
878,363	72,87
878,534	1,19
878,705	64,68
878,876	85,16
879,047	255,14
879,217	99,5
879,388	130,22
879,559	91,31
879,73	89,26
879,9	175,27
880,071	31,91
880,242	154,79
880,413	113,83
880,583	42,15
880,754	138,41
880,924	23,72
881,095	23,72
881,266	48,3
881,436	173,22
881,607	83,11
881,777	89,26
881,948	27,82
882,118	42,15
882,289	-0,85
882,459	25,77
882,63	66,73
882,8	97,45
882,971	56,49
883,141	-41,81
883,311	15,53
883,482	48,3
883,652	-74,58
883,822	-54,1
883,993	-50
884,163	23,72
884,333	56,49
884,504	48,3
884,674	19,63
884,844	23,72
885,014	15,53
885,184	-15,19
885,355	-25,43
885,525	-7
885,695	19,63
885,865	162,98
886,035	130,22
886,205	-7
886,375	103,59
886,545	134,31
886,715	-0,85
886,885	89,26
887,055	36,01
887,225	9,39
887,395	44,2
887,565	81,07
887,735	134,31
887,905	87,21
888,075	-9,05
888,244	105,64
888,414	23,72
888,584	107,69
888,754	113,83
888,924	48,3
889,093	167,08
889,263	48,3
889,433	-17,24
889,603	42,15
889,772	-25,43
889,942	68,78
890,111	-0,85
890,281	-7
890,451	17,58
890,62	66,73
890,79	7,34
890,959	-39,76
891,129	48,3
891,298	76,97
891,468	-29,52
891,637	38,06
891,807	60,59
891,976	1,19
892,146	9,39
892,315	9,39
892,485	48,3
892,654	-17,24
892,823	-58,2
892,993	-107,35
893,162	-9,05
893,331	15,53
893,501	-33,62
893,67	85,16
893,839	-39,76
894,008	-107,35
894,177	7,34
894,347	19,63
894,516	130,22
894,685	44,2
894,854	-9,05
895,023	40,11
895,192	31,91
