Data from neon_USB4F104161__13__11-46-32-865.txt Node

Date: Tue Apr 14 11:46:32 EDT 2026
User: LaboPhy
Spectrometer: USB4F10416
Trigger mode: 4
Integration Time (sec): 1,000000E-1
Scans to average: 1
Electric dark correction enabled: true
Nonlinearity correction enabled: false
Boxcar width: 0
XAxis mode: Wavelengths
Number of Pixels in Spectrum: 3648
>>>>>Begin Spectral Data<<<<<
177,847	-196,61
178,066	-196,61
178,284	-196,61
178,502	-190,46
178,72	-178,17
178,939	34,82
179,157	-8,19
179,375	-69,63
179,593	20,48
179,812	75,77
180,03	40,96
180,248	16,38
180,466	-4,1
180,685	-22,53
180,903	-55,3
181,121	-30,72
181,339	2,05
181,557	20,48
181,775	-40,96
181,994	-30,72
182,212	-24,58
182,43	4,1
182,648	-32,77
182,866	10,24
183,084	151,55
183,302	53,25
183,52	59,39
183,739	24,58
183,957	22,53
184,175	0
184,393	-28,67
184,611	43,01
184,829	-36,86
185,047	-65,54
185,265	32,77
185,483	4,1
185,701	0
185,919	65,53
186,137	88,06
186,355	51,2
186,573	122,88
186,791	67,58
187,009	-8,19
187,227	61,44
187,445	-6,14
187,663	-6,14
187,881	-49,15
188,098	106,49
188,316	24,58
188,534	38,91
188,752	18,43
188,97	-32,77
189,188	-34,82
189,406	106,49
189,624	65,53
189,841	12,29
190,059	-40,96
190,277	10,24
190,495	40,96
190,713	77,82
190,931	135,17
191,148	0
191,366	6,14
191,584	36,86
191,802	40,96
192,019	157,69
192,237	59,39
192,455	-55,3
192,673	172,03
192,89	-47,1
193,108	43,01
193,326	-38,91
193,543	100,35
193,761	0
193,979	-12,29
194,196	-47,1
194,414	10,24
194,632	40,96
194,849	14,34
195,067	-106,49
195,285	51,2
195,502	-67,58
195,72	57,34
195,937	16,38
196,155	57,34
196,373	88,06
196,59	100,35
196,808	-22,53
197,025	83,97
197,243	172,03
197,46	131,07
197,678	55,3
197,895	6,14
198,113	-14,34
198,33	-34,82
198,548	65,53
198,765	-49,15
198,983	116,73
199,2	-104,45
199,418	24,58
199,635	-71,68
199,853	16,38
200,07	-32,77
200,288	32,77
200,505	-45,06
200,722	176,13
200,94	10,24
201,157	43,01
201,375	88,06
201,592	73,73
201,809	40,96
202,027	38,91
202,244	36,86
202,461	65,53
202,679	49,15
202,896	57,34
203,113	-18,43
203,331	90,11
203,548	-49,15
203,765	40,96
203,982	106,49
204,2	-57,34
204,417	-16,38
204,634	221,18
204,851	98,3
205,069	147,45
205,286	94,21
205,503	73,73
205,72	-30,72
205,937	88,06
206,155	-18,43
206,372	86,01
206,589	-32,77
206,806	-8,19
207,023	47,1
207,24	67,58
207,458	-73,73
207,675	0
207,892	-69,63
208,109	-49,15
208,326	-14,34
208,543	0
208,76	-18,43
208,977	131,07
209,194	34,82
209,411	-49,15
209,628	12,29
209,845	10,24
210,062	59,39
210,279	-55,3
210,496	0
210,713	-24,58
210,93	-30,72
211,147	98,3
211,364	-38,91
211,581	10,24
211,798	67,58
212,015	4,1
212,232	-8,19
212,449	16,38
212,666	0
212,883	-38,91
213,1	65,53
213,317	-28,67
213,533	34,82
213,75	8,19
213,967	24,58
214,184	-47,1
214,401	71,68
214,618	-104,45
214,835	-114,69
215,051	61,44
215,268	-4,1
215,485	92,16
215,702	-24,58
215,919	-151,55
216,135	131,07
216,352	-12,29
216,569	20,48
216,786	-45,06
217,002	61,44
217,219	57,34
217,436	-28,67
217,652	-8,19
217,869	65,53
218,086	73,73
218,302	53,25
218,519	86,01
218,736	22,53
218,952	-106,49
219,169	67,58
219,386	-6,14
219,602	10,24
219,819	24,58
220,036	18,43
220,252	32,77
220,469	-57,34
220,685	26,62
220,902	22,53
221,118	53,25
221,335	49,15
221,552	65,53
221,768	122,88
221,985	77,82
222,201	10,24
222,418	-24,58
222,634	-16,38
222,851	71,68
223,067	61,44
223,284	8,19
223,5	86,01
223,716	36,86
223,933	28,67
224,149	-34,82
224,366	53,25
224,582	-32,77
224,799	10,24
225,015	-32,77
225,231	16,38
225,448	-88,06
225,664	12,29
225,88	-104,45
226,097	0
226,313	45,06
226,529	16,38
226,746	90,11
226,962	20,48
227,178	2,05
227,395	40,96
227,611	-8,19
227,827	-4,1
228,044	12,29
228,26	36,86
228,476	116,73
228,692	55,3
228,909	32,77
229,125	-12,29
229,341	-40,96
229,557	8,19
229,773	-55,3
229,99	77,82
230,206	-36,86
230,422	10,24
230,638	8,19
230,854	20,48
231,07	-90,11
231,286	98,3
231,503	57,34
231,719	-16,38
231,935	59,39
232,151	-16,38
232,367	118,78
232,583	65,53
232,799	18,43
233,015	75,77
233,231	69,63
233,447	83,97
233,663	-36,86
233,879	16,38
234,095	-30,72
234,311	75,77
234,527	12,29
234,743	51,2
234,959	12,29
235,175	32,77
235,391	-40,96
235,607	30,72
235,823	139,26
236,039	24,58
236,255	-24,58
236,471	8,19
236,687	63,49
236,903	69,63
237,118	40,96
237,334	-4,1
237,55	12,29
237,766	-22,53
237,982	53,25
238,198	49,15
238,413	49,15
238,629	40,96
238,845	51,2
239,061	-94,21
239,277	-8,19
239,492	8,19
239,708	-6,14
239,924	8,19
240,14	-28,67
240,355	147,45
240,571	-6,14
240,787	2,05
241,003	16,38
241,218	59,39
241,434	-20,48
241,65	32,77
241,865	2,05
242,081	57,34
242,297	-90,11
242,512	100,35
242,728	-8,19
242,944	40,96
243,159	69,63
243,375	-16,38
243,59	-32,77
243,806	8,19
244,022	40,96
244,237	16,38
244,453	16,38
244,668	57,34
244,884	139,26
245,099	18,43
245,315	106,49
245,53	-20,48
245,746	6,14
245,961	73,73
246,177	51,2
246,392	92,16
246,608	100,35
246,823	0
247,039	-40,96
247,254	-63,49
247,47	-8,19
247,685	16,38
247,9	-14,34
248,116	-40,96
248,331	67,58
248,547	73,73
248,762	-65,54
248,977	106,49
249,193	32,77
249,408	77,82
249,623	86,01
249,839	-8,19
250,054	49,15
250,269	49,15
250,485	45,06
250,7	4,1
250,915	57,34
251,13	53,25
251,346	24,58
251,561	131,07
251,776	75,77
251,991	-96,25
252,207	65,53
252,422	77,82
252,637	-20,48
252,852	-6,14
253,067	53,25
253,283	139,26
253,498	57,34
253,713	16,38
253,928	-94,21
254,143	43,01
254,358	51,2
254,573	-49,15
254,788	-26,62
255,004	90,11
255,219	-57,34
255,434	8,19
255,649	-63,49
255,864	61,44
256,079	-67,58
256,294	53,25
256,509	-18,43
256,724	92,16
256,939	-4,1
257,154	102,4
257,369	36,86
257,584	26,62
257,799	-16,38
258,014	36,86
258,229	49,15
258,444	8,19
258,659	59,39
258,874	34,82
259,089	102,4
259,304	-30,72
259,518	-65,54
259,733	-40,96
259,948	-14,34
260,163	51,2
260,378	-22,53
260,593	10,24
260,808	61,44
261,022	-36,86
261,237	10,24
261,452	34,82
261,667	-20,48
261,882	49,15
262,096	90,11
262,311	165,89
262,526	24,58
262,741	-2,05
262,955	-38,91
263,17	75,77
263,385	-20,48
263,6	-28,67
263,814	-77,82
264,029	-34,82
264,244	65,53
264,458	18,43
264,673	-12,29
264,888	65,53
265,102	-8,19
265,317	51,2
265,532	-24,58
265,746	61,44
265,961	77,82
266,175	69,63
266,39	-47,1
266,605	2,05
266,819	32,77
267,034	149,5
267,248	-40,96
267,463	24,58
267,677	57,34
267,892	-6,14
268,106	-63,49
268,321	-55,3
268,535	139,26
268,75	96,25
268,964	-38,91
269,179	81,92
269,393	8,19
269,608	57,34
269,822	-122,88
270,036	-14,34
270,251	-22,53
270,465	0
270,68	8,19
270,894	55,3
271,108	163,84
271,323	-32,77
271,537	65,53
271,752	98,3
271,966	-16,38
272,18	-135,17
272,394	-49,15
272,609	4,1
272,823	-24,58
273,037	-14,34
273,252	40,96
273,466	16,38
273,68	124,93
273,894	79,87
274,109	45,06
274,323	-55,3
274,537	18,43
274,751	47,1
274,966	51,2
275,18	-73,73
275,394	-79,87
275,608	-71,68
275,822	-47,1
276,036	18,43
276,25	26,62
276,465	-6,14
276,679	-4,1
276,893	-131,07
277,107	40,96
277,321	10,24
277,535	18,43
277,749	45,06
277,963	45,06
278,177	28,67
278,391	51,2
278,605	-24,58
278,819	118,78
279,033	-28,67
279,247	-30,72
279,461	-16,38
279,675	-6,14
279,889	-10,24
280,103	-8,19
280,317	86,01
280,531	-20,48
280,745	47,1
280,959	32,77
281,173	18,43
281,387	65,53
281,601	43,01
281,815	59,39
282,029	6,14
282,242	-40,96
282,456	-8,19
282,67	34,82
282,884	24,58
283,098	2,05
283,312	57,34
283,525	10,24
283,739	18,43
283,953	0
284,167	-4,1
284,381	-14,34
284,594	-18,43
284,808	-65,54
285,022	57,34
285,235	2,05
285,449	0
285,663	16,38
285,877	4,1
286,09	-38,91
286,304	24,58
286,518	-30,72
286,731	-61,44
286,945	34,82
287,159	-45,06
287,372	-8,19
287,586	49,15
287,799	43,01
288,013	-6,14
288,227	-24,58
288,44	215,04
288,654	96,25
288,867	45,06
289,081	61,44
289,294	32,77
289,508	67,58
289,721	65,53
289,935	32,77
290,148	86,01
290,362	34,82
290,575	69,63
290,789	-49,15
291,002	22,53
291,216	45,06
291,429	20,48
291,643	-12,29
291,856	6,14
292,069	-63,49
292,283	-71,68
292,496	-6,14
292,71	40,96
292,923	0
293,136	20,48
293,35	-12,29
293,563	4,1
293,776	73,73
293,99	2,05
294,203	18,43
294,416	-20,48
294,63	-47,1
294,843	-8,19
295,056	114,69
295,269	-24,58
295,483	-55,3
295,696	32,77
295,909	-30,72
296,122	73,73
296,335	24,58
296,549	43,01
296,762	34,82
296,975	-24,58
297,188	14,34
297,401	-32,77
297,615	65,53
297,828	-24,58
298,041	116,73
298,254	-12,29
298,467	-16,38
298,68	-73,73
298,893	16,38
299,106	49,15
299,319	32,77
299,532	71,68
299,745	16,38
299,958	-40,96
300,171	24,58
300,384	57,34
300,598	-73,73
300,81	86,01
301,023	26,62
301,236	-36,86
301,449	2,05
301,662	61,44
301,875	-53,25
302,088	-102,4
302,301	32,77
302,514	-16,38
302,727	81,92
302,94	-16,38
303,153	2,05
303,366	73,73
303,579	-61,44
303,791	114,69
304,004	6,14
304,217	59,39
304,43	61,44
304,643	65,53
304,855	-43,01
305,068	53,25
305,281	-4,1
305,494	40,96
305,707	-47,1
305,919	131,07
306,132	-12,29
306,345	-65,54
306,558	90,11
306,77	-22,53
306,983	16,38
307,196	40,96
307,408	-47,1
307,621	59,39
307,834	-14,34
308,046	51,2
308,259	-8,19
308,472	34,82
308,684	122,88
308,897	-40,96
309,109	-71,68
309,322	-18,43
309,535	40,96
309,747	131,07
309,96	53,25
310,172	49,15
310,385	159,74
310,597	-45,06
310,81	49,15
311,022	-71,68
311,235	-102,4
311,447	63,49
311,66	-32,77
311,872	124,93
312,085	20,48
312,297	2,05
312,51	-26,62
312,722	30,72
312,934	45,06
313,147	-28,67
313,359	12,29
313,572	8,19
313,784	-6,14
313,996	12,29
314,209	73,73
314,421	-75,77
314,633	-22,53
314,846	-53,25
315,058	49,15
315,27	24,58
315,483	-16,38
315,695	55,3
315,907	-32,77
316,119	4,1
316,332	-22,53
316,544	22,53
316,756	47,1
316,968	-75,77
317,181	114,69
317,393	-28,67
317,605	-24,58
317,817	-14,34
318,029	90,11
318,241	47,1
318,454	51,2
318,666	49,15
318,878	-98,3
319,09	-57,34
319,302	16,38
319,514	59,39
319,726	16,38
319,938	36,86
320,15	57,34
320,362	18,43
320,574	-69,63
320,786	-16,38
320,999	-24,58
321,211	43,01
321,423	38,91
321,635	-71,68
321,847	26,62
322,058	18,43
322,27	-53,25
322,482	53,25
322,694	-24,58
322,906	16,38
323,118	26,62
323,33	18,43
323,542	16,38
323,754	-14,34
323,966	-96,25
324,178	36,86
324,389	81,92
324,601	73,73
324,813	24,58
325,025	75,77
325,237	53,25
325,449	10,24
325,66	90,11
325,872	-12,29
326,084	12,29
326,296	12,29
326,507	16,38
326,719	51,2
326,931	-20,48
327,143	40,96
327,354	147,45
327,566	73,73
327,778	61,44
327,989	49,15
328,201	-49,15
328,413	73,73
328,624	51,2
328,836	8,19
329,048	-90,11
329,259	81,92
329,471	-40,96
329,682	32,77
329,894	-28,67
330,106	-65,54
330,317	43,01
330,529	20,48
330,74	36,86
330,952	8,19
331,163	67,58
331,375	65,53
331,586	2,05
331,798	-51,2
332,009	28,67
332,221	51,2
332,432	57,34
332,644	73,73
332,855	4,1
333,067	2,05
333,278	28,67
333,489	96,25
333,701	-71,68
333,912	16,38
334,124	0
334,335	-106,49
334,546	-32,77
334,758	-49,15
334,969	157,69
335,18	-4,1
335,392	26,62
335,603	20,48
335,814	49,15
336,025	-65,54
336,237	-16,38
336,448	-63,49
336,659	63,49
336,87	90,11
337,082	167,93
337,293	47,1
337,504	24,58
337,715	2,05
337,926	8,19
338,138	-12,29
338,349	8,19
338,56	57,34
338,771	49,15
338,982	-8,19
339,193	43,01
339,404	73,73
339,616	-22,53
339,827	81,92
340,038	-8,19
340,249	49,15
340,46	77,82
340,671	49,15
340,882	114,69
341,093	116,73
341,304	34,82
341,515	83,97
341,726	12,29
341,937	51,2
342,148	114,69
342,359	-51,2
342,57	49,15
342,781	100,35
342,992	83,97
343,203	49,15
343,414	118,78
343,624	22,53
343,835	-4,1
344,046	116,73
344,257	8,19
344,468	32,77
344,679	73,73
344,89	163,84
345,1	75,77
345,311	149,5
345,522	239,61
345,733	192,51
345,944	106,49
346,154	190,46
346,365	188,41
346,576	176,13
346,787	137,21
346,997	223,23
347,208	182,27
347,419	106,49
347,629	194,56
347,84	180,22
348,051	110,59
348,261	92,16
348,472	32,77
348,683	67,58
348,893	57,34
349,104	-14,34
349,315	2,05
349,525	8,19
349,736	98,3
349,946	2,05
350,157	200,7
350,368	221,18
350,578	92,16
350,789	126,97
350,999	122,88
351,21	223,23
351,42	167,93
351,631	237,56
351,841	231,42
352,052	352,25
352,262	368,63
352,472	225,28
352,683	305,15
352,893	262,14
353,104	106,49
353,314	153,6
353,525	454,65
353,735	73,73
353,945	75,77
354,156	-88,06
354,366	14,34
354,576	124,93
354,787	57,34
354,997	2,05
355,207	-86,01
355,418	90,11
355,628	-79,87
355,838	-8,19
356,048	-8,19
356,259	22,53
356,469	-24,58
356,679	43,01
356,889	98,3
357,1	0
357,31	-73,73
357,52	18,43
357,73	69,63
357,94	94,21
358,15	-6,14
358,361	69,63
358,571	73,73
358,781	137,21
358,991	49,15
359,201	116,73
359,411	49,15
359,621	184,32
359,831	229,37
360,041	106,49
360,251	157,69
360,461	135,17
360,672	32,77
360,882	67,58
361,092	20,48
361,302	75,77
361,512	118,78
361,721	45,06
361,931	120,83
362,141	6,14
362,351	28,67
362,561	24,58
362,771	-22,53
362,981	65,53
363,191	-6,14
363,401	120,83
363,611	65,53
363,821	-8,19
364,03	-47,1
364,24	98,3
364,45	57,34
364,66	217,08
364,87	-20,48
365,08	55,3
365,289	24,58
365,499	-16,38
365,709	57,34
365,919	57,34
366,128	34,82
366,338	106,49
366,548	32,77
366,758	24,58
366,967	43,01
367,177	57,34
367,387	32,77
367,596	-40,96
367,806	53,25
368,016	43,01
368,225	-20,48
368,435	81,92
368,644	14,34
368,854	8,19
369,064	47,1
369,273	63,49
369,483	28,67
369,692	16,38
369,902	2,05
370,111	32,77
370,321	2,05
370,53	-40,96
370,74	-43,01
370,949	53,25
371,159	116,73
371,368	-4,1
371,578	149,5
371,787	51,2
371,997	14,34
372,206	65,53
372,416	12,29
372,625	49,15
372,834	-40,96
373,044	8,19
373,253	108,54
373,462	100,35
373,672	2,05
373,881	65,53
374,09	-36,86
374,3	-38,91
374,509	-51,2
374,718	-49,15
374,928	45,06
375,137	47,1
375,346	0
375,555	182,27
375,765	-24,58
375,974	59,39
376,183	24,58
376,392	-8,19
376,601	49,15
376,811	83,97
377,02	106,49
377,229	24,58
377,438	118,78
377,647	6,14
377,856	-71,68
378,065	-32,77
378,275	-61,44
378,484	-32,77
378,693	10,24
378,902	0
379,111	49,15
379,32	-20,48
379,529	-22,53
379,738	-59,39
379,947	24,58
380,156	38,91
380,365	-49,15
380,574	129,02
380,783	-81,92
380,992	-12,29
381,201	-6,14
381,41	-40,96
381,619	32,77
381,828	-36,86
382,037	14,34
382,245	118,78
382,454	75,77
382,663	-20,48
382,872	-73,73
383,081	-32,77
383,29	51,2
383,499	0
383,707	43,01
383,916	69,63
384,125	110,59
384,334	-32,77
384,542	126,97
384,751	92,16
384,96	8,19
385,169	-8,19
385,377	45,06
385,586	-32,77
385,795	22,53
386,004	57,34
386,212	-65,54
386,421	-18,43
386,63	0
386,838	57,34
387,047	-16,38
387,255	-6,14
387,464	28,67
387,673	-16,38
387,881	51,2
388,09	122,88
388,298	122,88
388,507	32,77
388,715	4,1
388,924	34,82
389,133	-18,43
389,341	-16,38
389,55	92,16
389,758	-24,58
389,967	2,05
390,175	61,44
390,383	106,49
390,592	77,82
390,8	-65,54
391,009	18,43
391,217	16,38
391,426	116,73
391,634	-14,34
391,842	-40,96
392,051	4,1
392,259	110,59
392,467	14,34
392,676	-63,49
392,884	18,43
393,092	20,48
393,301	18,43
393,509	32,77
393,717	114,69
393,925	-53,25
394,134	-4,1
394,342	104,45
394,55	100,35
394,758	106,49
394,967	-102,4
395,175	-47,1
395,383	-6,14
395,591	24,58
395,799	16,38
396,007	-28,67
396,216	131,07
396,424	16,38
396,632	-8,19
396,84	-45,06
397,048	40,96
397,256	-32,77
397,464	-98,3
397,672	71,68
397,88	-40,96
398,088	24,58
398,296	-12,29
398,504	4,1
398,712	16,38
398,92	73,73
399,128	32,77
399,336	32,77
399,544	-69,63
399,752	-8,19
399,96	16,38
400,168	-16,38
400,376	-16,38
400,584	-4,1
400,792	-53,25
401	20,48
401,207	18,43
401,415	92,16
401,623	16,38
401,831	8,19
402,039	8,19
402,247	34,82
402,454	79,87
402,662	40,96
402,87	24,58
403,078	118,78
403,285	92,16
403,493	2,05
403,701	86,01
403,909	-16,38
404,116	83,97
404,324	-32,77
404,532	81,92
404,739	-63,49
404,947	-16,38
405,155	0
405,362	40,96
405,57	81,92
405,778	2,05
405,985	61,44
406,193	-20,48
406,4	-32,77
406,608	45,06
406,816	38,91
407,023	-45,06
407,231	-16,38
407,438	-47,1
407,646	86,01
407,853	-32,77
408,061	-67,58
408,268	43,01
408,476	-24,58
408,683	102,4
408,89	57,34
409,098	16,38
409,305	-10,24
409,513	106,49
409,72	49,15
409,927	-32,77
410,135	67,58
410,342	4,1
410,55	73,73
410,757	-22,53
410,964	-8,19
411,172	36,86
411,379	-24,58
411,586	24,58
411,793	16,38
412,001	8,19
412,208	-45,06
412,415	100,35
412,622	12,29
412,83	-26,62
413,037	81,92
413,244	-47,1
413,451	0
413,658	147,45
413,866	81,92
414,073	40,96
414,28	83,97
414,487	-49,15
414,694	24,58
414,901	36,86
415,108	49,15
415,315	-20,48
415,522	75,77
415,73	-49,15
415,937	-22,53
416,144	-63,49
416,351	0
416,558	-36,86
416,765	24,58
416,972	-24,58
417,179	-32,77
417,386	108,54
417,593	69,63
417,8	-55,3
418,006	28,67
418,213	24,58
418,42	34,82
418,627	73,73
418,834	-14,34
419,041	36,86
419,248	40,96
419,455	67,58
419,661	73,73
419,868	-16,38
420,075	-63,49
420,282	-69,63
420,489	-16,38
420,696	-12,29
420,902	-38,91
421,109	106,49
421,316	-36,86
421,523	4,1
421,729	43,01
421,936	-32,77
422,143	83,97
422,349	40,96
422,556	-16,38
422,763	61,44
422,969	-98,3
423,176	24,58
423,383	2,05
423,589	294,91
423,796	53,25
424,002	-24,58
424,209	38,91
424,416	98,3
424,622	-129,02
424,829	-45,06
425,035	-88,06
425,242	16,38
425,448	8,19
425,655	24,58
425,861	106,49
426,068	4,1
426,274	108,54
426,481	94,21
426,687	98,3
426,894	24,58
427,1	49,15
427,306	16,38
427,513	34,82
427,719	20,48
427,926	28,67
428,132	26,62
428,338	16,38
428,545	92,16
428,751	0
428,957	69,63
429,163	4,1
429,37	100,35
429,576	65,53
429,782	83,97
429,989	-26,62
430,195	61,44
430,401	43,01
430,607	-30,72
430,813	-8,19
431,02	53,25
431,226	16,38
431,432	2,05
431,638	-4,1
431,844	-77,82
432,05	-110,59
432,257	-14,34
432,463	-12,29
432,669	34,82
432,875	-8,19
433,081	-73,73
433,287	32,77
433,493	-49,15
433,699	36,86
433,905	24,58
434,111	-49,15
434,317	24,58
434,523	65,53
434,729	114,69
434,935	-71,68
435,141	83,97
435,347	24,58
435,553	51,2
435,759	-8,19
435,965	-36,86
436,171	34,82
436,377	122,88
436,582	100,35
436,788	-8,19
436,994	92,16
437,2	-24,58
437,406	32,77
437,612	32,77
437,818	65,53
438,023	-71,68
438,229	165,89
438,435	24,58
438,641	-10,24
438,846	-6,14
439,052	75,77
439,258	26,62
439,464	43,01
439,669	26,62
439,875	92,16
440,081	-34,82
440,286	-71,68
440,492	40,96
440,698	2,05
440,903	-38,91
441,109	69,63
441,314	-106,49
441,52	12,29
441,726	40,96
441,931	-28,67
442,137	83,97
442,342	2,05
442,548	43,01
442,753	120,83
442,959	-98,3
443,164	0
443,37	40,96
443,575	43,01
443,781	-16,38
443,986	147,45
444,192	-8,19
444,397	4,1
444,602	-32,77
444,808	-65,54
445,013	-24,58
445,219	-40,96
445,424	147,45
445,629	65,53
445,835	57,34
446,04	18,43
446,245	-40,96
446,451	-102,4
446,656	-81,92
446,861	-32,77
447,066	53,25
447,272	69,63
447,477	-14,34
447,682	-24,58
447,887	-14,34
448,093	8,19
448,298	147,45
448,503	40,96
448,708	26,62
448,913	-73,73
449,118	53,25
449,324	24,58
449,529	2,05
449,734	-22,53
449,939	-32,77
450,144	53,25
450,349	75,77
450,554	-24,58
450,759	49,15
450,964	34,82
451,169	20,48
451,374	-43,01
451,579	8,19
451,784	55,3
451,989	-16,38
452,194	34,82
452,399	-6,14
452,604	6,14
452,809	-63,49
453,014	67,58
453,219	45,06
453,424	108,54
453,629	10,24
453,833	-57,34
454,038	81,92
454,243	69,63
454,448	106,49
454,653	159,74
454,858	28,67
455,062	2,05
455,267	0
455,472	98,3
455,677	0
455,882	-96,25
456,086	124,93
456,291	88,06
456,496	0
456,7	65,53
456,905	10,24
457,11	65,53
457,314	-40,96
457,519	-8,19
457,724	-24,58
457,928	65,53
458,133	6,14
458,338	32,77
458,542	24,58
458,747	-16,38
458,951	32,77
459,156	8,19
459,36	-71,68
459,565	59,39
459,769	24,58
459,974	65,53
460,178	10,24
460,383	-57,34
460,587	-53,25
460,792	14,34
460,996	-26,62
461,201	-20,48
461,405	-38,91
461,61	-14,34
461,814	30,72
462,018	-22,53
462,223	-28,67
462,427	6,14
462,631	73,73
462,836	10,24
463,04	-6,14
463,244	51,2
463,449	4,1
463,653	81,92
463,857	10,24
464,062	92,16
464,266	0
464,47	45,06
464,674	32,77
464,878	53,25
465,083	24,58
465,287	75,77
465,491	45,06
465,695	4,1
465,899	-22,53
466,104	90,11
466,308	24,58
466,512	81,92
466,716	20,48
466,92	98,3
467,124	4,1
467,328	-24,58
467,532	49,15
467,736	-45,06
467,94	26,62
468,144	16,38
468,348	94,21
468,552	165,89
468,756	81,92
468,96	147,45
469,164	-20,48
469,368	67,58
469,572	51,2
469,776	124,93
469,98	67,58
470,184	34,82
470,388	94,21
470,591	131,07
470,795	182,27
470,999	126,97
471,203	122,88
471,407	98,3
471,611	88,06
471,814	34,82
472,018	0
472,222	122,88
472,426	155,65
472,63	24,58
472,833	73,73
473,037	51,2
473,241	18,43
473,444	81,92
473,648	485,37
473,852	10,24
474,055	24,58
474,259	30,72
474,463	90,11
474,666	4,1
474,87	49,15
475,074	45,06
475,277	18,43
475,481	88,06
475,684	51,2
475,888	122,88
476,091	77,82
476,295	28,67
476,498	-49,15
476,702	16,38
476,905	204,8
477,109	133,12
477,312	-20,48
477,516	-106,49
477,719	102,4
477,923	-65,54
478,126	30,72
478,329	-22,53
478,533	8,19
478,736	135,17
478,94	-47,1
479,143	81,92
479,346	-49,15
479,55	124,93
479,753	26,62
479,956	36,86
480,159	18,43
480,363	49,15
480,566	40,96
480,769	34,82
480,972	-22,53
481,176	-14,34
481,379	149,5
481,582	98,3
481,785	2,05
481,988	86,01
482,192	141,31
482,395	2,05
482,598	-14,34
482,801	51,2
483,004	147,45
483,207	-4,1
483,41	100,35
483,613	10,24
483,817	106,49
484,02	-112,64
484,223	-36,86
484,426	18,43
484,629	12,29
484,832	131,07
485,035	18,43
485,238	92,16
485,441	77,82
485,644	20,48
485,846	34,82
486,049	-24,58
486,252	18,43
486,455	20,48
486,658	-12,29
486,861	167,93
487,064	73,73
487,267	-12,29
487,47	83,97
487,672	73,73
487,875	24,58
488,078	65,53
488,281	114,69
488,484	20,48
488,686	24,58
488,889	-4,1
489,092	-16,38
489,295	57,34
489,497	133,12
489,7	28,67
489,903	32,77
490,105	8,19
490,308	-30,72
490,511	28,67
490,713	16,38
490,916	10,24
491,118	8,19
491,321	-47,1
491,524	-32,77
491,726	16,38
491,929	0
492,131	-4,1
492,334	-16,38
492,536	10,24
492,739	24,58
492,941	73,73
493,144	67,58
493,346	69,63
493,549	49,15
493,751	65,53
493,954	-4,1
494,156	26,62
494,359	-51,2
494,561	-12,29
494,763	26,62
494,966	57,34
495,168	116,73
495,37	-49,15
495,573	-16,38
495,775	12,29
495,977	106,49
496,18	114,69
496,382	94,21
496,584	8,19
496,787	215,04
496,989	75,77
497,191	-12,29
497,393	71,68
497,595	-57,34
497,798	47,1
498	30,72
498,202	43,01
498,404	49,15
498,606	-8,19
498,808	108,54
499,011	45,06
499,213	40,96
499,415	32,77
499,617	53,25
499,819	77,82
500,021	114,69
500,223	73,73
500,425	114,69
500,627	16,38
500,829	-28,67
501,031	75,77
501,233	-16,38
501,435	45,06
501,637	73,73
501,839	122,88
502,041	-26,62
502,243	114,69
502,445	10,24
502,647	73,73
502,848	-22,53
503,05	83,97
503,252	172,03
503,454	155,65
503,656	167,93
503,858	200,7
504,059	151,55
504,261	174,08
504,463	344,06
504,665	188,41
504,867	106,49
505,068	180,22
505,27	163,84
505,472	135,17
505,673	26,62
505,875	-8,19
506,077	12,29
506,278	-20,48
506,48	45,06
506,682	65,53
506,883	81,92
507,085	57,34
507,287	49,15
507,488	126,97
507,69	182,27
507,891	69,63
508,093	294,91
508,294	108,54
508,496	147,45
508,697	36,86
508,899	167,93
509,1	102,4
509,302	155,65
509,503	32,77
509,705	47,1
509,906	98,3
510,108	90,11
510,309	59,39
510,51	75,77
510,712	-4,1
510,913	-28,67
511,114	24,58
511,316	32,77
511,517	241,66
511,718	212,99
511,92	129,02
512,121	182,27
512,322	200,7
512,524	323,58
512,725	204,8
512,926	196,61
513,127	133,12
513,329	131,07
513,53	8,19
513,731	131,07
513,932	188,41
514,133	122,88
514,334	30,72
514,536	147,45
514,737	176,13
514,938	155,65
515,139	147,45
515,34	206,84
515,541	247,8
515,742	86,01
515,943	235,52
516,144	131,07
516,345	165,89
516,546	90,11
516,747	102,4
516,948	81,92
517,149	40,96
517,35	53,25
517,551	12,29
517,752	59,39
517,953	16,38
518,154	-12,29
518,355	108,54
518,556	12,29
518,756	110,59
518,957	153,6
519,158	249,85
519,359	155,65
519,56	135,17
519,761	200,7
519,961	215,04
520,162	212,99
520,363	139,26
520,564	59,39
520,764	311,29
520,965	165,89
521,166	215,04
521,366	196,61
521,567	198,65
521,768	145,41
521,968	73,73
522,169	124,93
522,37	98,3
522,57	57,34
522,771	77,82
522,972	-12,29
523,172	200,7
523,373	92,16
523,573	92,16
523,774	18,43
523,974	47,1
524,175	49,15
524,375	61,44
524,576	-38,91
524,776	-8,19
524,977	26,62
525,177	73,73
525,378	-61,44
525,578	110,59
525,778	20,48
525,979	2,05
526,179	26,62
526,38	-8,19
526,58	-10,24
526,78	16,38
526,981	135,17
527,181	8,19
527,381	40,96
527,582	83,97
527,782	73,73
527,982	61,44
528,182	49,15
528,383	4,1
528,583	86,01
528,783	135,17
528,983	81,92
529,183	0
529,384	49,15
529,584	172,03
529,784	196,61
529,984	51,2
530,184	100,35
530,384	75,77
530,584	34,82
530,784	122,88
530,984	-4,1
531,185	124,93
531,385	86,01
531,585	147,45
531,785	167,93
531,985	94,21
532,185	0
532,385	155,65
532,585	251,9
532,785	319,48
532,984	290,81
533,184	483,32
533,384	495,61
533,584	425,98
533,784	626,68
533,984	563,19
534,184	532,47
534,384	651,25
534,583	655,35
534,783	573,43
534,983	577,53
535,183	327,67
535,383	327,67
535,582	329,72
535,782	270,33
535,982	282,62
536,182	206,84
536,381	208,89
536,581	98,3
536,781	102,4
536,98	81,92
537,18	108,54
537,38	112,64
537,579	57,34
537,779	94,21
537,979	36,86
538,178	24,58
538,378	81,92
538,577	49,15
538,777	34,82
538,976	114,69
539,176	206,84
539,376	188,41
539,575	196,61
539,774	331,77
539,974	335,87
540,173	538,62
540,373	509,94
540,572	589,81
540,772	600,05
540,971	530,42
541,171	425,98
541,37	385,02
541,569	344,06
541,769	266,24
541,968	229,37
542,167	147,45
542,367	51,2
542,566	98,3
542,765	45,06
542,965	32,77
543,164	131,07
543,363	-12,29
543,562	-32,77
543,761	98,3
543,961	122,88
544,16	2,05
544,359	90,11
544,558	143,36
544,757	-22,53
544,957	114,69
545,156	129,02
545,355	90,11
545,554	51,2
545,753	-28,67
545,952	53,25
546,151	40,96
546,35	98,3
546,549	49,15
546,748	10,24
546,947	-71,68
547,146	-4,1
547,345	36,86
547,544	-65,54
547,743	-65,54
547,942	-10,24
548,141	88,06
548,34	40,96
548,539	98,3
548,738	-65,54
548,937	133,12
549,135	51,2
549,334	32,77
549,533	73,73
549,732	75,77
549,931	26,62
550,13	-8,19
550,328	69,63
550,527	65,53
550,726	2,05
550,925	0
551,123	2,05
551,322	-8,19
551,521	81,92
551,72	36,86
551,918	20,48
552,117	116,73
552,315	77,82
552,514	-55,3
552,713	-61,44
552,911	-20,48
553,11	-63,49
553,309	51,2
553,507	-6,14
553,706	0
553,904	69,63
554,103	65,53
554,301	163,84
554,5	77,82
554,698	49,15
554,897	59,39
555,095	-6,14
555,294	16,38
555,492	40,96
555,69	77,82
555,889	43,01
556,087	139,26
556,286	239,61
556,484	90,11
556,682	120,83
556,881	112,64
557,079	86,01
557,277	159,74
557,476	120,83
557,674	94,21
557,872	69,63
558,07	34,82
558,269	59,39
558,467	106,49
558,665	-30,72
558,863	40,96
559,062	2,05
559,26	2,05
559,458	-20,48
559,656	18,43
559,854	75,77
560,052	36,86
560,25	28,67
560,449	286,72
560,647	-32,77
560,845	10,24
561,043	90,11
561,241	182,27
561,439	75,77
561,637	32,77
561,835	43,01
562,033	77,82
562,231	-8,19
562,429	-24,58
562,627	43,01
562,825	8,19
563,023	65,53
563,221	4,1
563,418	-22,53
563,616	43,01
563,814	172,03
564,012	-10,24
564,21	112,64
564,408	114,69
564,605	-55,3
564,803	86,01
565,001	239,61
565,199	40,96
565,397	114,69
565,594	188,41
565,792	258,04
565,99	194,56
566,188	292,86
566,385	204,8
566,583	184,32
566,781	245,76
566,978	163,84
567,176	172,03
567,373	124,93
567,571	131,07
567,769	165,89
567,966	-38,91
568,164	102,4
568,361	110,59
568,559	49,15
568,756	131,07
568,954	106,49
569,151	139,26
569,349	155,65
569,546	149,5
569,744	71,68
569,941	122,88
570,139	165,89
570,336	106,49
570,534	75,77
570,731	51,2
570,928	57,34
571,126	188,41
571,323	106,49
571,52	16,38
571,718	106,49
571,915	137,21
572,112	-2,05
572,31	94,21
572,507	217,08
572,704	73,73
572,901	106,49
573,099	32,77
573,296	208,89
573,493	0
573,69	75,77
573,887	32,77
574,085	182,27
574,282	133,12
574,479	131,07
574,676	212,99
574,873	296,96
575,07	233,47
575,267	258,04
575,464	360,44
575,661	575,48
575,858	516,09
576,055	630,77
576,252	673,78
576,449	778,23
576,646	897,01
576,843	942,07
577,04	1052,66
577,237	1001,46
577,434	851,95
577,631	765,94
577,828	667,64
578,025	544,76
578,222	438,27
578,419	419,83
578,615	192,51
578,812	155,65
579,009	83,97
579,206	88,06
579,403	167,93
579,599	245,76
579,796	120,83
579,993	229,37
580,19	83,97
580,386	188,41
580,583	296,96
580,78	280,57
580,976	335,87
581,173	366,59
581,37	460,79
581,566	419,83
581,763	466,94
581,96	528,38
582,156	614,39
582,353	694,26
582,549	665,59
582,746	698,36
582,942	591,86
583,139	696,31
583,335	622,58
583,532	974,83
583,728	1654,76
583,925	2861,01
584,121	4108,23
584,318	6322,08
584,514	8804,22
584,711	11904,84
584,907	15376,15
585,103	19787,47
585,3	23404,19
585,496	26383,98
585,693	29193,79
585,889	29650,49
586,085	28487,25
586,281	25904,76
586,478	22163,12
586,674	18956
586,87	16662,27
587,067	14012,2
587,263	11220,82
587,459	8494,97
587,655	6526,88
587,851	5500,84
588,048	5205,94
588,244	5318,57
588,44	5531,56
588,636	5775,27
588,832	5877,67
589,028	5709,74
589,224	4841,4
589,42	4382,65
589,617	3882,95
589,813	3375,05
590,009	2938,84
590,205	2410,46
590,401	1949,67
590,597	1437,67
590,793	1243,12
590,989	1073,14
591,185	978,93
591,38	827,38
591,576	722,93
591,772	684,02
591,968	700,41
592,164	630,77
592,36	538,62
592,556	456,7
592,752	565,24
592,948	649,21
593,143	905,2
593,339	1347,56
593,535	2097,12
593,731	2883,54
593,926	3973,06
594,122	4894,65
594,318	6031,27
594,514	7536,52
594,709	8757,11
594,905	9101,17
595,101	9750,38
595,296	9342,83
595,492	8540,03
595,688	7317,39
595,883	6457,25
596,079	5722,02
596,275	4800,44
596,47	4081,6
596,666	3246,03
596,861	2531,29
597,057	2285,53
597,252	2136,03
597,448	2334,68
597,643	2465,75
597,839	2787,29
598,034	2711,51
598,23	2547,67
598,425	2506,71
598,621	2336,73
598,816	1982,43
599,011	1753,06
599,207	1572,84
599,402	1239,02
599,597	1110
599,793	819,19
599,988	550,9
600,183	446,46
600,379	339,96
600,574	305,15
600,769	362,49
600,965	100,35
601,16	264,19
601,355	147,45
601,55	237,56
601,745	376,83
601,941	546,81
602,136	733,17
602,331	872,43
602,526	1153,01
602,721	1583,08
602,916	1912,8
603,111	2209,76
603,307	2394,08
603,502	2592,73
603,697	2654,17
603,892	2490,33
604,087	2336,73
604,282	2080,74
604,477	1806,31
604,672	1466,35
604,867	1220,59
605,062	1009,65
605,257	731,12
605,452	659,45
605,646	497,66
605,841	503,8
606,036	878,58
606,231	1167,34
606,426	1574,89
606,621	2451,42
606,816	3223,5
607,01	4366,27
607,205	5447,6
607,4	6479,77
607,595	7767,95
607,79	8683,39
607,984	9013,11
608,179	9396,08
608,374	9365,36
608,569	9301,87
608,763	9138,04
608,958	9494,38
609,153	10370,91
609,347	11173,72
609,542	11751,24
609,736	12443,46
609,931	12773,18
610,126	12988,22
610,32	13156,15
610,515	12099,4
610,709	11319,12
610,904	9641,84
611,098	8333,18
611,293	7012,24
611,487	5861,29
611,682	4759,48
611,876	3403,72
612,071	2152,42
612,265	1560,55
612,46	1220,59
612,654	1400,81
612,848	1773,54
613,043	2641,88
613,237	3719,11
613,432	5212,08
613,626	7063,44
613,82	9488,24
614,014	11978,57
614,209	14761,76
614,403	16981,76
614,597	19427,03
614,792	20104,91
614,986	20893,38
615,18	20299,47
615,374	18712,29
615,568	16844,54
615,763	15404,82
615,957	13936,43
616,151	12728,13
616,345	11849,55
616,539	10348,39
616,733	9045,88
616,927	7860,1
617,121	6789,02
617,316	6305,7
617,51	5244,85
617,704	4399,04
617,898	4050,88
618,092	3497,93
618,286	2926,55
618,48	2285,53
618,674	1785,83
618,868	1368,04
619,061	868,34
619,255	772,08
619,449	606,2
619,643	399,35
619,837	481,27
620,031	370,68
620,225	591,86
620,419	608,25
620,612	884,72
620,806	1236,97
621	1490,92
621,194	1994,72
621,388	2506,71
621,581	3123,15
621,775	3532,75
621,969	3870,66
622,162	4202,43
622,356	4450,24
622,55	4165,57
622,743	4054,98
622,937	3563,47
623,131	2957,27
623,324	2779,09
623,518	2140,13
623,712	1830,88
623,905	1343,47
624,099	1087,47
624,292	655,35
624,486	528,38
624,679	368,63
624,873	337,91
625,066	524,28
625,26	845,81
625,453	1173,49
625,647	1822,69
625,84	2654,17
626,034	3745,73
626,227	4575,16
626,42	5896,1
626,614	7036,82
626,807	8320,9
627	9099,13
627,194	9127,8
627,387	9439,09
627,58	8851,32
627,774	8079,24
627,967	7227,28
628,16	6094,75
628,353	5445,55
628,547	4558,78
628,74	3745,73
628,933	2938,84
629,126	2236,38
629,319	1826,79
629,513	1705,96
629,706	1798,12
629,899	2293,72
630,092	2682,84
630,285	3178,45
630,478	3678,15
630,671	4278,21
630,864	4624,31
631,057	4620,22
631,25	4644,79
631,443	4276,16
631,636	4079,55
631,829	3778,5
632,022	3991,49
632,215	4378,56
632,408	4790,2
632,601	5466,03
632,794	6782,87
632,987	8181,64
633,18	9561,97
633,373	11388,75
633,566	12881,72
633,758	13934,38
633,951	15122,2
634,144	14685,98
634,337	14255,91
634,53	12879,68
634,722	11466,58
634,915	9754,48
635,108	8722,3
635,301	7683,98
635,493	6410,14
635,686	4857,78
635,879	3399,63
636,071	2084,83
636,264	1492,97
636,457	1007,6
636,649	831,48
636,842	1153,01
637,034	1662,95
637,227	2318,3
637,42	3186,64
637,612	4374,46
637,805	5619,63
637,997	7573,39
638,19	8791,93
638,382	10479,46
638,575	12293,96
638,767	14829,34
638,96	17340,15
639,152	19660,5
639,344	23072,42
639,537	26996,32
639,729	31137,32
639,922	36761,04
640,114	43138,41
640,306	47738,15
640,499	50908,41
640,691	52442,34
640,883	52395,23
641,075	50242,82
641,268	45528,39
641,46	40187,29
641,652	34407,92
641,844	29849,14
642,037	26529,39
642,229	21675,7
642,421	17295,1
642,613	12238,66
642,805	7671,69
642,998	4941,75
643,19	3096,53
643,382	2060,26
643,574	1474,54
643,766	980,98
643,958	811
644,15	673,78
644,342	610,29
644,534	573,43
644,726	425,98
644,918	319,48
645,11	362,49
645,302	274,43
645,494	282,62
645,686	245,76
645,878	194,56
646,07	229,37
646,262	305,15
646,453	184,32
646,645	202,75
646,837	210,94
647,029	165,89
647,221	190,46
647,413	51,2
647,604	131,07
647,796	98,3
647,988	192,51
648,18	116,73
648,371	172,03
648,563	180,22
648,755	192,51
648,947	212,99
649,138	663,54
649,33	1402,86
649,521	2539,48
649,713	3805,13
649,905	5580,71
650,096	7767,95
650,288	9758,57
650,479	12306,24
650,671	14731,04
650,863	16871,17
651,054	17936,11
651,246	18433,77
651,437	17977,07
651,629	17137,4
651,82	15605,52
652,011	13936,43
652,203	12445,51
652,394	11542,35
652,586	10598,24
652,777	9406,32
652,968	8087,43
653,16	6766,49
653,351	6188,96
653,542	5844,9
653,734	5375,92
653,925	5103,54
654,116	4825,01
654,308	4317,12
654,499	3817,41
654,69	3219,41
654,881	2811,86
655,073	2682,84
655,264	2392,03
655,455	1880,04
655,646	1441,77
655,837	1052,66
656,028	763,89
656,219	477,18
656,411	368,63
656,602	182,27
656,793	200,7
656,984	258,04
657,175	155,65
657,366	131,07
657,557	180,22
657,748	98,3
657,939	165,89
658,13	155,65
658,321	196,61
658,512	505,85
658,703	833,52
658,894	1310,7
659,084	1757,16
659,275	2338,78
659,466	3354,57
659,657	4159,42
659,848	4812,73
660,039	5654,44
660,23	6193,06
660,42	6258,59
660,611	6293,41
660,802	6131,62
660,993	5662,63
661,183	5070,77
661,374	4173,76
661,565	3944,39
661,755	3538,89
661,946	2891,73
662,137	2381,79
662,327	1695,72
662,518	1105,9
662,709	698,36
662,899	458,74
663,09	288,76
663,28	239,61
663,471	90,11
663,662	323,58
663,852	143,36
664,043	114,69
664,233	196,61
664,424	131,07
664,614	159,74
664,804	147,45
664,995	217,08
665,185	114,69
665,376	135,17
665,566	202,75
665,756	75,77
665,947	104,45
666,137	131,07
666,328	518,14
666,518	905,2
666,708	1574,89
666,898	2484,19
667,089	3448,78
667,279	4794,29
667,469	6242,21
667,659	7737,23
667,85	9060,21
668,04	10194,79
668,23	10862,43
668,42	11394,9
668,61	10796,89
668,8	10317,67
668,991	9482,1
669,181	8372,1
669,371	7260,05
669,561	6537,12
669,751	5590,95
669,941	4890,55
670,131	3874,76
670,321	3067,86
670,511	2498,52
670,701	2400,22
670,891	2510,81
671,081	2820,05
671,271	3581,9
671,461	4415,42
671,651	5089,2
671,841	5973,92
672,03	6469,53
672,22	6772,63
672,41	6774,68
672,6	6414,24
672,79	5644,2
672,98	5414,83
673,169	4655,03
673,359	4114,37
673,549	3792,84
673,739	3059,67
673,928	2559,96
674,118	1998,82
674,308	1361,9
674,497	917,49
674,687	559,1
674,877	376,83
675,066	258,04
675,256	208,89
675,446	204,8
675,635	106,49
675,825	106,49
676,014	90,11
676,204	120,83
676,393	79,87
676,583	43,01
676,772	90,11
676,962	108,54
677,151	92,16
677,341	-22,53
677,53	75,77
677,72	77,82
677,909	73,73
678,099	-8,19
678,288	59,39
678,477	86,01
678,667	90,11
678,856	90,11
679,045	100,35
679,235	90,11
679,424	83,97
679,613	135,17
679,802	126,97
679,992	10,24
680,181	-10,24
680,37	67,58
680,559	59,39
680,748	165,89
680,938	98,3
681,127	34,82
681,316	139,26
681,505	59,39
681,694	53,25
681,883	77,82
682,072	-6,14
682,261	2,05
682,45	-16,38
682,639	-8,19
682,828	14,34
683,017	114,69
683,206	73,73
683,395	-14,34
683,584	59,39
683,773	69,63
683,962	8,19
684,151	36,86
684,34	65,53
684,529	51,2
684,718	83,97
684,907	4,1
685,095	63,49
685,284	92,16
685,473	141,31
685,662	-22,53
685,851	122,88
686,039	28,67
686,228	65,53
686,417	16,38
686,606	176,13
686,794	51,2
686,983	-8,19
687,172	36,86
687,36	-24,58
687,549	2,05
687,738	18,43
687,926	32,77
688,115	-36,86
688,303	38,91
688,492	32,77
688,68	-36,86
688,869	-6,14
689,057	-49,15
689,246	-30,72
689,434	40,96
689,623	51,2
689,811	92,16
690	0
690,188	24,58
690,377	34,82
690,565	98,3
690,753	118,78
690,942	98,3
691,13	147,45
691,318	176,13
691,507	280,57
691,695	862,19
691,883	1560,55
692,072	2361,31
692,26	3248,08
692,448	4349,89
692,636	5660,59
692,824	6971,29
693,013	7937,93
693,201	8888,18
693,389	9193,33
693,577	9391,98
693,765	9441,14
693,953	8753,02
694,141	8132,48
694,329	6889,37
694,518	6041,51
694,706	5568,43
694,894	4808,63
695,082	4124,61
695,27	3661,77
695,458	2740,18
695,646	2097,12
695,834	1286,12
696,022	845,81
696,209	655,35
696,397	352,25
696,585	241,66
696,773	141,31
696,961	239,61
697,149	-6,14
697,337	126,97
697,525	143,36
697,712	86,01
697,9	92,16
698,088	43,01
698,276	157,69
698,463	63,49
698,651	147,45
698,839	0
699,027	98,3
699,214	188,41
699,402	20,48
699,59	106,49
699,777	110,59
699,965	81,92
700,152	34,82
700,34	36,86
700,528	16,38
700,715	40,96
700,903	-8,19
701,09	143,36
701,278	196,61
701,465	217,08
701,653	305,15
701,84	598,01
702,028	1411,05
702,215	2332,64
702,402	3532,75
702,59	4974,52
702,777	6537,12
702,965	7896,97
703,152	9471,86
703,339	10708,83
703,527	11968,33
703,714	11896,65
703,901	12236,61
704,088	11654,99
704,276	10846,04
704,463	10002,28
704,65	8636,28
704,837	7708,55
705,025	6979,48
705,212	5975,97
705,399	5457,84
705,586	4562,87
705,773	3669,96
705,96	2731,99
706,147	1943,52
706,335	1433,58
706,522	1073,14
706,709	673,78
706,896	622,58
707,083	442,36
707,27	348,15
707,457	321,53
707,644	344,06
707,831	208,89
708,018	151,55
708,205	96,25
708,392	126,97
708,578	124,93
708,765	53,25
708,952	8,19
709,139	24,58
709,326	26,62
709,513	147,45
709,7	47,1
709,886	165,89
710,073	112,64
710,26	79,87
710,447	61,44
710,633	108,54
710,82	73,73
711,007	53,25
711,193	55,3
711,38	77,82
711,567	71,68
711,753	28,67
711,94	57,34
712,127	149,5
712,313	163,84
712,5	-20,48
712,686	126,97
712,873	73,73
713,059	-14,34
713,246	100,35
713,432	116,73
713,619	43,01
713,805	-49,15
713,992	139,26
714,178	-36,86
714,365	40,96
714,551	92,16
714,737	81,92
714,924	40,96
715,11	32,77
715,297	90,11
715,483	59,39
715,669	114,69
715,855	108,54
716,042	151,55
716,228	149,5
716,414	487,42
716,6	567,29
716,787	757,75
716,973	1015,79
717,159	1345,52
717,345	1509,35
717,531	1669,09
717,718	1834,98
717,904	2000,87
718,09	1941,47
718,276	1867,75
718,462	1703,91
718,648	1456,11
718,834	1294,32
719,02	1243,12
719,206	1091,57
719,392	905,2
719,578	876,53
719,764	700,41
719,95	550,9
720,136	507,9
720,322	339,96
720,508	266,24
720,694	190,46
720,879	163,84
721,065	262,14
721,251	133,12
721,437	32,77
721,623	106,49
721,809	106,49
721,994	53,25
722,18	-49,15
722,366	43,01
722,552	57,34
722,737	0
722,923	139,26
723,109	178,17
723,294	428,03
723,48	741,36
723,666	1269,74
723,851	1812,45
724,037	2664,41
724,222	3266,51
724,408	4046,79
724,593	4325,31
724,779	4870,07
724,965	5023,67
725,15	5132,21
725,336	4763,58
725,521	4566,97
725,706	4095,94
725,892	3680,2
726,077	3252,17
726,263	3043,28
726,448	2656,22
726,634	2246,62
726,819	2090,98
727,004	1761,25
727,19	1433,58
727,375	1089,52
727,56	796,66
727,745	356,35
727,931	356,35
728,116	100,35
728,301	135,17
728,486	108,54
728,672	57,34
728,857	172,03
729,042	81,92
729,227	24,58
729,412	20,48
729,597	49,15
729,783	40,96
729,968	-8,19
730,153	120,83
730,338	26,62
730,523	22,53
730,708	-8,19
730,893	92,16
731,078	40,96
731,263	67,58
731,448	30,72
731,633	71,68
731,818	-40,96
732,003	32,77
732,187	8,19
732,372	-77,82
732,557	98,3
732,742	-63,49
732,927	-79,87
733,112	40,96
733,297	67,58
733,481	-16,38
733,666	61,44
733,851	-16,38
734,036	43,01
734,22	-65,54
734,405	198,65
734,59	-55,3
734,774	36,86
734,959	0
735,144	32,77
735,328	104,45
735,513	-30,72
735,698	16,38
735,882	8,19
736,067	45,06
736,251	-49,15
736,436	-16,38
736,62	57,34
736,805	-45,06
736,989	81,92
737,174	-63,49
737,358	-63,49
737,543	2,05
737,727	45,06
737,911	165,89
738,096	0
738,28	75,77
738,465	73,73
738,649	75,77
738,833	43,01
739,018	36,86
739,202	32,77
739,386	-12,29
739,57	57,34
739,755	-4,1
739,939	38,91
740,123	-10,24
740,307	30,72
740,491	59,39
740,676	-49,15
740,86	8,19
741,044	28,67
741,228	43,01
741,412	-24,58
741,596	-14,34
741,78	-47,1
741,964	94,21
742,148	73,73
742,332	51,2
742,516	-61,44
742,7	98,3
742,884	233,47
743,068	348,15
743,252	442,36
743,436	688,12
743,62	755,7
743,804	1040,37
743,988	1228,78
744,172	1226,73
744,356	1265,64
744,539	1216,49
744,723	1050,61
744,907	1083,38
745,091	935,92
745,275	878,58
745,458	765,94
745,642	602,1
745,826	514,04
746,009	626,68
746,193	434,17
746,377	444,41
746,56	452,6
746,744	401,4
746,928	329,72
747,111	266,24
747,295	90,11
747,478	116,73
747,662	114,69
747,846	172,03
748,029	303,1
748,213	208,89
748,396	292,86
748,58	385,02
748,763	409,59
748,946	389,11
749,13	417,79
749,313	485,37
749,497	569,34
749,68	540,66
749,863	466,94
750,047	284,67
750,23	339,96
750,413	335,87
750,597	339,96
750,78	182,27
750,963	288,76
751,146	163,84
751,33	196,61
751,513	110,59
751,696	151,55
751,879	43,01
752,062	12,29
752,246	106,49
752,429	118,78
752,612	196,61
752,795	141,31
752,978	120,83
753,161	180,22
753,344	237,56
753,527	507,9
753,71	337,91
753,893	456,7
754,076	495,61
754,259	487,42
754,442	514,04
754,625	442,36
754,808	563,19
754,991	350,2
755,174	352,25
755,357	305,15
755,539	301,05
755,722	294,91
755,905	303,1
756,088	149,5
756,271	163,84
756,453	198,65
756,636	57,34
756,819	122,88
757,002	49,15
757,184	198,65
757,367	139,26
757,55	73,73
757,732	120,83
757,915	26,62
758,098	-8,19
758,28	49,15
758,463	34,82
758,645	-16,38
758,828	81,92
759,011	0
759,193	12,29
759,376	24,58
759,558	16,38
759,741	61,44
759,923	43,01
760,105	43,01
760,288	16,38
760,47	-104,45
760,653	-20,48
760,835	47,1
761,017	-40,96
761,2	-20,48
761,382	106,49
761,564	18,43
761,747	4,1
761,929	2,05
762,111	26,62
762,294	57,34
762,476	155,65
762,658	98,3
762,84	147,45
763,022	18,43
763,205	2,05
763,387	65,53
763,569	81,92
763,751	-53,25
763,933	-34,82
764,115	-30,72
764,297	45,06
764,479	-6,14
764,661	32,77
764,843	210,94
765,025	-30,72
765,207	90,11
765,389	-55,3
765,571	-90,11
765,753	90,11
765,935	2,05
766,117	-8,19
766,299	131,07
766,481	118,78
766,663	-16,38
766,845	-10,24
767,026	10,24
767,208	-8,19
767,39	-6,14
767,572	-12,29
767,753	81,92
767,935	-8,19
768,117	2,05
768,299	108,54
768,48	-10,24
768,662	65,53
768,844	57,34
769,025	139,26
769,207	-53,25
769,389	-6,14
769,57	-86,01
769,752	12,29
769,933	43,01
770,115	36,86
770,296	0
770,478	114,69
770,659	-16,38
770,841	172,03
771,022	28,67
771,204	75,77
771,385	2,05
771,567	90,11
771,748	147,45
771,929	100,35
772,111	-14,34
772,292	131,07
772,473	81,92
772,655	81,92
772,836	16,38
773,017	90,11
773,199	55,3
773,38	137,21
773,561	108,54
773,742	81,92
773,923	0
774,105	118,78
774,286	129,02
774,467	36,86
774,648	-45,06
774,829	67,58
775,01	2,05
775,191	16,38
775,372	-96,25
775,553	81,92
775,734	-6,14
775,915	-36,86
776,096	16,38
776,277	32,77
776,458	4,1
776,639	40,96
776,82	59,39
777,001	-30,72
777,182	-53,25
777,363	-49,15
777,544	-40,96
777,725	49,15
777,906	26,62
778,086	32,77
778,267	-6,14
778,448	67,58
778,629	-38,91
778,809	141,31
778,99	8,19
779,171	20,48
779,352	-49,15
779,532	24,58
779,713	6,14
779,894	65,53
780,074	90,11
780,255	24,58
780,435	16,38
780,616	161,79
780,797	153,6
780,977	16,38
781,158	47,1
781,338	49,15
781,519	18,43
781,699	151,55
781,88	24,58
782,06	-2,05
782,241	-40,96
782,421	-104,45
782,601	57,34
782,782	26,62
782,962	81,92
783,142	-53,25
783,323	-43,01
783,503	57,34
783,683	83,97
783,864	45,06
784,044	124,93
784,224	108,54
784,404	-10,24
784,585	2,05
784,765	-16,38
784,945	110,59
785,125	8,19
785,305	45,06
785,485	106,49
785,666	34,82
785,846	-8,19
786,026	-12,29
786,206	-112,64
786,386	16,38
786,566	24,58
786,746	-34,82
786,926	-24,58
787,106	-22,53
787,286	-14,34
787,466	57,34
787,646	-4,1
787,826	-8,19
788,006	116,73
788,185	47,1
788,365	-16,38
788,545	106,49
788,725	-10,24
788,905	53,25
789,085	24,58
789,264	-57,34
789,444	61,44
789,624	24,58
789,804	8,19
789,983	86,01
790,163	10,24
790,343	0
790,522	28,67
790,702	20,48
790,882	-14,34
791,061	67,58
791,241	0
791,42	-6,14
791,6	131,07
791,78	59,39
791,959	8,19
792,139	-12,29
792,318	36,86
792,498	65,53
792,677	24,58
792,856	32,77
793,036	-12,29
793,215	-6,14
793,395	57,34
793,574	-16,38
793,753	-22,53
793,933	147,45
794,112	131,07
794,291	151,55
794,471	131,07
794,65	100,35
794,829	-14,34
795,008	143,36
795,188	92,16
795,367	163,84
795,546	26,62
795,725	73,73
795,904	-47,1
796,084	49,15
796,263	77,82
796,442	131,07
796,621	45,06
796,8	124,93
796,979	149,5
797,158	36,86
797,337	108,54
797,516	94,21
797,695	106,49
797,874	73,73
798,053	102,4
798,232	61,44
798,411	-36,86
798,59	20,48
798,769	-6,14
798,947	-71,68
799,126	43,01
799,305	28,67
799,484	43,01
799,663	24,58
799,842	73,73
800,02	57,34
800,199	-81,92
800,378	198,65
800,557	-6,14
800,735	16,38
800,914	-53,25
801,093	18,43
801,271	-57,34
801,45	67,58
801,628	110,59
801,807	45,06
801,986	75,77
802,164	118,78
802,343	-57,34
802,521	-14,34
802,7	22,53
802,878	65,53
803,057	-57,34
803,235	8,19
803,414	65,53
803,592	49,15
803,771	40,96
803,949	71,68
804,127	24,58
804,306	83,97
804,484	-14,34
804,662	18,43
804,841	-96,25
805,019	20,48
805,197	108,54
805,375	57,34
805,554	-96,25
805,732	-24,58
805,91	26,62
806,088	40,96
806,266	-24,58
806,445	-30,72
806,623	-26,62
806,801	24,58
806,979	182,27
807,157	81,92
807,335	-110,59
807,513	102,4
807,691	40,96
807,869	-24,58
808,047	-63,49
808,225	-10,24
808,403	96,25
808,581	34,82
808,759	149,5
808,937	6,14
809,115	69,63
809,293	174,08
809,471	0
809,649	81,92
809,826	159,74
810,004	49,15
810,182	10,24
810,36	0
810,538	137,21
810,715	67,58
810,893	-14,34
811,071	-73,73
811,248	69,63
811,426	32,77
811,604	10,24
811,781	161,79
811,959	75,77
812,137	-12,29
812,314	40,96
812,492	18,43
812,669	108,54
812,847	108,54
813,024	81,92
813,202	174,08
813,379	83,97
813,557	190,46
813,734	196,61
813,912	145,41
814,089	90,11
814,267	182,27
814,444	100,35
814,621	61,44
814,799	65,53
814,976	124,93
815,153	94,21
815,331	53,25
815,508	63,49
815,685	-2,05
815,862	122,88
816,04	-16,38
816,217	28,67
816,394	36,86
816,571	118,78
816,748	194,56
816,926	36,86
817,103	284,67
817,28	4,1
817,457	16,38
817,634	124,93
817,811	-51,2
817,988	18,43
818,165	14,34
818,342	4,1
818,519	8,19
818,696	-40,96
818,873	-8,19
819,05	49,15
819,227	-43,01
819,404	49,15
819,581	98,3
819,758	69,63
819,934	10,24
820,111	-131,07
820,288	114,69
820,465	108,54
820,642	26,62
820,818	139,26
820,995	57,34
821,172	-16,38
821,349	24,58
821,525	98,3
821,702	92,16
821,879	-65,54
822,055	43,01
822,232	-102,4
822,409	51,2
822,585	90,11
822,762	90,11
822,938	90,11
823,115	94,21
823,291	18,43
823,468	45,06
823,644	57,34
823,821	141,31
823,997	-73,73
824,174	49,15
824,35	-2,05
824,527	43,01
824,703	2,05
824,879	34,82
825,056	0
825,232	159,74
825,408	51,2
825,585	57,34
825,761	65,53
825,937	73,73
826,113	18,43
826,29	69,63
826,466	-65,54
826,642	446,46
826,818	67,58
826,994	45,06
827,17	18,43
827,347	-6,14
827,523	2,05
827,699	53,25
827,875	51,2
828,051	73,73
828,227	8,19
828,403	100,35
828,579	182,27
828,755	98,3
828,931	20,48
829,107	104,45
829,283	106,49
829,459	57,34
829,635	83,97
829,811	155,65
829,986	110,59
830,162	141,31
830,338	165,89
830,514	135,17
830,69	188,41
830,865	12,29
831,041	71,68
831,217	40,96
831,393	90,11
831,568	40,96
831,744	94,21
831,92	55,3
832,095	81,92
832,271	32,77
832,447	51,2
832,622	104,45
832,798	49,15
832,973	49,15
833,149	133,12
833,325	8,19
833,5	75,77
833,676	63,49
833,851	49,15
834,027	-51,2
834,202	8,19
834,377	4,1
834,553	0
834,728	73,73
834,904	65,53
835,079	75,77
835,254	-90,11
835,43	49,15
835,605	8,19
835,78	10,24
835,955	65,53
836,131	51,2
836,306	-53,25
836,481	36,86
836,656	126,97
836,832	231,42
837,007	122,88
837,182	221,18
837,357	251,9
837,532	399,35
837,707	348,15
837,882	434,17
838,057	409,59
838,232	458,74
838,407	335,87
838,582	264,19
838,757	389,11
838,932	233,47
839,107	256
839,282	167,93
839,457	172,03
839,632	286,72
839,807	268,28
839,982	102,4
840,157	163,84
840,332	194,56
840,506	163,84
840,681	143,36
840,856	172,03
841,031	104,45
841,205	233,47
841,38	229,37
841,555	221,18
841,73	131,07
841,904	184,32
842,079	100,35
842,254	176,13
842,428	96,25
842,603	90,11
842,777	-65,54
842,952	75,77
843,126	-38,91
843,301	77,82
843,476	34,82
843,65	114,69
843,825	147,45
843,999	94,21
844,173	-47,1
844,348	65,53
844,522	108,54
844,697	61,44
844,871	-34,82
845,045	90,11
845,22	75,77
845,394	198,65
845,568	59,39
845,743	67,58
845,917	-4,1
846,091	53,25
846,265	38,91
846,44	65,53
846,614	38,91
846,788	34,82
846,962	57,34
847,136	65,53
847,31	-45,06
847,485	110,59
847,659	-90,11
847,833	122,88
848,007	59,39
848,181	34,82
848,355	106,49
848,529	24,58
848,703	139,26
848,877	34,82
849,051	126,97
849,225	143,36
849,399	149,5
849,573	188,41
849,746	147,45
849,92	247,8
850,094	180,22
850,268	106,49
850,442	225,28
850,616	90,11
850,789	-12,29
850,963	98,3
851,137	81,92
851,311	188,41
851,484	116,73
851,658	180,22
851,832	108,54
852,005	71,68
852,179	131,07
852,352	36,86
852,526	-43,01
852,7	81,92
852,873	83,97
853,047	53,25
853,22	67,58
853,394	73,73
853,567	147,45
853,741	100,35
853,914	106,49
854,088	73,73
854,261	-8,19
854,434	16,38
854,608	-24,58
854,781	-47,1
854,955	61,44
855,128	100,35
855,301	40,96
855,475	106,49
855,648	8,19
855,821	-24,58
855,994	81,92
856,168	28,67
856,341	-26,62
856,514	-6,14
856,687	69,63
856,86	65,53
857,033	69,63
857,207	49,15
857,38	-36,86
857,553	126,97
857,726	47,1
857,899	90,11
858,072	40,96
858,245	-12,29
858,418	-57,34
858,591	-36,86
858,764	104,45
858,937	122,88
859,11	147,45
859,283	184,32
859,455	61,44
859,628	59,39
859,801	172,03
859,974	204,8
860,147	98,3
860,32	81,92
860,492	73,73
860,665	-36,86
860,838	65,53
861,011	61,44
861,183	83,97
861,356	190,46
861,529	81,92
861,701	59,39
861,874	59,39
862,047	114,69
862,219	57,34
862,392	155,65
862,564	112,64
862,737	81,92
862,909	196,61
863,082	61,44
863,254	118,78
863,427	112,64
863,599	192,51
863,772	65,53
863,944	133,12
864,117	-6,14
864,289	139,26
864,461	20,48
864,634	180,22
864,806	34,82
864,978	172,03
865,151	149,5
865,323	272,38
865,495	237,56
865,667	139,26
865,84	303,1
866,012	147,45
866,184	247,8
866,356	114,69
866,528	141,31
866,7	110,59
866,873	73,73
867,045	143,36
867,217	126,97
867,389	169,98
867,561	190,46
867,733	143,36
867,905	225,28
868,077	81,92
868,249	126,97
868,421	49,15
868,593	65,53
868,765	286,72
868,936	69,63
869,108	69,63
869,28	165,89
869,452	61,44
869,624	-40,96
869,796	155,65
869,968	106,49
870,139	32,77
870,311	59,39
870,483	26,62
870,654	40,96
870,826	59,39
870,998	-6,14
871,17	81,92
871,341	-4,1
871,513	116,73
871,684	14,34
871,856	65,53
872,028	100,35
872,199	-22,53
872,371	-38,91
872,542	-30,72
872,714	108,54
872,885	116,73
873,057	65,53
873,228	65,53
873,4	69,63
873,571	98,3
873,742	-65,54
873,914	75,77
874,085	-24,58
874,256	26,62
874,428	-59,39
874,599	-12,29
874,77	24,58
874,942	57,34
875,113	16,38
875,284	-65,54
875,455	-65,54
875,626	67,58
875,798	12,29
875,969	18,43
876,14	114,69
876,311	57,34
876,482	34,82
876,653	55,3
876,824	57,34
876,995	34,82
877,166	81,92
877,337	116,73
877,508	2,05
877,679	106,49
877,85	57,34
878,021	86,01
878,192	174,08
878,363	110,59
878,534	122,88
878,705	83,97
878,876	155,65
879,047	227,32
879,217	90,11
879,388	186,37
879,559	57,34
879,73	163,84
879,9	122,88
880,071	172,03
880,242	102,4
880,413	204,8
880,583	108,54
880,754	196,61
880,924	139,26
881,095	28,67
881,266	-4,1
881,436	135,17
881,607	221,18
881,777	122,88
881,948	49,15
882,118	71,68
882,289	-24,58
882,459	67,58
882,63	147,45
882,8	90,11
882,971	135,17
883,141	18,43
883,311	110,59
883,482	71,68
883,652	34,82
883,822	-4,1
883,993	-8,19
884,163	-16,38
884,333	-81,92
884,504	63,49
884,674	100,35
884,844	110,59
885,014	0
885,184	-61,44
885,355	-16,38
885,525	51,2
885,695	24,58
885,865	176,13
886,035	0
886,205	28,67
886,375	65,53
886,545	86,01
886,715	81,92
886,885	59,39
887,055	-32,77
887,225	-16,38
887,395	34,82
887,565	131,07
887,735	108,54
887,905	20,48
888,075	40,96
888,244	106,49
888,414	71,68
888,584	122,88
888,754	47,1
888,924	96,25
889,093	237,56
889,263	75,77
889,433	-73,73
889,603	45,06
889,772	51,2
889,942	69,63
890,111	36,86
890,281	124,93
890,451	53,25
890,62	47,1
890,79	32,77
890,959	-57,34
891,129	53,25
891,298	4,1
891,468	-40,96
891,637	2,05
891,807	20,48
891,976	81,92
892,146	-14,34
892,315	73,73
892,485	92,16
892,654	24,58
892,823	12,29
892,993	-24,58
893,162	92,16
893,331	108,54
893,501	20,48
893,67	65,53
893,839	43,01
894,008	32,77
894,177	18,43
894,347	45,06
894,516	126,97
894,685	49,15
894,854	-16,38
895,023	75,77
895,192	67,58
