Data from neon_USB4F104161__14__11-46-32-943.txt Node

Date: Tue Apr 14 11:46:32 EDT 2026
User: LaboPhy
Spectrometer: USB4F10416
Trigger mode: 4
Integration Time (sec): 1,000000E-1
Scans to average: 1
Electric dark correction enabled: true
Nonlinearity correction enabled: false
Boxcar width: 0
XAxis mode: Wavelengths
Number of Pixels in Spectrum: 3648
>>>>>Begin Spectral Data<<<<<
177,847	-174,93
178,066	-174,93
178,284	-174,93
178,502	-240,47
178,72	-226,13
178,939	-7
179,157	-105,3
179,375	-21,33
179,593	66,73
179,812	17,58
180,03	-2,9
180,248	48,3
180,466	9,39
180,685	-2,9
180,903	36,01
181,121	-56,15
181,339	17,58
181,557	58,54
181,775	29,87
181,994	44,2
182,212	-72,53
182,43	-72,53
182,648	-2,9
182,866	93,35
183,084	99,5
183,302	-25,43
183,52	58,54
183,739	58,54
183,957	68,78
184,175	-60,24
184,393	-47,96
184,611	50,35
184,829	-39,76
185,047	11,43
185,265	76,97
185,483	-19,29
185,701	17,58
185,919	38,06
186,137	-2,9
186,355	-56,15
186,573	11,43
186,791	68,78
187,009	1,19
187,227	40,11
187,445	17,58
187,663	-45,91
187,881	-13,14
188,098	42,15
188,316	79,02
188,534	42,15
188,752	-47,96
188,97	-88,92
189,188	-54,1
189,406	17,58
189,624	42,15
189,841	-121,68
190,059	-146,26
190,277	11,43
190,495	54,44
190,713	99,5
190,931	124,07
191,148	107,69
191,366	-19,29
191,584	-7
191,802	46,25
192,019	99,5
192,237	-39,76
192,455	-27,48
192,673	70,83
192,89	-72,53
193,108	17,58
193,326	-72,53
193,543	-27,48
193,761	-105,3
193,979	50,35
194,196	-19,29
194,414	-7
194,632	21,67
194,849	-45,91
195,067	-25,43
195,285	-39,76
195,502	-23,38
195,72	-27,48
195,937	-58,2
196,155	3,24
196,373	-23,38
196,59	-27,48
196,808	-4,95
197,025	83,11
197,243	210,09
197,46	79,02
197,678	-21,33
197,895	9,39
198,113	5,29
198,33	-52,05
198,548	29,87
198,765	-45,91
198,983	115,88
199,2	-56,15
199,418	33,96
199,635	-31,57
199,853	17,58
200,07	-7
200,288	42,15
200,505	-37,72
200,722	27,82
200,94	33,96
201,157	-7
201,375	31,91
201,592	36,01
201,809	11,43
202,027	62,63
202,244	76,97
202,461	-19,29
202,679	-19,29
202,896	-11,09
203,113	-45,91
203,331	46,25
203,548	44,2
203,765	-2,9
203,982	25,77
204,2	-39,76
204,417	-60,24
204,634	181,42
204,851	25,77
205,069	17,58
205,286	44,2
205,503	-13,14
205,72	17,58
205,937	91,31
206,155	-11,09
206,372	83,11
206,589	-93,01
206,806	-23,38
207,023	19,63
207,24	19,63
207,458	1,19
207,675	9,39
207,892	-23,38
208,109	-43,86
208,326	-50
208,543	-19,29
208,76	21,67
208,977	101,55
209,194	36,01
209,411	-43,86
209,628	-31,57
209,845	-15,19
210,062	-37,72
210,279	-80,72
210,496	-68,44
210,713	-68,44
210,93	-15,19
211,147	109,74
211,364	-7
211,581	-19,29
211,798	126,12
212,015	-72,53
212,232	19,63
212,449	-7
212,666	1,19
212,883	-21,33
213,1	27,82
213,317	-21,33
213,533	38,06
213,75	21,67
213,967	9,39
214,184	-54,1
214,401	9,39
214,618	-80,72
214,835	-78,68
215,051	19,63
215,268	-15,19
215,485	11,43
215,702	-56,15
215,919	-62,29
216,135	99,5
216,352	-7
216,569	-37,72
216,786	52,39
217,002	-47,96
217,219	-15,19
217,436	74,92
217,652	3,24
217,869	36,01
218,086	93,35
218,302	-23,38
218,519	19,63
218,736	-95,06
218,952	-113,49
219,169	9,39
219,386	-29,52
219,602	-4,95
219,819	58,54
220,036	-23,38
220,252	52,39
220,469	-45,91
220,685	27,82
220,902	-21,33
221,118	85,16
221,335	-23,38
221,552	31,91
221,768	23,72
221,985	25,77
222,201	33,96
222,418	27,82
222,634	-47,96
222,851	-56,15
223,067	33,96
223,284	-15,19
223,5	9,39
223,716	-2,9
223,933	17,58
224,149	-19,29
224,366	-25,43
224,582	-60,24
224,799	-95,06
225,015	-15,19
225,231	-43,86
225,448	52,39
225,664	-60,24
225,88	-105,3
226,097	29,87
226,313	-56,15
226,529	-15,19
226,746	-4,95
226,962	-11,09
227,178	-121,68
227,395	-113,49
227,611	-7
227,827	9,39
228,044	25,77
228,26	5,29
228,476	-78,68
228,692	101,55
228,909	-13,14
229,125	11,43
229,341	-4,95
229,557	-47,96
229,773	-45,91
229,99	25,77
230,206	-111,44
230,422	31,91
230,638	-15,19
230,854	-21,33
231,07	-72,53
231,286	60,59
231,503	9,39
231,719	-64,34
231,935	29,87
232,151	-62,29
232,367	136,36
232,583	-15,19
232,799	-31,57
233,015	70,83
233,231	-35,67
233,447	13,48
233,663	-50
233,879	-29,52
234,095	-11,09
234,311	38,06
234,527	-4,95
234,743	-11,09
234,959	3,24
235,175	-78,68
235,391	-50
235,607	-13,14
235,823	70,83
236,039	-113,49
236,255	-21,33
236,471	-29,52
236,687	9,39
236,903	-29,52
237,118	1,19
237,334	-27,48
237,55	50,35
237,766	-78,68
237,982	33,96
238,198	17,58
238,413	56,49
238,629	5,29
238,845	40,11
239,061	29,87
239,277	9,39
239,492	-47,96
239,708	-29,52
239,924	-11,09
240,14	11,43
240,355	95,4
240,571	-35,67
240,787	48,3
241,003	79,02
241,218	-31,57
241,434	-4,95
241,65	33,96
241,865	-37,72
242,081	128,17
242,297	-27,48
242,512	-35,67
242,728	-11,09
242,944	-52,05
243,159	56,49
243,375	-47,96
243,59	-4,95
243,806	25,77
244,022	25,77
244,237	-70,48
244,453	74,92
244,668	-4,95
244,884	38,06
245,099	1,19
245,315	109,74
245,53	66,73
245,746	189,61
245,961	36,01
246,177	-2,9
246,392	58,54
246,608	83,11
246,823	-31,57
247,039	-43,86
247,254	-29,52
247,47	48,3
247,685	-47,96
247,9	-90,96
248,116	-54,1
248,331	-115,54
248,547	83,11
248,762	-47,96
248,977	-15,19
249,193	58,54
249,408	64,68
249,623	3,24
249,839	81,07
250,054	-72,53
250,269	-78,68
250,485	85,16
250,7	91,31
250,915	29,87
251,13	1,19
251,346	-52,05
251,561	33,96
251,776	54,44
251,991	-123,73
252,207	60,59
252,422	-21,33
252,637	-80,72
252,852	-88,92
253,067	17,58
253,283	-4,95
253,498	-37,72
253,713	-4,95
253,928	11,43
254,143	11,43
254,358	38,06
254,573	-31,57
254,788	-111,44
255,004	-31,57
255,219	-72,53
255,434	-21,33
255,649	-11,09
255,864	91,31
256,079	79,02
256,294	-88,92
256,509	-25,43
256,724	29,87
256,939	-76,63
257,154	101,55
257,369	-15,19
257,584	11,43
257,799	9,39
258,014	-117,59
258,229	93,35
258,444	-15,19
258,659	-37,72
258,874	54,44
259,089	11,43
259,304	-4,95
259,518	-70,48
259,733	3,24
259,948	21,67
260,163	58,54
260,378	-11,09
260,593	5,29
260,808	33,96
261,022	-121,68
261,237	9,39
261,452	-31,57
261,667	-27,48
261,882	-7
262,096	-45,91
262,311	93,35
262,526	-68,44
262,741	-21,33
262,955	-76,63
263,17	122,02
263,385	31,91
263,6	-129,88
263,814	-97,11
264,029	-7
264,244	48,3
264,458	-45,91
264,673	-7
264,888	70,83
265,102	44,2
265,317	33,96
265,532	42,15
265,746	7,34
265,961	87,21
266,175	9,39
266,39	-43,86
266,605	-7
266,819	17,58
267,034	79,02
267,248	-191,31
267,463	3,24
267,677	-43,86
267,892	-37,72
268,106	-19,29
268,321	-13,14
268,535	91,31
268,75	66,73
268,964	-70,48
269,179	68,78
269,393	21,67
269,608	99,5
269,822	-7
270,036	-23,38
270,251	66,73
270,465	-19,29
270,68	-56,15
270,894	52,39
271,108	148,65
271,323	50,35
271,537	-54,1
271,752	70,83
271,966	9,39
272,18	-84,82
272,394	11,43
272,609	1,19
272,823	62,63
273,037	1,19
273,252	-64,34
273,466	-23,38
273,68	33,96
273,894	36,01
274,109	29,87
274,323	46,25
274,537	76,97
274,751	-13,14
274,966	85,16
275,18	-72,53
275,394	-146,26
275,608	-39,76
275,822	-56,15
276,036	-37,72
276,25	66,73
276,465	-7
276,679	-31,57
276,893	19,63
277,107	74,92
277,321	-33,62
277,535	11,43
277,749	33,96
277,963	74,92
278,177	-121,68
278,391	5,29
278,605	-64,34
278,819	44,2
279,033	-109,4
279,247	-21,33
279,461	19,63
279,675	1,19
279,889	7,34
280,103	66,73
280,317	95,4
280,531	17,58
280,745	58,54
280,959	21,67
281,173	-7
281,387	29,87
281,601	58,54
281,815	60,59
282,029	-80,72
282,242	21,67
282,456	-45,91
282,67	91,31
282,884	-45,91
283,098	19,63
283,312	-27,48
283,525	-37,72
283,739	36,01
283,953	25,77
284,167	1,19
284,381	-39,76
284,594	-45,91
284,808	-37,72
285,022	-9,05
285,235	-39,76
285,449	11,43
285,663	-13,14
285,877	-76,63
286,09	-64,34
286,304	58,54
286,518	11,43
286,731	-47,96
286,945	42,15
287,159	-103,25
287,372	-23,38
287,586	25,77
287,799	-39,76
288,013	-80,72
288,227	9,39
288,44	228,52
288,654	-45,91
288,867	-62,29
289,081	-21,33
289,294	19,63
289,508	103,59
289,721	-72,53
289,935	-72,53
290,148	95,4
290,362	9,39
290,575	1,19
290,789	-7
291,002	-119,64
291,216	-2,9
291,429	-13,14
291,643	-11,09
291,856	-4,95
292,069	-23,38
292,283	-47,96
292,496	-23,38
292,71	21,67
292,923	-33,62
293,136	-0,85
293,35	-15,19
293,563	-47,96
293,776	46,25
293,99	-9,05
294,203	5,29
294,416	-47,96
294,63	74,92
294,843	-13,14
295,056	52,39
295,269	-66,39
295,483	-66,39
295,696	3,24
295,909	-72,53
296,122	42,15
296,335	42,15
296,549	17,58
296,762	91,31
296,975	-62,29
297,188	17,58
297,401	1,19
297,615	52,39
297,828	-78,68
298,041	124,07
298,254	19,63
298,467	-21,33
298,68	-19,29
298,893	-54,1
299,106	-80,72
299,319	29,87
299,532	74,92
299,745	-50
299,958	-58,2
300,171	-54,1
300,384	7,34
300,598	17,58
300,81	33,96
301,023	-2,9
301,236	-52,05
301,449	21,67
301,662	1,19
301,875	-105,3
302,088	-19,29
302,301	31,91
302,514	-70,48
302,727	31,91
302,94	-111,44
303,153	-23,38
303,366	-25,43
303,579	-105,3
303,791	46,25
304,004	-35,67
304,217	44,2
304,43	85,16
304,643	-25,43
304,855	-64,34
305,068	115,88
305,281	-54,1
305,494	9,39
305,707	-43,86
305,919	101,55
306,132	105,64
306,345	-25,43
306,558	50,35
306,77	-27,48
306,983	-7
307,196	42,15
307,408	-72,53
307,621	58,54
307,834	11,43
308,046	-7
308,259	-111,44
308,472	5,29
308,684	50,35
308,897	-72,53
309,109	-58,2
309,322	-66,39
309,535	1,19
309,747	111,78
309,96	91,31
310,172	33,96
310,385	60,59
310,597	-31,57
310,81	17,58
311,022	-76,63
311,235	17,58
311,447	-54,1
311,66	-52,05
311,872	-2,9
312,085	-4,95
312,297	-19,29
312,51	-113,49
312,722	-80,72
312,934	25,77
313,147	-39,76
313,359	-2,9
313,572	-70,48
313,784	1,19
313,996	-86,87
314,209	11,43
314,421	-84,82
314,633	-43,86
314,846	-23,38
315,058	42,15
315,27	-4,95
315,483	-15,19
315,695	15,53
315,907	1,19
316,119	-60,24
316,332	-29,52
316,544	70,83
316,756	93,35
316,968	40,11
317,181	-62,29
317,393	52,39
317,605	13,48
317,817	-9,05
318,029	48,3
318,241	36,01
318,454	11,43
318,666	-70,48
318,878	-47,96
319,09	-99,16
319,302	-15,19
319,514	29,87
319,726	-52,05
319,938	74,92
320,15	19,63
320,362	11,43
320,574	-125,78
320,786	21,67
320,999	-39,76
321,211	-15,19
321,423	99,5
321,635	-62,29
321,847	72,87
322,058	-47,96
322,27	-25,43
322,482	46,25
322,694	21,67
322,906	1,19
323,118	54,44
323,33	-7
323,542	-2,9
323,754	-62,29
323,966	-179,03
324,178	-31,57
324,389	-47,96
324,601	33,96
324,813	-54,1
325,025	-7
325,237	-21,33
325,449	38,06
325,66	-64,34
325,872	-33,62
326,084	21,67
326,296	-19,29
326,507	42,15
326,719	3,24
326,931	-97,11
327,143	29,87
327,354	66,73
327,566	1,19
327,778	3,24
327,989	15,53
328,201	-45,91
328,413	107,69
328,624	95,4
328,836	-39,76
329,048	-105,3
329,259	-72,53
329,471	-60,24
329,682	-45,91
329,894	-56,15
330,106	-56,15
330,317	-33,62
330,529	-47,96
330,74	-23,38
330,952	9,39
331,163	-7
331,375	66,73
331,586	-31,57
331,798	-19,29
332,009	-64,34
332,221	74,92
332,432	-9,05
332,644	60,59
332,855	-107,35
333,067	3,24
333,278	-21,33
333,489	13,48
333,701	-90,96
333,912	-21,33
334,124	-64,34
334,335	-109,4
334,546	3,24
334,758	9,39
334,969	169,13
335,18	64,68
335,392	-13,14
335,603	-4,95
335,814	-23,38
336,025	-52,05
336,237	5,29
336,448	-47,96
336,659	29,87
336,87	70,83
337,082	156,84
337,293	-13,14
337,504	5,29
337,715	36,01
337,926	-27,48
338,138	33,96
338,349	40,11
338,56	-4,95
338,771	-47,96
338,982	83,11
339,193	-39,76
339,404	68,78
339,616	29,87
339,827	132,26
340,038	-70,48
340,249	25,77
340,46	19,63
340,671	36,01
340,882	124,07
341,093	64,68
341,304	-0,85
341,515	33,96
341,726	-56,15
341,937	79,02
342,148	9,39
342,359	46,25
342,57	19,63
342,781	156,84
342,992	-39,76
343,203	-13,14
343,414	107,69
343,624	-9,05
343,835	-9,05
344,046	-13,14
344,257	76,97
344,468	50,35
344,679	156,84
344,89	119,98
345,1	42,15
345,311	124,07
345,522	167,08
345,733	205,99
345,944	156,84
346,154	191,66
346,365	181,42
346,576	91,31
346,787	140,46
346,997	101,55
347,208	175,27
347,419	113,83
347,629	99,5
347,84	173,22
348,051	17,58
348,261	85,16
348,472	85,16
348,683	50,35
348,893	-31,57
349,104	-23,38
349,315	-15,19
349,525	3,24
349,736	83,11
349,946	29,87
350,157	115,88
350,368	177,32
350,578	64,68
350,789	162,98
350,999	189,61
351,21	214,18
351,42	79,02
351,631	132,26
351,841	337,06
352,052	279,72
352,262	382,12
352,472	242,85
352,683	193,7
352,893	158,89
353,104	33,96
353,314	173,22
353,525	529,57
353,735	44,2
353,945	-7
354,156	-54,1
354,366	93,35
354,576	76,97
354,787	36,01
354,997	-13,14
355,207	-45,91
355,418	-11,09
355,628	-39,76
355,838	36,01
356,048	-7
356,259	13,48
356,469	-105,3
356,679	52,39
356,889	-7
357,1	-11,09
357,31	-35,67
357,52	-13,14
357,73	-15,19
357,94	-21,33
358,15	21,67
358,361	-45,91
358,571	19,63
358,781	62,63
358,991	103,59
359,201	117,93
359,411	66,73
359,621	58,54
359,831	144,55
360,041	62,63
360,251	95,4
360,461	58,54
360,672	-2,9
360,882	42,15
361,092	42,15
361,302	5,29
361,512	81,07
361,721	13,48
361,931	109,74
362,141	58,54
362,351	-27,48
362,561	56,49
362,771	-88,92
362,981	3,24
363,191	15,53
363,401	21,67
363,611	44,2
363,821	-62,29
364,03	-62,29
364,24	54,44
364,45	58,54
364,66	222,38
364,87	-72,53
365,08	74,92
365,289	17,58
365,499	-80,72
365,709	3,24
365,919	-127,83
366,128	-31,57
366,338	36,01
366,548	-56,15
366,758	-23,38
366,967	50,35
367,177	146,6
367,387	66,73
367,596	-39,76
367,806	-23,38
368,016	42,15
368,225	50,35
368,435	119,98
368,644	-70,48
368,854	1,19
369,064	66,73
369,273	101,55
369,483	50,35
369,692	-15,19
369,902	33,96
370,111	46,25
370,321	17,58
370,53	-21,33
370,74	-72,53
370,949	52,39
371,159	33,96
371,368	58,54
371,578	-23,38
371,787	-64,34
371,997	29,87
372,206	13,48
372,416	-7
372,625	-15,19
372,834	17,58
373,044	-93,01
373,253	23,72
373,462	50,35
373,672	13,48
373,881	-31,57
374,09	7,34
374,3	-4,95
374,509	-7
374,718	-76,63
374,928	60,59
375,137	29,87
375,346	36,01
375,555	107,69
375,765	-19,29
375,974	-27,48
376,183	70,83
376,392	-43,86
376,601	-15,19
376,811	33,96
377,02	33,96
377,229	11,43
377,438	42,15
377,647	-64,34
377,856	-119,64
378,065	-95,06
378,275	-2,9
378,484	-93,01
378,693	-21,33
378,902	3,24
379,111	-45,91
379,32	-84,82
379,529	-31,57
379,738	56,49
379,947	66,73
380,156	42,15
380,365	-7
380,574	-29,52
380,783	-54,1
380,992	-76,63
381,201	-121,68
381,41	-27,48
381,619	25,77
381,828	-27,48
382,037	-39,76
382,245	56,49
382,454	68,78
382,663	27,82
382,872	-64,34
383,081	-50
383,29	93,35
383,499	25,77
383,707	27,82
383,916	74,92
384,125	79,02
384,334	-56,15
384,542	29,87
384,751	-31,57
384,96	-27,48
385,169	-27,48
385,377	44,2
385,586	-80,72
385,795	58,54
386,004	17,58
386,212	-162,64
386,421	-93,01
386,63	-27,48
386,838	17,58
387,047	-15,19
387,255	-23,38
387,464	62,63
387,673	33,96
387,881	50,35
388,09	160,94
388,298	70,83
388,507	-4,95
388,715	3,24
388,924	83,11
389,133	-70,48
389,341	-68,44
389,55	-52,05
389,758	9,39
389,967	21,67
390,175	-27,48
390,383	156,84
390,592	-15,19
390,8	-86,87
391,009	50,35
391,217	66,73
391,426	66,73
391,634	-105,3
391,842	-29,52
392,051	-58,2
392,259	-31,57
392,467	-19,29
392,676	-60,24
392,884	17,58
393,092	9,39
393,301	17,58
393,509	-56,15
393,717	42,15
393,925	-21,33
394,134	-37,72
394,342	52,39
394,55	52,39
394,758	36,01
394,967	36,01
395,175	-60,24
395,383	38,06
395,591	-64,34
395,799	27,82
396,007	-78,68
396,216	58,54
396,424	42,15
396,632	25,77
396,84	-129,88
397,048	-80,72
397,256	38,06
397,464	-43,86
397,672	-0,85
397,88	-72,53
398,088	-41,81
398,296	-58,2
398,504	33,96
398,712	17,58
398,92	-56,15
399,128	48,3
399,336	29,87
399,544	-39,76
399,752	-84,82
399,96	33,96
400,168	50,35
400,376	9,39
400,584	42,15
400,792	5,29
401	-64,34
401,207	-29,52
401,415	19,63
401,623	-62,29
401,831	36,01
402,039	-15,19
402,247	-2,9
402,454	42,15
402,662	48,3
402,87	-11,09
403,078	91,31
403,285	23,72
403,493	-45,91
403,701	52,39
403,909	25,77
404,116	68,78
404,324	-31,57
404,532	-17,24
404,739	29,87
404,947	-113,49
405,155	33,96
405,362	-27,48
405,57	124,07
405,778	-35,67
405,985	-7
406,193	-39,76
406,4	-64,34
406,608	-33,62
406,816	60,59
407,023	74,92
407,231	-86,87
407,438	29,87
407,646	-31,57
407,853	-4,95
408,061	-66,39
408,268	33,96
408,476	-66,39
408,683	27,82
408,89	-29,52
409,098	76,97
409,305	-29,52
409,513	25,77
409,72	-68,44
409,927	33,96
410,135	66,73
410,342	1,19
410,55	93,35
410,757	-15,19
410,964	-133,97
411,172	-21,33
411,379	9,39
411,586	-2,9
411,793	-29,52
412,001	-111,44
412,208	-88,92
412,415	50,35
412,622	19,63
412,83	-29,52
413,037	11,43
413,244	42,15
413,451	52,39
413,658	115,88
413,866	-7
414,073	-52,05
414,28	107,69
414,487	-72,53
414,694	33,96
414,901	3,24
415,108	-39,76
415,315	44,2
415,522	119,98
415,73	-52,05
415,937	-56,15
416,144	-31,57
416,351	-121,68
416,558	-29,52
416,765	-58,2
416,972	50,35
417,179	54,44
417,386	-7
417,593	-23,38
417,8	-54,1
418,006	-15,19
418,213	27,82
418,42	-4,95
418,627	17,58
418,834	-31,57
419,041	-39,76
419,248	-21,33
419,455	52,39
419,661	-19,29
419,868	-13,14
420,075	60,59
420,282	-97,11
420,489	27,82
420,696	-52,05
420,902	25,77
421,109	87,21
421,316	1,19
421,523	5,29
421,729	-2,9
421,936	-15,19
422,143	58,54
422,349	-64,34
422,556	-80,72
422,763	17,58
422,969	-37,72
423,176	-127,83
423,383	-15,19
423,589	242,85
423,796	-15,19
424,002	-15,19
424,209	27,82
424,416	-7
424,622	-121,68
424,829	-29,52
425,035	-60,24
425,242	1,19
425,448	-31,57
425,655	-37,72
425,861	-47,96
426,068	58,54
426,274	87,21
426,481	13,48
426,687	27,82
426,894	5,29
427,1	-64,34
427,306	-39,76
427,513	-11,09
427,719	25,77
427,926	-84,82
428,132	-23,38
428,338	-101,2
428,545	25,77
428,751	33,96
428,957	38,06
429,163	-47,96
429,37	42,15
429,576	7,34
429,782	-31,57
429,989	-54,1
430,195	-39,76
430,401	42,15
430,607	33,96
430,813	-35,67
431,02	99,5
431,226	33,96
431,432	38,06
431,638	9,39
431,844	-99,16
432,05	11,43
432,257	-39,76
432,463	-29,52
432,669	-17,24
432,875	19,63
433,081	-97,11
433,287	-78,68
433,493	-35,67
433,699	115,88
433,905	-43,86
434,111	-88,92
434,317	-52,05
434,523	99,5
434,729	-64,34
434,935	-88,92
435,141	76,97
435,347	-21,33
435,553	74,92
435,759	-11,09
435,965	9,39
436,171	-13,14
436,377	66,73
436,582	17,58
436,788	-45,91
436,994	115,88
437,2	-19,29
437,406	1,19
437,612	17,58
437,818	-11,09
438,023	-84,82
438,229	66,73
438,435	-7
438,641	-97,11
438,846	-47,96
439,052	-99,16
439,258	38,06
439,464	-58,2
439,669	-45,91
439,875	58,54
440,081	-29,52
440,286	-19,29
440,492	-43,86
440,698	-7
440,903	1,19
441,109	19,63
441,314	-56,15
441,52	-54,1
441,726	33,96
441,931	-43,86
442,137	29,87
442,342	70,83
442,548	54,44
442,753	54,44
442,959	-31,57
443,164	25,77
443,37	13,48
443,575	-13,14
443,781	-56,15
443,986	99,5
444,192	-29,52
444,397	-17,24
444,602	-47,96
444,808	-39,76
445,013	-21,33
445,219	-45,91
445,424	72,87
445,629	-11,09
445,835	42,15
446,04	3,24
446,245	-117,59
446,451	-72,53
446,656	-56,15
446,861	40,11
447,066	9,39
447,272	27,82
447,477	-45,91
447,682	-97,11
447,887	23,72
448,093	-78,68
448,298	126,12
448,503	-90,96
448,708	-101,2
448,913	-64,34
449,118	-84,82
449,324	50,35
449,529	38,06
449,734	99,5
449,939	-76,63
450,144	36,01
450,349	101,55
450,554	-64,34
450,759	7,34
450,964	-21,33
451,169	3,24
451,374	56,49
451,579	60,59
451,784	13,48
451,989	-33,62
452,194	25,77
452,399	-76,63
452,604	-27,48
452,809	-31,57
453,014	-64,34
453,219	-7
453,424	1,19
453,629	-23,38
453,833	-39,76
454,038	46,25
454,243	-33,62
454,448	33,96
454,653	68,78
454,858	1,19
455,062	-43,86
455,267	-13,14
455,472	117,93
455,677	-68,44
455,882	-47,96
456,086	126,12
456,291	91,31
456,496	-88,92
456,7	36,01
456,905	50,35
457,11	27,82
457,314	27,82
457,519	-7
457,724	1,19
457,928	42,15
458,133	-72,53
458,338	-39,76
458,542	-29,52
458,747	91,31
458,951	36,01
459,156	-15,19
459,36	-86,87
459,565	15,53
459,769	-41,81
459,974	91,31
460,178	-47,96
460,383	-58,2
460,587	-37,72
460,792	-47,96
460,996	-23,38
461,201	27,82
461,405	-150,36
461,61	-88,92
461,814	-0,85
462,018	-101,2
462,223	-15,19
462,427	-0,85
462,631	-45,91
462,836	42,15
463,04	-7
463,244	109,74
463,449	-52,05
463,653	111,78
463,857	-31,57
464,062	25,77
464,266	-11,09
464,47	-29,52
464,674	38,06
464,878	58,54
465,083	-56,15
465,287	25,77
465,491	-15,19
465,695	3,24
465,899	-62,29
466,104	-43,86
466,308	-4,95
466,512	-45,91
466,716	33,96
466,92	48,3
467,124	91,31
467,328	25,77
467,532	27,82
467,736	-2,9
467,94	19,63
468,144	117,93
468,348	1,19
468,552	62,63
468,756	19,63
468,96	1,19
469,164	-56,15
469,368	-39,76
469,572	-23,38
469,776	74,92
469,98	33,96
470,184	91,31
470,388	107,69
470,591	93,35
470,795	124,07
470,999	79,02
471,203	142,5
471,407	99,5
471,611	156,84
471,814	91,31
472,018	9,39
472,222	33,96
472,426	140,46
472,63	-11,09
472,833	74,92
473,037	36,01
473,241	33,96
473,444	33,96
473,648	406,69
473,852	17,58
474,055	33,96
474,259	91,31
474,463	40,11
474,666	62,63
474,87	1,19
475,074	33,96
475,277	42,15
475,481	181,42
475,684	1,19
475,888	-2,9
476,091	29,87
476,295	-70,48
476,498	-90,96
476,702	-4,95
476,905	74,92
477,109	117,93
477,312	42,15
477,516	-39,76
477,719	38,06
477,923	11,43
478,126	-64,34
478,329	-23,38
478,533	-21,33
478,736	5,29
478,94	70,83
479,143	44,2
479,346	-7
479,55	44,2
479,753	-13,14
479,956	-93,01
480,159	-62,29
480,363	7,34
480,566	25,77
480,769	-43,86
480,972	-72,53
481,176	25,77
481,379	76,97
481,582	44,2
481,785	-23,38
481,988	9,39
482,192	93,35
482,395	25,77
482,598	17,58
482,801	19,63
483,004	101,55
483,207	-62,29
483,41	17,58
483,613	124,07
483,817	52,39
484,02	23,72
484,223	-27,48
484,426	9,39
484,629	-52,05
484,832	33,96
485,035	36,01
485,238	50,35
485,441	1,19
485,644	5,29
485,846	50,35
486,049	-41,81
486,252	36,01
486,455	-13,14
486,658	44,2
486,861	50,35
487,064	130,22
487,267	-31,57
487,47	60,59
487,672	107,69
487,875	60,59
488,078	-45,91
488,281	27,82
488,484	-11,09
488,686	46,25
488,889	-4,95
489,092	19,63
489,295	85,16
489,497	95,4
489,7	11,43
489,903	-11,09
490,105	-74,58
490,308	-54,1
490,511	-21,33
490,713	-43,86
490,916	-56,15
491,118	-4,95
491,321	-19,29
491,524	-68,44
491,726	-13,14
491,929	9,39
492,131	-88,92
492,334	-39,76
492,536	13,48
492,739	-74,58
492,941	-7
493,144	9,39
493,346	7,34
493,549	-39,76
493,751	-7
493,954	-29,52
494,156	9,39
494,359	58,54
494,561	-29,52
494,763	83,11
494,966	74,92
495,168	83,11
495,37	-56,15
495,573	-21,33
495,775	25,77
495,977	36,01
496,18	1,19
496,382	58,54
496,584	-4,95
496,787	107,69
496,989	1,19
497,191	9,39
497,393	79,02
497,595	-129,88
497,798	13,48
498	-76,63
498,202	48,3
498,404	-47,96
498,606	-37,72
498,808	42,15
499,011	-64,34
499,213	42,15
499,415	-43,86
499,617	36,01
499,819	33,96
500,021	138,41
500,223	7,34
500,425	-25,43
500,627	11,43
500,829	66,73
501,031	19,63
501,233	1,19
501,435	50,35
501,637	13,48
501,839	93,35
502,041	-9,05
502,243	25,77
502,445	-68,44
502,647	-2,9
502,848	66,73
503,05	87,21
503,252	253,09
503,454	214,18
503,656	181,42
503,858	246,95
504,059	249
504,261	156,84
504,463	332,97
504,665	249
504,867	107,69
505,068	66,73
505,27	87,21
505,472	117,93
505,673	29,87
505,875	-39,76
506,077	15,53
506,278	-72,53
506,48	-7
506,682	95,4
506,883	21,67
507,085	46,25
507,287	-17,24
507,488	44,2
507,69	79,02
507,891	38,06
508,093	226,47
508,294	177,32
508,496	95,4
508,697	48,3
508,899	50,35
509,1	130,22
509,302	136,36
509,503	9,39
509,705	62,63
509,906	91,31
510,108	-9,05
510,309	-33,62
510,51	33,96
510,712	-31,57
510,913	17,58
511,114	74,92
511,316	36,01
511,517	185,51
511,718	119,98
511,92	173,22
512,121	251,05
512,322	189,61
512,524	314,53
512,725	165,03
512,926	146,6
513,127	33,96
513,329	101,55
513,53	-9,05
513,731	107,69
513,932	74,92
514,133	58,54
514,334	99,5
514,536	109,74
514,737	249
514,938	91,31
515,139	197,8
515,34	158,89
515,541	152,74
515,742	101,55
515,943	193,7
516,144	91,31
516,345	74,92
516,546	124,07
516,747	132,26
516,948	58,54
517,149	-64,34
517,35	11,43
517,551	-25,43
517,752	1,19
517,953	62,63
518,154	46,25
518,355	167,08
518,556	74,92
518,756	68,78
518,957	154,79
519,158	156,84
519,359	134,31
519,56	70,83
519,761	165,03
519,961	144,55
520,162	328,87
520,363	36,01
520,564	91,31
520,764	269,48
520,965	17,58
521,166	230,57
521,366	109,74
521,567	224,42
521,768	165,03
521,968	115,88
522,169	87,21
522,37	62,63
522,57	11,43
522,771	7,34
522,972	-52,05
523,172	119,98
523,373	62,63
523,573	68,78
523,774	31,91
523,974	109,74
524,175	58,54
524,375	17,58
524,576	-31,57
524,776	62,63
524,977	-7
525,177	132,26
525,378	19,63
525,578	74,92
525,778	-37,72
525,979	21,67
526,179	17,58
526,38	5,29
526,58	-41,81
526,78	-136,02
526,981	62,63
527,181	50,35
527,381	52,39
527,582	99,5
527,782	81,07
527,982	-7
528,182	58,54
528,383	-15,19
528,583	33,96
528,783	13,48
528,983	9,39
529,183	-11,09
529,384	17,58
529,584	160,94
529,784	234,66
529,984	66,73
530,184	183,46
530,384	25,77
530,584	-11,09
530,784	148,65
530,984	-60,24
531,185	83,11
531,385	83,11
531,585	93,35
531,785	46,25
531,985	1,19
532,185	17,58
532,385	66,73
532,585	140,46
532,785	224,42
532,984	296,1
533,184	457,89
533,384	480,42
533,584	451,75
533,784	623,78
533,984	640,16
534,184	511,14
534,384	543,91
534,583	656,54
534,783	525,47
534,983	582,82
535,183	470,18
535,383	292,01
535,582	265,38
535,782	328,87
535,982	263,33
536,182	109,74
536,381	160,94
536,581	-11,09
536,781	72,87
536,98	99,5
537,18	29,87
537,38	15,53
537,579	79,02
537,779	44,2
537,979	93,35
538,178	9,39
538,378	66,73
538,577	19,63
538,777	115,88
538,976	93,35
539,176	177,32
539,376	193,7
539,575	189,61
539,774	308,39
539,974	318,63
540,173	480,42
540,373	566,43
540,572	484,52
540,772	543,91
540,971	429,22
541,171	402,6
541,37	330,92
541,569	279,72
541,769	238,76
541,968	216,23
542,167	99,5
542,367	52,39
542,566	-15,19
542,765	9,39
542,965	-4,95
543,164	19,63
543,363	38,06
543,562	42,15
543,761	-0,85
543,961	54,44
544,16	-105,3
544,359	83,11
544,558	58,54
544,757	-23,38
544,957	-19,29
545,156	74,92
545,355	-19,29
545,554	38,06
545,753	-93,01
545,952	-47,96
546,151	-2,9
546,35	-13,14
546,549	58,54
546,748	29,87
546,947	1,19
547,146	-76,63
547,345	70,83
547,544	-142,16
547,743	-97,11
547,942	-62,29
548,141	33,96
548,34	19,63
548,539	21,67
548,738	42,15
548,937	-23,38
549,135	-41,81
549,334	21,67
549,533	66,73
549,732	5,29
549,931	-25,43
550,13	-37,72
550,328	-21,33
550,527	-54,1
550,726	17,58
550,925	-52,05
551,123	21,67
551,322	-7
551,521	42,15
551,72	68,78
551,918	33,96
552,117	1,19
552,315	1,19
552,514	1,19
552,713	29,87
552,911	3,24
553,11	-113,49
553,309	9,39
553,507	46,25
553,706	-64,34
553,904	-23,38
554,103	-4,95
554,301	-21,33
554,5	3,24
554,698	76,97
554,897	17,58
555,095	13,48
555,294	-39,76
555,492	-15,19
555,69	44,2
555,889	-23,38
556,087	68,78
556,286	134,31
556,484	52,39
556,682	29,87
556,881	42,15
557,079	87,21
557,277	83,11
557,476	62,63
557,674	50,35
557,872	91,31
558,07	-4,95
558,269	-0,85
558,467	-4,95
558,665	87,21
558,863	25,77
559,062	21,67
559,26	27,82
559,458	-125,78
559,656	29,87
559,854	-37,72
560,052	13,48
560,25	1,19
560,449	240,81
560,647	-25,43
560,845	3,24
561,043	3,24
561,241	93,35
561,439	115,88
561,637	-39,76
561,835	-23,38
562,033	85,16
562,231	36,01
562,429	-31,57
562,627	-27,48
562,825	-47,96
563,023	33,96
563,221	-76,63
563,418	-19,29
563,616	-2,9
563,814	165,03
564,012	17,58
564,21	81,07
564,408	36,01
564,605	-7
564,803	-70,48
565,001	251,05
565,199	17,58
565,397	117,93
565,594	175,27
565,792	193,7
565,99	148,65
566,188	175,27
566,385	273,57
566,583	33,96
566,781	275,62
566,978	107,69
567,176	279,72
567,373	54,44
567,571	101,55
567,769	103,59
567,966	-15,19
568,164	109,74
568,361	7,34
568,559	5,29
568,756	7,34
568,954	107,69
569,151	173,22
569,349	156,84
569,546	83,11
569,744	160,94
569,941	91,31
570,139	134,31
570,336	17,58
570,534	36,01
570,731	36,01
570,928	46,25
571,126	185,51
571,323	66,73
571,52	36,01
571,718	87,21
571,915	70,83
572,112	1,19
572,31	99,5
572,507	162,98
572,704	-15,19
572,901	79,02
573,099	17,58
573,296	175,27
573,493	50,35
573,69	1,19
573,887	81,07
574,085	201,9
574,282	140,46
574,479	25,77
574,676	214,18
574,873	273,57
575,07	255,14
575,267	283,81
575,464	308,39
575,661	533,67
575,858	466,08
576,055	627,87
576,252	740,51
576,449	822,43
576,646	943,26
576,843	894,11
577,04	959,64
577,237	898,2
577,434	804
577,631	681,12
577,828	599,2
578,025	533,67
578,222	396,45
578,419	300,2
578,615	189,61
578,812	165,03
579,009	140,46
579,206	107,69
579,403	156,84
579,599	128,17
579,796	91,31
579,993	257,19
580,19	101,55
580,386	199,85
580,583	263,33
580,78	152,74
580,976	353,45
581,173	357,54
581,37	369,83
581,566	398,5
581,763	427,17
581,96	591,01
582,156	533,67
582,353	623,78
582,549	756,9
582,746	631,97
582,942	574,63
583,139	550,05
583,335	584,87
583,532	1057,95
583,728	1641,62
583,925	2802,82
584,121	4129,9
584,318	6325,32
584,514	8608,81
584,711	11766,78
584,907	15485,89
585,103	19514,24
585,3	23169,87
585,496	26583,83
585,693	29182,7
585,889	29326,06
586,085	28566,26
586,281	25944,86
586,478	22512,47
586,674	19092,36
586,87	17148,84
587,067	14046,16
587,263	11265,02
587,459	8328,24
587,655	6335,56
587,851	5395,54
588,048	5284,95
588,244	5114,97
588,44	5661,78
588,636	5835,86
588,832	5899,34
589,028	5514,33
589,224	4840,54
589,42	4220,01
589,617	3923,05
589,813	3429,49
590,009	2825,34
590,205	2452,61
590,401	1823,89
590,597	1438,87
590,793	1252,5
590,989	1037,47
591,185	890,01
591,38	836,77
591,576	863,39
591,772	717,98
591,968	617,63
592,164	599,2
592,36	500,9
592,556	478,37
592,752	494,76
592,948	634,02
593,143	951,45
593,339	1326,23
593,535	1965,2
593,731	2700,42
593,926	3867,76
594,122	4899,94
594,318	6030,41
594,514	7640,12
594,709	8799,27
594,905	9241,63
595,101	9675,8
595,296	9051,17
595,492	8467,5
595,688	7269,44
595,883	6587,46
596,079	5745,75
596,275	4928,61
596,47	4013,17
596,666	3288,18
596,861	2565,25
597,057	2305,16
597,252	2055,31
597,448	2272,39
597,643	2507,91
597,839	2591,88
598,034	2641,03
598,23	2688,13
598,425	2614,4
598,621	2286,73
598,816	2016,4
599,011	1821,84
599,207	1576,08
599,402	1272,98
599,597	1078,43
599,793	785,57
599,988	568,48
600,183	427,17
600,379	292,01
600,574	226,47
600,769	249
600,965	148,65
601,16	214,18
601,355	181,42
601,55	361,64
601,745	437,41
601,941	599,2
602,136	713,89
602,331	898,2
602,526	1215,64
602,721	1551,51
602,916	1832,08
603,111	2229,38
603,307	2432,13
603,502	2647,17
603,697	2557,06
603,892	2552,96
604,087	2231,43
604,282	1963,15
604,477	1762,45
604,672	1465,49
604,867	1225,88
605,062	1078,43
605,257	648,35
605,452	601,25
605,646	394,4
605,841	466,08
606,036	689,31
606,231	1182,87
606,426	1672,34
606,621	2360,45
606,816	3255,42
607,01	4355,18
607,205	5516,37
607,4	6491,21
607,595	7734,32
607,79	8438,83
607,984	8991,78
608,179	9372,7
608,374	9495,58
608,569	9507,87
608,763	9331,74
608,958	9679,89
609,153	10361,87
609,347	11111,43
609,542	11635,71
609,736	12628,97
609,931	12694,5
610,126	13110,24
610,32	12981,22
610,515	12309,49
610,709	11252,73
610,904	9612,31
611,098	8148,01
611,293	6898,75
611,487	5868,63
611,682	4623,46
611,876	3282,04
612,071	2237,58
612,265	1565,84
612,46	1266,84
612,654	1254,55
612,848	1815,69
613,043	2573,44
613,237	3781,74
613,432	5080,16
613,626	7025,73
613,82	9479,19
614,014	11940,85
614,209	14730,19
614,403	16901,03
614,597	19633,02
614,792	20226,93
614,986	21162,86
615,18	19921,79
615,374	18807,69
615,568	16696,24
615,763	15330,24
615,957	14033,88
616,151	12643,31
616,345	11707,38
616,539	10415,12
616,733	9016,35
616,927	7910,45
617,121	6775,88
617,316	6171,72
617,51	5360,73
617,704	4476,01
617,898	4105,32
618,092	3513,46
618,286	2903,17
618,48	2356,36
618,674	1891,47
618,868	1336,47
619,061	767,13
619,255	806,05
619,449	550,05
619,643	445,6
619,837	445,6
620,031	369,83
620,225	558,24
620,419	521,38
620,612	939,16
620,806	1158,3
621	1610,9
621,194	1887,37
621,388	2493,57
621,581	3036,28
621,775	3499,13
621,969	4021,36
622,162	4359,27
622,356	4303,98
622,55	4146,28
622,743	3810,42
622,937	3400,82
623,131	2974,85
623,324	2677,89
623,518	2249,86
623,712	1772,69
623,905	1377,43
624,099	1000,6
624,292	797,85
624,486	378,02
624,679	402,6
624,873	341,16
625,066	550,05
625,26	812,19
625,453	1201,3
625,647	1866,89
625,84	2778,24
626,034	3558,52
626,227	4654,18
626,42	5842
626,614	7021,63
626,807	8270,89
627	9069,6
627,194	9161,76
627,387	9333,79
627,58	8918,05
627,774	7824,44
627,967	7097,41
628,16	6138,96
628,353	5434,46
628,547	4729,95
628,74	4056,17
628,933	2729,09
629,126	2139,27
629,319	1737,87
629,513	1635,47
629,706	1746,06
629,899	2204,81
630,092	2491,52
630,285	3097,72
630,478	3753,07
630,671	4260,97
630,864	4592,74
631,057	4691,04
631,25	4666,47
631,443	4426,86
631,636	4029,55
631,829	3863,66
632,022	3976,3
632,215	4207,72
632,408	4969,57
632,601	5518,42
632,794	6538,31
632,987	8086,58
633,18	9571,35
633,373	11365,37
633,566	12930,02
633,758	13806,55
633,951	15012,81
634,144	14898,12
634,337	14390,22
634,53	13030,37
634,722	11502,59
634,915	9557,02
635,108	8791,08
635,301	7474,23
635,493	6251,6
635,686	4697,19
635,879	3288,18
636,071	2020,49
636,264	1467,54
636,457	1115,29
636,649	754,85
636,842	1051,8
637,034	1500,31
637,227	2374,79
637,42	3118,2
637,612	4183,15
637,805	5819,47
637,997	7537,72
638,19	8713,25
638,382	10576,91
638,575	12182,51
638,767	14728,14
638,96	16974,76
639,152	19803
639,344	23214,92
639,537	26788,63
639,729	31533,77
639,922	36835,96
640,114	42648,1
640,306	47538,65
640,499	51558,81
640,691	52334,99
640,883	52216,21
641,075	50008,5
641,268	45502,96
641,46	39725,64
641,652	34386,59
641,844	29711,08
642,037	26194,71
642,229	21674,85
642,421	17499,04
642,613	12139,51
642,805	7879,73
642,998	4883,55
643,19	3163,26
643,382	2032,78
643,574	1322,13
643,766	877,73
643,958	683,17
644,15	652,45
644,342	494,76
644,534	502,95
644,726	324,77
644,918	306,34
645,11	238,76
645,302	275,62
645,494	351,4
645,686	263,33
645,878	205,99
646,07	246,95
646,262	177,32
646,453	101,55
646,645	70,83
646,837	226,47
647,029	169,13
647,221	117,93
647,413	99,5
647,604	144,55
647,796	214,18
647,988	201,9
648,18	132,26
648,371	181,42
648,563	89,26
648,755	105,64
648,947	216,23
649,138	603,3
649,33	1426,58
649,521	2569,35
649,713	3880,05
649,905	5553,24
650,096	7646,26
650,288	9788,44
650,479	12332,01
650,671	14773,19
650,863	17040,29
651,054	17892,25
651,246	18477,97
651,437	18287,51
651,629	16939,94
651,82	15702,97
652,011	13913,05
652,203	12266,48
652,394	11650,04
652,586	10542,09
652,777	9401,37
652,968	7879,73
653,16	6800,45
653,351	6263,88
653,542	5887,06
653,734	5448,79
653,925	5172,32
654,116	4631,65
654,308	4351,08
654,499	3918,96
654,69	3204,22
654,881	2907,26
655,073	2618,5
655,264	2235,53
655,455	1840,27
655,646	1541,27
655,837	1019,04
656,028	681,12
656,219	390,31
656,411	302,25
656,602	197,8
656,793	222,38
656,984	210,09
657,175	148,65
657,366	50,35
657,557	132,26
657,748	122,02
657,939	113,83
658,13	70,83
658,321	246,95
658,512	478,37
658,703	875,68
658,894	1303,7
659,084	1705,1
659,275	2491,52
659,466	3212,41
659,657	4088,94
659,848	4883,55
660,039	5669,97
660,23	6153,29
660,42	6325,32
660,611	6394,95
660,802	5983,31
660,993	5565,53
661,183	4875,36
661,374	4236,39
661,565	3744,88
661,755	3337,34
661,946	2954,37
662,137	2198,67
662,327	1723,54
662,518	1084,57
662,709	754,85
662,899	418,98
663,09	347,3
663,28	165,03
663,471	134,31
663,662	267,43
663,852	115,88
664,043	134,31
664,233	132,26
664,424	158,89
664,614	99,5
664,804	107,69
664,995	158,89
665,185	136,36
665,376	142,5
665,566	183,46
665,756	44,2
665,947	70,83
666,137	158,89
666,328	478,37
666,518	844,96
666,708	1551,51
666,898	2389,13
667,089	3513,46
667,279	4672,61
667,469	6071,37
667,659	7613,49
667,85	9075,74
668,04	10331,15
668,23	10849,29
668,42	11086,85
668,61	10863,62
668,8	10392,59
668,991	9610,26
669,181	8168,49
669,371	7312,44
669,561	6392,91
669,751	5786,71
669,941	4844,64
670,131	3802,22
670,321	3056,76
670,511	2421,89
670,701	2350,21
670,891	2499,72
671,081	2876,54
671,271	3658,87
671,461	4236,39
671,651	5123,16
671,841	5858,39
672,03	6562,89
672,22	6618,18
672,41	6693,96
672,6	6462,54
672,79	5821,52
672,98	5207,13
673,169	4547,69
673,359	4109,42
673,549	3548,28
673,739	2985,09
673,928	2411,65
674,118	1983,63
674,308	1406,1
674,497	959,64
674,687	527,52
674,877	306,34
675,066	238,76
675,256	156,84
675,446	109,74
675,635	107,69
675,825	136,36
676,014	66,73
676,204	109,74
676,393	68,78
676,583	87,21
676,772	85,16
676,962	52,39
677,151	-7
677,341	-25,43
677,53	17,58
677,72	42,15
677,909	111,78
678,099	-15,19
678,288	-60,24
678,477	25,77
678,667	70,83
678,856	66,73
679,045	-13,14
679,235	42,15
679,424	-37,72
679,613	87,21
679,802	144,55
679,992	-43,86
680,181	-15,19
680,37	50,35
680,559	58,54
680,748	50,35
680,938	42,15
681,127	-45,91
681,316	103,59
681,505	38,06
681,694	17,58
681,883	70,83
682,072	70,83
682,261	-27,48
682,45	-70,48
682,639	-41,81
682,828	25,77
683,017	115,88
683,206	-80,72
683,395	74,92
683,584	50,35
683,773	111,78
683,962	-62,29
684,151	46,25
684,34	15,53
684,529	50,35
684,718	-37,72
684,907	-15,19
685,095	29,87
685,284	52,39
685,473	70,83
685,662	-41,81
685,851	60,59
686,039	115,88
686,228	50,35
686,417	-13,14
686,606	42,15
686,794	-7
686,983	-72,53
687,172	9,39
687,36	-15,19
687,549	-9,05
687,738	-2,9
687,926	-11,09
688,115	-4,95
688,303	-62,29
688,492	99,5
688,68	-105,3
688,869	-88,92
689,057	-15,19
689,246	3,24
689,434	46,25
689,623	42,15
689,811	58,54
690	-7
690,188	-13,14
690,377	33,96
690,565	70,83
690,753	138,41
690,942	44,2
691,13	126,12
691,318	76,97
691,507	210,09
691,695	750,75
691,883	1502,36
692,072	2323,59
692,26	3368,06
692,448	4326,5
692,636	5573,72
692,824	6947,9
693,013	7896,11
693,201	9178,14
693,389	9274,4
693,577	9073,7
693,765	9292,83
693,953	8821,8
694,141	7824,44
694,329	6792,26
694,518	5766,23
694,706	5467,22
694,894	4811,87
695,082	4123,76
695,27	3454,07
695,458	2657,41
695,646	1905,81
695,834	1324,18
696,022	922,78
696,209	593,06
696,397	345,25
696,585	230,57
696,773	165,03
696,961	85,16
697,149	83,11
697,337	95,4
697,525	119,98
697,712	60,59
697,9	107,69
698,088	19,63
698,276	54,44
698,463	83,11
698,651	132,26
698,839	44,2
699,027	54,44
699,214	148,65
699,402	-15,19
699,59	60,59
699,777	60,59
699,965	81,07
700,152	15,53
700,34	-35,67
700,528	25,77
700,715	79,02
700,903	42,15
701,09	115,88
701,278	95,4
701,465	165,03
701,653	306,34
701,84	517,28
702,028	1447,06
702,215	2397,32
702,402	3505,27
702,59	4920,42
702,777	6517,83
702,965	7898,16
703,152	9452,57
703,339	10648,58
703,527	11957,24
703,714	11990
703,901	11981,81
704,088	11609,08
704,276	10898,44
704,463	9843,73
704,65	8598,57
704,837	7676,98
705,025	6984,77
705,212	6087,76
705,399	5217,37
705,586	4527,21
705,773	3779,7
705,96	2737,28
706,147	1965,2
706,335	1373,33
706,522	926,88
706,709	648,35
706,896	558,24
707,083	378,02
707,27	349,35
707,457	357,54
707,644	197,8
707,831	230,57
708,018	76,97
708,205	138,41
708,392	107,69
708,578	158,89
708,765	50,35
708,952	11,43
709,139	9,39
709,326	11,43
709,513	27,82
709,7	74,92
709,886	142,5
710,073	101,55
710,26	165,03
710,447	-45,91
710,633	36,01
710,82	1,19
711,007	1,19
711,193	66,73
711,38	66,73
711,567	91,31
711,753	91,31
711,94	42,15
712,127	-11,09
712,313	91,31
712,5	-54,1
712,686	48,3
712,873	-4,95
713,059	-37,72
713,246	-11,09
713,432	40,11
713,619	-58,2
713,805	-31,57
713,992	109,74
714,178	29,87
714,365	-52,05
714,551	83,11
714,737	76,97
714,924	-88,92
715,11	42,15
715,297	13,48
715,483	17,58
715,669	-21,33
715,855	17,58
716,042	150,7
716,228	181,42
716,414	353,45
716,6	509,09
716,787	771,23
716,973	996,51
717,159	1324,18
717,345	1453,2
717,531	1606,8
717,718	1836,17
717,904	1961,1
718,09	1893,52
718,276	1819,79
718,462	1791,12
718,648	1545,36
718,834	1221,78
719,02	1240,22
719,206	1016,99
719,392	871,58
719,578	818,33
719,764	601,25
719,95	591,01
720,136	582,82
720,322	361,64
720,508	234,66
720,694	156,84
720,879	27,82
721,065	87,21
721,251	89,26
721,437	-41,81
721,623	109,74
721,809	70,83
721,994	76,97
722,18	-62,29
722,366	54,44
722,552	-27,48
722,737	52,39
722,923	83,11
723,109	226,47
723,294	402,6
723,48	836,77
723,666	1270,94
723,851	1850,51
724,037	2507,91
724,222	3187,83
724,408	3949,68
724,593	4412,52
724,779	4801,63
724,965	5024,86
725,15	5104,73
725,336	4764,77
725,521	4605,03
725,706	4115,56
725,892	3718,26
726,077	3271,8
726,263	2856,06
726,448	2788,48
726,634	2208,9
726,819	2012,3
727,004	1870,99
727,19	1393,81
727,375	1207,45
727,56	730,27
727,745	435,36
727,931	402,6
728,116	89,26
728,301	222,38
728,486	134,31
728,672	58,54
728,857	91,31
729,042	36,01
729,227	50,35
729,412	62,63
729,597	11,43
729,783	-21,33
729,968	33,96
730,153	42,15
730,338	74,92
730,523	11,43
730,708	50,35
730,893	-7
731,078	-2,9
731,263	-0,85
731,448	3,24
731,633	-54,1
731,818	-47,96
732,003	-23,38
732,187	-47,96
732,372	-39,76
732,557	66,73
732,742	-2,9
732,927	-54,1
733,112	103,59
733,297	-21,33
733,481	-37,72
733,666	58,54
733,851	-15,19
734,036	-88,92
734,22	3,24
734,405	167,08
734,59	-29,52
734,774	-21,33
734,959	-41,81
735,144	140,46
735,328	21,67
735,513	-9,05
735,698	-50
735,882	124,07
736,067	1,19
736,251	160,94
736,436	21,67
736,62	-4,95
736,805	-54,1
736,989	54,44
737,174	-45,91
737,358	-105,3
737,543	74,92
737,727	5,29
737,911	72,87
738,096	17,58
738,28	36,01
738,465	52,39
738,649	74,92
738,833	48,3
739,018	-50
739,202	-15,19
739,386	-23,38
739,57	1,19
739,755	36,01
739,939	58,54
740,123	-56,15
740,307	66,73
740,491	-35,67
740,676	1,19
740,86	58,54
741,044	33,96
741,228	-47,96
741,412	-97,11
741,596	-119,64
741,78	1,19
741,964	-27,48
742,148	7,34
742,332	-84,82
742,516	-64,34
742,7	93,35
742,884	263,33
743,068	328,87
743,252	453,8
743,436	595,11
743,62	677,02
743,804	978,08
743,988	1195,16
744,172	1139,87
744,356	1180,82
744,539	1117,34
744,723	1105,05
744,907	1066,14
745,091	998,56
745,275	793,76
745,458	730,27
745,642	617,63
745,826	568,48
746,009	627,87
746,193	416,93
746,377	410,79
746,56	427,17
746,744	337,06
746,928	265,38
747,111	226,47
747,295	124,07
747,478	29,87
747,662	160,94
747,846	179,37
748,029	195,75
748,213	238,76
748,396	246,95
748,58	304,29
748,763	322,73
748,946	345,25
749,13	443,56
749,313	416,93
749,497	550,05
749,68	443,56
749,863	369,83
750,047	359,59
750,23	345,25
750,413	380,07
750,597	240,81
750,78	165,03
750,963	249
751,146	132,26
751,33	189,61
751,513	150,7
751,696	29,87
751,879	54,44
752,062	-72,53
752,246	68,78
752,429	101,55
752,612	101,55
752,795	66,73
752,978	179,37
753,161	222,38
753,344	255,14
753,527	386,21
753,71	378,02
753,893	455,84
754,076	361,64
754,259	500,9
754,442	378,02
754,625	402,6
754,808	443,56
754,991	396,45
755,174	398,5
755,357	236,71
755,539	271,53
755,722	222,38
755,905	230,57
756,088	232,62
756,271	199,85
756,453	158,89
756,636	25,77
756,819	126,12
757,002	17,58
757,184	115,88
757,367	58,54
757,55	148,65
757,732	83,11
757,915	-54,1
758,098	-47,96
758,28	23,72
758,463	-23,38
758,645	58,54
758,828	17,58
759,011	42,15
759,193	9,39
759,376	25,77
759,558	-78,68
759,741	-39,76
759,923	-29,52
760,105	1,19
760,288	36,01
760,47	-109,4
760,653	-121,68
760,835	-43,86
761,017	9,39
761,2	-47,96
761,382	99,5
761,564	-23,38
761,747	54,44
761,929	-23,38
762,111	27,82
762,294	54,44
762,476	152,74
762,658	11,43
762,84	103,59
763,022	-7
763,205	46,25
763,387	19,63
763,569	-7
763,751	-125,78
763,933	-27,48
764,115	-45,91
764,297	-0,85
764,479	76,97
764,661	-68,44
764,843	87,21
765,025	-15,19
765,207	11,43
765,389	-29,52
765,571	-54,1
765,753	7,34
765,935	9,39
766,117	-2,9
766,299	140,46
766,481	124,07
766,663	-76,63
766,845	-50
767,026	17,58
767,208	36,01
767,39	-9,05
767,572	-113,49
767,753	140,46
767,935	-37,72
768,117	13,48
768,299	134,31
768,48	13,48
768,662	21,67
768,844	54,44
769,025	107,69
769,207	-39,76
769,389	-72,53
769,57	-15,19
769,752	11,43
769,933	-47,96
770,115	64,68
770,296	-37,72
770,478	95,4
770,659	-43,86
770,841	93,35
771,022	17,58
771,204	79,02
771,385	9,39
771,567	25,77
771,748	76,97
771,929	-56,15
772,111	-21,33
772,292	17,58
772,473	91,31
772,655	-15,19
772,836	38,06
773,017	36,01
773,199	25,77
773,38	29,87
773,561	58,54
773,742	42,15
773,923	27,82
774,105	124,07
774,286	74,92
774,467	-21,33
774,648	-31,57
774,829	50,35
775,01	17,58
775,191	-111,44
775,372	-9,05
775,553	-15,19
775,734	-7
775,915	1,19
776,096	15,53
776,277	-15,19
776,458	-11,09
776,639	-23,38
776,82	42,15
777,001	17,58
777,182	-62,29
777,363	58,54
777,544	21,67
777,725	48,3
777,906	-37,72
778,086	21,67
778,267	68,78
778,448	19,63
778,629	-56,15
778,809	97,45
778,99	-101,2
779,171	-37,72
779,352	17,58
779,532	-11,09
779,713	-45,91
779,894	-78,68
780,074	154,79
780,255	83,11
780,435	99,5
780,616	40,11
780,797	27,82
780,977	-47,96
781,158	-47,96
781,338	-58,2
781,519	-29,52
781,699	93,35
781,88	-54,1
782,06	17,58
782,241	-80,72
782,421	1,19
782,601	107,69
782,782	27,82
782,962	33,96
783,142	-70,48
783,323	52,39
783,503	46,25
783,683	52,39
783,864	19,63
784,044	-11,09
784,224	66,73
784,404	-64,34
784,585	17,58
784,765	99,5
784,945	68,78
785,125	-29,52
785,305	103,59
785,485	93,35
785,666	17,58
785,846	21,67
786,026	-7
786,206	-29,52
786,386	-35,67
786,566	9,39
786,746	-66,39
786,926	58,54
787,106	-2,9
787,286	-33,62
787,466	-31,57
787,646	50,35
787,826	46,25
788,006	140,46
788,185	66,73
788,365	-29,52
788,545	107,69
788,725	13,48
788,905	46,25
789,085	-23,38
789,264	-138,07
789,444	91,31
789,624	74,92
789,804	-29,52
789,983	46,25
790,163	-47,96
790,343	9,39
790,522	-11,09
790,702	66,73
790,882	-2,9
791,061	185,51
791,241	66,73
791,42	33,96
791,6	66,73
791,78	62,63
791,959	-31,57
792,139	-52,05
792,318	1,19
792,498	58,54
792,677	60,59
792,856	29,87
793,036	25,77
793,215	-7
793,395	25,77
793,574	25,77
793,753	1,19
793,933	99,5
794,112	150,7
794,291	79,02
794,471	171,18
794,65	124,07
794,829	1,19
795,008	62,63
795,188	81,07
795,367	130,22
795,546	50,35
795,725	9,39
795,904	3,24
796,084	-7
796,263	68,78
796,442	93,35
796,621	3,24
796,8	117,93
796,979	-29,52
797,158	-25,43
797,337	33,96
797,516	38,06
797,695	99,5
797,874	42,15
798,053	76,97
798,232	-72,53
798,411	-31,57
798,59	25,77
798,769	-21,33
798,947	-4,95
799,126	89,26
799,305	9,39
799,484	42,15
799,663	-39,76
799,842	-29,52
800,02	58,54
800,199	-78,68
800,378	-56,15
800,557	-25,43
800,735	-82,77
800,914	27,82
801,093	5,29
801,271	-7
801,45	29,87
801,628	74,92
801,807	-19,29
801,986	3,24
802,164	3,24
802,343	-31,57
802,521	-27,48
802,7	-33,62
802,878	38,06
803,057	-2,9
803,235	36,01
803,414	-15,19
803,592	38,06
803,771	58,54
803,949	11,43
804,127	-47,96
804,306	33,96
804,484	15,53
804,662	-29,52
804,841	-37,72
805,019	-47,96
805,197	58,54
805,375	29,87
805,554	-56,15
805,732	-15,19
805,91	25,77
806,088	-64,34
806,266	-2,9
806,445	-90,96
806,623	-21,33
806,801	9,39
806,979	46,25
807,157	-19,29
807,335	-72,53
807,513	33,96
807,691	29,87
807,869	-31,57
808,047	15,53
808,225	1,19
808,403	134,31
808,581	-2,9
808,759	158,89
808,937	115,88
809,115	70,83
809,293	42,15
809,471	-15,19
809,649	3,24
809,826	85,16
810,004	103,59
810,182	-105,3
810,36	-15,19
810,538	42,15
810,715	-84,82
810,893	44,2
811,071	44,2
811,248	111,78
811,426	42,15
811,604	74,92
811,781	66,73
811,959	87,21
812,137	128,17
812,314	-68,44
812,492	1,19
812,669	33,96
812,847	-21,33
813,024	17,58
813,202	167,08
813,379	66,73
813,557	70,83
813,734	144,55
813,912	124,07
814,089	83,11
814,267	117,93
814,444	70,83
814,621	36,01
814,799	9,39
814,976	54,44
815,153	85,16
815,331	25,77
815,508	25,77
815,685	50,35
815,862	85,16
816,04	25,77
816,217	-39,76
816,394	9,39
816,571	101,55
816,748	189,61
816,926	117,93
817,103	353,45
817,28	50,35
817,457	-17,24
817,634	87,21
817,811	-95,06
817,988	25,77
818,165	-47,96
818,342	17,58
818,519	5,29
818,696	-25,43
818,873	5,29
819,05	99,5
819,227	-170,83
819,404	17,58
819,581	52,39
819,758	-13,14
819,934	50,35
820,111	-60,24
820,288	13,48
820,465	113,83
820,642	13,48
820,818	33,96
820,995	-35,67
821,172	91,31
821,349	-13,14
821,525	-31,57
821,702	-19,29
821,879	-78,68
822,055	-37,72
822,232	17,58
822,409	40,11
822,585	11,43
822,762	-21,33
822,938	60,59
823,115	33,96
823,291	-4,95
823,468	173,22
823,644	25,77
823,821	52,39
823,997	-31,57
824,174	-39,76
824,35	-80,72
824,527	-35,67
824,703	-11,09
824,879	-19,29
825,056	36,01
825,232	126,12
825,408	33,96
825,585	-35,67
825,761	-15,19
825,937	-76,63
826,113	107,69
826,29	97,45
826,466	-47,96
826,642	361,64
826,818	66,73
826,994	58,54
827,17	-31,57
827,347	-2,9
827,523	5,29
827,699	52,39
827,875	33,96
828,051	52,39
828,227	58,54
828,403	79,02
828,579	83,11
828,755	17,58
828,931	74,92
829,107	42,15
829,283	214,18
829,459	56,49
829,635	25,77
829,811	115,88
829,986	93,35
830,162	62,63
830,338	119,98
830,514	17,58
830,69	165,03
830,865	-31,57
831,041	99,5
831,217	42,15
831,393	17,58
831,568	36,01
831,744	91,31
831,92	33,96
832,095	83,11
832,271	11,43
832,447	74,92
832,622	58,54
832,798	33,96
832,973	52,39
833,149	9,39
833,325	83,11
833,5	1,19
833,676	97,45
833,851	44,2
834,027	-39,76
834,202	33,96
834,377	33,96
834,553	19,63
834,728	19,63
834,904	44,2
835,079	40,11
835,254	-15,19
835,43	33,96
835,605	-45,91
835,78	-64,34
835,955	13,48
836,131	-39,76
836,306	-21,33
836,481	-7
836,656	58,54
836,832	197,8
837,007	38,06
837,182	255,14
837,357	339,11
837,532	347,3
837,707	361,64
837,882	410,79
838,057	435,36
838,232	449,7
838,407	418,98
838,582	279,72
838,757	255,14
838,932	232,62
839,107	142,5
839,282	124,07
839,457	205,99
839,632	216,23
839,807	156,84
839,982	128,17
840,157	257,19
840,332	230,57
840,506	148,65
840,681	109,74
840,856	173,22
841,031	167,08
841,205	158,89
841,38	144,55
841,555	199,85
841,73	216,23
841,904	42,15
842,079	89,26
842,254	109,74
842,428	52,39
842,603	83,11
842,777	-29,52
842,952	56,49
843,126	-23,38
843,301	103,59
843,476	17,58
843,65	54,44
843,825	42,15
843,999	74,92
844,173	-7
844,348	9,39
844,522	54,44
844,697	-23,38
844,871	1,19
845,045	66,73
845,22	54,44
845,394	107,69
845,568	-39,76
845,743	58,54
845,917	3,24
846,091	17,58
846,265	-13,14
846,44	48,3
846,614	93,35
846,788	50,35
846,962	21,67
847,136	-7
847,31	27,82
847,485	132,26
847,659	-29,52
847,833	60,59
848,007	76,97
848,181	50,35
848,355	-2,9
848,529	66,73
848,703	119,98
848,877	52,39
849,051	76,97
849,225	162,98
849,399	134,31
849,573	99,5
849,746	148,65
849,92	169,13
850,094	224,42
850,268	132,26
850,442	158,89
850,616	11,43
850,789	-2,9
850,963	142,5
851,137	48,3
851,311	201,9
851,484	154,79
851,658	3,24
851,832	-19,29
852,005	95,4
852,179	79,02
852,352	58,54
852,526	42,15
852,7	68,78
852,873	5,29
853,047	185,51
853,22	25,77
853,394	91,31
853,567	58,54
853,741	-15,19
853,914	70,83
854,088	74,92
854,261	-4,95
854,434	1,19
854,608	5,29
854,781	-21,33
854,955	9,39
855,128	27,82
855,301	-13,14
855,475	-39,76
855,648	-54,1
855,821	13,48
855,994	21,67
856,168	-7
856,341	91,31
856,514	-21,33
856,687	9,39
856,86	21,67
857,033	74,92
857,207	21,67
857,38	46,25
857,553	132,26
857,726	52,39
857,899	103,59
858,072	-11,09
858,245	-25,43
858,418	52,39
858,591	11,43
858,764	74,92
858,937	132,26
859,11	140,46
859,283	62,63
859,455	-39,76
859,628	42,15
859,801	103,59
859,974	119,98
860,147	70,83
860,32	107,69
860,492	42,15
860,665	-15,19
860,838	70,83
861,011	21,67
861,183	122,02
861,356	76,97
861,529	70,83
861,701	29,87
861,874	7,34
862,047	183,46
862,219	23,72
862,392	95,4
862,564	3,24
862,737	33,96
862,909	85,16
863,082	-21,33
863,254	101,55
863,427	140,46
863,599	132,26
863,772	1,19
863,944	95,4
864,117	76,97
864,289	117,93
864,461	-17,24
864,634	111,78
864,806	68,78
864,978	201,9
865,151	126,12
865,323	257,19
865,495	246,95
865,667	189,61
865,84	269,48
866,012	58,54
866,184	197,8
866,356	93,35
866,528	126,12
866,7	46,25
866,873	91,31
867,045	54,44
867,217	25,77
867,389	99,5
867,561	62,63
867,733	33,96
867,905	148,65
868,077	124,07
868,249	150,7
868,421	175,27
868,593	79,02
868,765	165,03
868,936	60,59
869,108	140,46
869,28	154,79
869,452	42,15
869,624	-7
869,796	44,2
869,968	42,15
870,139	76,97
870,311	83,11
870,483	124,07
870,654	-31,57
870,826	70,83
870,998	-7
871,17	-47,96
871,341	3,24
871,513	33,96
871,684	-80,72
871,856	-99,16
872,028	36,01
872,199	19,63
872,371	-21,33
872,542	44,2
872,714	25,77
872,885	9,39
873,057	-39,76
873,228	13,48
873,4	17,58
873,571	128,17
873,742	-23,38
873,914	46,25
874,085	1,19
874,256	38,06
874,428	-70,48
874,599	-23,38
874,77	58,54
874,942	-31,57
875,113	-64,34
875,284	-88,92
875,455	-72,53
875,626	21,67
875,798	-39,76
875,969	-45,91
876,14	-25,43
876,311	66,73
876,482	93,35
876,653	9,39
876,824	25,77
876,995	50,35
877,166	-0,85
877,337	107,69
877,508	50,35
877,679	23,72
877,85	1,19
878,021	117,93
878,192	132,26
878,363	128,17
878,534	115,88
878,705	54,44
878,876	156,84
879,047	242,85
879,217	17,58
879,388	148,65
879,559	103,59
879,73	132,26
879,9	60,59
880,071	85,16
880,242	160,94
880,413	83,11
880,583	152,74
880,754	117,93
880,924	33,96
881,095	29,87
881,266	50,35
881,436	119,98
881,607	185,51
881,777	79,02
881,948	66,73
882,118	91,31
882,289	85,16
882,459	62,63
882,63	-41,81
882,8	19,63
882,971	9,39
883,141	1,19
883,311	60,59
883,482	99,5
883,652	9,39
883,822	-4,95
883,993	-4,95
884,163	91,31
884,333	-60,24
884,504	58,54
884,674	70,83
884,844	9,39
885,014	-62,29
885,184	-19,29
885,355	19,63
885,525	-17,24
885,695	21,67
885,865	124,07
886,035	44,2
886,205	27,82
886,375	-54,1
886,545	81,07
886,715	-97,11
886,885	46,25
887,055	-2,9
887,225	-21,33
887,395	62,63
887,565	181,42
887,735	40,11
887,905	46,25
888,075	15,53
888,244	72,87
888,414	36,01
888,584	117,93
888,754	-2,9
888,924	33,96
889,093	201,9
889,263	-35,67
889,433	-39,76
889,603	9,39
889,772	-2,9
889,942	33,96
890,111	54,44
890,281	70,83
890,451	-4,95
890,62	44,2
890,79	52,39
890,959	23,72
891,129	-15,19
891,298	109,74
891,468	17,58
891,637	-29,52
891,807	-4,95
891,976	54,44
892,146	-72,53
892,315	17,58
892,485	148,65
892,654	-39,76
892,823	-31,57
892,993	-43,86
893,162	74,92
893,331	44,2
893,501	-15,19
893,67	95,4
893,839	70,83
894,008	-23,38
894,177	-37,72
894,347	-13,14
894,516	83,11
894,685	68,78
894,854	-11,09
895,023	42,15
895,192	-56,15
