Data from neon_USB4F104161__0__11-46-31-085.txt Node

Date: Tue Apr 14 11:46:31 EDT 2026
User: LaboPhy
Spectrometer: USB4F10416
Trigger mode: 4
Integration Time (sec): 1,000000E-1
Scans to average: 1
Electric dark correction enabled: true
Nonlinearity correction enabled: false
Boxcar width: 0
XAxis mode: Wavelengths
Number of Pixels in Spectrum: 3648
>>>>>Begin Spectral Data<<<<<
177,847	-167,93
178,066	-167,93
178,284	-167,93
178,502	-235,52
178,72	-137,21
178,939	14,34
179,157	12,29
179,375	-71,68
179,593	-34,82
179,812	10,24
180,03	2,05
180,248	69,63
180,466	36,86
180,685	51,2
180,903	-14,34
181,121	-77,82
181,339	2,05
181,557	10,24
181,775	22,53
181,994	59,39
182,212	28,67
182,43	-55,3
182,648	18,43
182,866	61,44
183,084	45,06
183,302	28,67
183,52	10,24
183,739	-28,67
183,957	73,73
184,175	43,01
184,393	-28,67
184,611	10,24
184,829	-12,29
185,047	-47,1
185,265	133,12
185,483	59,39
185,701	22,53
185,919	63,49
186,137	92,16
186,355	47,1
186,573	36,86
186,791	133,12
187,009	20,48
187,227	14,34
187,445	38,91
187,663	14,34
187,881	-137,21
188,098	47,1
188,316	-12,29
188,534	124,93
188,752	-61,44
188,97	2,05
189,188	-8,19
189,406	2,05
189,624	110,59
189,841	34,82
190,059	-34,82
190,277	-4,1
190,495	18,43
190,713	106,49
190,931	141,31
191,148	34,82
191,366	-18,43
191,584	2,05
191,802	59,39
192,019	104,45
192,237	30,72
192,455	59,39
192,673	102,4
192,89	22,53
193,108	-10,24
193,326	-104,45
193,543	-4,1
193,761	26,62
193,979	71,68
194,196	-69,63
194,414	-10,24
194,632	116,73
194,849	-88,06
195,067	-49,15
195,285	126,97
195,502	-10,24
195,72	-30,72
195,937	38,91
196,155	67,58
196,373	92,16
196,59	-51,2
196,808	-22,53
197,025	24,58
197,243	198,65
197,46	143,36
197,678	110,59
197,895	14,34
198,113	75,77
198,33	-38,91
198,548	-6,14
198,765	-26,62
198,983	51,2
199,2	-6,14
199,418	92,16
199,635	-20,48
199,853	-30,72
200,07	-2,05
200,288	90,11
200,505	-47,1
200,722	47,1
200,94	-14,34
201,157	-6,14
201,375	86,01
201,592	18,43
201,809	75,77
202,027	75,77
202,244	30,72
202,461	-6,14
202,679	55,3
202,896	61,44
203,113	-51,2
203,331	18,43
203,548	-30,72
203,765	104,45
203,982	108,54
204,2	26,62
204,417	6,14
204,634	182,27
204,851	133,12
205,069	30,72
205,286	43,01
205,503	69,63
205,72	-2,05
205,937	36,86
206,155	-67,58
206,372	151,55
206,589	-20,48
206,806	92,16
207,023	26,62
207,24	57,34
207,458	-22,53
207,675	40,96
207,892	83,97
208,109	-20,48
208,326	32,77
208,543	4,1
208,76	6,14
208,977	147,45
209,194	77,82
209,411	-24,58
209,628	86,01
209,845	43,01
210,062	-20,48
210,279	-38,91
210,496	-6,14
210,713	-4,1
210,93	-36,86
211,147	51,2
211,364	-4,1
211,581	-38,91
211,798	108,54
212,015	-45,06
212,232	4,1
212,449	-26,62
212,666	22,53
212,883	18,43
213,1	10,24
213,317	-10,24
213,533	22,53
213,75	79,87
213,967	83,97
214,184	-47,1
214,401	65,54
214,618	-30,72
214,835	-10,24
215,051	59,39
215,268	53,25
215,485	12,29
215,702	0
215,919	28,67
216,135	153,6
216,352	4,1
216,569	-47,1
216,786	51,2
217,002	12,29
217,219	-6,14
217,436	4,1
217,652	-4,1
217,869	34,82
218,086	124,93
218,302	-10,24
218,519	61,44
218,736	6,14
218,952	2,05
219,169	26,62
219,386	32,77
219,602	-6,14
219,819	-18,43
220,036	18,43
220,252	124,93
220,469	-14,34
220,685	57,34
220,902	12,29
221,118	67,58
221,335	-14,34
221,552	-6,14
221,768	34,82
221,985	12,29
222,201	8,19
222,418	2,05
222,634	96,25
222,851	26,62
223,067	43,01
223,284	2,05
223,5	43,01
223,716	-55,3
223,933	-53,25
224,149	26,62
224,366	43,01
224,582	90,11
224,799	88,06
225,015	-18,43
225,231	26,62
225,448	-4,1
225,664	51,2
225,88	-79,87
226,097	69,63
226,313	-79,87
226,529	94,21
226,746	69,63
226,962	-22,53
227,178	51,2
227,395	-12,29
227,611	-14,34
227,827	-43,01
228,044	34,82
228,26	55,3
228,476	53,25
228,692	169,98
228,909	43,01
229,125	30,72
229,341	14,34
229,557	-94,21
229,773	-4,1
229,99	92,16
230,206	18,43
230,422	-36,86
230,638	-118,78
230,854	4,1
231,07	-108,54
231,286	75,77
231,503	-4,1
231,719	-20,48
231,935	63,49
232,151	2,05
232,367	86,01
232,583	51,2
232,799	34,82
233,015	108,54
233,231	26,62
233,447	10,24
233,663	34,82
233,879	83,97
234,095	-22,53
234,311	88,06
234,527	47,1
234,743	61,44
234,959	71,68
235,175	-6,14
235,391	-2,05
235,607	43,01
235,823	59,39
236,039	28,67
236,255	14,34
236,471	20,48
236,687	-90,11
236,903	-14,34
237,118	4,1
237,334	-38,91
237,55	6,14
237,766	-30,72
237,982	26,62
238,198	67,58
238,413	18,43
238,629	43,01
238,845	20,48
239,061	-77,82
239,277	-30,72
239,492	18,43
239,708	12,29
239,924	-51,2
240,14	10,24
240,355	59,39
240,571	36,86
240,787	-10,24
241,003	-12,29
241,218	61,44
241,434	-34,82
241,65	43,01
241,865	32,77
242,081	100,35
242,297	-55,3
242,512	-43,01
242,728	34,82
242,944	47,1
243,159	83,97
243,375	-14,34
243,59	6,14
243,806	59,39
244,022	92,16
244,237	-6,14
244,453	14,34
244,668	55,3
244,884	133,12
245,099	38,91
245,315	53,25
245,53	157,69
245,746	124,93
245,961	53,25
246,177	14,34
246,392	108,54
246,608	165,89
246,823	-24,58
247,039	8,19
247,254	-14,34
247,47	118,78
247,685	12,29
247,9	51,2
248,116	-12,29
248,331	-36,86
248,547	106,49
248,762	-51,2
248,977	51,2
249,193	51,2
249,408	43,01
249,623	-12,29
249,839	-6,14
250,054	-88,06
250,269	4,1
250,485	86,01
250,7	-22,53
250,915	92,16
251,13	79,87
251,346	75,77
251,561	43,01
251,776	88,06
251,991	-71,68
252,207	102,4
252,422	-69,63
252,637	43,01
252,852	-53,25
253,067	59,39
253,283	16,38
253,498	26,62
253,713	53,25
253,928	-30,72
254,143	40,96
254,358	36,86
254,573	45,06
254,788	-4,1
255,004	20,48
255,219	-34,82
255,434	-47,1
255,649	43,01
255,864	124,93
256,079	-36,86
256,294	-6,14
256,509	-53,25
256,724	79,87
256,939	-6,14
257,154	-20,48
257,369	14,34
257,584	63,49
257,799	71,68
258,014	-30,72
258,229	10,24
258,444	22,53
258,659	20,48
258,874	83,97
259,089	43,01
259,304	55,3
259,518	28,67
259,733	-2,05
259,948	43,01
260,163	20,48
260,378	20,48
260,593	32,77
260,808	43,01
261,022	-120,83
261,237	20,48
261,452	4,1
261,667	12,29
261,882	92,16
262,096	98,3
262,311	159,74
262,526	-28,67
262,741	43,01
262,955	-30,72
263,17	118,78
263,385	32,77
263,6	-14,34
263,814	53,25
264,029	57,34
264,244	14,34
264,458	49,15
264,673	-6,14
264,888	43,01
265,102	53,25
265,317	-14,34
265,532	-22,53
265,746	-14,34
265,961	18,43
266,175	92,16
266,39	-36,86
266,605	-36,86
266,819	-12,29
267,034	118,78
267,248	-55,3
267,463	18,43
267,677	59,39
267,892	45,06
268,106	-86,01
268,321	51,2
268,535	104,45
268,75	174,08
268,964	-14,34
269,179	63,49
269,393	-2,05
269,608	26,62
269,822	-88,06
270,036	-22,53
270,251	53,25
270,465	86,01
270,68	79,87
270,894	-47,1
271,108	157,69
271,323	-4,1
271,537	38,91
271,752	90,11
271,966	-38,91
272,18	-30,72
272,394	8,19
272,609	61,44
272,823	43,01
273,037	67,58
273,252	10,24
273,466	49,15
273,68	98,3
273,894	30,72
274,109	-22,53
274,323	59,39
274,537	-6,14
274,751	-104,45
274,966	67,58
275,18	-118,78
275,394	30,72
275,608	-53,25
275,822	-96,25
276,036	-14,34
276,25	65,54
276,465	2,05
276,679	10,24
276,893	-79,87
277,107	59,39
277,321	-45,06
277,535	53,25
277,749	75,77
277,963	104,45
278,177	-49,15
278,391	18,43
278,605	34,82
278,819	81,92
279,033	-30,72
279,247	43,01
279,461	59,39
279,675	-14,34
279,889	26,62
280,103	30,72
280,317	100,35
280,531	-18,43
280,745	12,29
280,959	-14,34
281,173	49,15
281,387	88,06
281,601	26,62
281,815	100,35
282,029	-61,44
282,242	-30,72
282,456	18,43
282,67	-14,34
282,884	-71,68
283,098	-26,62
283,312	12,29
283,525	75,77
283,739	71,68
283,953	-61,44
284,167	94,21
284,381	-6,14
284,594	59,39
284,808	47,1
285,022	14,34
285,235	-10,24
285,449	-6,14
285,663	-6,14
285,877	2,05
286,09	75,77
286,304	102,4
286,518	34,82
286,731	-71,68
286,945	94,21
287,159	-96,25
287,372	-2,05
287,586	30,72
287,799	118,78
288,013	-55,3
288,227	-51,2
288,44	272,38
288,654	34,82
288,867	-18,43
289,081	-4,1
289,294	69,63
289,508	124,93
289,721	2,05
289,935	-4,1
290,148	30,72
290,362	77,82
290,575	79,87
290,789	-59,39
291,002	-6,14
291,216	116,73
291,429	43,01
291,643	40,96
291,856	-92,16
292,069	28,67
292,283	-53,25
292,496	0
292,71	43,01
292,923	-30,72
293,136	112,64
293,35	45,06
293,563	-73,73
293,776	116,73
293,99	51,2
294,203	-2,05
294,416	-14,34
294,63	-2,05
294,843	34,82
295,056	73,73
295,269	10,24
295,483	-112,64
295,696	38,91
295,909	10,24
296,122	71,68
296,335	63,49
296,549	-14,34
296,762	38,91
296,975	71,68
297,188	-6,14
297,401	53,25
297,615	10,24
297,828	4,1
298,041	108,54
298,254	59,39
298,467	14,34
298,68	-30,72
298,893	-43,01
299,106	-38,91
299,319	24,58
299,532	75,77
299,745	26,62
299,958	-63,49
300,171	-20,48
300,384	-32,77
300,598	-81,92
300,81	24,58
301,023	38,91
301,236	-36,86
301,449	69,63
301,662	-2,05
301,875	-47,1
302,088	43,01
302,301	53,25
302,514	18,43
302,727	67,58
302,94	10,24
303,153	59,39
303,366	28,67
303,579	-4,1
303,791	2,05
304,004	69,63
304,217	77,82
304,43	22,53
304,643	83,97
304,855	-79,87
305,068	61,44
305,281	67,58
305,494	26,62
305,707	-51,2
305,919	151,55
306,132	18,43
306,345	34,82
306,558	59,39
306,77	-14,34
306,983	-36,86
307,196	106,49
307,408	2,05
307,621	14,34
307,834	-49,15
308,046	51,2
308,259	-30,72
308,472	47,1
308,684	129,02
308,897	-108,54
309,109	-20,48
309,322	-34,82
309,535	55,3
309,747	155,65
309,96	71,68
310,172	77,82
310,385	92,16
310,597	-20,48
310,81	94,21
311,022	-30,72
311,235	-69,63
311,447	-77,82
311,66	75,77
311,872	135,17
312,085	-69,63
312,297	-55,3
312,51	-26,62
312,722	-22,53
312,934	118,78
313,147	-47,1
313,359	55,3
313,572	2,05
313,784	-10,24
313,996	28,67
314,209	61,44
314,421	-71,68
314,633	-55,3
314,846	-14,34
315,058	61,44
315,27	22,53
315,483	-71,68
315,695	63,49
315,907	10,24
316,119	-4,1
316,332	10,24
316,544	116,73
316,756	92,16
316,968	55,3
317,181	20,48
317,393	26,62
317,605	0
317,817	-22,53
318,029	59,39
318,241	-2,05
318,454	86,01
318,666	30,72
318,878	-12,29
319,09	-86,01
319,302	51,2
319,514	45,06
319,726	43,01
319,938	129,02
320,15	149,5
320,362	61,44
320,574	-10,24
320,786	-71,68
320,999	-63,49
321,211	100,35
321,423	45,06
321,635	-57,34
321,847	57,34
322,058	-22,53
322,27	77,82
322,482	51,2
322,694	67,58
322,906	-6,14
323,118	55,3
323,33	30,72
323,542	-36,86
323,754	51,2
323,966	-63,49
324,178	118,78
324,389	153,6
324,601	129,02
324,813	-2,05
325,025	10,24
325,237	-47,1
325,449	14,34
325,66	18,43
325,872	86,01
326,084	-4,1
326,296	18,43
326,507	-6,14
326,719	67,58
326,931	-53,25
327,143	116,73
327,354	174,08
327,566	2,05
327,778	45,06
327,989	18,43
328,201	4,1
328,413	14,34
328,624	143,36
328,836	-57,34
329,048	-61,44
329,259	-22,53
329,471	-12,29
329,682	47,1
329,894	-26,62
330,106	-20,48
330,317	12,29
330,529	73,73
330,74	10,24
330,952	20,48
331,163	-20,48
331,375	-6,14
331,586	36,86
331,798	34,82
332,009	2,05
332,221	108,54
332,432	83,97
332,644	-6,14
332,855	-18,43
333,067	43,01
333,278	104,45
333,489	120,83
333,701	-71,68
333,912	-53,25
334,124	4,1
334,335	-47,1
334,546	-38,91
334,758	-71,68
334,969	145,41
335,18	12,29
335,392	53,25
335,603	124,93
335,814	77,82
336,025	-45,06
336,237	55,3
336,448	-40,96
336,659	59,39
336,87	124,93
337,082	143,36
337,293	-14,34
337,504	92,16
337,715	40,96
337,926	32,77
338,138	75,77
338,349	30,72
338,56	51,2
338,771	-57,34
338,982	63,49
339,193	12,29
339,404	55,3
339,616	-20,48
339,827	49,15
340,038	-55,3
340,249	-22,53
340,46	-65,53
340,671	63,49
340,882	215,04
341,093	26,62
341,304	77,82
341,515	71,68
341,726	26,62
341,937	-2,05
342,148	-14,34
342,359	-22,53
342,57	-12,29
342,781	159,74
342,992	-22,53
343,203	45,06
343,414	94,21
343,624	83,97
343,835	2,05
344,046	110,59
344,257	90,11
344,468	100,35
344,679	100,35
344,89	118,78
345,1	141,31
345,311	200,7
345,522	219,13
345,733	112,64
345,944	194,56
346,154	188,41
346,365	317,44
346,576	159,74
346,787	67,58
346,997	190,46
347,208	137,21
347,419	147,45
347,629	169,98
347,84	206,84
348,051	88,06
348,261	92,16
348,472	-22,53
348,683	43,01
348,893	36,86
349,104	90,11
349,315	2,05
349,525	61,44
349,736	86,01
349,946	59,39
350,157	165,89
350,368	243,71
350,578	110,59
350,789	227,32
350,999	157,69
351,21	260,09
351,42	88,06
351,631	321,53
351,841	282,62
352,052	282,62
352,262	339,96
352,472	256
352,683	178,17
352,893	208,89
353,104	165,89
353,314	135,17
353,525	518,14
353,735	112,64
353,945	145,41
354,156	-38,91
354,366	79,87
354,576	118,78
354,787	12,29
354,997	-2,05
355,207	-20,48
355,418	14,34
355,628	34,82
355,838	28,67
356,048	38,91
356,259	34,82
356,469	0
356,679	12,29
356,889	79,87
357,1	-14,34
357,31	10,24
357,52	34,82
357,73	-4,1
357,94	61,44
358,15	69,63
358,361	-14,34
358,571	38,91
358,781	120,83
358,991	45,06
359,201	81,92
359,411	100,35
359,621	86,01
359,831	174,08
360,041	141,31
360,251	190,46
360,461	126,97
360,672	83,97
360,882	88,06
361,092	-14,34
361,302	57,34
361,512	112,64
361,721	2,05
361,931	-14,34
362,141	20,48
362,351	75,77
362,561	59,39
362,771	-14,34
362,981	18,43
363,191	-59,39
363,401	36,86
363,611	47,1
363,821	8,19
364,03	-104,45
364,24	43,01
364,45	47,1
364,66	256
364,87	-38,91
365,08	59,39
365,289	14,34
365,499	-43,01
365,709	26,62
365,919	6,14
366,128	-18,43
366,338	45,06
366,548	8,19
366,758	28,67
366,967	69,63
367,177	90,11
367,387	18,43
367,596	-38,91
367,806	30,72
368,016	45,06
368,225	26,62
368,435	55,3
368,644	-16,38
368,854	57,34
369,064	120,83
369,273	92,16
369,483	43,01
369,692	-45,06
369,902	-18,43
370,111	61,44
370,321	-18,43
370,53	18,43
370,74	-51,2
370,949	116,73
371,159	77,82
371,368	12,29
371,578	43,01
371,787	53,25
371,997	-14,34
372,206	69,63
372,416	75,77
372,625	2,05
372,834	2,05
373,044	14,34
373,253	77,82
373,462	59,39
373,672	28,67
373,881	-61,44
374,09	-28,67
374,3	30,72
374,509	49,15
374,718	-22,53
374,928	102,4
375,137	-36,86
375,346	12,29
375,555	155,65
375,765	10,24
375,974	12,29
376,183	126,97
376,392	10,24
376,601	43,01
376,811	10,24
377,02	30,72
377,229	55,3
377,438	116,73
377,647	-24,58
377,856	-10,24
378,065	-6,14
378,275	2,05
378,484	-36,86
378,693	-6,14
378,902	-32,77
379,111	38,91
379,32	20,48
379,529	14,34
379,738	-10,24
379,947	-22,53
380,156	-18,43
380,365	-6,14
380,574	65,54
380,783	43,01
380,992	43,01
381,201	-49,15
381,41	-22,53
381,619	-22,53
381,828	34,82
382,037	-14,34
382,245	143,36
382,454	30,72
382,663	45,06
382,872	38,91
383,081	-10,24
383,29	102,4
383,499	30,72
383,707	45,06
383,916	-6,14
384,125	2,05
384,334	-47,1
384,542	83,97
384,751	38,91
384,96	10,24
385,169	-28,67
385,377	18,43
385,586	-38,91
385,795	108,54
386,004	139,26
386,212	-18,43
386,421	-47,1
386,63	34,82
386,838	51,2
387,047	28,67
387,255	6,14
387,464	65,54
387,673	43,01
387,881	34,82
388,09	106,49
388,298	32,77
388,507	124,93
388,715	26,62
388,924	92,16
389,133	4,1
389,341	20,48
389,55	-18,43
389,758	92,16
389,967	26,62
390,175	34,82
390,383	116,73
390,592	141,31
390,8	47,1
391,009	-4,1
391,217	100,35
391,426	108,54
391,634	-26,62
391,842	-18,43
392,051	4,1
392,259	2,05
392,467	34,82
392,676	2,05
392,884	-51,2
393,092	32,77
393,301	10,24
393,509	-2,05
393,717	20,48
393,925	10,24
394,134	-14,34
394,342	118,78
394,55	67,58
394,758	47,1
394,967	34,82
395,175	-71,68
395,383	34,82
395,591	-61,44
395,799	38,91
396,007	-28,67
396,216	135,17
396,424	43,01
396,632	2,05
396,84	-14,34
397,048	79,87
397,256	45,06
397,464	2,05
397,672	55,3
397,88	-51,2
398,088	-36,86
398,296	-34,82
398,504	-47,1
398,712	-104,45
398,92	43,01
399,128	-79,87
399,336	-22,53
399,544	120,83
399,752	-4,1
399,96	55,3
400,168	12,29
400,376	12,29
400,584	77,82
400,792	-4,1
401	-38,91
401,207	38,91
401,415	45,06
401,623	51,2
401,831	-14,34
402,039	61,44
402,247	-110,59
402,454	90,11
402,662	2,05
402,87	14,34
403,078	116,73
403,285	69,63
403,493	-22,53
403,701	59,39
403,909	-6,14
404,116	116,73
404,324	92,16
404,532	26,62
404,739	-71,68
404,947	-6,14
405,155	126,97
405,362	104,45
405,57	12,29
405,778	2,05
405,985	6,14
406,193	2,05
406,4	-24,58
406,608	51,2
406,816	110,59
407,023	83,97
407,231	-20,48
407,438	63,49
407,646	75,77
407,853	26,62
408,061	59,39
408,268	-8,19
408,476	-102,4
408,683	118,78
408,89	104,45
409,098	53,25
409,305	51,2
409,513	18,43
409,72	4,1
409,927	-22,53
410,135	18,43
410,342	-22,53
410,55	75,77
410,757	36,86
410,964	-114,69
411,172	75,77
411,379	61,44
411,586	8,19
411,793	-18,43
412,001	-16,38
412,208	43,01
412,415	38,91
412,622	40,96
412,83	-4,1
413,037	75,77
413,244	-22,53
413,451	43,01
413,658	116,73
413,866	61,44
414,073	92,16
414,28	92,16
414,487	-88,06
414,694	12,29
414,901	12,29
415,108	47,1
415,315	53,25
415,522	147,45
415,73	-28,67
415,937	-30,72
416,144	-2,05
416,351	67,58
416,558	-4,1
416,765	43,01
416,972	34,82
417,179	-43,01
417,386	-38,91
417,593	26,62
417,8	-63,49
418,006	-43,01
418,213	100,35
418,42	12,29
418,627	20,48
418,834	-14,34
419,041	-22,53
419,248	-12,29
419,455	20,48
419,661	90,11
419,868	-22,53
420,075	67,58
420,282	45,06
420,489	-30,72
420,696	45,06
420,902	28,67
421,109	96,25
421,316	-67,58
421,523	77,82
421,729	-22,53
421,936	10,24
422,143	-18,43
422,349	55,3
422,556	-36,86
422,763	26,62
422,969	-30,72
423,176	14,34
423,383	-28,67
423,589	256
423,796	4,1
424,002	-79,87
424,209	71,68
424,416	53,25
424,622	-71,68
424,829	-4,1
425,035	12,29
425,242	51,2
425,448	20,48
425,655	71,68
425,861	38,91
426,068	-122,88
426,274	75,77
426,481	10,24
426,687	0
426,894	131,07
427,1	55,3
427,306	-38,91
427,513	43,01
427,719	-6,14
427,926	141,31
428,132	-22,53
428,338	-43,01
428,545	45,06
428,751	10,24
428,957	53,25
429,163	26,62
429,37	8,19
429,576	0
429,782	34,82
429,989	22,53
430,195	75,77
430,401	51,2
430,607	14,34
430,813	-36,86
431,02	110,59
431,226	55,3
431,432	-38,91
431,638	22,53
431,844	-108,54
432,05	8,19
432,257	-106,49
432,463	100,35
432,669	88,06
432,875	-40,96
433,081	-124,93
433,287	-30,72
433,493	-34,82
433,699	184,32
433,905	-6,14
434,111	-90,11
434,317	43,01
434,523	133,12
434,729	129,02
434,935	6,14
435,141	108,54
435,347	-14,34
435,553	2,05
435,759	28,67
435,965	-6,14
436,171	34,82
436,377	69,63
436,582	112,64
436,788	-30,72
436,994	-12,29
437,2	-36,86
437,406	12,29
437,612	47,1
437,818	28,67
438,023	-112,64
438,229	153,6
438,435	18,43
438,641	-30,72
438,846	-30,72
439,052	32,77
439,258	61,44
439,464	2,05
439,669	43,01
439,875	182,27
440,081	6,14
440,286	2,05
440,492	-30,72
440,698	-43,01
440,903	51,2
441,109	61,44
441,314	-77,82
441,52	-22,53
441,726	83,97
441,931	-47,1
442,137	83,97
442,342	10,24
442,548	100,35
442,753	75,77
442,959	22,53
443,164	4,1
443,37	67,58
443,575	59,39
443,781	-43,01
443,986	120,83
444,192	67,58
444,397	14,34
444,602	-49,15
444,808	2,05
445,013	-22,53
445,219	14,34
445,424	77,82
445,629	26,62
445,835	159,74
446,04	18,43
446,245	43,01
446,451	20,48
446,656	-38,91
446,861	-14,34
447,066	45,06
447,272	53,25
447,477	43,01
447,682	-32,77
447,887	-63,49
448,093	-38,91
448,298	71,68
448,503	51,2
448,708	12,29
448,913	-34,82
449,118	10,24
449,324	34,82
449,529	112,64
449,734	-34,82
449,939	4,1
450,144	2,05
450,349	55,3
450,554	-71,68
450,759	34,82
450,964	90,11
451,169	47,1
451,374	-38,91
451,579	20,48
451,784	-69,63
451,989	69,63
452,194	28,67
452,399	53,25
452,604	-59,39
452,809	22,53
453,014	-47,1
453,219	45,06
453,424	137,21
453,629	-22,53
453,833	-40,96
454,038	45,06
454,243	57,34
454,448	79,87
454,653	165,89
454,858	-6,14
455,062	10,24
455,267	38,91
455,472	110,59
455,677	34,82
455,882	20,48
456,086	112,64
456,291	88,06
456,496	-4,1
456,7	94,21
456,905	77,82
457,11	-12,29
457,314	47,1
457,519	-67,58
457,724	16,38
457,928	-59,39
458,133	-18,43
458,338	59,39
458,542	-14,34
458,747	30,72
458,951	-69,63
459,156	4,1
459,36	-49,15
459,565	63,49
459,769	-38,91
459,974	26,62
460,178	10,24
460,383	-36,86
460,587	28,67
460,792	51,2
460,996	22,53
461,201	0
461,405	-71,68
461,61	-36,86
461,814	92,16
462,018	-43,01
462,223	20,48
462,427	-6,14
462,631	4,1
462,836	73,73
463,04	6,14
463,244	116,73
463,449	53,25
463,653	135,17
463,857	-55,3
464,062	108,54
464,266	10,24
464,47	-71,68
464,674	36,86
464,878	51,2
465,083	20,48
465,287	108,54
465,491	53,25
465,695	20,48
465,899	-4,1
466,104	102,4
466,308	79,87
466,512	59,39
466,716	30,72
466,92	88,06
467,124	45,06
467,328	26,62
467,532	135,17
467,736	16,38
467,94	118,78
468,144	34,82
468,348	10,24
468,552	137,21
468,756	81,92
468,96	-28,67
469,164	-61,44
469,368	34,82
469,572	61,44
469,776	124,93
469,98	10,24
470,184	-28,67
470,388	124,93
470,591	116,73
470,795	208,89
470,999	116,73
471,203	133,12
471,407	100,35
471,611	59,39
471,814	139,26
472,018	26,62
472,222	47,1
472,426	157,69
472,63	43,01
472,833	108,54
473,037	94,21
473,241	135,17
473,444	-28,67
473,648	526,33
473,852	-14,34
474,055	-6,14
474,259	59,39
474,463	34,82
474,666	34,82
474,87	-38,91
475,074	88,06
475,277	112,64
475,481	118,78
475,684	-12,29
475,888	12,29
476,091	43,01
476,295	-38,91
476,498	-28,67
476,702	16,38
476,905	108,54
477,109	51,2
477,312	-4,1
477,516	-12,29
477,719	43,01
477,923	10,24
478,126	-22,53
478,329	34,82
478,533	6,14
478,736	153,6
478,94	8,19
479,143	-55,3
479,346	4,1
479,55	55,3
479,753	-53,25
479,956	-8,19
480,159	-12,29
480,363	88,06
480,566	38,91
480,769	61,44
480,972	-6,14
481,176	-57,34
481,379	86,01
481,582	75,77
481,785	-6,14
481,988	28,67
482,192	133,12
482,395	43,01
482,598	88,06
482,801	6,14
483,004	143,36
483,207	-24,58
483,41	2,05
483,613	69,63
483,817	169,98
484,02	59,39
484,223	51,2
484,426	57,34
484,629	34,82
484,832	149,5
485,035	86,01
485,238	88,06
485,441	53,25
485,644	67,58
485,846	139,26
486,049	-8,19
486,252	-55,3
486,455	-38,91
486,658	69,63
486,861	92,16
487,064	83,97
487,267	-30,72
487,47	83,97
487,672	-12,29
487,875	118,78
488,078	86,01
488,281	51,2
488,484	75,77
488,686	51,2
488,889	22,53
489,092	-45,06
489,295	30,72
489,497	79,87
489,7	18,43
489,903	36,86
490,105	-63,49
490,308	-51,2
490,511	53,25
490,713	2,05
490,916	-26,62
491,118	38,91
491,321	-67,58
491,524	-6,14
491,726	4,1
491,929	-69,63
492,131	-8,19
492,334	-59,39
492,536	-14,34
492,739	18,43
492,941	43,01
493,144	79,87
493,346	-8,19
493,549	2,05
493,751	-6,14
493,954	90,11
494,156	28,67
494,359	83,97
494,561	-86,01
494,763	81,92
494,966	137,21
495,168	137,21
495,37	-69,63
495,573	69,63
495,775	71,68
495,977	14,34
496,18	6,14
496,382	149,5
496,584	51,2
496,787	81,92
496,989	40,96
497,191	-14,34
497,393	108,54
497,595	-4,1
497,798	108,54
498	26,62
498,202	-14,34
498,404	10,24
498,606	0
498,808	126,97
499,011	-8,19
499,213	18,43
499,415	63,49
499,617	69,63
499,819	110,59
500,021	88,06
500,223	-24,58
500,425	18,43
500,627	30,72
500,829	28,67
501,031	6,14
501,233	-18,43
501,435	126,97
501,637	159,74
501,839	92,16
502,041	-2,05
502,243	108,54
502,445	102,4
502,647	18,43
502,848	59,39
503,05	122,88
503,252	67,58
503,454	215,04
503,656	149,5
503,858	296,96
504,059	288,76
504,261	243,71
504,463	313,34
504,665	223,23
504,867	137,21
505,068	157,69
505,27	157,69
505,472	184,32
505,673	81,92
505,875	6,14
506,077	-20,48
506,278	-26,62
506,48	18,43
506,682	18,43
506,883	83,97
507,085	16,38
507,287	57,34
507,488	188,41
507,69	108,54
507,891	108,54
508,093	260,09
508,294	94,21
508,496	116,73
508,697	67,58
508,899	30,72
509,1	116,73
509,302	167,93
509,503	94,21
509,705	51,2
509,906	116,73
510,108	-47,1
510,309	102,4
510,51	2,05
510,712	81,92
510,913	45,06
511,114	159,74
511,316	34,82
511,517	194,56
511,718	190,46
511,92	192,51
512,121	188,41
512,322	235,52
512,524	309,24
512,725	159,74
512,926	182,27
513,127	141,31
513,329	153,6
513,53	69,63
513,731	124,93
513,932	67,58
514,133	24,58
514,334	75,77
514,536	212,99
514,737	202,75
514,938	141,31
515,139	161,79
515,34	149,5
515,541	192,51
515,742	57,34
515,943	114,69
516,144	141,31
516,345	176,13
516,546	161,79
516,747	100,35
516,948	-22,53
517,149	18,43
517,35	26,62
517,551	32,77
517,752	67,58
517,953	100,35
518,154	124,93
518,355	182,27
518,556	135,17
518,756	116,73
518,957	147,45
519,158	231,42
519,359	135,17
519,56	149,5
519,761	219,13
519,961	180,22
520,162	339,96
520,363	116,73
520,564	135,17
520,764	337,91
520,965	202,75
521,166	192,51
521,366	186,37
521,567	247,8
521,768	198,65
521,968	100,35
522,169	100,35
522,37	47,1
522,57	104,45
522,771	98,3
522,972	-12,29
523,172	165,89
523,373	59,39
523,573	112,64
523,774	36,86
523,974	190,46
524,175	112,64
524,375	51,2
524,576	-10,24
524,776	47,1
524,977	36,86
525,177	143,36
525,378	18,43
525,578	92,16
525,778	61,44
525,979	96,25
526,179	-4,1
526,38	55,3
526,58	-73,73
526,78	30,72
526,981	174,08
527,181	63,49
527,381	45,06
527,582	124,93
527,782	157,69
527,982	79,87
528,182	94,21
528,383	40,96
528,583	-55,3
528,783	151,55
528,983	10,24
529,183	-79,87
529,384	43,01
529,584	202,75
529,784	188,41
529,984	133,12
530,184	100,35
530,384	83,97
530,584	30,72
530,784	59,39
530,984	59,39
531,185	190,46
531,385	153,6
531,585	75,77
531,785	65,54
531,985	45,06
532,185	67,58
532,385	116,73
532,585	225,28
532,785	348,15
532,984	389,11
533,184	403,45
533,384	397,31
533,584	423,93
533,784	518,14
533,984	649,21
534,184	591,86
534,384	624,63
534,583	780,28
534,783	552,95
534,983	550,9
535,183	456,7
535,383	292,86
535,582	292,86
535,782	251,9
535,982	253,95
536,182	186,37
536,381	155,65
536,581	112,64
536,781	178,17
536,98	165,89
537,18	61,44
537,38	159,74
537,579	16,38
537,779	67,58
537,979	149,5
538,178	-59,39
538,378	106,49
538,577	-30,72
538,777	49,15
538,976	178,17
539,176	184,32
539,376	272,38
539,575	186,37
539,774	391,16
539,974	321,53
540,173	485,37
540,373	600,05
540,572	600,05
540,772	583,67
540,971	526,33
541,171	434,17
541,37	434,17
541,569	325,63
541,769	190,46
541,968	202,75
542,167	143,36
542,367	112,64
542,566	79,87
542,765	57,34
542,965	59,39
543,164	63,49
543,363	-30,72
543,562	12,29
543,761	108,54
543,961	141,31
544,16	-63,49
544,359	92,16
544,558	67,58
544,757	6,14
544,957	124,93
545,156	110,59
545,355	18,43
545,554	73,73
545,753	-14,34
545,952	36,86
546,151	100,35
546,35	145,41
546,549	67,58
546,748	24,58
546,947	63,49
547,146	-129,02
547,345	120,83
547,544	-159,74
547,743	6,14
547,942	94,21
548,141	67,58
548,34	88,06
548,539	112,64
548,738	-18,43
548,937	94,21
549,135	-36,86
549,334	26,62
549,533	36,86
549,732	-26,62
549,931	110,59
550,13	43,01
550,328	59,39
550,527	26,62
550,726	65,54
550,925	-63,49
551,123	20,48
551,322	12,29
551,521	124,93
551,72	-36,86
551,918	-2,05
552,117	-14,34
552,315	14,34
552,514	43,01
552,713	-6,14
552,911	10,24
553,11	-61,44
553,309	12,29
553,507	6,14
553,706	-18,43
553,904	43,01
554,103	110,59
554,301	77,82
554,5	-30,72
554,698	18,43
554,897	92,16
555,095	49,15
555,294	2,05
555,492	79,87
555,69	100,35
555,889	43,01
556,087	153,6
556,286	190,46
556,484	26,62
556,682	92,16
556,881	112,64
557,079	-6,14
557,277	86,01
557,476	88,06
557,674	102,4
557,872	83,97
558,07	12,29
558,269	-14,34
558,467	75,77
558,665	108,54
558,863	-16,38
559,062	71,68
559,26	18,43
559,458	18,43
559,656	69,63
559,854	-14,34
560,052	83,97
560,25	32,77
560,449	337,91
560,647	40,96
560,845	18,43
561,043	20,48
561,241	63,49
561,439	18,43
561,637	-30,72
561,835	40,96
562,033	116,73
562,231	2,05
562,429	43,01
562,627	30,72
562,825	-77,82
563,023	32,77
563,221	88,06
563,418	8,19
563,616	53,25
563,814	131,07
564,012	-30,72
564,21	81,92
564,408	-6,14
564,605	38,91
564,803	43,01
565,001	362,49
565,199	79,87
565,397	129,02
565,594	176,13
565,792	305,15
565,99	135,17
566,188	239,61
566,385	192,51
566,583	182,27
566,781	112,64
566,978	153,6
567,176	198,65
567,373	165,89
567,571	206,84
567,769	108,54
567,966	-4,1
568,164	61,44
568,361	100,35
568,559	143,36
568,756	34,82
568,954	184,32
569,151	208,89
569,349	133,12
569,546	169,98
569,744	247,8
569,941	69,63
570,139	133,12
570,336	81,92
570,534	102,4
570,731	141,31
570,928	47,1
571,126	354,3
571,323	129,02
571,52	118,78
571,718	100,35
571,915	112,64
572,112	38,91
572,31	53,25
572,507	176,13
572,704	110,59
572,901	10,24
573,099	43,01
573,296	149,5
573,493	-20,48
573,69	-6,14
573,887	51,2
574,085	190,46
574,282	153,6
574,479	182,27
574,676	290,81
574,873	223,23
575,07	284,67
575,267	276,48
575,464	397,31
575,661	544,76
575,858	548,86
576,055	600,05
576,252	767,99
576,449	821,24
576,646	899,06
576,843	970,74
577,04	1060,85
577,237	935,92
577,434	839,67
577,631	739,32
577,828	667,64
578,025	559,1
578,222	413,69
578,419	366,59
578,615	233,47
578,812	215,04
579,009	141,31
579,206	69,63
579,403	174,08
579,599	239,61
579,796	145,41
579,993	299
580,19	157,69
580,386	258,04
580,583	360,44
580,78	225,28
580,976	342,01
581,173	342,01
581,37	411,64
581,566	378,87
581,763	493,56
581,96	475,13
582,156	657,4
582,353	684,02
582,549	796,66
582,746	600,05
582,942	595,96
583,139	579,58
583,335	485,37
583,532	1099,76
583,728	1755,11
583,925	2822,1
584,121	4280,25
584,318	6549,4
584,514	8906,62
584,711	12121,93
584,907	15765,26
585,103	19943,12
585,3	23602,84
585,496	27084,39
585,693	29587
585,889	30012,98
586,085	28905,03
586,281	26101,36
586,478	22691,49
586,674	19576,53
586,87	16856,83
587,067	13823,79
587,263	11433,81
587,459	8443,78
587,655	6680,47
587,851	5404,59
588,048	5339,05
588,244	5330,86
588,44	5642,15
588,636	5924,77
588,832	5986,21
589,028	5789,61
589,224	4968,37
589,42	4392,89
589,617	3880,9
589,813	3540,94
590,009	2904,02
590,205	2478,04
590,401	1871,84
590,597	1427,43
590,793	1218,54
590,989	1036,27
591,185	989,17
591,38	790,52
591,576	790,52
591,772	694,26
591,968	632,82
592,164	636,92
592,36	567,29
592,556	473,08
592,752	559,1
592,948	677,88
593,143	913,39
593,339	1419,24
593,535	2131,94
593,731	2779,09
593,926	3919,81
594,122	4974,52
594,318	6270,88
594,514	7577,48
594,709	8857,46
594,905	9533,29
595,101	9899,88
595,296	9488,24
595,492	8628,09
595,688	7501,71
595,883	6543,26
596,079	5994,4
596,275	5128,11
596,47	4171,71
596,666	3221,45
596,861	2750,42
597,057	2312,16
597,252	2115,55
597,448	2258,91
597,643	2666,46
597,839	2756,57
598,034	2758,61
598,23	2699,22
598,425	2682,84
598,621	2340,83
598,816	2140,13
599,011	1681,38
599,207	1615,85
599,402	1239,02
599,597	1138,67
599,793	862,19
599,988	583,67
600,183	487,42
600,379	460,79
600,574	233,47
600,769	270,33
600,965	217,08
601,16	165,89
601,355	190,46
601,55	272,38
601,745	460,79
601,941	624,63
602,136	845,81
602,331	999,41
602,526	1206,25
602,721	1677,29
602,916	1943,52
603,111	2363,36
603,307	2654,17
603,502	2648,02
603,697	2648,02
603,892	2582,49
604,087	2404,32
604,282	2095,07
604,477	1902,56
604,672	1456,11
604,867	1296,36
605,062	935,92
605,257	778,23
605,452	655,35
605,646	534,52
605,841	546,81
606,036	749,56
606,231	1079,28
606,426	1624,04
606,621	2349,02
606,816	3424,2
607,01	4286,4
607,205	5509,04
607,4	6590,36
607,595	7907,21
607,79	8703,87
607,984	9267,06
608,179	9473,9
608,374	9643,88
608,569	9664,36
608,763	9283,44
608,958	9658,22
609,153	10907,48
609,347	11317,08
609,542	11958,09
609,736	12973,88
609,931	12873,53
610,126	13350,71
610,32	13193,01
610,515	12203,85
610,709	11358,03
610,904	9623,41
611,098	8439,68
611,293	7108,5
611,487	6164,39
611,682	4642,75
611,876	3387,34
612,071	2209,76
612,265	1632,23
612,46	1107,95
612,654	1325,04
612,848	1765,35
613,043	2641,88
613,237	3753,93
613,432	5416,88
613,626	7036,82
613,82	9521,01
614,014	11777,87
614,209	14913,31
614,403	17303,29
614,597	19801,81
614,792	20856,51
614,986	21350,07
615,18	20788,93
615,374	18896,61
615,568	17065,72
615,763	15836,94
615,957	14253,86
616,151	12724,03
616,345	11956,04
616,539	10405,73
616,733	9154,42
616,927	7804,81
617,121	7120,79
617,316	6139,81
617,51	5423,02
617,704	4636,6
617,898	4138,94
618,092	3575,75
618,286	2914,26
618,48	2351,07
618,674	1900,52
618,868	1304,56
619,061	849,91
619,255	743,41
619,449	585,72
619,643	473,08
619,837	477,18
620,031	446,46
620,225	600,05
620,419	575,48
620,612	903,15
620,806	1181,68
621	1611,75
621,194	1992,67
621,388	2441,18
621,581	3059,67
621,775	3612,62
621,969	4073,41
622,162	4257,73
622,356	4360,13
622,55	4313,02
622,743	3954,63
622,937	3530,7
623,131	3051,47
623,324	2832,34
623,518	2256,86
623,712	2007,01
623,905	1378,28
624,099	1034,22
624,292	714,74
624,486	530,42
624,679	292,86
624,873	339,96
625,066	569,34
625,26	798,71
625,453	1230,83
625,647	1877,99
625,84	2701,27
626,034	3600,33
626,227	4769,72
626,42	5896,1
626,614	7206,8
626,807	8396,67
627	9213,81
627,194	9387,89
627,387	9367,41
627,58	8994,68
627,774	7937,93
627,967	6907,8
628,16	6350,75
628,353	5547,95
628,547	4677,56
628,74	3885
628,933	2746,33
629,126	2406,36
629,319	1789,92
629,513	1675,24
629,706	1802,21
629,899	2111,46
630,092	2676,7
630,285	3035,09
630,478	3731,4
630,671	4212,67
630,864	4863,93
631,057	4876,21
631,25	4720,57
631,443	4491,2
631,636	4065,22
631,829	3764,17
632,022	4040,64
632,215	4327,36
632,408	4876,21
632,601	5572,52
632,794	6875,03
632,987	8339,33
633,18	9795,43
633,373	11470,67
633,566	13371,19
633,758	13936,43
633,951	15283,99
634,144	15124,25
634,337	14536,48
634,53	13166,39
634,722	11628,37
634,915	9783,15
635,108	8906,62
635,301	7597,96
635,493	6424,48
635,686	4695,99
635,879	3270,61
636,071	2150,37
636,264	1501,16
636,457	1132,53
636,649	765,94
636,842	1105,9
637,034	1677,29
637,227	2435,03
637,42	3256,27
637,612	4427,71
637,805	5957,54
637,997	7532,43
638,19	9123,7
638,382	10561,37
638,575	12611,39
638,767	14841,63
638,96	17661,68
639,152	20319,95
639,344	23502,49
639,537	27209,31
639,729	31501,86
639,922	37303,75
640,114	43668,84
640,306	48753,94
640,499	52518,11
640,691	53087,45
640,883	53181,65
641,075	50681,08
641,268	46110,02
641,46	40029,6
641,652	34846,19
641,844	30670,38
642,037	26414,7
642,229	22245,04
642,421	17362,68
642,613	12324,68
642,805	7845,77
642,998	5060,53
643,19	3047,38
643,382	2101,22
643,574	1363,95
643,766	1017,84
643,958	747,51
644,15	649,21
644,342	647,16
644,534	505,85
644,726	364,54
644,918	372,73
645,11	313,34
645,302	233,47
645,494	413,69
645,686	292,86
645,878	129,02
646,07	364,54
646,262	167,93
646,453	194,56
646,645	200,7
646,837	200,7
647,029	165,89
647,221	227,32
647,413	83,97
647,604	141,31
647,796	233,47
647,988	215,04
648,18	141,31
648,371	92,16
648,563	174,08
648,755	227,32
648,947	241,66
649,138	661,49
649,33	1517,54
649,521	2660,31
649,713	4089,79
649,905	5527,47
650,096	7694,22
650,288	9908,07
650,479	12633,92
650,671	14978,84
650,863	16885,5
651,054	18138,86
651,246	18583,27
651,437	18394,86
651,629	17360,63
651,82	15640,34
652,011	14321,45
652,203	12586,82
652,394	11741
652,586	10692,44
652,777	9447,28
652,968	8187,78
653,16	7030,68
653,351	6260,64
653,542	5941,16
653,734	5433,26
653,925	5167,03
654,116	4900,79
654,308	4435,9
654,499	3944,39
654,69	3319,76
654,881	2918,36
655,073	2705,37
655,264	2224,09
655,455	1902,56
655,646	1419,24
655,837	1075,18
656,028	665,59
656,219	442,36
656,411	307,2
656,602	225,28
656,793	215,04
656,984	139,26
657,175	135,17
657,366	145,41
657,557	135,17
657,748	178,17
657,939	223,23
658,13	51,2
658,321	231,42
658,512	468,98
658,703	880,63
658,894	1185,77
659,084	1787,88
659,275	2543,58
659,466	3153,87
659,657	4231,1
659,848	4978,61
660,039	5525,42
660,23	6238,11
660,42	6412,19
660,611	6373,28
660,802	6238,11
660,993	5656,49
661,183	4898,74
661,374	4376,51
661,565	3925,96
661,755	3454,92
661,946	2963,41
662,137	2377,69
662,327	1703,91
662,518	1175,53
662,709	800,76
662,899	403,45
663,09	356,35
663,28	280,57
663,471	114,69
663,662	274,43
663,852	239,61
664,043	116,73
664,233	102,4
664,424	112,64
664,614	45,06
664,804	79,87
664,995	217,08
665,185	153,6
665,376	67,58
665,566	196,61
665,756	61,44
665,947	159,74
666,137	233,47
666,328	542,71
666,518	825,33
666,708	1665
666,898	2559,96
667,089	3739,59
667,279	4921,27
667,469	6295,46
667,659	7726,99
667,85	9088,89
668,04	10260,32
668,23	11200,34
668,42	11417,43
668,61	11102,04
668,8	10377,06
668,991	9371,51
669,181	8662,91
669,371	7362,45
669,561	6614,94
669,751	5724,07
669,941	4896,69
670,131	4016,07
670,321	3162,06
670,511	2461,66
670,701	2410,46
670,891	2439,13
671,081	2992,08
671,271	3700,68
671,461	4581,31
671,651	5291,95
671,841	6098,85
672,03	6703
672,22	6981,53
672,41	6690,71
672,6	6555,55
672,79	6064,04
672,98	5228,46
673,169	4468,67
673,359	4016,07
673,549	3647,43
673,739	3172,3
673,928	2570,2
674,118	2074,59
674,308	1435,63
674,497	1044,46
674,687	534,52
674,877	364,54
675,066	260,09
675,256	280,57
675,446	208,89
675,635	108,54
675,825	108,54
676,014	112,64
676,204	118,78
676,393	100,35
676,583	83,97
676,772	167,93
676,962	81,92
677,151	79,87
677,341	-24,58
677,53	59,39
677,72	90,11
677,909	147,45
678,099	-10,24
678,288	-12,29
678,477	51,2
678,667	63,49
678,856	51,2
679,045	133,12
679,235	118,78
679,424	83,97
679,613	124,93
679,802	71,68
679,992	8,19
680,181	116,73
680,37	53,25
680,559	141,31
680,748	122,88
680,938	67,58
681,127	10,24
681,316	116,73
681,505	36,86
681,694	43,01
681,883	22,53
682,072	45,06
682,261	-22,53
682,45	2,05
682,639	-28,67
682,828	102,4
683,017	77,82
683,206	69,63
683,395	20,48
683,584	75,77
683,773	124,93
683,962	36,86
684,151	0
684,34	67,58
684,529	43,01
684,718	36,86
684,907	102,4
685,095	75,77
685,284	28,67
685,473	14,34
685,662	0
685,851	153,6
686,039	108,54
686,228	67,58
686,417	-6,14
686,606	165,89
686,794	77,82
686,983	-79,87
687,172	112,64
687,36	59,39
687,549	22,53
687,738	-10,24
687,926	26,62
688,115	61,44
688,303	83,97
688,492	165,89
688,68	100,35
688,869	28,67
689,057	12,29
689,246	-14,34
689,434	100,35
689,623	36,86
689,811	83,97
690	-55,3
690,188	-24,58
690,377	18,43
690,565	77,82
690,753	145,41
690,942	59,39
691,13	100,35
691,318	239,61
691,507	256
691,695	808,95
691,883	1550,31
692,072	2363,36
692,26	3352,52
692,448	4499,39
692,636	5713,83
692,824	6956,95
693,013	8054,66
693,201	8902,52
693,389	9287,54
693,577	9377,65
693,765	9355,12
693,953	9070,45
694,141	7931,78
694,329	6991,77
694,518	6029,22
694,706	5662,63
694,894	4933,56
695,082	4077,51
695,27	3651,53
695,458	2803,67
695,646	2039,78
695,834	1353,71
696,022	864,24
696,209	600,05
696,397	493,56
696,585	198,65
696,773	198,65
696,961	145,41
697,149	61,44
697,337	108,54
697,525	92,16
697,712	83,97
697,9	133,12
698,088	51,2
698,276	155,65
698,463	100,35
698,651	43,01
698,839	20,48
699,027	36,86
699,214	182,27
699,402	34,82
699,59	71,68
699,777	30,72
699,965	100,35
700,152	36,86
700,34	69,63
700,528	63,49
700,715	22,53
700,903	47,1
701,09	86,01
701,278	133,12
701,465	296,96
701,653	364,54
701,84	673,78
702,028	1380,33
702,215	2328,54
702,402	3614,66
702,59	4966,32
702,777	6508,44
702,965	7913,35
703,152	9727,85
703,339	10942,3
703,527	12072,78
703,714	12121,93
703,901	12273,48
704,088	11870,03
704,276	11028,31
704,463	10106,73
704,65	8929,14
704,837	7888,78
705,025	6989,72
705,212	6223,78
705,399	5371,82
705,586	4648,89
705,773	3854,28
705,96	2844,63
706,147	2076,64
706,335	1406,95
706,522	1116,14
706,709	796,66
706,896	567,29
707,083	391,16
707,27	397,31
707,457	454,65
707,644	210,94
707,831	104,45
708,018	75,77
708,205	159,74
708,392	163,84
708,578	112,64
708,765	67,58
708,952	63,49
709,139	69,63
709,326	43,01
709,513	67,58
709,7	4,1
709,886	69,63
710,073	167,93
710,26	141,31
710,447	-16,38
710,633	51,2
710,82	-30,72
711,007	67,58
711,193	51,2
711,38	34,82
711,567	86,01
711,753	20,48
711,94	26,62
712,127	81,92
712,313	36,86
712,5	10,24
712,686	47,1
712,873	47,1
713,059	-36,86
713,246	106,49
713,432	51,2
713,619	34,82
713,805	28,67
713,992	126,97
714,178	2,05
714,365	34,82
714,551	141,31
714,737	43,01
714,924	-4,1
715,11	45,06
715,297	83,97
715,483	-14,34
715,669	61,44
715,855	51,2
716,042	83,97
716,228	239,61
716,414	421,88
716,6	600,05
716,787	845,81
716,973	1050,61
717,159	1335,28
717,345	1558,5
717,531	1894,37
717,718	1894,37
717,904	1939,43
718,09	1828,84
718,276	1812,45
718,462	1697,77
718,648	1499,11
718,834	1218,54
719,02	1314,8
719,206	1083,38
719,392	929,78
719,578	821,24
719,764	722,93
719,95	620,53
720,136	618,49
720,322	342,01
720,508	301,05
720,694	135,17
720,879	77,82
721,065	200,7
721,251	100,35
721,437	-6,14
721,623	149,5
721,809	53,25
721,994	112,64
722,18	2,05
722,366	-59,39
722,552	112,64
722,737	-30,72
722,923	151,55
723,109	227,32
723,294	387,07
723,48	866,29
723,666	1312,75
723,851	1783,78
724,037	2607,06
724,222	3295,18
724,408	4138,94
724,593	4544,44
724,779	5019,57
724,965	5150,64
725,15	5343,15
725,336	5048,24
725,521	4769,72
725,706	4188,1
725,892	3860,42
726,077	3194,83
726,263	3000,27
726,448	2598,87
726,634	2244,57
726,819	2033,63
727,004	1939,43
727,19	1447,91
727,375	1157,1
727,56	763,89
727,745	477,18
727,931	442,36
728,116	225,28
728,301	208,89
728,486	182,27
728,672	169,98
728,857	53,25
729,042	6,14
729,227	-12,29
729,412	38,91
729,597	14,34
729,783	51,2
729,968	12,29
730,153	26,62
730,338	34,82
730,523	43,01
730,708	36,86
730,893	38,91
731,078	4,1
731,263	47,1
731,448	10,24
731,633	63,49
731,818	-55,3
732,003	-30,72
732,187	55,3
732,372	22,53
732,557	77,82
732,742	43,01
732,927	47,1
733,112	114,69
733,297	-14,34
733,481	4,1
733,666	61,44
733,851	38,91
734,036	59,39
734,22	28,67
734,405	198,65
734,59	-30,72
734,774	43,01
734,959	-22,53
735,144	53,25
735,328	18,43
735,513	-36,86
735,698	73,73
735,882	75,77
736,067	186,37
736,251	-22,53
736,436	14,34
736,62	75,77
736,805	-47,1
736,989	86,01
737,174	36,86
737,358	-55,3
737,543	45,06
737,727	20,48
737,911	126,97
738,096	18,43
738,28	116,73
738,465	36,86
738,649	79,87
738,833	18,43
739,018	22,53
739,202	59,39
739,386	14,34
739,57	-34,82
739,755	-14,34
739,939	30,72
740,123	-77,82
740,307	92,16
740,491	110,59
740,676	-63,49
740,86	32,77
741,044	14,34
741,228	-10,24
741,412	-55,3
741,596	-30,72
741,78	-2,05
741,964	43,01
742,148	-14,34
742,332	28,67
742,516	51,2
742,7	137,21
742,884	290,81
743,068	362,49
743,252	479,22
743,436	673,78
743,62	706,55
743,804	1185,77
743,988	1189,87
744,172	1167,34
744,356	1306,6
744,539	1222,64
744,723	1189,87
744,907	1118,19
745,091	1052,66
745,275	845,81
745,458	763,89
745,642	673,78
745,826	571,38
746,009	614,39
746,193	542,71
746,377	501,75
746,56	356,35
746,744	438,27
746,928	256
747,111	202,75
747,295	176,13
747,478	133,12
747,662	137,21
747,846	135,17
748,029	235,52
748,213	288,76
748,396	219,13
748,58	327,67
748,763	362,49
748,946	346,11
749,13	493,56
749,313	430,07
749,497	477,18
749,68	471,03
749,863	417,79
750,047	362,49
750,23	342,01
750,413	305,15
750,597	198,65
750,78	215,04
750,963	278,52
751,146	157,69
751,33	186,37
751,513	133,12
751,696	110,59
751,879	206,84
752,062	53,25
752,246	108,54
752,429	53,25
752,612	110,59
752,795	67,58
752,978	110,59
753,161	126,97
753,344	266,24
753,527	337,91
753,71	464,89
753,893	479,22
754,076	526,33
754,259	481,27
754,442	454,65
754,625	454,65
754,808	542,71
754,991	448,51
755,174	403,45
755,357	292,86
755,539	311,29
755,722	260,09
755,905	114,69
756,088	169,98
756,271	212,99
756,453	124,93
756,636	120,83
756,819	145,41
757,002	73,73
757,184	167,93
757,367	145,41
757,55	114,69
757,732	106,49
757,915	20,48
758,098	-4,1
758,28	90,11
758,463	26,62
758,645	28,67
758,828	124,93
759,011	18,43
759,193	2,05
759,376	86,01
759,558	-51,2
759,741	6,14
759,923	-4,1
760,105	36,86
760,288	79,87
760,47	-47,1
760,653	-30,72
760,835	-43,01
761,017	-6,14
761,2	2,05
761,382	169,98
761,564	-10,24
761,747	53,25
761,929	-77,82
762,111	22,53
762,294	10,24
762,476	120,83
762,658	-45,06
762,84	81,92
763,022	-22,53
763,205	75,77
763,387	141,31
763,569	10,24
763,751	-53,25
763,933	20,48
764,115	-38,91
764,297	-6,14
764,479	59,39
764,661	26,62
764,843	112,64
765,025	51,2
765,207	12,29
765,389	-20,48
765,571	-126,97
765,753	51,2
765,935	45,06
766,117	28,67
766,299	55,3
766,481	96,25
766,663	-6,14
766,845	14,34
767,026	-12,29
767,208	57,34
767,39	59,39
767,572	-22,53
767,753	129,02
767,935	4,1
768,117	45,06
768,299	100,35
768,48	-20,48
768,662	61,44
768,844	-14,34
769,025	94,21
769,207	-4,1
769,389	45,06
769,57	69,63
769,752	30,72
769,933	-6,14
770,115	45,06
770,296	32,77
770,478	106,49
770,659	-43,01
770,841	258,04
771,022	10,24
771,204	6,14
771,385	67,58
771,567	186,37
771,748	88,06
771,929	-12,29
772,111	43,01
772,292	192,51
772,473	120,83
772,655	57,34
772,836	47,1
773,017	98,3
773,199	18,43
773,38	43,01
773,561	53,25
773,742	6,14
773,923	34,82
774,105	217,08
774,286	38,91
774,467	2,05
774,648	-14,34
774,829	18,43
775,01	-47,1
775,191	-4,1
775,372	-14,34
775,553	-20,48
775,734	34,82
775,915	-53,25
776,096	38,91
776,277	2,05
776,458	-4,1
776,639	-90,11
776,82	61,44
777,001	2,05
777,182	-36,86
777,363	47,1
777,544	73,73
777,725	88,06
777,906	75,77
778,086	124,93
778,267	34,82
778,448	-2,05
778,629	43,01
778,809	79,87
778,99	135,17
779,171	34,82
779,352	59,39
779,532	-53,25
779,713	51,2
779,894	-57,34
780,074	135,17
780,255	24,58
780,435	-24,58
780,616	104,45
780,797	83,97
780,977	2,05
781,158	-59,39
781,338	36,86
781,519	-6,14
781,699	124,93
781,88	12,29
782,06	116,73
782,241	-55,3
782,421	-38,91
782,601	4,1
782,782	108,54
782,962	71,68
783,142	-30,72
783,323	-6,14
783,503	71,68
783,683	-24,58
783,864	-8,19
784,044	131,07
784,224	77,82
784,404	2,05
784,585	36,86
784,765	-77,82
784,945	112,64
785,125	51,2
785,305	43,01
785,485	69,63
785,666	83,97
785,846	-24,58
786,026	-14,34
786,206	4,1
786,386	83,97
786,566	40,96
786,746	88,06
786,926	69,63
787,106	-24,58
787,286	4,1
787,466	-71,68
787,646	47,1
787,826	6,14
788,006	61,44
788,185	10,24
788,365	-30,72
788,545	141,31
788,725	-83,97
788,905	-10,24
789,085	43,01
789,264	-38,91
789,444	-2,05
789,624	104,45
789,804	10,24
789,983	36,86
790,163	14,34
790,343	59,39
790,522	2,05
790,702	-22,53
790,882	55,3
791,061	88,06
791,241	51,2
791,42	-28,67
791,6	32,77
791,78	53,25
791,959	6,14
792,139	-51,2
792,318	49,15
792,498	124,93
792,677	83,97
792,856	20,48
793,036	22,53
793,215	-22,53
793,395	75,77
793,574	59,39
793,753	28,67
793,933	141,31
794,112	116,73
794,291	118,78
794,471	75,77
794,65	-16,38
794,829	65,54
795,008	67,58
795,188	108,54
795,367	145,41
795,546	92,16
795,725	83,97
795,904	83,97
796,084	81,92
796,263	100,35
796,442	94,21
796,621	133,12
796,8	129,02
796,979	83,97
797,158	38,91
797,337	6,14
797,516	102,4
797,695	161,79
797,874	4,1
798,053	124,93
798,232	77,82
798,411	-81,92
798,59	-34,82
798,769	-18,43
798,947	28,67
799,126	53,25
799,305	77,82
799,484	-34,82
799,663	-38,91
799,842	18,43
800,02	51,2
800,199	-4,1
800,378	102,4
800,557	18,43
800,735	-53,25
800,914	18,43
801,093	-6,14
801,271	86,01
801,45	75,77
801,628	61,44
801,807	4,1
801,986	26,62
802,164	36,86
802,343	-71,68
802,521	2,05
802,7	83,97
802,878	18,43
803,057	32,77
803,235	-20,48
803,414	2,05
803,592	24,58
803,771	83,97
803,949	86,01
804,127	8,19
804,306	110,59
804,484	10,24
804,662	-20,48
804,841	-38,91
805,019	79,87
805,197	51,2
805,375	83,97
805,554	51,2
805,732	79,87
805,91	18,43
806,088	-26,62
806,266	-26,62
806,445	14,34
806,623	34,82
806,801	22,53
806,979	45,06
807,157	75,77
807,335	-45,06
807,513	61,44
807,691	26,62
807,869	18,43
808,047	36,86
808,225	26,62
808,403	79,87
808,581	59,39
808,759	157,69
808,937	12,29
809,115	157,69
809,293	34,82
809,471	18,43
809,649	151,55
809,826	34,82
810,004	12,29
810,182	-22,53
810,36	8,19
810,538	30,72
810,715	118,78
810,893	-34,82
811,071	45,06
811,248	143,36
811,426	12,29
811,604	137,21
811,781	124,93
811,959	108,54
812,137	77,82
812,314	30,72
812,492	126,97
812,669	20,48
812,847	34,82
813,024	106,49
813,202	182,27
813,379	100,35
813,557	38,91
813,734	182,27
813,912	202,75
814,089	86,01
814,267	120,83
814,444	108,54
814,621	112,64
814,799	43,01
814,976	141,31
815,153	75,77
815,331	-18,43
815,508	63,49
815,685	18,43
815,862	61,44
816,04	28,67
816,217	69,63
816,394	51,2
816,571	110,59
816,748	221,18
816,926	116,73
817,103	296,96
817,28	59,39
817,457	49,15
817,634	139,26
817,811	-59,39
817,988	61,44
818,165	-2,05
818,342	10,24
818,519	88,06
818,696	49,15
818,873	-6,14
819,05	118,78
819,227	12,29
819,404	-20,48
819,581	102,4
819,758	22,53
819,934	55,3
820,111	-8,19
820,288	75,77
820,465	94,21
820,642	-22,53
820,818	75,77
820,995	53,25
821,172	45,06
821,349	45,06
821,525	43,01
821,702	12,29
821,879	-38,91
822,055	26,62
822,232	22,53
822,409	30,72
822,585	36,86
822,762	94,21
822,938	51,2
823,115	53,25
823,291	-14,34
823,468	174,08
823,644	18,43
823,821	92,16
823,997	2,05
824,174	-30,72
824,35	67,58
824,527	55,3
824,703	92,16
824,879	34,82
825,056	38,91
825,232	149,5
825,408	16,38
825,585	-4,1
825,761	34,82
825,937	49,15
826,113	102,4
826,29	110,59
826,466	-45,06
826,642	444,41
826,818	53,25
826,994	94,21
827,17	-12,29
827,347	-28,67
827,523	8,19
827,699	71,68
827,875	43,01
828,051	-22,53
828,227	18,43
828,403	79,87
828,579	45,06
828,755	86,01
828,931	88,06
829,107	61,44
829,283	251,9
829,459	47,1
829,635	118,78
829,811	149,5
829,986	161,79
830,162	59,39
830,338	124,93
830,514	73,73
830,69	108,54
830,865	63,49
831,041	149,5
831,217	36,86
831,393	34,82
831,568	0
831,744	57,34
831,92	69,63
832,095	-2,05
832,271	-14,34
832,447	83,97
832,622	212,99
832,798	65,54
832,973	67,58
833,149	59,39
833,325	6,14
833,5	79,87
833,676	36,86
833,851	51,2
834,027	118,78
834,202	18,43
834,377	77,82
834,553	81,92
834,728	45,06
834,904	67,58
835,079	-59,39
835,254	-94,21
835,43	34,82
835,605	-20,48
835,78	-2,05
835,955	59,39
836,131	40,96
836,306	0
836,481	47,1
836,656	88,06
836,832	217,08
837,007	169,98
837,182	163,84
837,357	299
837,532	354,3
837,707	440,31
837,882	489,46
838,057	452,6
838,232	460,79
838,407	354,3
838,582	258,04
838,757	286,72
838,932	239,61
839,107	264,19
839,282	157,69
839,457	231,42
839,632	247,8
839,807	264,19
839,982	225,28
840,157	159,74
840,332	292,86
840,506	176,13
840,681	141,31
840,856	174,08
841,031	174,08
841,205	174,08
841,38	165,89
841,555	186,37
841,73	184,32
841,904	118,78
842,079	96,25
842,254	167,93
842,428	67,58
842,603	-12,29
842,777	129,02
842,952	34,82
843,126	20,48
843,301	77,82
843,476	100,35
843,65	47,1
843,825	22,53
843,999	83,97
844,173	-10,24
844,348	67,58
844,522	116,73
844,697	67,58
844,871	118,78
845,045	51,2
845,22	75,77
845,394	135,17
845,568	24,58
845,743	108,54
845,917	12,29
846,091	-4,1
846,265	34,82
846,44	14,34
846,614	108,54
846,788	-2,05
846,962	6,14
847,136	71,68
847,31	51,2
847,485	206,84
847,659	-10,24
847,833	102,4
848,007	-59,39
848,181	-2,05
848,355	-45,06
848,529	90,11
848,703	96,25
848,877	28,67
849,051	141,31
849,225	161,79
849,399	192,51
849,573	194,56
849,746	212,99
849,92	186,37
850,094	264,19
850,268	196,61
850,442	206,84
850,616	161,79
850,789	32,77
850,963	116,73
851,137	116,73
851,311	194,56
851,484	151,55
851,658	118,78
851,832	63,49
852,005	2,05
852,179	77,82
852,352	92,16
852,526	118,78
852,7	47,1
852,873	94,21
853,047	151,55
853,22	100,35
853,394	83,97
853,567	26,62
853,741	22,53
853,914	43,01
854,088	161,79
854,261	43,01
854,434	-4,1
854,608	-63,49
854,781	-45,06
854,955	32,77
855,128	2,05
855,301	-49,15
855,475	106,49
855,648	-2,05
855,821	-6,14
855,994	75,77
856,168	83,97
856,341	77,82
856,514	-12,29
856,687	79,87
856,86	116,73
857,033	83,97
857,207	-45,06
857,38	45,06
857,553	141,31
857,726	71,68
857,899	36,86
858,072	2,05
858,245	14,34
858,418	102,4
858,591	67,58
858,764	71,68
858,937	88,06
859,11	139,26
859,283	106,49
859,455	116,73
859,628	12,29
859,801	145,41
859,974	165,89
860,147	-38,91
860,32	157,69
860,492	79,87
860,665	2,05
860,838	55,3
861,011	18,43
861,183	124,93
861,356	100,35
861,529	94,21
861,701	43,01
861,874	67,58
862,047	157,69
862,219	59,39
862,392	141,31
862,564	106,49
862,737	122,88
862,909	161,79
863,082	34,82
863,254	104,45
863,427	51,2
863,599	110,59
863,772	51,2
863,944	108,54
864,117	83,97
864,289	147,45
864,461	75,77
864,634	217,08
864,806	67,58
864,978	200,7
865,151	83,97
865,323	266,24
865,495	266,24
865,667	223,23
865,84	315,39
866,012	92,16
866,184	178,17
866,356	83,97
866,528	167,93
866,7	96,25
866,873	75,77
867,045	96,25
867,217	137,21
867,389	174,08
867,561	151,55
867,733	145,41
867,905	108,54
868,077	133,12
868,249	192,51
868,421	186,37
868,593	102,4
868,765	223,23
868,936	129,02
869,108	67,58
869,28	157,69
869,452	79,87
869,624	79,87
869,796	116,73
869,968	67,58
870,139	206,84
870,311	-2,05
870,483	190,46
870,654	-4,1
870,826	75,77
870,998	-10,24
871,17	38,91
871,341	47,1
871,513	104,45
871,684	-4,1
871,856	4,1
872,028	18,43
872,199	10,24
872,371	-20,48
872,542	53,25
872,714	43,01
872,885	165,89
873,057	8,19
873,228	51,2
873,4	69,63
873,571	276,48
873,742	83,97
873,914	86,01
874,085	2,05
874,256	100,35
874,428	-22,53
874,599	20,48
874,77	210,94
874,942	2,05
875,113	100,35
875,284	-26,62
875,455	26,62
875,626	10,24
875,798	10,24
875,969	-38,91
876,14	12,29
876,311	71,68
876,482	61,44
876,653	104,45
876,824	149,5
876,995	26,62
877,166	108,54
877,337	83,97
877,508	36,86
877,679	77,82
877,85	51,2
878,021	63,49
878,192	206,84
878,363	137,21
878,534	100,35
878,705	45,06
878,876	120,83
879,047	210,94
879,217	120,83
879,388	112,64
879,559	34,82
879,73	141,31
879,9	129,02
880,071	110,59
880,242	192,51
880,413	143,36
880,583	116,73
880,754	129,02
880,924	100,35
881,095	0
881,266	26,62
881,436	86,01
881,607	206,84
881,777	69,63
881,948	69,63
882,118	122,88
882,289	-30,72
882,459	77,82
882,63	10,24
882,8	32,77
882,971	55,3
883,141	65,54
883,311	77,82
883,482	61,44
883,652	-12,29
883,822	32,77
883,993	30,72
884,163	-12,29
884,333	18,43
884,504	79,87
884,674	157,69
884,844	61,44
885,014	45,06
885,184	40,96
885,355	-51,2
885,525	-51,2
885,695	71,68
885,865	133,12
886,035	116,73
886,205	4,1
886,375	100,35
886,545	63,49
886,715	-8,19
886,885	88,06
887,055	61,44
887,225	88,06
887,395	92,16
887,565	167,93
887,735	75,77
887,905	24,58
888,075	10,24
888,244	83,97
888,414	126,97
888,584	126,97
888,754	-61,44
888,924	14,34
889,093	149,5
889,263	16,38
889,433	65,54
889,603	43,01
889,772	104,45
889,942	161,79
890,111	83,97
890,281	75,77
890,451	34,82
890,62	79,87
890,79	53,25
890,959	67,58
891,129	-12,29
891,298	22,53
891,468	-10,24
891,637	10,24
891,807	26,62
891,976	-36,86
892,146	-38,91
892,315	75,77
892,485	141,31
892,654	-6,14
892,823	14,34
892,993	2,05
893,162	112,64
893,331	100,35
893,501	67,58
893,67	51,2
893,839	26,62
894,008	6,14
894,177	47,1
894,347	6,14
894,516	118,78
894,685	26,62
894,854	34,82
895,023	45,06
895,192	43,01
