Data from neon_USB4F104161__8__11-46-32-448.txt Node

Date: Tue Apr 14 11:46:32 EDT 2026
User: LaboPhy
Spectrometer: USB4F10416
Trigger mode: 4
Integration Time (sec): 1,000000E-1
Scans to average: 1
Electric dark correction enabled: true
Nonlinearity correction enabled: false
Boxcar width: 0
XAxis mode: Wavelengths
Number of Pixels in Spectrum: 3648
>>>>>Begin Spectral Data<<<<<
177,847	-156,67
178,066	-156,67
178,284	-156,67
178,502	-261,12
178,72	-158,72
178,939	-13,31
179,157	19,46
179,375	-44,03
179,593	29,7
179,812	31,74
180,03	-25,6
180,248	35,84
180,466	-19,46
180,685	27,65
180,903	3,07
181,121	-21,5
181,339	-23,55
181,557	29,7
181,775	50,18
181,994	-37,89
182,212	-5,12
182,43	-21,5
182,648	25,6
182,866	60,42
183,084	44,03
183,302	56,32
183,52	48,13
183,739	103,42
183,957	105,47
184,175	-62,46
184,393	-19,46
184,611	56,32
184,829	21,5
185,047	-25,6
185,265	35,84
185,483	101,37
185,701	68,61
185,919	52,22
186,137	76,8
186,355	68,61
186,573	25,6
186,791	128
187,009	-82,94
187,227	70,65
187,445	-33,79
187,663	21,5
187,881	-31,74
188,098	-62,46
188,316	13,31
188,534	46,08
188,752	19,46
188,97	5,12
189,188	-19,46
189,406	48,13
189,624	-70,65
189,841	44,03
190,059	19,46
190,277	48,13
190,495	-46,08
190,713	99,33
190,931	146,43
191,148	62,46
191,366	35,84
191,584	-29,7
191,802	56,32
192,019	72,7
192,237	60,42
192,455	78,85
192,673	56,32
192,89	-15,36
193,108	27,65
193,326	-35,84
193,543	54,27
193,761	-44,03
193,979	-11,26
194,196	-35,84
194,414	60,42
194,632	140,29
194,849	-17,41
195,067	-74,75
195,285	-46,08
195,502	-119,81
195,72	-15,36
195,937	-11,26
196,155	93,18
196,373	-48,13
196,59	44,03
196,808	48,13
197,025	76,8
197,243	250,88
197,46	80,89
197,678	39,94
197,895	5,12
198,113	-13,31
198,33	-25,6
198,548	64,51
198,765	-13,31
198,983	62,46
199,2	-37,89
199,418	70,65
199,635	-13,31
199,853	5,12
200,07	-5,12
200,288	62,46
200,505	52,22
200,722	93,18
200,94	23,55
201,157	-13,31
201,375	72,7
201,592	3,07
201,809	29,7
202,027	154,62
202,244	101,37
202,461	-58,37
202,679	62,46
202,896	3,07
203,113	-25,6
203,331	46,08
203,548	60,42
203,765	80,89
203,982	72,7
204,2	-3,07
204,417	31,74
204,634	209,92
204,851	93,18
205,069	76,8
205,286	23,55
205,503	72,7
205,72	48,13
205,937	17,41
206,155	64,51
206,372	109,57
206,589	-37,89
206,806	9,22
207,023	35,84
207,24	11,26
207,458	-13,31
207,675	-60,42
207,892	58,37
208,109	-3,07
208,326	3,07
208,543	5,12
208,76	-3,07
208,977	54,27
209,194	68,61
209,411	-37,89
209,628	19,46
209,845	-13,31
210,062	13,31
210,279	17,41
210,496	-33,79
210,713	-29,7
210,93	-95,23
211,147	128
211,364	-9,22
211,581	15,36
211,798	87,04
212,015	-54,27
212,232	52,22
212,449	-29,7
212,666	27,65
212,883	84,99
213,1	5,12
213,317	-17,41
213,533	78,85
213,75	35,84
213,967	15,36
214,184	-46,08
214,401	50,18
214,618	-21,5
214,835	-23,55
215,051	113,66
215,268	121,85
215,485	64,51
215,702	60,42
215,919	-115,71
216,135	113,66
216,352	-15,36
216,569	-29,7
216,786	60,42
217,002	15,36
217,219	39,94
217,436	-25,6
217,652	-62,46
217,869	70,65
218,086	93,18
218,302	84,99
218,519	3,07
218,736	23,55
218,952	-52,22
219,169	48,13
219,386	-21,5
219,602	87,04
219,819	44,03
220,036	-7,17
220,252	93,18
220,469	-21,5
220,685	-25,6
220,902	-5,12
221,118	76,8
221,335	35,84
221,552	44,03
221,768	52,22
221,985	-46,08
222,201	7,17
222,418	23,55
222,634	56,32
222,851	21,5
223,067	5,12
223,284	9,22
223,5	-13,31
223,716	35,84
223,933	99,33
224,149	19,46
224,366	-7,17
224,582	-54,27
224,799	44,03
225,015	46,08
225,231	13,31
225,448	19,46
225,664	52,22
225,88	-80,89
226,097	91,13
226,313	-19,46
226,529	23,55
226,746	48,13
226,962	35,84
227,178	89,09
227,395	-46,08
227,611	37,89
227,827	-5,12
228,044	11,26
228,26	72,7
228,476	44,03
228,692	117,76
228,909	3,07
229,125	68,61
229,341	-13,31
229,557	-17,41
229,773	-35,84
229,99	41,98
230,206	-3,07
230,422	11,26
230,638	-1,02
230,854	-68,61
231,07	-60,42
231,286	87,04
231,503	84,99
231,719	-78,85
231,935	13,31
232,151	-17,41
232,367	62,46
232,583	-3,07
232,799	76,8
233,015	64,51
233,231	-3,07
233,447	-29,7
233,663	-17,41
233,879	60,42
234,095	3,07
234,311	13,31
234,527	89,09
234,743	44,03
234,959	-3,07
235,175	-41,98
235,391	-99,33
235,607	31,74
235,823	-5,12
236,039	-41,98
236,255	-31,74
236,471	89,09
236,687	72,7
236,903	-5,12
237,118	44,03
237,334	3,07
237,55	7,17
237,766	-35,84
237,982	68,61
238,198	144,38
238,413	15,36
238,629	64,51
238,845	-33,79
239,061	29,7
239,277	35,84
239,492	-78,85
239,708	11,26
239,924	-66,56
240,14	46,08
240,355	158,72
240,571	-17,41
240,787	46,08
241,003	95,23
241,218	25,6
241,434	35,84
241,65	-3,07
241,865	31,74
242,081	134,14
242,297	-21,5
242,512	-52,22
242,728	19,46
242,944	3,07
243,159	62,46
243,375	-9,22
243,59	70,65
243,806	35,84
244,022	31,74
244,237	-9,22
244,453	33,79
244,668	11,26
244,884	93,18
245,099	3,07
245,315	27,65
245,53	93,18
245,746	97,28
245,961	134,14
246,177	13,31
246,392	117,76
246,608	35,84
246,823	5,12
247,039	-3,07
247,254	-31,74
247,47	89,09
247,685	35,84
247,9	-5,12
248,116	56,32
248,331	-11,26
248,547	74,75
248,762	-35,84
248,977	37,89
249,193	-54,27
249,408	35,84
249,623	-25,6
249,839	27,65
250,054	-78,85
250,269	15,36
250,485	64,51
250,7	25,6
250,915	-5,12
251,13	50,18
251,346	-7,17
251,561	31,74
251,776	70,65
251,991	-25,6
252,207	95,23
252,422	13,31
252,637	-3,07
252,852	-13,31
253,067	7,17
253,283	-29,7
253,498	74,75
253,713	-21,5
253,928	-97,28
254,143	-48,13
254,358	37,89
254,573	-39,94
254,788	-52,22
255,004	58,37
255,219	-91,13
255,434	60,42
255,649	-5,12
255,864	117,76
256,079	11,26
256,294	52,22
256,509	-5,12
256,724	80,89
256,939	-87,04
257,154	23,55
257,369	27,65
257,584	44,03
257,799	-37,89
258,014	-29,7
258,229	78,85
258,444	-25,6
258,659	27,65
258,874	60,42
259,089	78,85
259,304	101,37
259,518	-33,79
259,733	31,74
259,948	-37,89
260,163	56,32
260,378	29,7
260,593	66,56
260,808	-21,5
261,022	-78,85
261,237	48,13
261,452	31,74
261,667	68,61
261,882	84,99
262,096	52,22
262,311	35,84
262,526	-13,31
262,741	-70,65
262,955	-25,6
263,17	74,75
263,385	27,65
263,6	-52,22
263,814	-46,08
264,029	-70,65
264,244	56,32
264,458	37,89
264,673	15,36
264,888	80,89
265,102	13,31
265,317	7,17
265,532	-5,12
265,746	84,99
265,961	84,99
266,175	-11,26
266,39	44,03
266,605	13,31
266,819	27,65
267,034	97,28
267,248	-25,6
267,463	62,46
267,677	11,26
267,892	-5,12
268,106	-78,85
268,321	-68,61
268,535	74,75
268,75	54,27
268,964	-70,65
269,179	46,08
269,393	11,26
269,608	80,89
269,822	-62,46
270,036	-35,84
270,251	-5,12
270,465	29,7
270,68	60,42
270,894	72,7
271,108	125,95
271,323	93,18
271,537	60,42
271,752	31,74
271,966	-5,12
272,18	-113,66
272,394	21,5
272,609	-29,7
272,823	-35,84
273,037	-27,65
273,252	9,22
273,466	-17,41
273,68	76,8
273,894	68,61
274,109	-54,27
274,323	35,84
274,537	27,65
274,751	-95,23
274,966	146,43
275,18	-78,85
275,394	41,98
275,608	-68,61
275,822	-60,42
276,036	37,89
276,25	62,46
276,465	23,55
276,679	68,61
276,893	-74,75
277,107	117,76
277,321	-78,85
277,535	62,46
277,749	150,53
277,963	7,17
278,177	-27,65
278,391	27,65
278,605	-70,65
278,819	76,8
279,033	-37,89
279,247	89,09
279,461	-21,5
279,675	7,17
279,889	62,46
280,103	-44,03
280,317	64,51
280,531	-70,65
280,745	60,42
280,959	-58,37
281,173	5,12
281,387	54,27
281,601	37,89
281,815	117,76
282,029	-74,75
282,242	64,51
282,456	44,03
282,67	44,03
282,884	-23,55
283,098	3,07
283,312	37,89
283,525	29,7
283,739	50,18
283,953	76,8
284,167	21,5
284,381	-3,07
284,594	-19,46
284,808	-17,41
285,022	27,65
285,235	-33,79
285,449	-9,22
285,663	-3,07
285,877	-29,7
286,09	-5,12
286,304	-19,46
286,518	25,6
286,731	-3,07
286,945	-5,12
287,159	-21,5
287,372	-21,5
287,586	13,31
287,799	-7,17
288,013	-29,7
288,227	9,22
288,44	295,93
288,654	37,89
288,867	15,36
289,081	-13,31
289,294	60,42
289,508	76,8
289,721	48,13
289,935	-37,89
290,148	82,94
290,362	54,27
290,575	121,85
290,789	-19,46
291,002	-54,27
291,216	64,51
291,429	-13,31
291,643	68,61
291,856	-21,5
292,069	27,65
292,283	-91,13
292,496	39,94
292,71	76,8
292,923	37,89
293,136	-46,08
293,35	31,74
293,563	-19,46
293,776	125,95
293,99	48,13
294,203	-3,07
294,416	21,5
294,63	35,84
294,843	-21,5
295,056	52,22
295,269	27,65
295,483	-87,04
295,696	-13,31
295,909	-37,89
296,122	117,76
296,335	-25,6
296,549	15,36
296,762	44,03
296,975	-80,89
297,188	21,5
297,401	-29,7
297,615	48,13
297,828	-23,55
298,041	80,89
298,254	-56,32
298,467	-15,36
298,68	39,94
298,893	-19,46
299,106	-58,37
299,319	44,03
299,532	-13,31
299,745	-3,07
299,958	-17,41
300,171	-87,04
300,384	29,7
300,598	-50,18
300,81	19,46
301,023	-3,07
301,236	-37,89
301,449	7,17
301,662	-68,61
301,875	29,7
302,088	15,36
302,301	68,61
302,514	-11,26
302,727	52,22
302,94	-52,22
303,153	21,5
303,366	19,46
303,579	-29,7
303,791	84,99
304,004	-29,7
304,217	105,47
304,43	-37,89
304,643	-3,07
304,855	-78,85
305,068	138,24
305,281	-62,46
305,494	29,7
305,707	-29,7
305,919	232,44
306,132	3,07
306,345	46,08
306,558	87,04
306,77	-50,18
306,983	-95,23
307,196	148,48
307,408	-21,5
307,621	-31,74
307,834	-39,94
308,046	37,89
308,259	-82,94
308,472	35,84
308,684	111,61
308,897	-21,5
309,109	-37,89
309,322	-33,79
309,535	35,84
309,747	76,8
309,96	-3,07
310,172	82,94
310,385	76,8
310,597	-7,17
310,81	64,51
311,022	-35,84
311,235	-93,18
311,447	21,5
311,66	97,28
311,872	60,42
312,085	-21,5
312,297	25,6
312,51	-11,26
312,722	52,22
312,934	54,27
313,147	-52,22
313,359	21,5
313,572	11,26
313,784	-72,7
313,996	3,07
314,209	5,12
314,421	-68,61
314,633	-52,22
314,846	-60,42
315,058	109,57
315,27	19,46
315,483	-87,04
315,695	68,61
315,907	5,12
316,119	-66,56
316,332	-13,31
316,544	48,13
316,756	19,46
316,968	19,46
317,181	11,26
317,393	-5,12
317,605	-11,26
317,817	89,09
318,029	5,12
318,241	35,84
318,454	15,36
318,666	82,94
318,878	-95,23
319,09	11,26
319,302	35,84
319,514	68,61
319,726	52,22
319,938	84,99
320,15	160,77
320,362	-13,31
320,574	-41,98
320,786	46,08
320,999	-58,37
321,211	62,46
321,423	101,37
321,635	68,61
321,847	-25,6
322,058	-5,12
322,27	50,18
322,482	19,46
322,694	93,18
322,906	-35,84
323,118	23,55
323,33	46,08
323,542	-64,51
323,754	76,8
323,966	-27,65
324,178	93,18
324,389	84,99
324,601	58,37
324,813	-19,46
325,025	-37,89
325,237	21,5
325,449	142,33
325,66	-5,12
325,872	3,07
326,084	-11,26
326,296	-13,31
326,507	15,36
326,719	15,36
326,931	-60,42
327,143	70,65
327,354	64,51
327,566	89,09
327,778	-13,31
327,989	158,72
328,201	-84,99
328,413	37,89
328,624	7,17
328,836	41,98
329,048	-117,76
329,259	-72,7
329,471	80,89
329,682	-31,74
329,894	-5,12
330,106	-117,76
330,317	-48,13
330,529	95,23
330,74	-78,85
330,952	5,12
331,163	27,65
331,375	31,74
331,586	-5,12
331,798	-3,07
332,009	-29,7
332,221	41,98
332,432	64,51
332,644	-58,37
332,855	-62,46
333,067	58,37
333,278	76,8
333,489	78,85
333,701	-70,65
333,912	-76,8
334,124	35,84
334,335	-58,37
334,546	19,46
334,758	27,65
334,969	134,14
335,18	39,94
335,392	39,94
335,603	68,61
335,814	-9,22
336,025	-29,7
336,237	27,65
336,448	60,42
336,659	68,61
336,87	44,03
337,082	125,95
337,293	-56,32
337,504	-21,5
337,715	48,13
337,926	68,61
338,138	-5,12
338,349	76,8
338,56	-37,89
338,771	-31,74
338,982	68,61
339,193	-15,36
339,404	54,27
339,616	19,46
339,827	64,51
340,038	-13,31
340,249	-13,31
340,46	44,03
340,671	35,84
340,882	152,57
341,093	48,13
341,304	37,89
341,515	-52,22
341,726	19,46
341,937	74,75
342,148	-19,46
342,359	-11,26
342,57	-3,07
342,781	109,57
342,992	46,08
343,203	35,84
343,414	87,04
343,624	-7,17
343,835	7,17
344,046	93,18
344,257	216,06
344,468	107,52
344,679	82,94
344,89	183,29
345,1	177,15
345,311	211,96
345,522	168,96
345,733	228,35
345,944	158,72
346,154	209,92
346,365	273,4
346,576	119,81
346,787	177,15
346,997	183,29
347,208	168,96
347,419	101,37
347,629	209,92
347,84	252,92
348,051	1,02
348,261	123,9
348,472	-37,89
348,683	68,61
348,893	-3,07
349,104	35,84
349,315	-11,26
349,525	113,66
349,736	78,85
349,946	29,7
350,157	177,15
350,368	185,34
350,578	29,7
350,789	181,25
350,999	158,72
351,21	152,57
351,42	93,18
351,631	199,68
351,841	291,84
352,052	324,6
352,262	326,65
352,472	244,73
352,683	269,31
352,893	209,92
353,104	125,95
353,314	179,2
353,525	429,05
353,735	93,18
353,945	15,36
354,156	-74,75
354,366	72,7
354,576	128
354,787	13,31
354,997	-99,33
355,207	19,46
355,418	-19,46
355,628	3,07
355,838	25,6
356,048	31,74
356,259	60,42
356,469	-50,18
356,679	-5,12
356,889	60,42
357,1	-41,98
357,31	-41,98
357,52	54,27
357,73	35,84
357,94	68,61
358,15	17,41
358,361	93,18
358,571	62,46
358,781	89,09
358,991	21,5
359,201	111,61
359,411	128
359,621	117,76
359,831	207,87
360,041	123,9
360,251	218,11
360,461	74,75
360,672	58,37
360,882	-60,42
361,092	-46,08
361,302	76,8
361,512	70,65
361,721	37,89
361,931	33,79
362,141	-17,41
362,351	-62,46
362,561	23,55
362,771	60,42
362,981	5,12
363,191	-13,31
363,401	-9,22
363,611	27,65
363,821	11,26
364,03	-29,7
364,24	41,98
364,45	84,99
364,66	236,54
364,87	-7,17
365,08	52,22
365,289	31,74
365,499	3,07
365,709	62,46
365,919	13,31
366,128	-41,98
366,338	62,46
366,548	-25,6
366,758	39,94
366,967	56,32
367,177	29,7
367,387	-35,84
367,596	31,74
367,806	21,5
368,016	27,65
368,225	52,22
368,435	52,22
368,644	68,61
368,854	93,18
369,064	58,37
369,273	103,42
369,483	-87,04
369,692	-5,12
369,902	-33,79
370,111	70,65
370,321	-21,5
370,53	5,12
370,74	37,89
370,949	-29,7
371,159	3,07
371,368	76,8
371,578	19,46
371,787	-5,12
371,997	60,42
372,206	-70,65
372,416	-37,89
372,625	62,46
372,834	84,99
373,044	11,26
373,253	68,61
373,462	-1,02
373,672	-15,36
373,881	68,61
374,09	-9,22
374,3	-39,94
374,509	27,65
374,718	-52,22
374,928	158,72
375,137	31,74
375,346	-7,17
375,555	76,8
375,765	50,18
375,974	7,17
376,183	15,36
376,392	-29,7
376,601	46,08
376,811	13,31
377,02	175,1
377,229	37,89
377,438	62,46
377,647	-46,08
377,856	-62,46
378,065	37,89
378,275	-58,37
378,484	44,03
378,693	19,46
378,902	-50,18
379,111	56,32
379,32	3,07
379,529	-11,26
379,738	-46,08
379,947	52,22
380,156	-46,08
380,365	3,07
380,574	117,76
380,783	-62,46
380,992	27,65
381,201	11,26
381,41	-78,85
381,619	37,89
381,828	74,75
382,037	-17,41
382,245	21,5
382,454	3,07
382,663	19,46
382,872	-5,12
383,081	-27,65
383,29	9,22
383,499	-9,22
383,707	72,7
383,916	31,74
384,125	29,7
384,334	-11,26
384,542	35,84
384,751	-41,98
384,96	-93,18
385,169	35,84
385,377	39,94
385,586	-13,31
385,795	13,31
386,004	93,18
386,212	-37,89
386,421	-19,46
386,63	21,5
386,838	35,84
387,047	62,46
387,255	11,26
387,464	52,22
387,673	-21,5
387,881	-33,79
388,09	134,14
388,298	80,89
388,507	93,18
388,715	-15,36
388,924	111,61
389,133	-91,13
389,341	7,17
389,55	91,13
389,758	27,65
389,967	95,23
390,175	11,26
390,383	101,37
390,592	29,7
390,8	39,94
391,009	60,42
391,217	109,57
391,426	136,19
391,634	-117,76
391,842	-29,7
392,051	-25,6
392,259	68,61
392,467	-15,36
392,676	-101,37
392,884	-70,65
393,092	19,46
393,301	-3,07
393,509	15,36
393,717	11,26
393,925	-37,89
394,134	84,99
394,342	52,22
394,55	117,76
394,758	21,5
394,967	-31,74
395,175	-17,41
395,383	7,17
395,591	-44,03
395,799	54,27
396,007	44,03
396,216	23,55
396,424	56,32
396,632	52,22
396,84	-37,89
397,048	-48,13
397,256	64,51
397,464	-46,08
397,672	111,61
397,88	-150,53
398,088	-41,98
398,296	-3,07
398,504	-44,03
398,712	-13,31
398,92	5,12
399,128	11,26
399,336	27,65
399,544	27,65
399,752	-54,27
399,96	52,22
400,168	109,57
400,376	11,26
400,584	119,81
400,792	-17,41
401	-68,61
401,207	31,74
401,415	37,89
401,623	-9,22
401,831	25,6
402,039	60,42
402,247	-41,98
402,454	44,03
402,662	54,27
402,87	-23,55
403,078	19,46
403,285	68,61
403,493	-5,12
403,701	54,27
403,909	-62,46
404,116	84,99
404,324	-27,65
404,532	91,13
404,739	-23,55
404,947	-21,5
405,155	-23,55
405,362	78,85
405,57	29,7
405,778	-70,65
405,985	13,31
406,193	3,07
406,4	-17,41
406,608	87,04
406,816	11,26
407,023	-29,7
407,231	-50,18
407,438	-27,65
407,646	-48,13
407,853	-56,32
408,061	29,7
408,268	76,8
408,476	-7,17
408,683	68,61
408,89	58,37
409,098	37,89
409,305	31,74
409,513	54,27
409,72	72,7
409,927	-33,79
410,135	109,57
410,342	-50,18
410,55	84,99
410,757	-19,46
410,964	19,46
411,172	37,89
411,379	11,26
411,586	27,65
411,793	21,5
412,001	-35,84
412,208	-1,02
412,415	60,42
412,622	44,03
412,83	7,17
413,037	68,61
413,244	-103,42
413,451	1,02
413,658	39,94
413,866	-5,12
414,073	-17,41
414,28	70,65
414,487	23,55
414,694	52,22
414,901	109,57
415,108	-13,31
415,315	-27,65
415,522	111,61
415,73	13,31
415,937	-87,04
416,144	-140,29
416,351	27,65
416,558	-54,27
416,765	17,41
416,972	89,09
417,179	-44,03
417,386	138,24
417,593	11,26
417,8	19,46
418,006	21,5
418,213	17,41
418,42	-62,46
418,627	11,26
418,834	-17,41
419,041	-37,89
419,248	19,46
419,455	93,18
419,661	70,65
419,868	-37,89
420,075	-3,07
420,282	-52,22
420,489	-25,6
420,696	-13,31
420,902	46,08
421,109	27,65
421,316	-78,85
421,523	21,5
421,729	-17,41
421,936	109,57
422,143	113,66
422,349	-46,08
422,556	-76,8
422,763	41,98
422,969	27,65
423,176	-107,52
423,383	-19,46
423,589	216,06
423,796	-17,41
424,002	-27,65
424,209	-13,31
424,416	68,61
424,622	-119,81
424,829	-5,12
425,035	-87,04
425,242	60,42
425,448	-31,74
425,655	37,89
425,861	-27,65
426,068	44,03
426,274	101,37
426,481	-21,5
426,687	46,08
426,894	39,94
427,1	68,61
427,306	-117,76
427,513	-21,5
427,719	93,18
427,926	52,22
428,132	105,47
428,338	-21,5
428,545	-29,7
428,751	44,03
428,957	29,7
429,163	-80,89
429,37	52,22
429,576	-29,7
429,782	54,27
429,989	-29,7
430,195	84,99
430,401	84,99
430,607	-21,5
430,813	-109,57
431,02	11,26
431,226	-21,5
431,432	37,89
431,638	27,65
431,844	-62,46
432,05	3,07
432,257	-58,37
432,463	52,22
432,669	21,5
432,875	-15,36
433,081	-29,7
433,287	29,7
433,493	-70,65
433,699	54,27
433,905	3,07
434,111	-123,9
434,317	-54,27
434,523	97,28
434,729	54,27
434,935	-13,31
435,141	111,61
435,347	-33,79
435,553	-58,37
435,759	-68,61
435,965	52,22
436,171	-21,5
436,377	58,37
436,582	31,74
436,788	-68,61
436,994	78,85
437,2	39,94
437,406	54,27
437,612	3,07
437,818	17,41
438,023	-62,46
438,229	70,65
438,435	52,22
438,641	31,74
438,846	-25,6
439,052	44,03
439,258	82,94
439,464	9,22
439,669	-19,46
439,875	80,89
440,081	60,42
440,286	-54,27
440,492	31,74
440,698	74,75
440,903	21,5
441,109	50,18
441,314	-46,08
441,52	-31,74
441,726	41,98
441,931	9,22
442,137	68,61
442,342	-37,89
442,548	60,42
442,753	128
442,959	-76,8
443,164	23,55
443,37	62,46
443,575	-62,46
443,781	-52,22
443,986	150,53
444,192	5,12
444,397	-5,12
444,602	-5,12
444,808	17,41
445,013	-19,46
445,219	-35,84
445,424	91,13
445,629	5,12
445,835	78,85
446,04	-17,41
446,245	-29,7
446,451	19,46
446,656	-29,7
446,861	-19,46
447,066	58,37
447,272	64,51
447,477	11,26
447,682	-44,03
447,887	13,31
448,093	-1,02
448,298	109,57
448,503	27,65
448,708	-41,98
448,913	-21,5
449,118	68,61
449,324	5,12
449,529	3,07
449,734	9,22
449,939	19,46
450,144	103,42
450,349	-19,46
450,554	-84,99
450,759	19,46
450,964	35,84
451,169	27,65
451,374	-17,41
451,579	-128
451,784	17,41
451,989	-13,31
452,194	54,27
452,399	13,31
452,604	29,7
452,809	-25,6
453,014	35,84
453,219	64,51
453,424	87,04
453,629	-35,84
453,833	-19,46
454,038	11,26
454,243	11,26
454,448	70,65
454,653	62,46
454,858	-84,99
455,062	-35,84
455,267	-68,61
455,472	72,7
455,677	-3,07
455,882	-66,56
456,086	41,98
456,291	37,89
456,496	-87,04
456,7	105,47
456,905	-5,12
457,11	64,51
457,314	1,02
457,519	29,7
457,724	11,26
457,928	54,27
458,133	-5,12
458,338	-9,22
458,542	-13,31
458,747	66,56
458,951	19,46
459,156	119,81
459,36	-70,65
459,565	23,55
459,769	-78,85
459,974	39,94
460,178	-91,13
460,383	-87,04
460,587	-11,26
460,792	80,89
460,996	-37,89
461,201	21,5
461,405	-29,7
461,61	29,7
461,814	-37,89
462,018	-5,12
462,223	52,22
462,427	1,02
462,631	60,42
462,836	52,22
463,04	1,02
463,244	87,04
463,449	-3,07
463,653	121,85
463,857	11,26
464,062	93,18
464,266	-44,03
464,47	78,85
464,674	13,31
464,878	44,03
465,083	-33,79
465,287	41,98
465,491	-50,18
465,695	41,98
465,899	11,26
466,104	11,26
466,308	19,46
466,512	68,61
466,716	-13,31
466,92	-29,7
467,124	97,28
467,328	93,18
467,532	80,89
467,736	-13,31
467,94	62,46
468,144	37,89
468,348	46,08
468,552	76,8
468,756	19,46
468,96	72,7
469,164	5,12
469,368	-54,27
469,572	52,22
469,776	19,46
469,98	50,18
470,184	44,03
470,388	113,66
470,591	177,15
470,795	115,71
470,999	117,76
471,203	125,95
471,407	152,57
471,611	101,37
471,814	37,89
472,018	7,17
472,222	37,89
472,426	121,85
472,63	15,36
472,833	68,61
473,037	89,09
473,241	-9,22
473,444	89,09
473,648	431,1
473,852	-7,17
474,055	-19,46
474,259	21,5
474,463	87,04
474,666	-13,31
474,87	19,46
475,074	56,32
475,277	117,76
475,481	64,51
475,684	50,18
475,888	27,65
476,091	-19,46
476,295	-23,55
476,498	-5,12
476,702	44,03
476,905	101,37
477,109	117,76
477,312	109,57
477,516	-17,41
477,719	130,05
477,923	5,12
478,126	-37,89
478,329	-13,31
478,533	-25,6
478,736	70,65
478,94	78,85
479,143	60,42
479,346	-7,17
479,55	19,46
479,753	9,22
479,956	23,55
480,159	11,26
480,363	39,94
480,566	33,79
480,769	-25,6
480,972	-15,36
481,176	29,7
481,379	48,13
481,582	125,95
481,785	-37,89
481,988	5,12
482,192	111,61
482,395	27,65
482,598	-17,41
482,801	113,66
483,004	158,72
483,207	-13,31
483,41	52,22
483,613	101,37
483,817	93,18
484,02	-1,02
484,223	-3,07
484,426	68,61
484,629	-21,5
484,832	119,81
485,035	-21,5
485,238	76,8
485,441	11,26
485,644	128
485,846	68,61
486,049	-1,02
486,252	-52,22
486,455	-70,65
486,658	35,84
486,861	5,12
487,064	58,37
487,267	-29,7
487,47	125,95
487,672	56,32
487,875	-21,5
488,078	84,99
488,281	142,33
488,484	-9,22
488,686	35,84
488,889	-25,6
489,092	-5,12
489,295	37,89
489,497	56,32
489,7	5,12
489,903	7,17
490,105	-82,94
490,308	-48,13
490,511	48,13
490,713	48,13
490,916	-62,46
491,118	52,22
491,321	-25,6
491,524	-41,98
491,726	-29,7
491,929	-99,33
492,131	-46,08
492,334	-19,46
492,536	-25,6
492,739	-62,46
492,941	60,42
493,144	33,79
493,346	80,89
493,549	31,74
493,751	19,46
493,954	-27,65
494,156	44,03
494,359	27,65
494,561	-33,79
494,763	39,94
494,966	-19,46
495,168	113,66
495,37	-82,94
495,573	60,42
495,775	80,89
495,977	105,47
496,18	68,61
496,382	105,47
496,584	117,76
496,787	125,95
496,989	-17,41
497,191	7,17
497,393	52,22
497,595	-13,31
497,798	11,26
498	25,6
498,202	21,5
498,404	-46,08
498,606	37,89
498,808	68,61
499,011	1,02
499,213	54,27
499,415	46,08
499,617	58,37
499,819	5,12
500,021	78,85
500,223	97,28
500,425	-9,22
500,627	56,32
500,829	27,65
501,031	105,47
501,233	-46,08
501,435	37,89
501,637	46,08
501,839	117,76
502,041	13,31
502,243	48,13
502,445	-13,31
502,647	109,57
502,848	68,61
503,05	44,03
503,252	179,2
503,454	209,92
503,656	209,92
503,858	160,77
504,059	207,87
504,261	369,66
504,463	306,17
504,665	162,81
504,867	191,49
505,068	125,95
505,27	109,57
505,472	158,72
505,673	19,46
505,875	-37,89
506,077	-44,03
506,278	17,41
506,48	23,55
506,682	46,08
506,883	125,95
507,085	60,42
507,287	-11,26
507,488	150,53
507,69	166,91
507,891	37,89
508,093	269,31
508,294	46,08
508,496	136,19
508,697	101,37
508,899	95,23
509,1	183,29
509,302	168,96
509,503	48,13
509,705	160,77
509,906	37,89
510,108	58,37
510,309	95,23
510,51	7,17
510,712	89,09
510,913	60,42
511,114	97,28
511,316	54,27
511,517	250,88
511,718	158,72
511,92	207,87
512,121	244,73
512,322	242,68
512,524	216,06
512,725	191,49
512,926	277,5
513,127	76,8
513,329	211,96
513,53	-17,41
513,731	134,14
513,932	158,72
514,133	93,18
514,334	107,52
514,536	289,79
514,737	218,11
514,938	218,11
515,139	130,05
515,34	117,76
515,541	152,57
515,742	66,56
515,943	150,53
516,144	125,95
516,345	117,76
516,546	101,37
516,747	97,28
516,948	62,46
517,149	101,37
517,35	60,42
517,551	-5,12
517,752	-13,31
517,953	68,61
518,154	78,85
518,355	103,42
518,556	160,77
518,756	46,08
518,957	76,8
519,158	199,68
519,359	175,1
519,56	207,87
519,761	181,25
519,961	185,34
520,162	283,64
520,363	134,14
520,564	103,42
520,764	248,83
520,965	207,87
521,166	166,91
521,366	150,53
521,567	187,39
521,768	109,57
521,968	39,94
522,169	46,08
522,37	78,85
522,57	56,32
522,771	99,33
522,972	-70,65
523,172	193,53
523,373	109,57
523,573	44,03
523,774	60,42
523,974	150,53
524,175	11,26
524,375	37,89
524,576	-3,07
524,776	-1,02
524,977	50,18
525,177	25,6
525,378	7,17
525,578	89,09
525,778	119,81
525,979	93,18
526,179	27,65
526,38	31,74
526,58	-62,46
526,78	-101,37
526,981	60,42
527,181	15,36
527,381	23,55
527,582	35,84
527,782	211,96
527,982	78,85
528,182	-13,31
528,383	48,13
528,583	152,57
528,783	109,57
528,983	44,03
529,183	29,7
529,384	46,08
529,584	150,53
529,784	152,57
529,984	156,67
530,184	21,5
530,384	-19,46
530,584	48,13
530,784	97,28
530,984	3,07
531,185	273,4
531,385	89,09
531,585	166,91
531,785	164,86
531,985	109,57
532,185	46,08
532,385	150,53
532,585	211,96
532,785	277,5
532,984	338,94
533,184	465,91
533,384	521,21
533,584	429,05
533,784	678,9
533,984	642,04
534,184	568,31
534,384	541,69
534,583	666,61
534,783	547,83
534,983	570,36
535,183	437,24
535,383	244,73
535,582	242,68
535,782	283,64
535,982	252,92
536,182	175,1
536,381	140,29
536,581	44,03
536,781	146,43
536,98	80,89
537,18	39,94
537,38	84,99
537,579	101,37
537,779	23,55
537,979	125,95
538,178	44,03
538,378	93,18
538,577	-35,84
538,777	46,08
538,976	123,9
539,176	242,68
539,376	142,33
539,575	220,16
539,774	334,84
539,974	453,63
540,173	535,54
540,373	588,79
540,572	543,74
540,772	625,65
540,971	474,1
541,171	478,2
541,37	406,52
541,569	293,88
541,769	234,49
541,968	207,87
542,167	66,56
542,367	117,76
542,566	103,42
542,765	7,17
542,965	72,7
543,164	29,7
543,363	105,47
543,562	-5,12
543,761	-54,27
543,961	76,8
544,16	-62,46
544,359	183,29
544,558	93,18
544,757	76,8
544,957	23,55
545,156	11,26
545,355	111,61
545,554	46,08
545,753	-54,27
545,952	13,31
546,151	44,03
546,35	-1,02
546,549	19,46
546,748	76,8
546,947	9,22
547,146	-82,94
547,345	76,8
547,544	-5,12
547,743	1,02
547,942	76,8
548,141	35,84
548,34	93,18
548,539	-5,12
548,738	-41,98
548,937	101,37
549,135	93,18
549,334	21,5
549,533	113,66
549,732	15,36
549,931	117,76
550,13	-9,22
550,328	-9,22
550,527	19,46
550,726	39,94
550,925	-50,18
551,123	-29,7
551,322	15,36
551,521	87,04
551,72	44,03
551,918	52,22
552,117	13,31
552,315	1,02
552,514	23,55
552,713	-27,65
552,911	-5,12
553,11	-70,65
553,309	-9,22
553,507	11,26
553,706	3,07
553,904	-7,17
554,103	95,23
554,301	80,89
554,5	27,65
554,698	56,32
554,897	25,6
555,095	5,12
555,294	-23,55
555,492	93,18
555,69	103,42
555,889	-48,13
556,087	29,7
556,286	148,48
556,484	78,85
556,682	125,95
556,881	130,05
557,079	101,37
557,277	140,29
557,476	138,24
557,674	66,56
557,872	111,61
558,07	-13,31
558,269	-46,08
558,467	68,61
558,665	142,33
558,863	27,65
559,062	64,51
559,26	72,7
559,458	-150,53
559,656	-27,65
559,854	46,08
560,052	7,17
560,25	109,57
560,449	289,79
560,647	105,47
560,845	5,12
561,043	29,7
561,241	72,7
561,439	21,5
561,637	87,04
561,835	-37,89
562,033	121,85
562,231	35,84
562,429	-1,02
562,627	35,84
562,825	-5,12
563,023	89,09
563,221	19,46
563,418	70,65
563,616	27,65
563,814	209,92
564,012	148,48
564,21	68,61
564,408	130,05
564,605	11,26
564,803	-54,27
565,001	338,94
565,199	29,7
565,397	93,18
565,594	293,88
565,792	240,64
565,99	160,77
566,188	232,44
566,385	130,05
566,583	140,29
566,781	265,21
566,978	193,53
567,176	240,64
567,373	101,37
567,571	125,95
567,769	80,89
567,966	5,12
568,164	109,57
568,361	27,65
568,559	101,37
568,756	60,42
568,954	173,05
569,151	154,62
569,349	224,25
569,546	101,37
569,744	125,95
569,941	148,48
570,139	134,14
570,336	46,08
570,534	144,38
570,731	68,61
570,928	89,09
571,126	175,1
571,323	119,81
571,52	39,94
571,718	87,04
571,915	134,14
572,112	-11,26
572,31	134,14
572,507	189,44
572,704	103,42
572,901	64,51
573,099	70,65
573,296	146,43
573,493	-13,31
573,69	44,03
573,887	76,8
574,085	162,81
574,282	134,14
574,479	175,1
574,676	175,1
574,873	193,53
575,07	330,75
575,267	283,64
575,464	412,67
575,661	480,25
575,858	519,16
576,055	607,22
576,252	742,39
576,449	863,22
576,646	945,14
576,843	973,81
577,04	1014,77
577,237	957,43
577,434	947,19
577,631	793,59
577,828	685,05
578,025	463,86
578,222	390,14
578,419	396,28
578,615	218,11
578,812	179,2
579,009	109,57
579,206	136,19
579,403	91,13
579,599	207,87
579,796	125,95
579,993	246,78
580,19	101,37
580,386	171,01
580,583	293,88
580,78	259,07
580,976	435,19
581,173	433,15
581,37	463,86
581,566	496,63
581,763	519,16
581,96	498,68
582,156	568,31
582,353	666,61
582,549	834,55
582,746	683
582,942	594,93
583,139	615,41
583,335	609,27
583,532	992,24
583,728	1700,84
583,925	2767,83
584,121	4273,09
584,318	6271,9
584,514	8719,23
584,711	11979,59
584,907	15239,96
585,103	19686,1
585,3	23173,79
585,496	26430,06
585,693	28695,11
585,889	29362,75
586,085	28719,69
586,281	25901,68
586,478	22602,41
586,674	19127
586,87	16700,16
587,067	14066,47
587,263	11314
587,459	8326,02
587,655	6515,61
587,851	5395,37
588,048	5180,34
588,244	5288,88
588,44	5718,95
588,636	5712,81
588,832	5688,23
589,028	5628,84
589,224	4967,35
589,42	4373,44
589,617	3754,95
589,813	3308,49
590,009	2853,84
590,205	2372,57
590,401	1862,63
590,597	1455,08
590,793	1326,06
590,989	1018,86
591,185	1014,77
591,38	961,52
591,576	834,55
591,772	537,59
591,968	603,13
592,164	691,19
592,36	496,63
592,556	504,82
592,752	568,31
592,948	625,65
593,143	936,95
593,339	1381,35
593,535	2092
593,731	2780,12
593,926	3795,91
594,122	4852,66
594,318	5968,8
594,514	7605,13
594,709	8694,65
594,905	9237,36
595,101	9657,2
595,296	9163,64
595,492	8379,26
595,688	7422,86
595,883	6499,23
596,079	5827,5
596,275	4926,39
596,47	4279,23
596,666	3242,96
596,861	2610,14
597,057	2268,13
597,252	2196,45
597,448	2274,27
597,643	2560,98
597,839	2552,79
598,034	2735,06
598,23	2696,15
598,425	2440,15
598,621	2307,04
598,816	2055,14
599,011	1612,78
599,207	1625,06
599,402	1252,33
599,597	1143,79
599,793	840,69
599,988	562,17
600,183	494,58
600,379	379,9
600,574	365,56
600,769	300,03
600,965	224,25
601,16	203,77
601,355	125,95
601,55	306,17
601,745	420,86
601,941	588,79
602,136	758,77
602,331	1004,53
602,526	1244,14
602,721	1559,53
602,916	1846,24
603,111	2290,65
603,307	2485,21
603,502	2647
603,697	2608,09
603,892	2460,63
604,087	2208,73
604,282	2067,42
604,477	1764,33
604,672	1403,88
604,867	1281
605,062	1035,25
605,257	766,96
605,452	674,81
605,646	510,97
605,841	545,78
606,036	707,57
606,231	1141,74
606,426	1700,84
606,621	2477,02
606,816	3331,02
607,01	4348,86
607,205	5485,48
607,4	6445,98
607,595	7924,62
607,79	8479,61
607,984	9079,67
608,179	9263,99
608,374	9534,32
608,569	9620,33
608,763	9163,64
608,958	9778,03
609,153	10400,61
609,347	11328,34
609,542	11766,6
609,736	12301,12
609,931	12716,86
610,126	12983,1
610,32	12929,85
610,515	11850,57
610,709	11182,93
610,904	9499,5
611,098	8338,3
611,293	6949,78
611,487	5886,89
611,682	4475,84
611,876	3439,56
612,071	2356,19
612,265	1502,19
612,46	1151,98
612,654	1387,5
612,848	1838,05
613,043	2550,75
613,237	3713,99
613,432	5372,85
613,626	7189,39
613,82	9431,92
614,014	11656,01
614,209	14469,92
614,403	16837,38
614,597	19393,24
614,792	20380,36
614,986	20957,89
615,18	20398,79
615,374	18608,87
615,568	16810,75
615,763	15403,8
615,957	13990,7
616,151	12757,82
616,345	11856,72
616,539	10138,47
616,733	9124,72
616,927	7744,39
617,121	6849,43
617,316	6134,69
617,51	5278,64
617,704	4492,22
617,898	4142,02
618,092	3453,9
618,286	2952,15
618,48	2464,73
618,674	1854,44
618,868	1307,63
619,061	818,16
619,255	764,92
619,449	621,56
619,643	392,19
619,837	437,24
620,031	443,39
620,225	592,89
620,419	617,46
620,612	873,46
620,806	1225,71
621	1487,85
621,194	1997,79
621,388	2427,87
621,581	2984,91
621,775	3615,69
621,969	3869,64
622,162	4244,42
622,356	4373,44
622,55	4166,59
622,743	3890,12
622,937	3472,33
623,131	2903
623,324	2657,24
623,518	2124,77
623,712	1893,35
623,905	1369,07
624,099	1068,02
624,292	707,57
624,486	453,63
624,679	400,38
624,873	363,51
625,066	474,1
625,26	848,88
625,453	1192,94
625,647	1846,24
625,84	2782,17
626,034	3664,84
626,227	4744,12
626,42	5772,2
626,614	7195,54
626,807	8156,04
627	9120,63
627,194	9079,67
627,387	9311,09
627,58	8708,99
627,774	8047,49
627,967	7195,54
628,16	6101,92
628,353	5395,37
628,547	4635,58
628,74	3779,53
628,933	2804,69
629,126	2059,23
629,319	1743,85
629,513	1815,52
629,706	1772,52
629,899	2264,03
630,092	2583,51
630,285	3120,08
630,478	3625,93
630,671	4092,87
630,864	4656,06
631,057	4813,75
631,25	4574,14
631,443	4289,47
631,636	4160,45
631,829	3845,06
632,022	4033,47
632,215	4197,31
632,408	4905,91
632,601	5684,14
632,794	6599,58
632,987	7762,83
633,18	9653,1
633,373	11348,82
633,566	12921,66
633,758	14002,99
633,951	14727,97
634,144	14738,21
634,337	14232,36
634,53	12981,05
634,722	11549,52
634,915	9745,26
635,108	8797,05
635,301	7752,59
635,493	6200,23
635,686	4873,14
635,879	3259,34
636,071	1981,41
636,264	1426,41
636,457	1092,59
636,649	771,06
636,842	1113,07
637,034	1641,45
637,227	2356,19
637,42	3161,04
637,612	4262,85
637,805	5815,21
637,997	7623,56
638,19	8674,17
638,382	10369,89
638,575	12348,23
638,767	14803,74
638,96	16997,12
639,152	19835,6
639,344	23349,92
639,537	27013,73
639,729	30939,69
639,922	36577,75
640,114	42140,03
640,306	47448,36
640,499	51103,99
640,691	52545,76
640,883	52582,62
641,075	49494,28
641,268	45629,77
641,46	39672,23
641,652	34066,94
641,844	29903,42
642,037	26245,74
642,229	22067,89
642,421	17232,63
642,613	12120,9
642,805	7601,04
642,998	4764,6
643,19	3177,42
643,382	2008,03
643,574	1354,73
643,766	941,04
643,958	756,72
644,15	658,42
644,342	568,31
644,534	474,1
644,726	373,75
644,918	314,36
645,11	285,69
645,302	289,79
645,494	347,13
645,686	228,35
645,878	152,57
646,07	181,25
646,262	220,16
646,453	154,62
646,645	199,68
646,837	140,29
647,029	142,33
647,221	177,15
647,413	109,57
647,604	136,19
647,796	160,77
647,988	201,72
648,18	109,57
648,371	121,85
648,563	240,64
648,755	248,83
648,947	199,68
649,138	599,03
649,33	1510,38
649,521	2526,17
649,713	3859,4
649,905	5608,36
650,096	7740,3
650,288	9833,32
650,479	12381
650,671	14701,34
650,863	16812,8
651,054	17883,89
651,246	18643,68
651,437	17793,78
651,629	17220,35
651,82	15700,75
652,011	13908,78
652,203	12454,72
652,394	11440,98
652,586	10586,97
652,777	9333,62
652,968	7990,15
653,16	6902,68
653,351	6269,86
653,542	5927,85
653,734	5209,01
653,925	5086,13
654,116	4934,58
654,308	4461,5
654,499	3929,03
654,69	3271,63
654,881	2794,45
655,073	2657,24
655,264	2221,02
655,455	1782,76
655,646	1362,92
655,837	1049,58
656,028	644,09
656,219	465,91
656,411	273,4
656,602	232,44
656,793	248,83
656,984	160,77
657,175	154,62
657,366	156,67
657,557	265,21
657,748	117,76
657,939	84,99
658,13	142,33
658,321	232,44
658,512	463,86
658,703	846,84
658,894	1272,81
659,084	1782,76
659,275	2468,83
659,466	3093,46
659,657	4049,86
659,848	4895,67
660,039	5499,82
660,23	6085,54
660,42	6388,64
660,611	6372,25
660,802	6048,68
660,993	5510,06
661,183	4836,28
661,374	4283,33
661,565	3924,93
661,755	3347,4
661,946	2913,24
662,137	2194,4
662,327	1696,74
662,518	1162,22
662,709	797,68
662,899	519,16
663,09	400,38
663,28	297,98
663,471	142,33
663,662	363,51
663,852	209,92
664,043	150,53
664,233	166,91
664,424	109,57
664,614	119,81
664,804	76,8
664,995	193,53
665,185	277,5
665,376	125,95
665,566	166,91
665,756	134,14
665,947	62,46
666,137	183,29
666,328	568,31
666,518	945,14
666,708	1569,77
666,898	2354,14
667,089	3511,24
667,279	4654,01
667,469	6288,29
667,659	7721,87
667,85	9032,57
668,04	10154,85
668,23	10791,77
668,42	11232,08
668,61	10920,79
668,8	10161
668,991	9425,78
669,181	8256,39
669,371	7175,06
669,561	6282,14
669,751	5747,62
669,941	4701,11
670,131	3898,31
670,321	3185,62
670,511	2517,98
670,701	2399,2
670,891	2513,88
671,081	2898,9
671,271	3591,11
671,461	4254,66
671,651	5176,24
671,841	5790,63
672,03	6536,09
672,22	6804,38
672,41	6738,84
672,6	6370,21
672,79	5854,12
672,98	5282,74
673,169	4516,8
673,359	4103,11
673,549	3451,85
673,739	3132,37
673,928	2522,07
674,118	2071,52
674,308	1467,37
674,497	928,75
674,687	633,85
674,877	347,13
675,066	228,35
675,256	183,29
675,446	183,29
675,635	101,37
675,825	64,51
676,014	119,81
676,204	105,47
676,393	84,99
676,583	44,03
676,772	-3,07
676,962	44,03
677,151	60,42
677,341	-21,5
677,53	62,46
677,72	64,51
677,909	80,89
678,099	-19,46
678,288	19,46
678,477	44,03
678,667	60,42
678,856	60,42
679,045	117,76
679,235	60,42
679,424	113,66
679,613	60,42
679,802	72,7
679,992	35,84
680,181	-27,65
680,37	117,76
680,559	33,79
680,748	35,84
680,938	70,65
681,127	21,5
681,316	105,47
681,505	29,7
681,694	44,03
681,883	17,41
682,072	-13,31
682,261	52,22
682,45	-48,13
682,639	-27,65
682,828	74,75
683,017	76,8
683,206	84,99
683,395	35,84
683,584	35,84
683,773	101,37
683,962	-5,12
684,151	-93,18
684,34	121,85
684,529	-17,41
684,718	62,46
684,907	78,85
685,095	60,42
685,284	134,14
685,473	37,89
685,662	-19,46
685,851	68,61
686,039	11,26
686,228	23,55
686,417	7,17
686,606	44,03
686,794	84,99
686,983	-5,12
687,172	-21,5
687,36	68,61
687,549	-35,84
687,738	-9,22
687,926	19,46
688,115	23,55
688,303	-11,26
688,492	46,08
688,68	3,07
688,869	-39,94
689,057	19,46
689,246	-46,08
689,434	33,79
689,623	60,42
689,811	134,14
690	76,8
690,188	31,74
690,377	105,47
690,565	52,22
690,753	76,8
690,942	19,46
691,13	134,14
691,318	128
691,507	297,98
691,695	732,15
691,883	1436,65
692,072	2386,91
692,26	3222,48
692,448	4357,05
692,636	5567,4
692,824	6773,66
693,013	7838,6
693,201	8921,98
693,389	9112,44
693,577	9268,08
693,765	9376,62
693,953	8713,08
694,141	7832,46
694,329	6691,74
694,518	5944,23
694,706	5565,36
694,894	4697,02
695,082	4068,29
695,27	3625,93
695,458	2714,58
695,646	1987,55
695,834	1305,58
696,022	867,31
696,209	592,89
696,397	414,71
696,585	224,25
696,773	177,15
696,961	224,25
697,149	64,51
697,337	150,53
697,525	117,76
697,712	76,8
697,9	84,99
698,088	46,08
698,276	134,14
698,463	111,61
698,651	111,61
698,839	19,46
699,027	60,42
699,214	66,56
699,402	58,37
699,59	93,18
699,777	35,84
699,965	54,27
700,152	-19,46
700,34	52,22
700,528	-66,56
700,715	35,84
700,903	78,85
701,09	76,8
701,278	134,14
701,465	216,06
701,653	240,64
701,84	576,5
702,028	1590,25
702,215	2382,81
702,402	3527,63
702,59	4905,91
702,777	6503,32
702,965	7834,5
703,152	9403,25
703,339	10857,31
703,527	12006,22
703,714	11785,04
703,901	11887,43
704,088	11617,1
704,276	10931,03
704,463	9763,69
704,65	8635,26
704,837	7809,93
705,025	6837,14
705,212	5987,24
705,399	5516,2
705,586	4686,78
705,773	3834,82
705,96	2755,54
706,147	2008,03
706,335	1354,73
706,522	969,71
706,709	723,96
706,896	578,55
707,083	455,67
707,27	396,28
707,457	322,56
707,644	224,25
707,831	273,4
708,018	177,15
708,205	195,58
708,392	158,72
708,578	203,77
708,765	117,76
708,952	89,09
709,139	31,74
709,326	27,65
709,513	150,53
709,7	93,18
709,886	125,95
710,073	130,05
710,26	74,75
710,447	72,7
710,633	62,46
710,82	15,36
711,007	-25,6
711,193	103,42
711,38	19,46
711,567	140,29
711,753	9,22
711,94	52,22
712,127	125,95
712,313	125,95
712,5	76,8
712,686	93,18
712,873	35,84
713,059	13,31
713,246	35,84
713,432	93,18
713,619	-21,5
713,805	95,23
713,992	164,86
714,178	3,07
714,365	37,89
714,551	48,13
714,737	9,22
714,924	-50,18
715,11	29,7
715,297	44,03
715,483	-11,26
715,669	-33,79
715,855	87,04
716,042	193,53
716,228	117,76
716,414	388,09
716,6	482,3
716,787	840,69
716,973	943,09
717,159	1352,68
717,345	1559,53
717,531	1756,13
717,718	1932,26
717,904	1858,53
718,09	1819,62
718,276	1850,34
718,462	1700,84
718,648	1469,42
718,834	1305,58
719,02	1248,24
719,206	1162,22
719,392	887,79
719,578	814,07
719,764	617,46
719,95	488,44
720,136	496,63
720,322	371,71
720,508	232,44
720,694	263,16
720,879	111,61
721,065	187,39
721,251	91,13
721,437	11,26
721,623	199,68
721,809	117,76
721,994	31,74
722,18	37,89
722,366	-41,98
722,552	70,65
722,737	21,5
722,923	101,37
723,109	259,07
723,294	338,94
723,48	818,16
723,666	1281
723,851	1805,28
724,037	2558,94
724,222	3187,66
724,408	3847,11
724,593	4334,53
724,779	5010,36
724,965	5092,27
725,15	5143,47
725,336	4893,62
725,521	4662,2
725,706	4029,38
725,892	3691,46
726,077	3167,18
726,263	2825,17
726,448	2599,9
726,634	2280,41
726,819	1973,22
727,004	1805,28
727,19	1278,96
727,375	1094,64
727,56	705,53
727,745	433,15
727,931	375,8
728,116	224,25
728,301	183,29
728,486	203,77
728,672	76,8
728,857	105,47
729,042	-9,22
729,227	-13,31
729,412	27,65
729,597	-17,41
729,783	48,13
729,968	97,28
730,153	27,65
730,338	13,31
730,523	93,18
730,708	-3,07
730,893	15,36
731,078	-21,5
731,263	15,36
731,448	-95,23
731,633	19,46
731,818	13,31
732,003	-60,42
732,187	-29,7
732,372	-48,13
732,557	80,89
732,742	1,02
732,927	-15,36
733,112	-7,17
733,297	29,7
733,481	52,22
733,666	31,74
733,851	60,42
734,036	27,65
734,22	-29,7
734,405	117,76
734,59	-37,89
734,774	62,46
734,959	23,55
735,144	80,89
735,328	15,36
735,513	23,55
735,698	68,61
735,882	37,89
736,067	54,27
736,251	117,76
736,436	15,36
736,62	3,07
736,805	3,07
736,989	128
737,174	-54,27
737,358	-54,27
737,543	93,18
737,727	44,03
737,911	144,38
738,096	-33,79
738,28	95,23
738,465	19,46
738,649	134,14
738,833	-27,65
739,018	27,65
739,202	-3,07
739,386	56,32
739,57	-7,17
739,755	70,65
739,939	37,89
740,123	-62,46
740,307	44,03
740,491	64,51
740,676	-11,26
740,86	60,42
741,044	5,12
741,228	56,32
741,412	-76,8
741,596	-132,09
741,78	-5,12
741,964	29,7
742,148	-23,55
742,332	70,65
742,516	-35,84
742,7	84,99
742,884	87,04
743,068	357,37
743,252	510,97
743,436	660,47
743,62	746,48
743,804	1143,79
743,988	1174,51
744,172	1227,76
744,356	1156,08
744,539	1180,65
744,723	1199,09
744,907	1100,78
745,091	904,18
745,275	957,43
745,458	795,64
745,642	734,2
745,826	551,93
746,009	685,05
746,193	486,39
746,377	525,3
746,56	363,51
746,744	427
746,928	248,83
747,111	183,29
747,295	138,24
747,478	146,43
747,662	125,95
747,846	146,43
748,029	160,77
748,213	232,44
748,396	199,68
748,58	326,65
748,763	359,42
748,946	388,09
749,13	338,94
749,313	455,67
749,497	560,12
749,68	465,91
749,863	416,76
750,047	338,94
750,23	244,73
750,413	240,64
750,597	324,6
750,78	179,2
750,963	259,07
751,146	191,49
751,33	242,68
751,513	177,15
751,696	183,29
751,879	154,62
752,062	64,51
752,246	76,8
752,429	101,37
752,612	84,99
752,795	183,29
752,978	201,72
753,161	205,82
753,344	224,25
753,527	373,75
753,71	404,47
753,893	496,63
754,076	420,86
754,259	527,35
754,442	437,24
754,625	396,28
754,808	535,54
754,991	416,76
755,174	359,42
755,357	302,08
755,539	216,06
755,722	332,79
755,905	113,66
756,088	207,87
756,271	125,95
756,453	171,01
756,636	13,31
756,819	150,53
757,002	-1,02
757,184	166,91
757,367	93,18
757,55	62,46
757,732	121,85
757,915	11,26
758,098	19,46
758,28	84,99
758,463	-68,61
758,645	-46,08
758,828	64,51
759,011	87,04
759,193	17,41
759,376	-21,5
759,558	-58,37
759,741	1,02
759,923	-25,6
760,105	-5,12
760,288	62,46
760,47	-46,08
760,653	-107,52
760,835	-52,22
761,017	-1,02
761,2	-13,31
761,382	150,53
761,564	-25,6
761,747	54,27
761,929	-9,22
762,111	50,18
762,294	99,33
762,476	138,24
762,658	29,7
762,84	152,57
763,022	-41,98
763,205	150,53
763,387	117,76
763,569	62,46
763,751	-119,81
763,933	-5,12
764,115	3,07
764,297	-23,55
764,479	76,8
764,661	9,22
764,843	78,85
765,025	31,74
765,207	39,94
765,389	17,41
765,571	-52,22
765,753	103,42
765,935	48,13
766,117	-5,12
766,299	152,57
766,481	160,77
766,663	1,02
766,845	21,5
767,026	54,27
767,208	60,42
767,39	15,36
767,572	-68,61
767,753	84,99
767,935	13,31
768,117	60,42
768,299	125,95
768,48	25,6
768,662	29,7
768,844	27,65
769,025	52,22
769,207	-9,22
769,389	-19,46
769,57	13,31
769,752	23,55
769,933	-62,46
770,115	109,57
770,296	27,65
770,478	128
770,659	-52,22
770,841	191,49
771,022	-27,65
771,204	17,41
771,385	95,23
771,567	19,46
771,748	103,42
771,929	-9,22
772,111	54,27
772,292	97,28
772,473	-25,6
772,655	103,42
772,836	11,26
773,017	60,42
773,199	84,99
773,38	68,61
773,561	29,7
773,742	35,84
773,923	-13,31
774,105	130,05
774,286	101,37
774,467	-29,7
774,648	-27,65
774,829	78,85
775,01	3,07
775,191	-50,18
775,372	9,22
775,553	23,55
775,734	-27,65
775,915	-70,65
776,096	35,84
776,277	11,26
776,458	-37,89
776,639	68,61
776,82	111,61
777,001	27,65
777,182	-60,42
777,363	15,36
777,544	11,26
777,725	150,53
777,906	35,84
778,086	103,42
778,267	19,46
778,448	-13,31
778,629	-29,7
778,809	150,53
778,99	-35,84
779,171	-9,22
779,352	48,13
779,532	11,26
779,713	-117,76
779,894	-1,02
780,074	68,61
780,255	60,42
780,435	13,31
780,616	5,12
780,797	123,9
780,977	54,27
781,158	-29,7
781,338	-7,17
781,519	-58,37
781,699	197,63
781,88	21,5
782,06	62,46
782,241	-25,6
782,421	-148,48
782,601	48,13
782,782	103,42
782,962	52,22
783,142	-72,7
783,323	-21,5
783,503	111,61
783,683	33,79
783,864	-44,03
784,044	62,46
784,224	46,08
784,404	35,84
784,585	37,89
784,765	46,08
784,945	111,61
785,125	-35,84
785,305	117,76
785,485	171,01
785,666	84,99
785,846	-21,5
786,026	62,46
786,206	5,12
786,386	50,18
786,566	44,03
786,746	-35,84
786,926	21,5
787,106	3,07
787,286	19,46
787,466	46,08
787,646	44,03
787,826	27,65
788,006	78,85
788,185	101,37
788,365	-19,46
788,545	134,14
788,725	-64,51
788,905	103,42
789,085	60,42
789,264	-29,7
789,444	44,03
789,624	-5,12
789,804	-21,5
789,983	-13,31
790,163	-13,31
790,343	3,07
790,522	-7,17
790,702	19,46
790,882	-11,26
791,061	74,75
791,241	95,23
791,42	-5,12
791,6	62,46
791,78	23,55
791,959	-9,22
792,139	-25,6
792,318	19,46
792,498	41,98
792,677	80,89
792,856	-19,46
793,036	-3,07
793,215	29,7
793,395	76,8
793,574	3,07
793,753	54,27
793,933	117,76
794,112	183,29
794,291	84,99
794,471	121,85
794,65	27,65
794,829	35,84
795,008	93,18
795,188	78,85
795,367	138,24
795,546	72,7
795,725	130,05
795,904	93,18
796,084	68,61
796,263	48,13
796,442	125,95
796,621	74,75
796,8	103,42
796,979	41,98
797,158	39,94
797,337	29,7
797,516	78,85
797,695	109,57
797,874	-13,31
798,053	87,04
798,232	-3,07
798,411	-50,18
798,59	-21,5
798,769	-19,46
798,947	21,5
799,126	3,07
799,305	50,18
799,484	89,09
799,663	5,12
799,842	11,26
800,02	93,18
800,199	-19,46
800,378	89,09
800,557	-62,46
800,735	-46,08
800,914	11,26
801,093	11,26
801,271	-9,22
801,45	46,08
801,628	64,51
801,807	78,85
801,986	35,84
802,164	3,07
802,343	56,32
802,521	-9,22
802,7	35,84
802,878	44,03
803,057	19,46
803,235	46,08
803,414	44,03
803,592	3,07
803,771	13,31
803,949	39,94
804,127	-9,22
804,306	187,39
804,484	37,89
804,662	44,03
804,841	-54,27
805,019	64,51
805,197	56,32
805,375	29,7
805,554	-3,07
805,732	-27,65
805,91	-70,65
806,088	3,07
806,266	-95,23
806,445	-60,42
806,623	52,22
806,801	-3,07
806,979	-27,65
807,157	-11,26
807,335	-46,08
807,513	-29,7
807,691	39,94
807,869	29,7
808,047	56,32
808,225	-37,89
808,403	52,22
808,581	21,5
808,759	144,38
808,937	-3,07
809,115	52,22
809,293	117,76
809,471	7,17
809,649	-23,55
809,826	52,22
810,004	35,84
810,182	-23,55
810,36	48,13
810,538	68,61
810,715	84,99
810,893	-11,26
811,071	68,61
811,248	78,85
811,426	11,26
811,604	117,76
811,781	74,75
811,959	37,89
812,137	-33,79
812,314	5,12
812,492	56,32
812,669	72,7
812,847	29,7
813,024	-35,84
813,202	84,99
813,379	-5,12
813,557	101,37
813,734	240,64
813,912	150,53
814,089	101,37
814,267	136,19
814,444	111,61
814,621	117,76
814,799	62,46
814,976	232,44
815,153	87,04
815,331	27,65
815,508	68,61
815,685	-23,55
815,862	23,55
816,04	39,94
816,217	80,89
816,394	-5,12
816,571	97,28
816,748	128
816,926	93,18
817,103	283,64
817,28	46,08
817,457	-29,7
817,634	93,18
817,811	27,65
817,988	27,65
818,165	27,65
818,342	39,94
818,519	109,57
818,696	-109,57
818,873	11,26
819,05	84,99
819,227	-21,5
819,404	58,37
819,581	37,89
819,758	-17,41
819,934	35,84
820,111	19,46
820,288	66,56
820,465	84,99
820,642	62,46
820,818	19,46
820,995	-29,7
821,172	111,61
821,349	84,99
821,525	11,26
821,702	-48,13
821,879	11,26
822,055	44,03
822,232	-27,65
822,409	11,26
822,585	39,94
822,762	-33,79
822,938	19,46
823,115	70,65
823,291	74,75
823,468	185,34
823,644	-5,12
823,821	21,5
823,997	-19,46
824,174	76,8
824,35	93,18
824,527	19,46
824,703	101,37
824,879	-21,5
825,056	60,42
825,232	70,65
825,408	-21,5
825,585	-33,79
825,761	-33,79
825,937	50,18
826,113	68,61
826,29	37,89
826,466	15,36
826,642	447,48
826,818	46,08
826,994	52,22
827,17	9,22
827,347	31,74
827,523	-13,31
827,699	52,22
827,875	19,46
828,051	41,98
828,227	107,52
828,403	46,08
828,579	160,77
828,755	125,95
828,931	19,46
829,107	103,42
829,283	109,57
829,459	62,46
829,635	113,66
829,811	80,89
829,986	150,53
830,162	125,95
830,338	158,72
830,514	35,84
830,69	68,61
830,865	27,65
831,041	52,22
831,217	44,03
831,393	3,07
831,568	-11,26
831,744	64,51
831,92	-39,94
832,095	87,04
832,271	68,61
832,447	52,22
832,622	130,05
832,798	68,61
832,973	62,46
833,149	15,36
833,325	132,09
833,5	95,23
833,676	48,13
833,851	58,37
834,027	44,03
834,202	-5,12
834,377	80,89
834,553	39,94
834,728	60,42
834,904	3,07
835,079	19,46
835,254	13,31
835,43	37,89
835,605	-52,22
835,78	-5,12
835,955	46,08
836,131	62,46
836,306	-78,85
836,481	11,26
836,656	101,37
836,832	211,96
837,007	187,39
837,182	232,44
837,357	359,42
837,532	443,39
837,707	480,25
837,882	529,4
838,057	439,29
838,232	416,76
838,407	375,8
838,582	189,44
838,757	297,98
838,932	314,36
839,107	232,44
839,282	177,15
839,457	218,11
839,632	332,79
839,807	220,16
839,982	150,53
840,157	154,62
840,332	273,4
840,506	109,57
840,681	136,19
840,856	242,68
841,031	107,52
841,205	195,58
841,38	236,54
841,555	199,68
841,73	193,53
841,904	177,15
842,079	166,91
842,254	175,1
842,428	25,6
842,603	37,89
842,777	-5,12
842,952	84,99
843,126	60,42
843,301	60,42
843,476	56,32
843,65	9,22
843,825	89,09
843,999	109,57
844,173	44,03
844,348	33,79
844,522	66,56
844,697	68,61
844,871	-46,08
845,045	117,76
845,22	150,53
845,394	101,37
845,568	7,17
845,743	95,23
845,917	52,22
846,091	-3,07
846,265	93,18
846,44	95,23
846,614	62,46
846,788	-89,09
846,962	31,74
847,136	-11,26
847,31	3,07
847,485	142,33
847,659	-27,65
847,833	121,85
848,007	39,94
848,181	39,94
848,355	44,03
848,529	93,18
848,703	109,57
848,877	62,46
849,051	191,49
849,225	144,38
849,399	205,82
849,573	84,99
849,746	224,25
849,92	193,53
850,094	216,06
850,268	179,2
850,442	158,72
850,616	134,14
850,789	130,05
850,963	78,85
851,137	111,61
851,311	134,14
851,484	187,39
851,658	142,33
851,832	54,27
852,005	89,09
852,179	111,61
852,352	78,85
852,526	-25,6
852,7	134,14
852,873	44,03
853,047	97,28
853,22	76,8
853,394	109,57
853,567	117,76
853,741	62,46
853,914	-41,98
854,088	3,07
854,261	11,26
854,434	-11,26
854,608	-17,41
854,781	-68,61
854,955	25,6
855,128	39,94
855,301	-44,03
855,475	-7,17
855,648	-33,79
855,821	84,99
855,994	84,99
856,168	80,89
856,341	13,31
856,514	-117,76
856,687	21,5
856,86	44,03
857,033	21,5
857,207	27,65
857,38	-1,02
857,553	156,67
857,726	-17,41
857,899	84,99
858,072	-11,26
858,245	3,07
858,418	60,42
858,591	72,7
858,764	27,65
858,937	117,76
859,11	150,53
859,283	130,05
859,455	-19,46
859,628	93,18
859,801	95,23
859,974	297,98
860,147	58,37
860,32	93,18
860,492	97,28
860,665	-60,42
860,838	89,09
861,011	46,08
861,183	72,7
861,356	103,42
861,529	134,14
861,701	93,18
861,874	64,51
862,047	171,01
862,219	95,23
862,392	93,18
862,564	84,99
862,737	-35,84
862,909	109,57
863,082	3,07
863,254	154,62
863,427	101,37
863,599	142,33
863,772	70,65
863,944	103,42
864,117	103,42
864,289	84,99
864,461	3,07
864,634	125,95
864,806	37,89
864,978	164,86
865,151	95,23
865,323	263,16
865,495	318,46
865,667	187,39
865,84	265,21
866,012	58,37
866,184	158,72
866,356	95,23
866,528	216,06
866,7	103,42
866,873	158,72
867,045	97,28
867,217	109,57
867,389	207,87
867,561	76,8
867,733	193,53
867,905	125,95
868,077	185,34
868,249	140,29
868,421	89,09
868,593	84,99
868,765	199,68
868,936	87,04
869,108	93,18
869,28	250,88
869,452	66,56
869,624	31,74
869,796	195,58
869,968	72,7
870,139	113,66
870,311	134,14
870,483	128
870,654	3,07
870,826	146,43
870,998	19,46
871,17	105,47
871,341	-1,02
871,513	84,99
871,684	19,46
871,856	46,08
872,028	-13,31
872,199	5,12
872,371	-54,27
872,542	48,13
872,714	39,94
872,885	134,14
873,057	-25,6
873,228	11,26
873,4	103,42
873,571	103,42
873,742	-19,46
873,914	93,18
874,085	-46,08
874,256	21,5
874,428	-64,51
874,599	-37,89
874,77	60,42
874,942	19,46
875,113	11,26
875,284	-105,47
875,455	56,32
875,626	7,17
875,798	27,65
875,969	13,31
876,14	29,7
876,311	113,66
876,482	62,46
876,653	46,08
876,824	-3,07
876,995	-13,31
877,166	103,42
877,337	84,99
877,508	52,22
877,679	111,61
877,85	52,22
878,021	193,53
878,192	134,14
878,363	76,8
878,534	56,32
878,705	101,37
878,876	117,76
879,047	211,96
879,217	89,09
879,388	166,91
879,559	152,57
879,73	183,29
879,9	103,42
880,071	82,94
880,242	93,18
880,413	132,09
880,583	164,86
880,754	216,06
880,924	89,09
881,095	62,46
881,266	44,03
881,436	146,43
881,607	183,29
881,777	142,33
881,948	60,42
882,118	60,42
882,289	35,84
882,459	105,47
882,63	-68,61
882,8	29,7
882,971	105,47
883,141	109,57
883,311	35,84
883,482	113,66
883,652	7,17
883,822	-11,26
883,993	-17,41
884,163	29,7
884,333	60,42
884,504	-15,36
884,674	113,66
884,844	52,22
885,014	-50,18
885,184	33,79
885,355	-7,17
885,525	27,65
885,695	87,04
885,865	130,05
886,035	39,94
886,205	44,03
886,375	46,08
886,545	7,17
886,715	-48,13
886,885	50,18
887,055	-9,22
887,225	35,84
887,395	70,65
887,565	101,37
887,735	35,84
887,905	39,94
888,075	3,07
888,244	31,74
888,414	84,99
888,584	56,32
888,754	52,22
888,924	35,84
889,093	132,09
889,263	46,08
889,433	35,84
889,603	19,46
889,772	62,46
889,942	142,33
890,111	52,22
890,281	19,46
890,451	23,55
890,62	7,17
890,79	48,13
890,959	19,46
891,129	25,6
891,298	19,46
891,468	-5,12
891,637	52,22
891,807	-1,02
891,976	74,75
892,146	-11,26
892,315	21,5
892,485	54,27
892,654	-78,85
892,823	31,74
892,993	52,22
893,162	60,42
893,331	93,18
893,501	29,7
893,67	-17,41
893,839	-1,02
894,008	-13,31
894,177	3,07
894,347	35,84
894,516	109,57
894,685	60,42
894,854	-21,5
895,023	17,41
895,192	11,26
