Data from neon_USB4F104161__12__11-46-32-799.txt Node

Date: Tue Apr 14 11:46:32 EDT 2026
User: LaboPhy
Spectrometer: USB4F10416
Trigger mode: 4
Integration Time (sec): 1,000000E-1
Scans to average: 1
Electric dark correction enabled: true
Nonlinearity correction enabled: false
Boxcar width: 0
XAxis mode: Wavelengths
Number of Pixels in Spectrum: 3648
>>>>>Begin Spectral Data<<<<<
177,847	-203,77
178,066	-203,77
178,284	-203,77
178,502	-230,4
178,72	-181,25
178,939	1,02
179,157	1,02
179,375	-80,89
179,593	-17,41
179,812	97,28
180,03	7,17
180,248	7,17
180,466	-33,79
180,685	-9,22
180,903	35,84
181,121	-48,13
181,339	39,94
181,557	-9,22
181,775	60,42
181,994	-29,7
182,212	97,28
182,43	-58,37
182,648	-80,89
182,866	-13,31
183,084	56,32
183,302	-91,13
183,52	7,17
183,739	-7,17
183,957	66,56
184,175	-25,6
184,393	-1,02
184,611	48,13
184,829	41,98
185,047	11,26
185,265	-33,79
185,483	3,07
185,701	48,13
185,919	48,13
186,137	27,65
186,355	70,65
186,573	-15,36
186,791	7,17
187,009	-19,46
187,227	-17,41
187,445	-25,6
187,663	-3,07
187,881	-7,17
188,098	95,23
188,316	50,18
188,534	101,37
188,752	1,02
188,97	-48,13
189,188	-25,6
189,406	148,48
189,624	17,41
189,841	-56,32
190,059	-50,18
190,277	-13,31
190,495	11,26
190,713	138,24
190,931	179,2
191,148	-23,55
191,366	27,65
191,584	-1,02
191,802	62,46
192,019	17,41
192,237	87,04
192,455	-46,08
192,673	119,81
192,89	-17,41
193,108	44,03
193,326	21,5
193,543	70,65
193,761	-31,74
193,979	15,36
194,196	15,36
194,414	31,74
194,632	48,13
194,849	-78,85
195,067	-58,37
195,285	64,51
195,502	-46,08
195,72	39,94
195,937	39,94
196,155	89,09
196,373	-17,41
196,59	-50,18
196,808	7,17
197,025	64,51
197,243	205,82
197,46	44,03
197,678	13,31
197,895	48,13
198,113	25,6
198,33	-15,36
198,548	5,12
198,765	-17,41
198,983	23,55
199,2	-62,46
199,418	60,42
199,635	31,74
199,853	72,7
200,07	21,5
200,288	25,6
200,505	-9,22
200,722	80,89
200,94	-23,55
201,157	-9,22
201,375	23,55
201,592	33,79
201,809	60,42
202,027	56,32
202,244	35,84
202,461	-64,51
202,679	66,56
202,896	-7,17
203,113	-7,17
203,331	-19,46
203,548	-5,12
203,765	-15,36
203,982	-5,12
204,2	-9,22
204,417	-41,98
204,634	113,66
204,851	7,17
205,069	-1,02
205,286	99,33
205,503	52,22
205,72	13,31
205,937	103,42
206,155	-50,18
206,372	89,09
206,589	-87,04
206,806	-17,41
207,023	-33,79
207,24	3,07
207,458	-89,09
207,675	-56,32
207,892	-17,41
208,109	3,07
208,326	-70,65
208,543	91,13
208,76	7,17
208,977	115,71
209,194	35,84
209,411	-5,12
209,628	-7,17
209,845	74,75
210,062	-33,79
210,279	-7,17
210,496	-23,55
210,713	-74,75
210,93	7,17
211,147	44,03
211,364	-15,36
211,581	15,36
211,798	115,71
212,015	-103,42
212,232	-33,79
212,449	7,17
212,666	44,03
212,883	23,55
213,1	-9,22
213,317	-1,02
213,533	25,6
213,75	-25,6
213,967	-1,02
214,184	7,17
214,401	54,27
214,618	-58,37
214,835	-17,41
215,051	39,94
215,268	-5,12
215,485	-1,02
215,702	-41,98
215,919	-107,52
216,135	123,9
216,352	15,36
216,569	-23,55
216,786	31,74
217,002	58,37
217,219	82,94
217,436	39,94
217,652	-107,52
217,869	74,75
218,086	80,89
218,302	105,47
218,519	46,08
218,736	-33,79
218,952	-74,75
219,169	27,65
219,386	35,84
219,602	35,84
219,819	9,22
220,036	-91,13
220,252	80,89
220,469	58,37
220,685	56,32
220,902	-78,85
221,118	11,26
221,335	72,7
221,552	-97,28
221,768	78,85
221,985	-54,27
222,201	15,36
222,418	56,32
222,634	-5,12
222,851	-31,74
223,067	-33,79
223,284	-39,94
223,5	7,17
223,716	31,74
223,933	48,13
224,149	-29,7
224,366	25,6
224,582	11,26
224,799	11,26
225,015	25,6
225,231	7,17
225,448	35,84
225,664	39,94
225,88	-58,37
226,097	23,55
226,313	-50,18
226,529	21,5
226,746	15,36
226,962	25,6
227,178	-9,22
227,395	-70,65
227,611	-21,5
227,827	-11,26
228,044	50,18
228,26	105,47
228,476	-9,22
228,692	95,23
228,909	52,22
229,125	-39,94
229,341	25,6
229,557	-15,36
229,773	-39,94
229,99	64,51
230,206	-91,13
230,422	70,65
230,638	-17,41
230,854	41,98
231,07	-138,24
231,286	56,32
231,503	3,07
231,719	-19,46
231,935	25,6
232,151	-72,7
232,367	76,8
232,583	31,74
232,799	-41,98
233,015	62,46
233,231	-9,22
233,447	35,84
233,663	-56,32
233,879	35,84
234,095	-56,32
234,311	105,47
234,527	-25,6
234,743	41,98
234,959	89,09
235,175	-46,08
235,391	-33,79
235,607	33,79
235,823	17,41
236,039	-29,7
236,255	-31,74
236,471	31,74
236,687	-5,12
236,903	-29,7
237,118	41,98
237,334	-41,98
237,55	31,74
237,766	-13,31
237,982	17,41
238,198	56,32
238,413	-56,32
238,629	-29,7
238,845	41,98
239,061	-15,36
239,277	-91,13
239,492	-41,98
239,708	-37,89
239,924	-5,12
240,14	-48,13
240,355	82,94
240,571	31,74
240,787	-48,13
241,003	62,46
241,218	33,79
241,434	-17,41
241,65	19,46
241,865	-15,36
242,081	60,42
242,297	-113,66
242,512	7,17
242,728	44,03
242,944	-7,17
243,159	80,89
243,375	62,46
243,59	-39,94
243,806	56,32
244,022	-11,26
244,237	-9,22
244,453	-33,79
244,668	21,5
244,884	7,17
245,099	23,55
245,315	58,37
245,53	39,94
245,746	99,33
245,961	-7,17
246,177	31,74
246,392	72,7
246,608	56,32
246,823	-31,74
247,039	-56,32
247,254	-60,42
247,47	134,14
247,685	19,46
247,9	15,36
248,116	-27,65
248,331	-89,09
248,547	130,05
248,762	-70,65
248,977	7,17
249,193	-9,22
249,408	39,94
249,623	-11,26
249,839	-1,02
250,054	-148,48
250,269	72,7
250,485	74,75
250,7	39,94
250,915	7,17
251,13	97,28
251,346	-25,6
251,561	113,66
251,776	97,28
251,991	-64,51
252,207	121,85
252,422	5,12
252,637	-37,89
252,852	48,13
253,067	-15,36
253,283	87,04
253,498	41,98
253,713	-5,12
253,928	-33,79
254,143	66,56
254,358	33,79
254,573	-84,99
254,788	-44,03
255,004	39,94
255,219	-74,75
255,434	-33,79
255,649	13,31
255,864	25,6
256,079	48,13
256,294	-72,7
256,509	7,17
256,724	-25,6
256,939	-62,46
257,154	39,94
257,369	-27,65
257,584	76,8
257,799	66,56
258,014	-54,27
258,229	1,02
258,444	17,41
258,659	-41,98
258,874	1,02
259,089	80,89
259,304	58,37
259,518	-33,79
259,733	-56,32
259,948	-130,05
260,163	19,46
260,378	3,07
260,593	39,94
260,808	41,98
261,022	-48,13
261,237	33,79
261,452	-1,02
261,667	-37,89
261,882	27,65
262,096	37,89
262,311	138,24
262,526	-46,08
262,741	31,74
262,955	-41,98
263,17	33,79
263,385	-9,22
263,6	-37,89
263,814	-82,94
264,029	-37,89
264,244	13,31
264,458	56,32
264,673	46,08
264,888	21,5
265,102	27,65
265,317	-5,12
265,532	33,79
265,746	48,13
265,961	23,55
266,175	-23,55
266,39	33,79
266,605	-60,42
266,819	15,36
267,034	60,42
267,248	-41,98
267,463	9,22
267,677	-13,31
267,892	7,17
268,106	-121,85
268,321	-23,55
268,535	48,13
268,75	39,94
268,964	66,56
269,179	89,09
269,393	123,9
269,608	84,99
269,822	-1,02
270,036	-64,51
270,251	48,13
270,465	33,79
270,68	15,36
270,894	-29,7
271,108	130,05
271,323	-56,32
271,537	11,26
271,752	56,32
271,966	58,37
272,18	-107,52
272,394	37,89
272,609	-1,02
272,823	58,37
273,037	17,41
273,252	50,18
273,466	7,17
273,68	31,74
273,894	68,61
274,109	-21,5
274,323	33,79
274,537	64,51
274,751	-21,5
274,966	-46,08
275,18	-21,5
275,394	-48,13
275,608	-78,85
275,822	-66,56
276,036	39,94
276,25	-3,07
276,465	72,7
276,679	33,79
276,893	-89,09
277,107	41,98
277,321	-1,02
277,535	25,6
277,749	64,51
277,963	35,84
278,177	-58,37
278,391	105,47
278,605	-91,13
278,819	130,05
279,033	-37,89
279,247	17,41
279,461	7,17
279,675	17,41
279,889	48,13
280,103	27,65
280,317	72,7
280,531	-50,18
280,745	7,17
280,959	7,17
281,173	39,94
281,387	76,8
281,601	-7,17
281,815	82,94
282,029	-41,98
282,242	-48,13
282,456	-35,84
282,67	-1,02
282,884	-19,46
283,098	39,94
283,312	41,98
283,525	-9,22
283,739	64,51
283,953	7,17
284,167	54,27
284,381	33,79
284,594	9,22
284,808	-7,17
285,022	29,7
285,235	-58,37
285,449	21,5
285,663	-39,94
285,877	-39,94
286,09	7,17
286,304	31,74
286,518	-1,02
286,731	-9,22
286,945	-46,08
287,159	-80,89
287,372	-70,65
287,586	-15,36
287,799	23,55
288,013	-25,6
288,227	31,74
288,44	195,58
288,654	76,8
288,867	29,7
289,081	-23,55
289,294	56,32
289,508	111,61
289,721	-27,65
289,935	44,03
290,148	-5,12
290,362	-25,6
290,575	23,55
290,789	41,98
291,002	-41,98
291,216	80,89
291,429	-23,55
291,643	15,36
291,856	-9,22
292,069	64,51
292,283	-62,46
292,496	-62,46
292,71	31,74
292,923	-72,7
293,136	15,36
293,35	-41,98
293,563	-25,6
293,776	74,75
293,99	-15,36
294,203	-39,94
294,416	7,17
294,63	-7,17
294,843	-31,74
295,056	7,17
295,269	33,79
295,483	-74,75
295,696	29,7
295,909	31,74
296,122	7,17
296,335	5,12
296,549	44,03
296,762	31,74
296,975	-9,22
297,188	64,51
297,401	3,07
297,615	72,7
297,828	23,55
298,041	109,57
298,254	-62,46
298,467	11,26
298,68	-33,79
298,893	-35,84
299,106	11,26
299,319	31,74
299,532	11,26
299,745	15,36
299,958	15,36
300,171	5,12
300,384	-7,17
300,598	-66,56
300,81	15,36
301,023	-99,33
301,236	-41,98
301,449	1,02
301,662	7,17
301,875	-48,13
302,088	-27,65
302,301	-48,13
302,514	-56,32
302,727	93,18
302,94	-74,75
303,153	95,23
303,366	9,22
303,579	-31,74
303,791	56,32
304,004	-17,41
304,217	39,94
304,43	3,07
304,643	3,07
304,855	-107,52
305,068	23,55
305,281	15,36
305,494	80,89
305,707	39,94
305,919	89,09
306,132	3,07
306,345	23,55
306,558	50,18
306,77	-64,51
306,983	-39,94
307,196	121,85
307,408	-29,7
307,621	89,09
307,834	-113,66
308,046	31,74
308,259	-1,02
308,472	80,89
308,684	1,02
308,897	-52,22
309,109	39,94
309,322	-41,98
309,535	89,09
309,747	39,94
309,96	13,31
310,172	89,09
310,385	56,32
310,597	-9,22
310,81	9,22
311,022	-23,55
311,235	-56,32
311,447	-17,41
311,66	-62,46
311,872	-62,46
312,085	-15,36
312,297	-82,94
312,51	-80,89
312,722	-1,02
312,934	23,55
313,147	-62,46
313,359	-54,27
313,572	-35,84
313,784	-11,26
313,996	-9,22
314,209	107,52
314,421	-58,37
314,633	1,02
314,846	-7,17
315,058	48,13
315,27	-37,89
315,483	-41,98
315,695	27,65
315,907	25,6
316,119	58,37
316,332	3,07
316,544	11,26
316,756	9,22
316,968	25,6
317,181	48,13
317,393	23,55
317,605	-39,94
317,817	80,89
318,029	93,18
318,241	72,7
318,454	19,46
318,666	48,13
318,878	-70,65
319,09	-84,99
319,302	41,98
319,514	50,18
319,726	-15,36
319,938	15,36
320,15	80,89
320,362	-23,55
320,574	17,41
320,786	19,46
320,999	-50,18
321,211	31,74
321,423	84,99
321,635	-7,17
321,847	15,36
322,058	64,51
322,27	74,75
322,482	56,32
322,694	41,98
322,906	41,98
323,118	105,47
323,33	7,17
323,542	-70,65
323,754	31,74
323,966	-82,94
324,178	25,6
324,389	-19,46
324,601	70,65
324,813	25,6
325,025	9,22
325,237	-50,18
325,449	-21,5
325,66	-15,36
325,872	44,03
326,084	64,51
326,296	-25,6
326,507	23,55
326,719	35,84
326,931	-37,89
327,143	105,47
327,354	9,22
327,566	-13,31
327,778	-50,18
327,989	1,02
328,201	25,6
328,413	95,23
328,624	70,65
328,836	7,17
329,048	-62,46
329,259	80,89
329,471	-1,02
329,682	15,36
329,894	-37,89
330,106	-97,28
330,317	-1,02
330,529	31,74
330,74	-95,23
330,952	-21,5
331,163	-66,56
331,375	80,89
331,586	23,55
331,798	-130,05
332,009	-9,22
332,221	48,13
332,432	41,98
332,644	48,13
332,855	-46,08
333,067	7,17
333,278	64,51
333,489	123,9
333,701	-107,52
333,912	-60,42
334,124	-5,12
334,335	-1,02
334,546	-41,98
334,758	-35,84
334,969	211,96
335,18	41,98
335,392	99,33
335,603	33,79
335,814	39,94
336,025	17,41
336,237	-37,89
336,448	-76,8
336,659	48,13
336,87	103,42
337,082	140,29
337,293	25,6
337,504	-5,12
337,715	46,08
337,926	-66,56
338,138	31,74
338,349	-37,89
338,56	37,89
338,771	-1,02
338,982	-58,37
339,193	-58,37
339,404	97,28
339,616	-17,41
339,827	35,84
340,038	-27,65
340,249	48,13
340,46	44,03
340,671	58,37
340,882	132,09
341,093	64,51
341,304	7,17
341,515	-82,94
341,726	19,46
341,937	44,03
342,148	39,94
342,359	15,36
342,57	3,07
342,781	93,18
342,992	39,94
343,203	-5,12
343,414	130,05
343,624	84,99
343,835	31,74
344,046	66,56
344,257	7,17
344,468	54,27
344,679	60,42
344,89	80,89
345,1	25,6
345,311	238,59
345,522	173,05
345,733	134,14
345,944	134,14
346,154	310,27
346,365	207,87
346,576	76,8
346,787	187,39
346,997	173,05
347,208	138,24
347,419	130,05
347,629	189,44
347,84	146,43
348,051	-1,02
348,261	23,55
348,472	35,84
348,683	37,89
348,893	-9,22
349,104	-33,79
349,315	-9,22
349,525	60,42
349,736	89,09
349,946	140,29
350,157	257,02
350,368	179,2
350,578	72,7
350,789	154,62
350,999	181,25
351,21	199,68
351,42	138,24
351,631	242,68
351,841	269,31
352,052	220,16
352,262	345,08
352,472	318,46
352,683	240,64
352,893	162,81
353,104	148,48
353,314	207,87
353,525	474,1
353,735	31,74
353,945	33,79
354,156	-82,94
354,366	84,99
354,576	105,47
354,787	76,8
354,997	-64,51
355,207	-39,94
355,418	-58,37
355,628	1,02
355,838	-7,17
356,048	64,51
356,259	76,8
356,469	-48,13
356,679	-27,65
356,889	56,32
357,1	-50,18
357,31	1,02
357,52	23,55
357,73	-78,85
357,94	15,36
358,15	-50,18
358,361	58,37
358,571	60,42
358,781	150,53
358,991	31,74
359,201	82,94
359,411	48,13
359,621	123,9
359,831	162,81
360,041	138,24
360,251	107,52
360,461	84,99
360,672	74,75
360,882	-23,55
361,092	-46,08
361,302	68,61
361,512	105,47
361,721	-7,17
361,931	-35,84
362,141	9,22
362,351	-99,33
362,561	56,32
362,771	48,13
362,981	56,32
363,191	15,36
363,401	56,32
363,611	113,66
363,821	23,55
364,03	-29,7
364,24	15,36
364,45	56,32
364,66	226,3
364,87	-17,41
365,08	60,42
365,289	-56,32
365,499	-66,56
365,709	31,74
365,919	29,7
366,128	15,36
366,338	105,47
366,548	-58,37
366,758	-21,5
366,967	-41,98
367,177	93,18
367,387	78,85
367,596	13,31
367,806	1,02
368,016	56,32
368,225	101,37
368,435	138,24
368,644	9,22
368,854	113,66
369,064	50,18
369,273	80,89
369,483	27,65
369,692	-9,22
369,902	54,27
370,111	-9,22
370,321	-39,94
370,53	39,94
370,74	-17,41
370,949	23,55
371,159	-5,12
371,368	15,36
371,578	-15,36
371,787	15,36
371,997	58,37
372,206	9,22
372,416	39,94
372,625	58,37
372,834	-60,42
373,044	-33,79
373,253	-1,02
373,462	48,13
373,672	-64,51
373,881	-41,98
374,09	-89,09
374,3	-23,55
374,509	39,94
374,718	-66,56
374,928	23,55
375,137	-17,41
375,346	-25,6
375,555	111,61
375,765	-27,65
375,974	-56,32
376,183	121,85
376,392	-37,89
376,601	41,98
376,811	-3,07
377,02	99,33
377,229	31,74
377,438	50,18
377,647	-87,04
377,856	-74,75
378,065	-89,09
378,275	17,41
378,484	15,36
378,693	-11,26
378,902	27,65
379,111	72,7
379,32	-1,02
379,529	-1,02
379,738	-33,79
379,947	7,17
380,156	41,98
380,365	-89,09
380,574	31,74
380,783	-99,33
380,992	74,75
381,201	35,84
381,41	-58,37
381,619	-50,18
381,828	-13,31
382,037	-41,98
382,245	9,22
382,454	15,36
382,663	27,65
382,872	-33,79
383,081	-33,79
383,29	15,36
383,499	-25,6
383,707	3,07
383,916	-9,22
384,125	41,98
384,334	23,55
384,542	130,05
384,751	68,61
384,96	-37,89
385,169	9,22
385,377	-17,41
385,586	25,6
385,795	-31,74
386,004	39,94
386,212	-37,89
386,421	-74,75
386,63	48,13
386,838	15,36
387,047	17,41
387,255	3,07
387,464	11,26
387,673	-21,5
387,881	128
388,09	72,7
388,298	52,22
388,507	39,94
388,715	-33,79
388,924	68,61
389,133	7,17
389,341	17,41
389,55	-107,52
389,758	-25,6
389,967	-15,36
390,175	31,74
390,383	89,09
390,592	117,76
390,8	9,22
391,009	15,36
391,217	128
391,426	93,18
391,634	7,17
391,842	-33,79
392,051	-25,6
392,259	-17,41
392,467	-74,75
392,676	-50,18
392,884	9,22
393,092	1,02
393,301	3,07
393,509	-74,75
393,717	41,98
393,925	39,94
394,134	9,22
394,342	52,22
394,55	105,47
394,758	23,55
394,967	48,13
395,175	-9,22
395,383	7,17
395,591	-54,27
395,799	-27,65
396,007	-58,37
396,216	3,07
396,424	52,22
396,632	56,32
396,84	-23,55
397,048	-44,03
397,256	31,74
397,464	39,94
397,672	64,51
397,88	-91,13
398,088	-23,55
398,296	84,99
398,504	5,12
398,712	-1,02
398,92	-5,12
399,128	-5,12
399,336	-17,41
399,544	9,22
399,752	-82,94
399,96	74,75
400,168	-7,17
400,376	5,12
400,584	11,26
400,792	1,02
401	-11,26
401,207	-72,7
401,415	15,36
401,623	-3,07
401,831	-9,22
402,039	31,74
402,247	-41,98
402,454	93,18
402,662	17,41
402,87	9,22
403,078	80,89
403,285	64,51
403,493	35,84
403,701	-25,6
403,909	7,17
404,116	76,8
404,324	-11,26
404,532	72,7
404,739	-39,94
404,947	-17,41
405,155	33,79
405,362	5,12
405,57	52,22
405,778	-1,02
405,985	84,99
406,193	-23,55
406,4	-50,18
406,608	-46,08
406,816	9,22
407,023	39,94
407,231	-29,7
407,438	7,17
407,646	-31,74
407,853	-37,89
408,061	-25,6
408,268	15,36
408,476	-33,79
408,683	80,89
408,89	5,12
409,098	146,43
409,305	3,07
409,513	62,46
409,72	76,8
409,927	-70,65
410,135	66,56
410,342	-64,51
410,55	109,57
410,757	-82,94
410,964	-125,95
411,172	15,36
411,379	62,46
411,586	52,22
411,793	-46,08
412,001	-95,23
412,208	-9,22
412,415	27,65
412,622	68,61
412,83	-1,02
413,037	7,17
413,244	-1,02
413,451	-1,02
413,658	50,18
413,866	87,04
414,073	39,94
414,28	50,18
414,487	64,51
414,694	33,79
414,901	19,46
415,108	1,02
415,315	23,55
415,522	105,47
415,73	-1,02
415,937	-29,7
416,144	-31,74
416,351	3,07
416,558	-17,41
416,765	-33,79
416,972	72,7
417,179	17,41
417,386	11,26
417,593	23,55
417,8	-3,07
418,006	-39,94
418,213	84,99
418,42	50,18
418,627	70,65
418,834	-39,94
419,041	-50,18
419,248	-9,22
419,455	-7,17
419,661	-27,65
419,868	-56,32
420,075	31,74
420,282	-41,98
420,489	68,61
420,696	-72,7
420,902	-17,41
421,109	80,89
421,316	-74,75
421,523	125,95
421,729	72,7
421,936	-37,89
422,143	91,13
422,349	-33,79
422,556	-132,09
422,763	31,74
422,969	25,6
423,176	-7,17
423,383	-9,22
423,589	293,88
423,796	17,41
424,002	-1,02
424,209	72,7
424,416	50,18
424,622	-107,52
424,829	-50,18
425,035	-33,79
425,242	39,94
425,448	-80,89
425,655	21,5
425,861	-15,36
426,068	66,56
426,274	58,37
426,481	9,22
426,687	33,79
426,894	-39,94
427,1	35,84
427,306	-80,89
427,513	15,36
427,719	-70,65
427,926	74,75
428,132	-72,7
428,338	-111,61
428,545	72,7
428,751	9,22
428,957	-29,7
429,163	-37,89
429,37	146,43
429,576	17,41
429,782	-23,55
429,989	-13,31
430,195	56,32
430,401	-9,22
430,607	17,41
430,813	-58,37
431,02	-39,94
431,226	68,61
431,432	-9,22
431,638	21,5
431,844	-25,6
432,05	-9,22
432,257	-17,41
432,463	15,36
432,669	27,65
432,875	-84,99
433,081	-37,89
433,287	7,17
433,493	-91,13
433,699	58,37
433,905	105,47
434,111	-41,98
434,317	-39,94
434,523	23,55
434,729	11,26
434,935	-17,41
435,141	203,77
435,347	-5,12
435,553	-3,07
435,759	60,42
435,965	-31,74
436,171	-17,41
436,377	39,94
436,582	54,27
436,788	-46,08
436,994	121,85
437,2	7,17
437,406	72,7
437,612	74,75
437,818	64,51
438,023	-144,38
438,229	72,7
438,435	1,02
438,641	-58,37
438,846	29,7
439,052	13,31
439,258	31,74
439,464	17,41
439,669	19,46
439,875	39,94
440,081	-62,46
440,286	-37,89
440,492	-66,56
440,698	35,84
440,903	-5,12
441,109	72,7
441,314	-117,76
441,52	39,94
441,726	31,74
441,931	23,55
442,137	17,41
442,342	17,41
442,548	39,94
442,753	138,24
442,959	-56,32
443,164	-31,74
443,37	99,33
443,575	-17,41
443,781	19,46
443,986	68,61
444,192	-99,33
444,397	52,22
444,602	-70,65
444,808	-54,27
445,013	39,94
445,219	-82,94
445,424	72,7
445,629	-25,6
445,835	138,24
446,04	-37,89
446,245	-31,74
446,451	-70,65
446,656	-41,98
446,861	52,22
447,066	39,94
447,272	13,31
447,477	-25,6
447,682	-132,09
447,887	-1,02
448,093	35,84
448,298	130,05
448,503	7,17
448,708	29,7
448,913	-56,32
449,118	115,71
449,324	23,55
449,529	78,85
449,734	-72,7
449,939	97,28
450,144	115,71
450,349	15,36
450,554	-13,31
450,759	17,41
450,964	9,22
451,169	48,13
451,374	-39,94
451,579	-23,55
451,784	64,51
451,989	17,41
452,194	68,61
452,399	33,79
452,604	-54,27
452,809	7,17
453,014	-37,89
453,219	9,22
453,424	72,7
453,629	-58,37
453,833	35,84
454,038	64,51
454,243	27,65
454,448	19,46
454,653	107,52
454,858	48,13
455,062	-15,36
455,267	-56,32
455,472	74,75
455,677	25,6
455,882	-89,09
456,086	80,89
456,291	7,17
456,496	-13,31
456,7	-50,18
456,905	48,13
457,11	66,56
457,314	1,02
457,519	3,07
457,724	-29,7
457,928	25,6
458,133	-5,12
458,338	-64,51
458,542	72,7
458,747	19,46
458,951	-39,94
459,156	82,94
459,36	-56,32
459,565	113,66
459,769	-89,09
459,974	52,22
460,178	31,74
460,383	-97,28
460,587	-78,85
460,792	66,56
460,996	72,7
461,201	25,6
461,405	-33,79
461,61	-56,32
461,814	-33,79
462,018	-107,52
462,223	3,07
462,427	-27,65
462,631	105,47
462,836	39,94
463,04	33,79
463,244	80,89
463,449	-23,55
463,653	105,47
463,857	23,55
464,062	48,13
464,266	-33,79
464,47	-17,41
464,674	-50,18
464,878	97,28
465,083	-48,13
465,287	39,94
465,491	-41,98
465,695	33,79
465,899	27,65
466,104	56,32
466,308	1,02
466,512	39,94
466,716	-35,84
466,92	25,6
467,124	50,18
467,328	-48,13
467,532	74,75
467,736	-17,41
467,94	17,41
468,144	7,17
468,348	23,55
468,552	82,94
468,756	13,31
468,96	31,74
469,164	-113,66
469,368	89,09
469,572	27,65
469,776	78,85
469,98	56,32
470,184	105,47
470,388	111,61
470,591	31,74
470,795	113,66
470,999	66,56
471,203	15,36
471,407	123,9
471,611	80,89
471,814	123,9
472,018	-9,22
472,222	105,47
472,426	248,83
472,63	56,32
472,833	41,98
473,037	27,65
473,241	9,22
473,444	48,13
473,648	449,53
473,852	-27,65
474,055	-25,6
474,259	39,94
474,463	50,18
474,666	74,75
474,87	31,74
475,074	-15,36
475,277	15,36
475,481	97,28
475,684	-1,02
475,888	-58,37
476,091	68,61
476,295	-1,02
476,498	-91,13
476,702	-25,6
476,905	89,09
477,109	25,6
477,312	23,55
477,516	-33,79
477,719	89,09
477,923	-13,31
478,126	-33,79
478,329	-17,41
478,533	-17,41
478,736	78,85
478,94	-33,79
479,143	25,6
479,346	72,7
479,55	56,32
479,753	1,02
479,956	-7,17
480,159	9,22
480,363	72,7
480,566	15,36
480,769	9,22
480,972	27,65
481,176	-62,46
481,379	89,09
481,582	121,85
481,785	-115,71
481,988	52,22
482,192	84,99
482,395	50,18
482,598	17,41
482,801	-31,74
483,004	89,09
483,207	-29,7
483,41	37,89
483,613	107,52
483,817	113,66
484,02	-25,6
484,223	-58,37
484,426	7,17
484,629	1,02
484,832	68,61
485,035	17,41
485,238	-9,22
485,441	-50,18
485,644	105,47
485,846	-9,22
486,049	-17,41
486,252	-46,08
486,455	1,02
486,658	39,94
486,861	64,51
487,064	23,55
487,267	7,17
487,47	130,05
487,672	15,36
487,875	52,22
488,078	-1,02
488,281	17,41
488,484	64,51
488,686	13,31
488,889	15,36
489,092	-7,17
489,295	13,31
489,497	121,85
489,7	33,79
489,903	3,07
490,105	-89,09
490,308	-56,32
490,511	3,07
490,713	19,46
490,916	-5,12
491,118	48,13
491,321	-21,5
491,524	-62,46
491,726	56,32
491,929	-72,7
492,131	-31,74
492,334	9,22
492,536	19,46
492,739	-11,26
492,941	-11,26
493,144	19,46
493,346	33,79
493,549	7,17
493,751	41,98
493,954	-33,79
494,156	41,98
494,359	48,13
494,561	-9,22
494,763	29,7
494,966	80,89
495,168	162,81
495,37	-58,37
495,573	7,17
495,775	41,98
495,977	39,94
496,18	15,36
496,382	80,89
496,584	31,74
496,787	154,62
496,989	23,55
497,191	7,17
497,393	101,37
497,595	-25,6
497,798	91,13
498	-9,22
498,202	-87,04
498,404	-1,02
498,606	-13,31
498,808	72,7
499,011	-23,55
499,213	72,7
499,415	-15,36
499,617	80,89
499,819	84,99
500,021	60,42
500,223	-35,84
500,425	-23,55
500,627	-25,6
500,829	84,99
501,031	-33,79
501,233	3,07
501,435	-25,6
501,637	-7,17
501,839	148,48
502,041	7,17
502,243	97,28
502,445	9,22
502,647	54,27
502,848	25,6
503,05	80,89
503,252	146,43
503,454	130,05
503,656	181,25
503,858	246,78
504,059	236,54
504,261	277,5
504,463	265,21
504,665	224,25
504,867	121,85
505,068	197,63
505,27	146,43
505,472	154,62
505,673	105,47
505,875	-25,6
506,077	-91,13
506,278	-9,22
506,48	7,17
506,682	-23,55
506,883	97,28
507,085	25,6
507,287	-7,17
507,488	121,85
507,69	171,01
507,891	84,99
508,093	189,44
508,294	158,72
508,496	109,57
508,697	166,91
508,899	138,24
509,1	109,57
509,302	31,74
509,503	74,75
509,705	125,95
509,906	19,46
510,108	-9,22
510,309	58,37
510,51	66,56
510,712	-15,36
510,913	19,46
511,114	72,7
511,316	72,7
511,517	293,88
511,718	97,28
511,92	144,38
512,121	177,15
512,322	228,35
512,524	257,02
512,725	173,05
512,926	173,05
513,127	101,37
513,329	199,68
513,53	123,9
513,731	187,39
513,932	74,75
514,133	64,51
514,334	80,89
514,536	181,25
514,737	179,2
514,938	189,44
515,139	171,01
515,34	97,28
515,541	199,68
515,742	74,75
515,943	164,86
516,144	123,9
516,345	115,71
516,546	119,81
516,747	89,09
516,948	7,17
517,149	-82,94
517,35	-64,51
517,551	35,84
517,752	97,28
517,953	113,66
518,154	-25,6
518,355	109,57
518,556	105,47
518,756	41,98
518,957	115,71
519,158	160,77
519,359	154,62
519,56	164,86
519,761	107,52
519,961	232,44
520,162	338,94
520,363	101,37
520,564	74,75
520,764	291,84
520,965	148,48
521,166	252,92
521,366	138,24
521,567	177,15
521,768	154,62
521,968	123,9
522,169	105,47
522,37	-15,36
522,57	60,42
522,771	105,47
522,972	-25,6
523,172	158,72
523,373	111,61
523,573	33,79
523,774	72,7
523,974	105,47
524,175	113,66
524,375	46,08
524,576	-99,33
524,776	27,65
524,977	64,51
525,177	56,32
525,378	-46,08
525,578	68,61
525,778	1,02
525,979	66,56
526,179	-5,12
526,38	52,22
526,58	-44,03
526,78	-37,89
526,981	138,24
527,181	50,18
527,381	56,32
527,582	130,05
527,782	109,57
527,982	-25,6
528,182	56,32
528,383	74,75
528,583	-13,31
528,783	-1,02
528,983	39,94
529,183	-48,13
529,384	82,94
529,584	177,15
529,784	121,85
529,984	177,15
530,184	41,98
530,384	60,42
530,584	48,13
530,784	97,28
530,984	23,55
531,185	84,99
531,385	121,85
531,585	144,38
531,785	117,76
531,985	31,74
532,185	89,09
532,385	123,9
532,585	279,55
532,785	334,84
532,984	429,05
533,184	441,34
533,384	427
533,584	515,06
533,784	558,07
533,984	568,31
534,184	556,02
534,384	601,08
534,583	705,53
534,783	543,74
534,983	580,6
535,183	427
535,383	285,69
535,582	326,65
535,782	293,88
535,982	338,94
536,182	228,35
536,381	105,47
536,581	91,13
536,781	154,62
536,98	72,7
537,18	60,42
537,38	134,14
537,579	56,32
537,779	25,6
537,979	101,37
538,178	19,46
538,378	48,13
538,577	37,89
538,777	29,7
538,976	113,66
539,176	179,2
539,376	254,97
539,575	173,05
539,774	367,61
539,974	359,42
540,173	527,35
540,373	531,45
540,572	580,6
540,772	623,61
540,971	459,77
541,171	484,34
541,37	330,75
541,569	291,84
541,769	287,74
541,968	148,48
542,167	97,28
542,367	72,7
542,566	23,55
542,765	41,98
542,965	56,32
543,164	31,74
543,363	101,37
543,562	-5,12
543,761	39,94
543,961	33,79
544,16	-60,42
544,359	148,48
544,558	91,13
544,757	48,13
544,957	76,8
545,156	150,53
545,355	31,74
545,554	54,27
545,753	-37,89
545,952	50,18
546,151	107,52
546,35	7,17
546,549	-1,02
546,748	72,7
546,947	62,46
547,146	-29,7
547,345	15,36
547,544	-113,66
547,743	-7,17
547,942	70,65
548,141	-48,13
548,34	-17,41
548,539	15,36
548,738	-31,74
548,937	80,89
549,135	7,17
549,334	23,55
549,533	1,02
549,732	23,55
549,931	50,18
550,13	-23,55
550,328	-58,37
550,527	-17,41
550,726	-5,12
550,925	68,61
551,123	84,99
551,322	9,22
551,521	80,89
551,72	-15,36
551,918	-62,46
552,117	56,32
552,315	56,32
552,514	15,36
552,713	-46,08
552,911	-50,18
553,11	-72,7
553,309	9,22
553,507	-19,46
553,706	-97,28
553,904	-3,07
554,103	35,84
554,301	121,85
554,5	-23,55
554,698	27,65
554,897	35,84
555,095	93,18
555,294	-113,66
555,492	1,02
555,69	99,33
555,889	-21,5
556,087	117,76
556,286	80,89
556,484	125,95
556,682	64,51
556,881	52,22
557,079	25,6
557,277	91,13
557,476	84,99
557,674	101,37
557,872	115,71
558,07	-66,56
558,269	-5,12
558,467	33,79
558,665	58,37
558,863	-17,41
559,062	25,6
559,26	-17,41
559,458	-54,27
559,656	33,79
559,854	25,6
560,052	39,94
560,25	70,65
560,449	220,16
560,647	44,03
560,845	-23,55
561,043	82,94
561,241	158,72
561,439	99,33
561,637	-64,51
561,835	5,12
562,033	99,33
562,231	-56,32
562,429	35,84
562,627	-11,26
562,825	-33,79
563,023	148,48
563,221	25,6
563,418	52,22
563,616	15,36
563,814	105,47
564,012	7,17
564,21	-13,31
564,408	82,94
564,605	-74,75
564,803	80,89
565,001	293,88
565,199	23,55
565,397	146,43
565,594	195,58
565,792	295,93
565,99	105,47
566,188	238,59
566,385	181,25
566,583	164,86
566,781	224,25
566,978	193,53
567,176	330,75
567,373	189,44
567,571	113,66
567,769	154,62
567,966	58,37
568,164	125,95
568,361	80,89
568,559	84,99
568,756	35,84
568,954	72,7
569,151	154,62
569,349	189,44
569,546	173,05
569,744	160,77
569,941	138,24
570,139	64,51
570,336	74,75
570,534	130,05
570,731	66,56
570,928	125,95
571,126	199,68
571,323	97,28
571,52	25,6
571,718	97,28
571,915	123,9
572,112	9,22
572,31	52,22
572,507	197,63
572,704	23,55
572,901	7,17
573,099	23,55
573,296	148,48
573,493	39,94
573,69	35,84
573,887	105,47
574,085	197,63
574,282	113,66
574,479	130,05
574,676	162,81
574,873	228,35
575,07	353,27
575,267	304,12
575,464	461,82
575,661	490,49
575,858	492,54
576,055	582,65
576,252	820,21
576,449	773,11
576,646	926,71
576,843	904,18
577,04	1027,06
577,237	1000,43
577,434	838,64
577,631	762,87
577,828	580,6
578,025	502,78
578,222	351,23
578,419	404,47
578,615	254,97
578,812	148,48
579,009	89,09
579,206	76,8
579,403	105,47
579,599	240,64
579,796	50,18
579,993	236,54
580,19	150,53
580,386	220,16
580,583	281,6
580,78	207,87
580,976	302,08
581,173	328,7
581,37	412,67
581,566	449,53
581,763	515,06
581,96	564,22
582,156	656,37
582,353	691,19
582,549	773,11
582,746	562,17
582,942	576,5
583,139	588,79
583,335	588,79
583,532	1006,58
583,728	1694,69
583,925	2737,11
584,121	4385,73
584,318	6323,1
584,514	8731,51
584,711	11848,52
584,907	15422,23
585,103	19663,57
585,3	23302,81
585,496	26583,66
585,693	29006,41
585,889	29530,69
586,085	28752,46
586,281	26026,61
586,478	22631,08
586,674	19170,01
586,87	16777,98
587,067	14111,53
587,263	11365,2
587,459	8522,62
587,655	6413,21
587,851	5471,15
588,048	5290,93
588,244	5159,86
588,44	5794,73
588,636	5833,64
588,832	5860,26
589,028	5768,1
589,224	4959,16
589,42	4414,4
589,617	3828,68
589,813	3347,4
590,009	2888,66
590,205	2454,49
590,401	1891,3
590,597	1375,21
590,793	1238
590,989	1174,51
591,185	910,32
591,38	867,31
591,576	752,63
591,772	719,86
591,968	691,19
592,164	642,04
592,36	467,96
592,556	465,91
592,752	537,59
592,948	545,78
593,143	967,67
593,339	1379,31
593,535	1919,97
593,731	2708,44
593,926	3816,39
594,122	4867
594,318	6005,67
594,514	7486,35
594,709	8586,11
594,905	9282,42
595,101	9505,65
595,296	9196,4
595,492	8514,43
595,688	7484,3
595,883	6470,56
596,079	5790,63
596,275	5028,79
596,47	4012,99
596,666	3202
596,861	2597,85
597,057	2180,06
597,252	2120,67
597,448	2182,11
597,643	2446,3
597,839	2655,19
598,034	2628,57
598,23	2567,13
598,425	2573,27
598,621	2450,39
598,816	2040,8
599,011	1803,24
599,207	1573,86
599,402	1403,88
599,597	1211,37
599,793	777,2
599,988	543,74
600,183	508,92
600,379	367,61
600,574	277,5
600,769	287,74
600,965	201,72
601,16	218,11
601,355	158,72
601,55	363,51
601,745	424,95
601,941	558,07
602,136	723,96
602,331	990,19
602,526	1227,76
602,721	1493,99
602,916	1879,01
603,111	2253,79
603,307	2489,31
603,502	2563,03
603,697	2661,34
603,892	2522,07
604,087	2237,41
604,282	2087,9
604,477	1924,07
604,672	1541,1
604,867	1281
605,062	998,38
605,257	744,44
605,452	615,41
605,646	527,35
605,841	541,69
606,036	728,05
606,231	1131,5
606,426	1727,46
606,621	2403,29
606,816	3318,73
607,01	4551,61
607,205	5462,96
607,4	6581,15
607,595	7895,94
607,79	8475,52
607,984	9141,11
608,179	9276,27
608,374	9489,26
608,569	9495,41
608,763	9263,99
608,958	9595,76
609,153	10529,63
609,347	11289,43
609,542	11746,12
609,736	12739,39
609,931	12823,36
610,126	13146,94
610,32	13122,36
610,515	12010,31
610,709	10992,47
610,904	9644,91
611,098	8092,55
611,293	6937,49
611,487	5899,17
611,682	4529,08
611,876	3269,58
612,071	2210,78
612,265	1625,06
612,46	1160,17
612,654	1311,72
612,848	1709,03
613,043	2608,09
613,237	3832,77
613,432	5217,2
613,626	7234,45
613,82	9501,55
614,014	11946,83
614,209	14983,96
614,403	17103,61
614,597	19411,67
614,792	20433,61
614,986	21285,56
615,18	20284,11
615,374	18883,3
615,568	16866,05
615,763	15432,47
615,957	14297,89
616,151	12622,66
616,345	11782,99
616,539	10443,62
616,733	9157,49
616,927	7674,76
617,121	6941,59
617,316	6165,41
617,51	5383,09
617,704	4549,56
617,898	4012,99
618,092	3472,33
618,286	2776,02
618,48	2419,68
618,674	1829,86
618,868	1375,21
619,061	793,59
619,255	697,33
619,449	529,4
619,643	449,53
619,837	445,43
620,031	400,38
620,225	556,02
620,419	605,17
620,612	986,1
620,806	1145,84
621	1647,59
621,194	1911,78
621,388	2507,74
621,581	3036,11
621,775	3587,02
621,969	4037,57
622,162	4340,67
622,356	4527,03
622,55	4283,33
622,743	3859,4
622,937	3455,95
623,131	3032,02
623,324	2712,53
623,518	2284,51
623,712	1891,3
623,905	1399,79
624,099	1063,92
624,292	656,37
624,486	410,62
624,679	363,51
624,873	367,61
625,066	517,11
625,26	830,45
625,453	1162,22
625,647	1780,71
625,84	2597,85
626,034	3789,77
626,227	4703,16
626,42	5725,1
626,614	7150,48
626,807	8321,92
627	9194,36
627,194	9446,26
627,387	9487,22
627,58	8846,2
627,774	7748,49
627,967	7062,42
628,16	6261,66
628,353	5471,15
628,547	4684,73
628,74	3947,46
628,933	2819,03
629,126	2089,95
629,319	1655,78
629,513	1692,65
629,706	1829,86
629,899	2237,41
630,092	2548,7
630,285	3070,93
630,478	3738,57
630,671	4148,16
630,864	4572,09
631,057	4750,26
631,25	4654,01
631,443	4496,32
631,636	4213,7
631,829	3791,81
632,022	3978,18
632,215	4314,05
632,408	4967,35
632,601	5604,27
632,794	6513,56
632,987	8084,36
633,18	9870,19
633,373	11258,71
633,566	13036,35
633,758	13853,48
633,951	15088,41
634,144	14791,45
634,337	14369,57
634,53	13364,02
634,722	11567,95
634,915	9755,5
635,108	8846,2
635,301	7795,59
635,493	6144,93
635,686	4750,26
635,879	3304,4
636,071	1973,22
636,264	1479,66
636,457	973,81
636,649	793,59
636,842	1080,3
637,034	1711,08
637,227	2360,28
637,42	3136,46
637,612	4414,4
637,805	5745,58
637,997	7353,23
638,19	8967,03
638,382	10570,59
638,575	12120,9
638,767	14940,96
638,96	17177,34
639,152	20148,94
639,344	23159,45
639,537	26958,44
639,729	31472,16
639,922	37208,52
640,114	42469,75
640,306	47622,44
640,499	51382,51
640,691	52717,79
640,883	52855
641,075	50807,03
641,268	45769,03
641,46	39756,19
641,652	34580,98
641,844	30155,32
642,037	26249,84
642,229	21693,11
642,421	17406,71
642,613	12329,8
642,805	7811,98
642,998	4877,24
643,19	3120,08
643,382	2083,81
643,574	1489,9
643,766	949,23
643,958	734,2
644,15	715,77
644,342	515,06
644,534	482,3
644,726	420,86
644,918	400,38
645,11	287,74
645,302	252,92
645,494	277,5
645,686	281,6
645,878	101,37
646,07	230,4
646,262	207,87
646,453	171,01
646,645	228,35
646,837	187,39
647,029	236,54
647,221	91,13
647,413	105,47
647,604	179,2
647,796	148,48
647,988	148,48
648,18	134,14
648,371	89,09
648,563	171,01
648,755	181,25
648,947	181,25
649,138	670,71
649,33	1428,46
649,521	2601,94
649,713	3951,56
649,905	5503,92
650,096	7467,92
650,288	10025,83
650,479	12421,95
650,671	14723,87
650,863	17038,08
651,054	18025,2
651,246	18561,76
651,437	18129,64
651,629	17160,95
651,82	15663,89
652,011	13933,36
652,203	12491,59
652,394	11770,7
652,586	10568,54
652,777	9311,09
652,968	7961,48
653,16	6880,15
653,351	6118,31
653,542	5790,63
653,734	5362,61
653,925	5200,82
654,116	4850,61
654,308	4441,02
654,499	3859,4
654,69	3324,88
654,881	2851,8
655,073	2563,03
655,264	2259,93
655,455	1883,11
655,646	1364,97
655,837	1043,44
656,028	664,57
656,219	437,24
656,411	295,93
656,602	228,35
656,793	222,2
656,984	273,4
657,175	101,37
657,366	89,09
657,557	207,87
657,748	113,66
657,939	58,37
658,13	173,05
658,321	261,12
658,512	515,06
658,703	842,74
658,894	1154,03
659,084	1801,19
659,275	2374,62
659,466	3285,97
659,657	3984,32
659,848	4901,81
660,039	5553,07
660,23	6142,88
660,42	6480,8
660,611	6202,27
660,802	6142,88
660,993	5516,2
661,183	5094,32
661,374	4246,46
661,565	3890,12
661,755	3417,04
661,946	2825,17
662,137	2350,04
662,327	1754,09
662,518	1100,78
662,709	711,67
662,899	404,47
663,09	322,56
663,28	228,35
663,471	101,37
663,662	230,4
663,852	171,01
664,043	121,85
664,233	105,47
664,424	138,24
664,614	107,52
664,804	52,22
664,995	164,86
665,185	211,96
665,376	140,29
665,566	224,25
665,756	89,09
665,947	130,05
666,137	183,29
666,328	474,1
666,518	990,19
666,708	1563,62
666,898	2294,75
667,089	3513,29
667,279	4867
667,469	6292,38
667,659	7797,64
667,85	8979,32
668,04	10337,12
668,23	10736,48
668,42	11330,39
668,61	10865,5
668,8	10480,48
668,991	9522,03
669,181	8260,48
669,371	7062,42
669,561	6642,59
669,751	5647,27
669,941	4744,12
670,131	3988,42
670,321	3124,18
670,511	2515,93
670,701	2341,85
670,891	2560,98
671,081	2931,67
671,271	3541,96
671,461	4371,39
671,651	5202,86
671,841	6034,34
672,03	6595,48
672,22	6787,99
672,41	6710,17
672,6	6488,99
672,79	5821,35
672,98	5286,83
673,169	4524,99
673,359	4023,23
673,549	3699,66
673,739	3144,66
673,928	2524,12
674,118	1983,46
674,308	1385,45
674,497	1086,45
674,687	562,17
674,877	343,03
675,066	322,56
675,256	156,67
675,446	244,73
675,635	121,85
675,825	91,13
676,014	95,23
676,204	72,7
676,393	105,47
676,583	84,99
676,772	80,89
676,962	130,05
677,151	60,42
677,341	107,52
677,53	56,32
677,72	134,14
677,909	41,98
678,099	-37,89
678,288	-58,37
678,477	76,8
678,667	97,28
678,856	154,62
679,045	-9,22
679,235	44,03
679,424	72,7
679,613	199,68
679,802	113,66
679,992	-9,22
680,181	-44,03
680,37	7,17
680,559	48,13
680,748	76,8
680,938	48,13
681,127	25,6
681,316	101,37
681,505	-1,02
681,694	-33,79
681,883	72,7
682,072	41,98
682,261	-19,46
682,45	-58,37
682,639	-23,55
682,828	138,24
683,017	166,91
683,206	101,37
683,395	50,18
683,584	97,28
683,773	31,74
683,962	7,17
684,151	-41,98
684,34	101,37
684,529	-50,18
684,718	113,66
684,907	-48,13
685,095	80,89
685,284	72,7
685,473	35,84
685,662	58,37
685,851	52,22
686,039	80,89
686,228	39,94
686,417	-15,36
686,606	136,19
686,794	52,22
686,983	-97,28
687,172	27,65
687,36	60,42
687,549	33,79
687,738	-25,6
687,926	-41,98
688,115	15,36
688,303	44,03
688,492	31,74
688,68	-64,51
688,869	17,41
689,057	39,94
689,246	-58,37
689,434	74,75
689,623	-3,07
689,811	48,13
690	19,46
690,188	23,55
690,377	-9,22
690,565	70,65
690,753	80,89
690,942	33,79
691,13	89,09
691,318	105,47
691,507	228,35
691,695	693,24
691,883	1371,12
692,072	2370,52
692,26	3292,11
692,448	4373,44
692,636	5618,6
692,824	6845,34
693,013	8039,3
693,201	8999,8
693,389	9184,12
693,577	9100,15
693,765	9513,84
693,953	8766,33
694,141	7965,57
694,329	6808,47
694,518	5807,02
694,706	5553,07
694,894	4823,99
695,082	4078,53
695,27	3580,87
695,458	2739,16
695,646	1942,5
695,834	1350,64
696,022	889,84
696,209	539,64
696,397	523,26
696,585	322,56
696,773	261,12
696,961	72,7
697,149	134,14
697,337	125,95
697,525	156,67
697,712	58,37
697,9	56,32
698,088	48,13
698,276	82,94
698,463	44,03
698,651	166,91
698,839	-37,89
699,027	48,13
699,214	195,58
699,402	80,89
699,59	-50,18
699,777	5,12
699,965	56,32
700,152	-15,36
700,34	35,84
700,528	-25,6
700,715	52,22
700,903	9,22
701,09	93,18
701,278	89,09
701,465	230,4
701,653	386,04
701,84	637,94
702,028	1481,71
702,215	2341,85
702,402	3627,98
702,59	4852,66
702,777	6495,13
702,965	8006,53
703,152	9773,93
703,339	10795,87
703,527	12026,7
703,714	11871,05
703,901	12155,72
704,088	11852,62
704,276	10971,99
704,463	9845,61
704,65	8496
704,837	7730,06
705,025	6925,21
705,212	6136,74
705,399	5254,06
705,586	4574,14
705,773	3775,43
705,96	2737,11
706,147	2030,56
706,335	1395,69
706,522	1057,78
706,709	728,05
706,896	525,3
707,083	408,57
707,27	400,38
707,457	328,7
707,644	265,21
707,831	191,49
708,018	105,47
708,205	115,71
708,392	164,86
708,578	175,1
708,765	50,18
708,952	-13,31
709,139	7,17
709,326	44,03
709,513	166,91
709,7	48,13
709,886	54,27
710,073	107,52
710,26	99,33
710,447	37,89
710,633	13,31
710,82	58,37
711,007	64,51
711,193	56,32
711,38	-25,6
711,567	89,09
711,753	-39,94
711,94	25,6
712,127	9,22
712,313	27,65
712,5	13,31
712,686	148,48
712,873	25,6
713,059	29,7
713,246	41,98
713,432	121,85
713,619	-44,03
713,805	48,13
713,992	148,48
714,178	58,37
714,365	-9,22
714,551	50,18
714,737	23,55
714,924	-52,22
715,11	76,8
715,297	-13,31
715,483	15,36
715,669	31,74
715,855	39,94
716,042	119,81
716,228	191,49
716,414	451,58
716,6	535,54
716,787	736,24
716,973	990,19
717,159	1448,94
717,345	1493,99
717,531	1768,42
717,718	1876,96
717,904	1942,5
718,09	1809,38
718,276	1821,67
718,462	1752,04
718,648	1506,28
718,834	1297,39
719,02	1276,91
719,206	1088,5
719,392	883,7
719,578	766,96
719,764	744,44
719,95	556,02
720,136	521,21
720,322	310,27
720,508	195,58
720,694	121,85
720,879	44,03
721,065	148,48
721,251	-25,6
721,437	107,52
721,623	132,09
721,809	154,62
721,994	72,7
722,18	1,02
722,366	31,74
722,552	62,46
722,737	52,22
722,923	123,9
723,109	207,87
723,294	375,8
723,48	826,36
723,666	1272,81
723,851	1831,91
724,037	2532,31
724,222	3242,96
724,408	3857,35
724,593	4441,02
724,779	4823,99
724,965	5071,79
725,15	5217,2
725,336	4752,31
725,521	4611
725,706	4187,07
725,892	3607,5
726,077	3111,89
726,263	3097,55
726,448	2726,87
726,634	2227,17
726,819	2130,91
727,004	1885,16
727,19	1416,17
727,375	1156,08
727,56	689,14
727,745	386,04
727,931	361,47
728,116	130,05
728,301	144,38
728,486	175,1
728,672	44,03
728,857	84,99
729,042	27,65
729,227	-50,18
729,412	15,36
729,597	-23,55
729,783	-1,02
729,968	19,46
730,153	39,94
730,338	15,36
730,523	15,36
730,708	-25,6
730,893	17,41
731,078	56,32
731,263	29,7
731,448	-58,37
731,633	7,17
731,818	-17,41
732,003	-41,98
732,187	33,79
732,372	60,42
732,557	72,7
732,742	-78,85
732,927	-54,27
733,112	72,7
733,297	-7,17
733,481	-5,12
733,666	31,74
733,851	-70,65
734,036	37,89
734,22	-72,7
734,405	140,29
734,59	9,22
734,774	39,94
734,959	-9,22
735,144	99,33
735,328	68,61
735,513	-82,94
735,698	31,74
735,882	-17,41
736,067	80,89
736,251	3,07
736,436	-29,7
736,62	3,07
736,805	-46,08
736,989	23,55
737,174	-1,02
737,358	-17,41
737,543	89,09
737,727	23,55
737,911	101,37
738,096	-62,46
738,28	35,84
738,465	-48,13
738,649	89,09
738,833	7,17
739,018	80,89
739,202	35,84
739,386	-121,85
739,57	7,17
739,755	33,79
739,939	-29,7
740,123	-9,22
740,307	52,22
740,491	-27,65
740,676	-13,31
740,86	46,08
741,044	-1,02
741,228	9,22
741,412	-82,94
741,596	-41,98
741,78	-1,02
741,964	68,61
742,148	-23,55
742,332	93,18
742,516	-7,17
742,7	205,82
742,884	203,77
743,068	326,65
743,252	431,1
743,436	652,28
743,62	672,76
743,804	1115,12
743,988	1039,34
744,172	1192,94
744,356	1252,33
744,539	1170,41
744,723	1156,08
744,907	1051,63
745,091	1014,77
745,275	898,03
745,458	834,55
745,642	599,03
745,826	723,96
746,009	625,65
746,193	427
746,377	402,43
746,56	429,05
746,744	433,15
746,928	277,5
747,111	234,49
747,295	171,01
747,478	173,05
747,662	113,66
747,846	220,16
748,029	232,44
748,213	203,77
748,396	320,51
748,58	367,61
748,763	386,04
748,946	238,59
749,13	482,3
749,313	457,72
749,497	457,72
749,68	424,95
749,863	472,06
750,047	347,13
750,23	252,92
750,413	334,84
750,597	257,02
750,78	142,33
750,963	281,6
751,146	164,86
751,33	181,25
751,513	99,33
751,696	115,71
751,879	101,37
752,062	68,61
752,246	115,71
752,429	121,85
752,612	123,9
752,795	164,86
752,978	195,58
753,161	205,82
753,344	236,54
753,527	381,95
753,71	334,84
753,893	480,25
754,076	517,11
754,259	504,82
754,442	449,53
754,625	420,86
754,808	465,91
754,991	361,47
755,174	334,84
755,357	271,36
755,539	191,49
755,722	336,89
755,905	203,77
756,088	109,57
756,271	162,81
756,453	271,36
756,636	150,53
756,819	222,2
757,002	15,36
757,184	115,71
757,367	78,85
757,55	31,74
757,732	123,9
757,915	-39,94
758,098	-9,22
758,28	64,51
758,463	-15,36
758,645	50,18
758,828	64,51
759,011	66,56
759,193	68,61
759,376	56,32
759,558	-68,61
759,741	41,98
759,923	-44,03
760,105	68,61
760,288	17,41
760,47	-58,37
760,653	-130,05
760,835	-7,17
761,017	-97,28
761,2	-64,51
761,382	39,94
761,564	58,37
761,747	148,48
761,929	-9,22
762,111	-9,22
762,294	25,6
762,476	148,48
762,658	84,99
762,84	95,23
763,022	46,08
763,205	-13,31
763,387	70,65
763,569	15,36
763,751	-107,52
763,933	7,17
764,115	-7,17
764,297	35,84
764,479	48,13
764,661	-50,18
764,843	89,09
765,025	82,94
765,207	44,03
765,389	-9,22
765,571	-25,6
765,753	56,32
765,935	-66,56
766,117	39,94
766,299	68,61
766,481	125,95
766,663	50,18
766,845	-66,56
767,026	3,07
767,208	72,7
767,39	66,56
767,572	7,17
767,753	101,37
767,935	11,26
768,117	33,79
768,299	156,67
768,48	-13,31
768,662	15,36
768,844	-17,41
769,025	146,43
769,207	-54,27
769,389	-72,7
769,57	1,02
769,752	56,32
769,933	-50,18
770,115	107,52
770,296	-25,6
770,478	89,09
770,659	-11,26
770,841	238,59
771,022	39,94
771,204	48,13
771,385	91,13
771,567	130,05
771,748	56,32
771,929	-23,55
772,111	-7,17
772,292	74,75
772,473	33,79
772,655	105,47
772,836	-21,5
773,017	62,46
773,199	89,09
773,38	11,26
773,561	60,42
773,742	52,22
773,923	64,51
774,105	76,8
774,286	74,75
774,467	-37,89
774,648	-1,02
774,829	-17,41
775,01	-56,32
775,191	-1,02
775,372	-5,12
775,553	-11,26
775,734	13,31
775,915	46,08
776,096	-33,79
776,277	68,61
776,458	-17,41
776,639	5,12
776,82	97,28
777,001	56,32
777,182	-1,02
777,363	9,22
777,544	-9,22
777,725	103,42
777,906	76,8
778,086	44,03
778,267	56,32
778,448	52,22
778,629	17,41
778,809	-9,22
778,99	-66,56
779,171	-31,74
779,352	17,41
779,532	-64,51
779,713	-64,51
779,894	31,74
780,074	175,1
780,255	33,79
780,435	89,09
780,616	101,37
780,797	82,94
780,977	46,08
781,158	33,79
781,338	9,22
781,519	-1,02
781,699	121,85
781,88	7,17
782,06	140,29
782,241	-41,98
782,421	-19,46
782,601	89,09
782,782	72,7
782,962	66,56
783,142	-15,36
783,323	1,02
783,503	80,89
783,683	48,13
783,864	44,03
784,044	56,32
784,224	64,51
784,404	64,51
784,585	25,6
784,765	97,28
784,945	156,67
785,125	-9,22
785,305	23,55
785,485	136,19
785,666	7,17
785,846	35,84
786,026	-31,74
786,206	-29,7
786,386	11,26
786,566	-9,22
786,746	-58,37
786,926	-17,41
787,106	-80,89
787,286	-39,94
787,466	48,13
787,646	31,74
787,826	1,02
788,006	5,12
788,185	-25,6
788,365	-39,94
788,545	105,47
788,725	58,37
788,905	56,32
789,085	48,13
789,264	-99,33
789,444	56,32
789,624	78,85
789,804	-17,41
789,983	54,27
790,163	13,31
790,343	74,75
790,522	-29,7
790,702	80,89
790,882	33,79
791,061	89,09
791,241	31,74
791,42	-15,36
791,6	91,13
791,78	19,46
791,959	15,36
792,139	19,46
792,318	-33,79
792,498	101,37
792,677	17,41
792,856	-13,31
793,036	37,89
793,215	-39,94
793,395	37,89
793,574	84,99
793,753	84,99
793,933	27,65
794,112	66,56
794,291	29,7
794,471	154,62
794,65	68,61
794,829	39,94
795,008	29,7
795,188	41,98
795,367	89,09
795,546	-13,31
795,725	103,42
795,904	7,17
796,084	84,99
796,263	52,22
796,442	97,28
796,621	35,84
796,8	82,94
796,979	70,65
797,158	-31,74
797,337	31,74
797,516	134,14
797,695	35,84
797,874	-27,65
798,053	68,61
798,232	33,79
798,411	-33,79
798,59	-25,6
798,769	23,55
798,947	39,94
799,126	50,18
799,305	-66,56
799,484	27,65
799,663	-35,84
799,842	52,22
800,02	25,6
800,199	-13,31
800,378	62,46
800,557	25,6
800,735	-46,08
800,914	-70,65
801,093	-17,41
801,271	-17,41
801,45	-41,98
801,628	130,05
801,807	76,8
801,986	35,84
802,164	60,42
802,343	-9,22
802,521	-21,5
802,7	-1,02
802,878	66,56
803,057	52,22
803,235	-50,18
803,414	39,94
803,592	35,84
803,771	-7,17
803,949	19,46
804,127	-33,79
804,306	130,05
804,484	-62,46
804,662	48,13
804,841	-115,71
805,019	138,24
805,197	113,66
805,375	60,42
805,554	1,02
805,732	-9,22
805,91	39,94
806,088	89,09
806,266	-46,08
806,445	17,41
806,623	-9,22
806,801	3,07
806,979	91,13
807,157	56,32
807,335	-41,98
807,513	23,55
807,691	74,75
807,869	-50,18
808,047	80,89
808,225	-58,37
808,403	48,13
808,581	31,74
808,759	142,33
808,937	15,36
809,115	91,13
809,293	68,61
809,471	56,32
809,649	-31,74
809,826	-39,94
810,004	29,7
810,182	-58,37
810,36	56,32
810,538	48,13
810,715	1,02
810,893	-41,98
811,071	66,56
811,248	80,89
811,426	13,31
811,604	68,61
811,781	54,27
811,959	46,08
812,137	-17,41
812,314	1,02
812,492	46,08
812,669	107,52
812,847	31,74
813,024	39,94
813,202	166,91
813,379	89,09
813,557	154,62
813,734	199,68
813,912	78,85
814,089	103,42
814,267	183,29
814,444	80,89
814,621	33,79
814,799	17,41
814,976	152,57
815,153	107,52
815,331	97,28
815,508	64,51
815,685	-64,51
815,862	9,22
816,04	-35,84
816,217	-74,75
816,394	107,52
816,571	39,94
816,748	254,97
816,926	41,98
817,103	228,35
817,28	9,22
817,457	-31,74
817,634	105,47
817,811	-46,08
817,988	1,02
818,165	-1,02
818,342	60,42
818,519	52,22
818,696	-56,32
818,873	-1,02
819,05	56,32
819,227	-23,55
819,404	31,74
819,581	33,79
819,758	25,6
819,934	44,03
820,111	-89,09
820,288	48,13
820,465	130,05
820,642	39,94
820,818	46,08
820,995	33,79
821,172	25,6
821,349	97,28
821,525	48,13
821,702	31,74
821,879	-27,65
822,055	48,13
822,232	13,31
822,409	5,12
822,585	74,75
822,762	80,89
822,938	72,7
823,115	-17,41
823,291	3,07
823,468	89,09
823,644	-17,41
823,821	72,7
823,997	-1,02
824,174	50,18
824,35	-58,37
824,527	64,51
824,703	33,79
824,879	50,18
825,056	-23,55
825,232	146,43
825,408	58,37
825,585	11,26
825,761	15,36
825,937	1,02
826,113	72,7
826,29	115,71
826,466	39,94
826,642	478,2
826,818	97,28
826,994	-39,94
827,17	-74,75
827,347	39,94
827,523	-1,02
827,699	154,62
827,875	27,65
828,051	58,37
828,227	15,36
828,403	50,18
828,579	162,81
828,755	68,61
828,931	-9,22
829,107	68,61
829,283	150,53
829,459	39,94
829,635	97,28
829,811	197,63
829,986	101,37
830,162	107,52
830,338	101,37
830,514	91,13
830,69	50,18
830,865	84,99
831,041	107,52
831,217	91,13
831,393	5,12
831,568	-33,79
831,744	97,28
831,92	66,56
832,095	3,07
832,271	25,6
832,447	105,47
832,622	97,28
832,798	27,65
832,973	80,89
833,149	105,47
833,325	89,09
833,5	31,74
833,676	64,51
833,851	66,56
834,027	48,13
834,202	68,61
834,377	84,99
834,553	-9,22
834,728	31,74
834,904	39,94
835,079	-46,08
835,254	-31,74
835,43	1,02
835,605	23,55
835,78	-13,31
835,955	84,99
836,131	62,46
836,306	-33,79
836,481	41,98
836,656	91,13
836,832	187,39
837,007	173,05
837,182	248,83
837,357	302,08
837,532	314,36
837,707	357,37
837,882	414,71
838,057	375,8
838,232	394,23
838,407	310,27
838,582	297,98
838,757	326,65
838,932	310,27
839,107	150,53
839,282	187,39
839,457	275,45
839,632	326,65
839,807	261,12
839,982	277,5
840,157	123,9
840,332	185,34
840,506	154,62
840,681	113,66
840,856	232,44
841,031	89,09
841,205	146,43
841,38	179,2
841,555	257,02
841,73	162,81
841,904	80,89
842,079	158,72
842,254	74,75
842,428	64,51
842,603	-66,56
842,777	-99,33
842,952	97,28
843,126	27,65
843,301	58,37
843,476	29,7
843,65	89,09
843,825	60,42
843,999	56,32
844,173	-31,74
844,348	52,22
844,522	33,79
844,697	74,75
844,871	-1,02
845,045	41,98
845,22	72,7
845,394	105,47
845,568	-25,6
845,743	72,7
845,917	-1,02
846,091	-7,17
846,265	-80,89
846,44	41,98
846,614	9,22
846,788	7,17
846,962	27,65
847,136	72,7
847,31	25,6
847,485	89,09
847,659	9,22
847,833	48,13
848,007	-7,17
848,181	80,89
848,355	3,07
848,529	97,28
848,703	97,28
848,877	56,32
849,051	166,91
849,225	115,71
849,399	146,43
849,573	134,14
849,746	117,76
849,92	240,64
850,094	189,44
850,268	84,99
850,442	252,92
850,616	121,85
850,789	74,75
850,963	138,24
851,137	48,13
851,311	189,44
851,484	117,76
851,658	173,05
851,832	97,28
852,005	72,7
852,179	31,74
852,352	17,41
852,526	-5,12
852,7	58,37
852,873	107,52
853,047	74,75
853,22	56,32
853,394	64,51
853,567	105,47
853,741	-7,17
853,914	19,46
854,088	58,37
854,261	41,98
854,434	-25,6
854,608	-46,08
854,781	-46,08
854,955	7,17
855,128	72,7
855,301	7,17
855,475	91,13
855,648	-5,12
855,821	23,55
855,994	56,32
856,168	-1,02
856,341	52,22
856,514	-80,89
856,687	44,03
856,86	132,09
857,033	60,42
857,207	56,32
857,38	-5,12
857,553	60,42
857,726	89,09
857,899	99,33
858,072	15,36
858,245	64,51
858,418	15,36
858,591	56,32
858,764	15,36
858,937	113,66
859,11	144,38
859,283	68,61
859,455	37,89
859,628	15,36
859,801	119,81
859,974	146,43
860,147	-21,5
860,32	97,28
860,492	130,05
860,665	-1,02
860,838	109,57
861,011	-25,6
861,183	62,46
861,356	173,05
861,529	134,14
861,701	60,42
861,874	50,18
862,047	89,09
862,219	-33,79
862,392	74,75
862,564	48,13
862,737	72,7
862,909	201,72
863,082	-31,74
863,254	150,53
863,427	117,76
863,599	93,18
863,772	33,79
863,944	93,18
864,117	117,76
864,289	64,51
864,461	33,79
864,634	105,47
864,806	58,37
864,978	154,62
865,151	80,89
865,323	302,08
865,495	252,92
865,667	154,62
865,84	287,74
866,012	44,03
866,184	211,96
866,356	101,37
866,528	187,39
866,7	154,62
866,873	89,09
867,045	109,57
867,217	68,61
867,389	115,71
867,561	115,71
867,733	68,61
867,905	115,71
868,077	121,85
868,249	183,29
868,421	113,66
868,593	-7,17
868,765	183,29
868,936	91,13
869,108	89,09
869,28	224,25
869,452	82,94
869,624	-23,55
869,796	128
869,968	58,37
870,139	80,89
870,311	7,17
870,483	134,14
870,654	11,26
870,826	105,47
870,998	-7,17
871,17	-17,41
871,341	68,61
871,513	39,94
871,684	-11,26
871,856	31,74
872,028	-15,36
872,199	-41,98
872,371	-3,07
872,542	-76,8
872,714	7,17
872,885	168,96
873,057	-29,7
873,228	11,26
873,4	39,94
873,571	148,48
873,742	-39,94
873,914	-13,31
874,085	-21,5
874,256	60,42
874,428	-95,23
874,599	-7,17
874,77	123,9
874,942	-33,79
875,113	-46,08
875,284	-31,74
875,455	-25,6
875,626	80,89
875,798	-15,36
875,969	31,74
876,14	17,41
876,311	13,31
876,482	97,28
876,653	-13,31
876,824	39,94
876,995	46,08
877,166	64,51
877,337	27,65
877,508	-33,79
877,679	9,22
877,85	132,09
878,021	87,04
878,192	162,81
878,363	74,75
878,534	91,13
878,705	91,13
878,876	23,55
879,047	218,11
879,217	132,09
879,388	134,14
879,559	95,23
879,73	162,81
879,9	19,46
880,071	150,53
880,242	56,32
880,413	19,46
880,583	146,43
880,754	156,67
880,924	15,36
881,095	19,46
881,266	23,55
881,436	132,09
881,607	195,58
881,777	142,33
881,948	64,51
882,118	82,94
882,289	44,03
882,459	109,57
882,63	31,74
882,8	132,09
882,971	39,94
883,141	35,84
883,311	113,66
883,482	97,28
883,652	-1,02
883,822	-25,6
883,993	-5,12
884,163	-9,22
884,333	25,6
884,504	105,47
884,674	74,75
884,844	7,17
885,014	23,55
885,184	-23,55
885,355	31,74
885,525	-25,6
885,695	25,6
885,865	187,39
886,035	50,18
886,205	-9,22
886,375	148,48
886,545	-9,22
886,715	-17,41
886,885	-31,74
887,055	-41,98
887,225	19,46
887,395	-33,79
887,565	44,03
887,735	33,79
887,905	132,09
888,075	1,02
888,244	144,38
888,414	44,03
888,584	89,09
888,754	113,66
888,924	33,79
889,093	230,4
889,263	39,94
889,433	-17,41
889,603	31,74
889,772	17,41
889,942	115,71
890,111	58,37
890,281	54,27
890,451	89,09
890,62	39,94
890,79	-21,5
890,959	-15,36
891,129	11,26
891,298	54,27
891,468	-31,74
891,637	29,7
891,807	113,66
891,976	56,32
892,146	50,18
892,315	91,13
892,485	142,33
892,654	-70,65
892,823	54,27
892,993	-37,89
893,162	52,22
893,331	13,31
893,501	35,84
893,67	84,99
893,839	23,55
894,008	29,7
894,177	121,85
894,347	15,36
894,516	33,79
894,685	89,09
894,854	17,41
895,023	27,65
895,192	15,36
