Data from neon_USB4F104161__4__11-46-32-063.txt Node

Date: Tue Apr 14 11:46:32 EDT 2026
User: LaboPhy
Spectrometer: USB4F10416
Trigger mode: 4
Integration Time (sec): 1,000000E-1
Scans to average: 1
Electric dark correction enabled: true
Nonlinearity correction enabled: false
Boxcar width: 0
XAxis mode: Wavelengths
Number of Pixels in Spectrum: 3648
>>>>>Begin Spectral Data<<<<<
177,847	-224,59
178,066	-224,59
178,284	-224,59
178,502	-171,35
178,72	-175,44
178,939	68,27
179,157	-9,56
179,375	-27,99
179,593	2,73
179,812	4,78
180,03	35,5
180,248	-21,84
180,466	-42,32
180,685	-19,8
180,903	29,35
181,121	-48,47
181,339	29,35
181,557	45,74
181,775	-34,13
181,994	-54,61
182,212	-11,61
182,43	-54,61
182,648	49,83
182,866	101,03
183,084	2,73
183,302	-17,75
183,52	15,02
183,739	62,12
183,957	64,17
184,175	76,46
184,393	10,92
184,611	-19,8
184,829	68,27
185,047	19,11
185,265	166,57
185,483	2,73
185,701	125,61
185,919	-5,46
186,137	-25,94
186,355	96,94
186,573	-5,46
186,791	76,46
187,009	43,69
187,227	60,07
187,445	10,92
187,663	-11,61
187,881	-87,38
188,098	92,84
188,316	60,07
188,534	62,12
188,752	-40,28
188,97	41,64
189,188	2,73
189,406	121,51
189,624	43,69
189,841	6,83
190,059	-179,54
190,277	17,07
190,495	-44,37
190,713	64,17
190,931	162,47
191,148	27,31
191,366	-13,65
191,584	-36,18
191,802	51,88
192,019	154,28
192,237	35,5
192,455	70,31
192,673	125,61
192,89	-13,65
193,108	10,92
193,326	-9,56
193,543	31,4
193,761	35,5
193,979	29,35
194,196	-21,84
194,414	64,17
194,632	35,5
194,849	-60,76
195,067	-71
195,285	35,5
195,502	19,11
195,72	47,79
195,937	-11,61
196,155	35,5
196,373	29,35
196,59	-25,94
196,808	-5,46
197,025	135,85
197,243	117,42
197,46	-5,46
197,678	94,89
197,895	-13,65
198,113	31,4
198,33	-13,65
198,548	23,21
198,765	-62,8
198,983	4,78
199,2	-58,71
199,418	-13,65
199,635	4,78
199,853	37,55
200,07	92,84
200,288	2,73
200,505	35,5
200,722	141,99
200,94	23,21
201,157	68,27
201,375	-54,61
201,592	-19,8
201,809	45,74
202,027	191,14
202,244	37,55
202,461	-30,04
202,679	62,12
202,896	17,07
203,113	-3,41
203,331	60,07
203,548	-46,42
203,765	103,08
203,982	51,88
204,2	-1,37
204,417	-52,56
204,634	94,89
204,851	31,4
205,069	53,93
205,286	129,7
205,503	74,41
205,72	45,74
205,937	60,07
206,155	-40,28
206,372	133,8
206,589	107,18
206,806	6,83
207,023	51,88
207,24	55,98
207,458	21,16
207,675	-91,48
207,892	2,73
208,109	-79,19
208,326	8,87
208,543	-21,84
208,76	-13,65
208,977	92,84
209,194	72,36
209,411	-13,65
209,628	-13,65
209,845	74,41
210,062	27,31
210,279	-79,19
210,496	19,11
210,713	-101,72
210,93	-71
211,147	141,99
211,364	-42,32
211,581	-60,76
211,798	43,69
212,015	-62,8
212,232	-50,52
212,449	-13,65
212,666	78,51
212,883	62,12
213,1	8,87
213,317	-19,8
213,533	29,35
213,75	27,31
213,967	35,5
214,184	-30,04
214,401	-52,56
214,618	35,5
214,835	4,78
215,051	43,69
215,268	45,74
215,485	-3,41
215,702	37,55
215,919	-42,32
216,135	150,18
216,352	-13,65
216,569	-68,95
216,786	31,4
217,002	39,59
217,219	45,74
217,436	15,02
217,652	53,93
217,869	-5,46
218,086	94,89
218,302	84,65
218,519	86,7
218,736	-13,65
218,952	-77,14
219,169	-38,23
219,386	-11,61
219,602	60,07
219,819	37,55
220,036	-62,8
220,252	53,93
220,469	15,02
220,685	47,79
220,902	103,08
221,118	-5,46
221,335	37,55
221,552	43,69
221,768	68,27
221,985	27,31
222,201	-30,04
222,418	55,98
222,634	-38,23
222,851	29,35
223,067	-3,41
223,284	27,31
223,5	29,35
223,716	-50,52
223,933	35,5
224,149	-17,75
224,366	62,12
224,582	47,79
224,799	39,59
225,015	-36,18
225,231	15,02
225,448	-21,84
225,664	68,27
225,88	-54,61
226,097	55,98
226,313	70,31
226,529	43,69
226,746	27,31
226,962	25,26
227,178	37,55
227,395	-25,94
227,611	-17,75
227,827	-13,65
228,044	74,41
228,26	68,27
228,476	19,11
228,692	144,04
228,909	43,69
229,125	-36,18
229,341	27,31
229,557	-83,28
229,773	-85,33
229,99	27,31
230,206	-52,56
230,422	55,98
230,638	-66,9
230,854	-21,84
231,07	-103,76
231,286	64,17
231,503	39,59
231,719	-130,39
231,935	74,41
232,151	-40,28
232,367	80,55
232,583	8,87
232,799	23,21
233,015	31,4
233,231	35,5
233,447	37,55
233,663	-56,66
233,879	43,69
234,095	-77,14
234,311	76,46
234,527	33,45
234,743	74,41
234,959	23,21
235,175	37,55
235,391	-11,61
235,607	-17,75
235,823	4,78
236,039	-87,38
236,255	-44,37
236,471	-11,61
236,687	23,21
236,903	19,11
237,118	101,03
237,334	-60,76
237,55	-42,32
237,766	-87,38
237,982	29,35
238,198	10,92
238,413	23,21
238,629	-11,61
238,845	78,51
239,061	78,51
239,277	-25,94
239,492	15,02
239,708	-103,76
239,924	27,31
240,14	-5,46
240,355	96,94
240,571	-68,95
240,787	-9,56
241,003	51,88
241,218	-66,9
241,434	72,36
241,65	37,55
241,865	-15,7
242,081	68,27
242,297	-44,37
242,512	19,11
242,728	21,16
242,944	-1,37
243,159	76,46
243,375	43,69
243,59	-46,42
243,806	35,5
244,022	80,55
244,237	-11,61
244,453	41,64
244,668	41,64
244,884	86,7
245,099	-71
245,315	121,51
245,53	103,08
245,746	51,88
245,961	31,4
246,177	66,22
246,392	4,78
246,608	53,93
246,823	51,88
247,039	4,78
247,254	-21,84
247,47	86,7
247,685	-21,84
247,9	4,78
248,116	35,5
248,331	-42,32
248,547	103,08
248,762	-58,71
248,977	-1,37
249,193	43,69
249,408	33,45
249,623	51,88
249,839	19,11
250,054	-23,89
250,269	84,65
250,485	76,46
250,7	68,27
250,915	2,73
251,13	8,87
251,346	12,97
251,561	58,03
251,776	45,74
251,991	-103,76
252,207	101,03
252,422	-52,56
252,637	-27,99
252,852	8,87
253,067	60,07
253,283	-5,46
253,498	101,03
253,713	92,84
253,928	21,16
254,143	-44,37
254,358	84,65
254,573	-83,28
254,788	-111,96
255,004	-1,37
255,219	-66,9
255,434	-11,61
255,649	21,16
255,864	43,69
256,079	-34,13
256,294	-11,61
256,509	-19,8
256,724	62,12
256,939	-5,46
257,154	84,65
257,369	-13,65
257,584	92,84
257,799	-23,89
258,014	6,83
258,229	37,55
258,444	-27,99
258,659	60,07
258,874	72,36
259,089	62,12
259,304	27,31
259,518	-46,42
259,733	8,87
259,948	51,88
260,163	4,78
260,378	84,65
260,593	31,4
260,808	47,79
261,022	-62,8
261,237	51,88
261,452	10,92
261,667	35,5
261,882	76,46
262,096	60,07
262,311	62,12
262,526	-68,95
262,741	-17,75
262,955	-93,52
263,17	-42,32
263,385	-54,61
263,6	0,68
263,814	-79,19
264,029	-17,75
264,244	101,03
264,458	35,5
264,673	88,75
264,888	19,11
265,102	23,21
265,317	12,97
265,532	-27,99
265,746	37,55
265,961	62,12
266,175	-36,18
266,39	27,31
266,605	-54,61
266,819	43,69
267,034	17,07
267,248	-46,42
267,463	55,98
267,677	51,88
267,892	27,31
268,106	-66,9
268,321	10,92
268,535	60,07
268,75	27,31
268,964	-13,65
269,179	43,69
269,393	23,21
269,608	4,78
269,822	-7,51
270,036	-58,71
270,251	10,92
270,465	43,69
270,68	-27,99
270,894	92,84
271,108	72,36
271,323	2,73
271,537	29,35
271,752	84,65
271,966	117,42
272,18	-44,37
272,394	-38,23
272,609	76,46
272,823	19,11
273,037	-9,56
273,252	8,87
273,466	62,12
273,68	39,59
273,894	31,4
274,109	43,69
274,323	-42,32
274,537	64,17
274,751	-38,23
274,966	41,64
275,18	-32,08
275,394	10,92
275,608	-52,56
275,822	-79,19
276,036	21,16
276,25	60,07
276,465	37,55
276,679	51,88
276,893	-54,61
277,107	60,07
277,321	37,55
277,535	101,03
277,749	51,88
277,963	35,5
278,177	21,16
278,391	62,12
278,605	-13,65
278,819	109,23
279,033	-95,57
279,247	-11,61
279,461	76,46
279,675	144,04
279,889	10,92
280,103	53,93
280,317	21,16
280,531	-25,94
280,745	8,87
280,959	-54,61
281,173	72,36
281,387	-27,99
281,601	113,32
281,815	12,97
282,029	-54,61
282,242	-27,99
282,456	-62,8
282,67	31,4
282,884	4,78
283,098	-13,65
283,312	-46,42
283,525	27,31
283,739	-30,04
283,953	-21,84
284,167	-5,46
284,381	-17,75
284,594	4,78
284,808	-77,14
285,022	-5,46
285,235	78,51
285,449	-13,65
285,663	-62,8
285,877	-40,28
286,09	-13,65
286,304	123,56
286,518	-50,52
286,731	-38,23
286,945	109,23
287,159	-62,8
287,372	10,92
287,586	15,02
287,799	-9,56
288,013	-21,84
288,227	-32,08
288,44	283,3
288,654	-5,46
288,867	27,31
289,081	27,31
289,294	88,75
289,508	27,31
289,721	10,92
289,935	29,35
290,148	17,07
290,362	10,92
290,575	86,7
290,789	43,69
291,002	27,31
291,216	27,31
291,429	35,5
291,643	-3,41
291,856	-21,84
292,069	23,21
292,283	-120,15
292,496	-54,61
292,71	35,5
292,923	-9,56
293,136	19,11
293,35	58,03
293,563	6,83
293,776	35,5
293,99	-27,99
294,203	-44,37
294,416	68,27
294,63	15,02
294,843	-27,99
295,056	-19,8
295,269	35,5
295,483	-111,96
295,696	2,73
295,909	4,78
296,122	80,55
296,335	-9,56
296,549	37,55
296,762	-71
296,975	-9,56
297,188	51,88
297,401	-5,46
297,615	60,07
297,828	19,11
298,041	60,07
298,254	-103,76
298,467	19,11
298,68	-7,51
298,893	-71
299,106	-62,8
299,319	15,02
299,532	43,69
299,745	-36,18
299,958	-30,04
300,171	-25,94
300,384	27,31
300,598	-34,13
300,81	76,46
301,023	-21,84
301,236	-34,13
301,449	45,74
301,662	41,64
301,875	-36,18
302,088	-7,51
302,301	19,11
302,514	-64,85
302,727	53,93
302,94	23,21
303,153	43,69
303,366	37,55
303,579	-62,8
303,791	55,98
304,004	-52,56
304,217	72,36
304,43	6,83
304,643	33,45
304,855	-50,52
305,068	68,27
305,281	19,11
305,494	94,89
305,707	-34,13
305,919	119,46
306,132	31,4
306,345	21,16
306,558	-56,66
306,77	-27,99
306,983	-46,42
307,196	-13,65
307,408	-30,04
307,621	17,07
307,834	-58,71
308,046	-3,41
308,259	-54,61
308,472	51,88
308,684	68,27
308,897	-21,84
309,109	-13,65
309,322	-3,41
309,535	35,5
309,747	158,38
309,96	2,73
310,172	125,61
310,385	158,38
310,597	6,83
310,81	76,46
311,022	-46,42
311,235	-19,8
311,447	31,4
311,66	10,92
311,872	-58,71
312,085	17,07
312,297	-17,75
312,51	6,83
312,722	21,16
312,934	60,07
313,147	-46,42
313,359	-36,18
313,572	-13,65
313,784	10,92
313,996	15,02
314,209	72,36
314,421	-44,37
314,633	35,5
314,846	-66,9
315,058	84,65
315,27	-17,75
315,483	-42,32
315,695	43,69
315,907	4,78
316,119	15,02
316,332	4,78
316,544	27,31
316,756	19,11
316,968	2,73
317,181	29,35
317,393	-11,61
317,605	-19,8
317,817	66,22
318,029	76,46
318,241	-34,13
318,454	-3,41
318,666	68,27
318,878	0,68
319,09	-13,65
319,302	25,26
319,514	8,87
319,726	10,92
319,938	68,27
320,15	51,88
320,362	-54,61
320,574	-3,41
320,786	35,5
320,999	-66,9
321,211	72,36
321,423	-5,46
321,635	-34,13
321,847	6,83
322,058	-19,8
322,27	27,31
322,482	10,92
322,694	23,21
322,906	60,07
323,118	-3,41
323,33	64,17
323,542	-1,37
323,754	35,5
323,966	-89,43
324,178	66,22
324,389	58,03
324,601	60,07
324,813	-13,65
325,025	-34,13
325,237	23,21
325,449	-60,76
325,66	23,21
325,872	6,83
326,084	23,21
326,296	86,7
326,507	2,73
326,719	47,79
326,931	-77,14
327,143	60,07
327,354	105,13
327,566	35,5
327,778	-5,46
327,989	101,03
328,201	-17,75
328,413	-3,41
328,624	127,66
328,836	29,35
329,048	-36,18
329,259	-30,04
329,471	39,59
329,682	37,55
329,894	33,45
330,106	-44,37
330,317	17,07
330,529	43,69
330,74	19,11
330,952	105,13
331,163	-50,52
331,375	-5,46
331,586	-44,37
331,798	-30,04
332,009	-21,84
332,221	21,16
332,432	53,93
332,644	-1,37
332,855	19,11
333,067	-62,8
333,278	-52,56
333,489	39,59
333,701	10,92
333,912	2,73
334,124	-46,42
334,335	-40,28
334,546	10,92
334,758	82,6
334,969	240,3
335,18	60,07
335,392	35,5
335,603	35,5
335,814	117,42
336,025	51,88
336,237	80,55
336,448	-52,56
336,659	92,84
336,87	92,84
337,082	129,7
337,293	-1,37
337,504	60,07
337,715	-3,41
337,926	23,21
338,138	-46,42
338,349	55,98
338,56	43,69
338,771	-3,41
338,982	23,21
339,193	31,4
339,404	27,31
339,616	35,5
339,827	-1,37
340,038	10,92
340,249	51,88
340,46	-21,84
340,671	53,93
340,882	129,7
341,093	111,27
341,304	-32,08
341,515	15,02
341,726	109,23
341,937	6,83
342,148	60,07
342,359	84,65
342,57	10,92
342,781	84,65
342,992	60,07
343,203	-11,61
343,414	90,79
343,624	-1,37
343,835	4,78
344,046	51,88
344,257	94,89
344,468	-17,75
344,679	84,65
344,89	150,18
345,1	92,84
345,311	131,75
345,522	275,11
345,733	191,14
345,944	182,95
346,154	209,58
346,365	246,44
346,576	129,7
346,787	117,42
346,997	230,06
347,208	238,25
347,419	72,36
347,629	207,53
347,84	199,34
348,051	101,03
348,261	68,27
348,472	27,31
348,683	60,07
348,893	15,02
349,104	19,11
349,315	19,11
349,525	35,5
349,736	113,32
349,946	49,83
350,157	166,57
350,368	146,09
350,578	117,42
350,789	176,81
350,999	133,8
351,21	166,57
351,42	187,05
351,631	201,38
351,841	297,64
352,052	297,64
352,262	412,32
352,472	199,34
352,683	297,64
352,893	271,01
353,104	62,12
353,314	154,28
353,525	430,76
353,735	23,21
353,945	55,98
354,156	-62,8
354,366	101,03
354,576	94,89
354,787	17,07
354,997	-13,65
355,207	-11,61
355,418	17,07
355,628	19,11
355,838	64,17
356,048	-5,46
356,259	53,93
356,469	-25,94
356,679	29,35
356,889	-23,89
357,1	-27,99
357,31	-44,37
357,52	-36,18
357,73	-111,96
357,94	35,5
358,15	35,5
358,361	76,46
358,571	35,5
358,781	117,42
358,991	45,74
359,201	156,33
359,411	78,51
359,621	55,98
359,831	152,23
360,041	137,9
360,251	152,23
360,461	21,16
360,672	29,35
360,882	35,5
361,092	-62,8
361,302	101,03
361,512	19,11
361,721	10,92
361,931	27,31
362,141	115,37
362,351	47,79
362,561	64,17
362,771	10,92
362,981	68,27
363,191	84,65
363,401	94,89
363,611	51,88
363,821	-56,66
364,03	-36,18
364,24	78,51
364,45	51,88
364,66	305,83
364,87	-7,51
365,08	92,84
365,289	-25,94
365,499	6,83
365,709	27,31
365,919	78,51
366,128	-46,42
366,338	27,31
366,548	-23,89
366,758	58,03
366,967	55,98
367,177	53,93
367,387	31,4
367,596	21,16
367,806	51,88
368,016	-3,41
368,225	119,46
368,435	158,38
368,644	-11,61
368,854	-50,52
369,064	78,51
369,273	12,97
369,483	39,59
369,692	-21,84
369,902	31,4
370,111	27,31
370,321	10,92
370,53	-60,76
370,74	-36,18
370,949	51,88
371,159	21,16
371,368	53,93
371,578	-17,75
371,787	51,88
371,997	29,35
372,206	133,8
372,416	-5,46
372,625	-5,46
372,834	-30,04
373,044	-19,8
373,253	51,88
373,462	10,92
373,672	-44,37
373,881	-9,56
374,09	19,11
374,3	27,31
374,509	-13,65
374,718	-21,84
374,928	92,84
375,137	-38,23
375,346	-23,89
375,555	88,75
375,765	10,92
375,974	-52,56
376,183	68,27
376,392	19,11
376,601	4,78
376,811	29,35
377,02	141,99
377,229	76,46
377,438	43,69
377,647	-30,04
377,856	-11,61
378,065	-5,46
378,275	21,16
378,484	-13,65
378,693	-25,94
378,902	-30,04
379,111	2,73
379,32	0,68
379,529	0,68
379,738	0,68
379,947	-79,19
380,156	6,83
380,365	45,74
380,574	94,89
380,783	-58,71
380,992	-17,75
381,201	6,83
381,41	-52,56
381,619	-11,61
381,828	4,78
382,037	39,59
382,245	76,46
382,454	23,21
382,663	-19,8
382,872	-44,37
383,081	-19,8
383,29	117,42
383,499	2,73
383,707	64,17
383,916	15,02
384,125	45,74
384,334	-5,46
384,542	27,31
384,751	-7,51
384,96	-15,7
385,169	-66,9
385,377	2,73
385,586	-71
385,795	43,69
386,004	37,55
386,212	-34,13
386,421	53,93
386,63	43,69
386,838	-19,8
387,047	72,36
387,255	-75,09
387,464	70,31
387,673	37,55
387,881	68,27
388,09	141,99
388,298	68,27
388,507	10,92
388,715	76,46
388,924	92,84
389,133	10,92
389,341	-62,8
389,55	27,31
389,758	8,87
389,967	12,97
390,175	-50,52
390,383	31,4
390,592	41,64
390,8	-30,04
391,009	78,51
391,217	23,21
391,426	70,31
391,634	-13,65
391,842	-71
392,051	-64,85
392,259	-17,75
392,467	-46,42
392,676	-46,42
392,884	10,92
393,092	-42,32
393,301	58,03
393,509	-30,04
393,717	31,4
393,925	109,23
394,134	-13,65
394,342	39,59
394,55	90,79
394,758	4,78
394,967	-30,04
395,175	-15,7
395,383	12,97
395,591	-3,41
395,799	47,79
396,007	4,78
396,216	92,84
396,424	115,37
396,632	19,11
396,84	-54,61
397,048	-46,42
397,256	-5,46
397,464	23,21
397,672	23,21
397,88	-30,04
398,088	-27,99
398,296	-11,61
398,504	10,92
398,712	-19,8
398,92	-19,8
399,128	-30,04
399,336	-38,23
399,544	-5,46
399,752	-46,42
399,96	62,12
400,168	76,46
400,376	-54,61
400,584	53,93
400,792	-5,46
401	-46,42
401,207	-17,75
401,415	68,27
401,623	68,27
401,831	35,5
402,039	88,75
402,247	-79,19
402,454	84,65
402,662	64,17
402,87	-32,08
403,078	80,55
403,285	78,51
403,493	10,92
403,701	-36,18
403,909	0,68
404,116	84,65
404,324	-5,46
404,532	12,97
404,739	2,73
404,947	37,55
405,155	86,7
405,362	25,26
405,57	101,03
405,778	-71
405,985	6,83
406,193	-23,89
406,4	-116,05
406,608	29,35
406,816	27,31
407,023	101,03
407,231	-36,18
407,438	27,31
407,646	51,88
407,853	-11,61
408,061	10,92
408,268	35,5
408,476	19,11
408,683	72,36
408,89	62,12
409,098	84,65
409,305	37,55
409,513	51,88
409,72	-30,04
409,927	-48,47
410,135	10,92
410,342	-27,99
410,55	182,95
410,757	27,31
410,964	-107,86
411,172	68,27
411,379	43,69
411,586	10,92
411,793	-58,71
412,001	-5,46
412,208	-3,41
412,415	37,55
412,622	92,84
412,83	-17,75
413,037	103,08
413,244	12,97
413,451	35,5
413,658	78,51
413,866	74,41
414,073	43,69
414,28	72,36
414,487	-36,18
414,694	35,5
414,901	19,11
415,108	-17,75
415,315	8,87
415,522	101,03
415,73	-30,04
415,937	-46,42
416,144	-7,51
416,351	-75,09
416,558	-36,18
416,765	27,31
416,972	21,16
417,179	-11,61
417,386	-13,65
417,593	-5,46
417,8	-46,42
418,006	31,4
418,213	90,79
418,42	12,97
418,627	123,56
418,834	-40,28
419,041	-19,8
419,248	-5,46
419,455	78,51
419,661	101,03
419,868	-5,46
420,075	-15,7
420,282	-19,8
420,489	-19,8
420,696	105,13
420,902	4,78
421,109	68,27
421,316	-38,23
421,523	15,02
421,729	-13,65
421,936	84,65
422,143	33,45
422,349	-30,04
422,556	-91,48
422,763	25,26
422,969	37,55
423,176	-40,28
423,383	72,36
423,589	178,86
423,796	68,27
424,002	-15,7
424,209	144,04
424,416	68,27
424,622	-13,65
424,829	10,92
425,035	29,35
425,242	-11,61
425,448	-56,66
425,655	60,07
425,861	-19,8
426,068	68,27
426,274	166,57
426,481	-17,75
426,687	31,4
426,894	43,69
427,1	-36,18
427,306	-62,8
427,513	21,16
427,719	47,79
427,926	51,88
428,132	6,83
428,338	-30,04
428,545	47,79
428,751	4,78
428,957	51,88
429,163	-42,32
429,37	25,26
429,576	27,31
429,782	96,94
429,989	-5,46
430,195	-48,47
430,401	58,03
430,607	29,35
430,813	-40,28
431,02	45,74
431,226	117,42
431,432	-44,37
431,638	8,87
431,844	-71
432,05	-27,99
432,257	-5,46
432,463	31,4
432,669	62,12
432,875	-71
433,081	-25,94
433,287	-3,41
433,493	-52,56
433,699	84,65
433,905	51,88
434,111	-85,33
434,317	10,92
434,523	133,8
434,729	4,78
434,935	-46,42
435,141	58,03
435,347	6,83
435,553	-30,04
435,759	-3,41
435,965	76,46
436,171	10,92
436,377	27,31
436,582	68,27
436,788	-50,52
436,994	101,03
437,2	-54,61
437,406	-27,99
437,612	103,08
437,818	-3,41
438,023	-120,15
438,229	115,37
438,435	84,65
438,641	31,4
438,846	-21,84
439,052	10,92
439,258	105,13
439,464	-13,65
439,669	43,69
439,875	76,46
440,081	35,5
440,286	6,83
440,492	-30,04
440,698	2,73
440,903	-46,42
441,109	60,07
441,314	19,11
441,52	-109,91
441,726	76,46
441,931	-38,23
442,137	23,21
442,342	2,73
442,548	78,51
442,753	125,61
442,959	-95,57
443,164	45,74
443,37	33,45
443,575	-25,94
443,781	-66,9
443,986	109,23
444,192	-46,42
444,397	-21,84
444,602	-46,42
444,808	29,35
445,013	-101,72
445,219	-109,91
445,424	70,31
445,629	-25,94
445,835	72,36
446,04	51,88
446,245	2,73
446,451	-9,56
446,656	-21,84
446,861	35,5
447,066	111,27
447,272	60,07
447,477	72,36
447,682	-7,51
447,887	-3,41
448,093	12,97
448,298	105,13
448,503	-11,61
448,708	-58,71
448,913	2,73
449,118	15,02
449,324	113,32
449,529	37,55
449,734	-9,56
449,939	-148,82
450,144	123,56
450,349	72,36
450,554	-62,8
450,759	72,36
450,964	35,5
451,169	68,27
451,374	-7,51
451,579	64,17
451,784	23,21
451,989	27,31
452,194	39,59
452,399	47,79
452,604	-15,7
452,809	-13,65
453,014	-120,15
453,219	19,11
453,424	60,07
453,629	-118,1
453,833	-19,8
454,038	0,68
454,243	51,88
454,448	66,22
454,653	158,38
454,858	17,07
455,062	-44,37
455,267	19,11
455,472	105,13
455,677	-87,38
455,882	2,73
456,086	94,89
456,291	62,12
456,496	-46,42
456,7	78,51
456,905	55,98
457,11	53,93
457,314	2,73
457,519	-71
457,724	37,55
457,928	29,35
458,133	12,97
458,338	-34,13
458,542	37,55
458,747	39,59
458,951	-21,84
459,156	43,69
459,36	-62,8
459,565	84,65
459,769	-11,61
459,974	37,55
460,178	-38,23
460,383	-3,41
460,587	21,16
460,792	62,12
460,996	-25,94
461,201	-5,46
461,405	-50,52
461,61	12,97
461,814	45,74
462,018	-38,23
462,223	15,02
462,427	-62,8
462,631	-54,61
462,836	76,46
463,04	51,88
463,244	33,45
463,449	2,73
463,653	105,13
463,857	-3,41
464,062	58,03
464,266	23,21
464,47	10,92
464,674	-5,46
464,878	55,98
465,083	-46,42
465,287	121,51
465,491	25,26
465,695	62,12
465,899	-3,41
466,104	125,61
466,308	6,83
466,512	45,74
466,716	82,6
466,92	80,55
467,124	92,84
467,328	68,27
467,532	72,36
467,736	37,55
467,94	53,93
468,144	-54,61
468,348	78,51
468,552	45,74
468,756	27,31
468,96	27,31
469,164	10,92
469,368	-48,47
469,572	27,31
469,776	96,94
469,98	60,07
470,184	62,12
470,388	133,8
470,591	35,5
470,795	68,27
470,999	103,08
471,203	144,04
471,407	146,09
471,611	119,46
471,814	92,84
472,018	-13,65
472,222	88,75
472,426	107,18
472,63	-38,23
472,833	45,74
473,037	19,11
473,241	60,07
473,444	37,55
473,648	438,95
473,852	-79,19
474,055	51,88
474,259	-60,76
474,463	2,73
474,666	70,31
474,87	8,87
475,074	10,92
475,277	92,84
475,481	103,08
475,684	-87,38
475,888	-11,61
476,091	31,4
476,295	-9,56
476,498	-75,09
476,702	72,36
476,905	51,88
477,109	141,99
477,312	-19,8
477,516	-116,05
477,719	55,98
477,923	-5,46
478,126	10,92
478,329	10,92
478,533	-30,04
478,736	45,74
478,94	-5,46
479,143	62,12
479,346	-36,18
479,55	64,17
479,753	12,97
479,956	-60,76
480,159	-1,37
480,363	45,74
480,566	19,11
480,769	27,31
480,972	35,5
481,176	-5,46
481,379	109,23
481,582	119,46
481,785	-52,56
481,988	15,02
482,192	146,09
482,395	39,59
482,598	-13,65
482,801	88,75
483,004	76,46
483,207	-54,61
483,41	35,5
483,613	107,18
483,817	76,46
484,02	-27,99
484,223	-46,42
484,426	23,21
484,629	-23,89
484,832	113,32
485,035	4,78
485,238	86,7
485,441	-5,46
485,644	-19,8
485,846	2,73
486,049	-27,99
486,252	-23,89
486,455	-11,61
486,658	-5,46
486,861	68,27
487,064	70,31
487,267	19,11
487,47	170,66
487,672	68,27
487,875	-5,46
488,078	4,78
488,281	62,12
488,484	6,83
488,686	39,59
488,889	-7,51
489,092	72,36
489,295	21,16
489,497	176,81
489,7	60,07
489,903	31,4
490,105	10,92
490,308	-5,46
490,511	-46,42
490,713	62,12
490,916	55,98
491,118	-32,08
491,321	80,55
491,524	-62,8
491,726	21,16
491,929	-44,37
492,131	27,31
492,334	-13,65
492,536	-66,9
492,739	-13,65
492,941	-7,51
493,144	-21,84
493,346	84,65
493,549	10,92
493,751	47,79
493,954	-56,66
494,156	27,31
494,359	45,74
494,561	-60,76
494,763	19,11
494,966	103,08
495,168	174,76
495,37	6,83
495,573	25,26
495,775	58,03
495,977	31,4
496,18	-62,8
496,382	141,99
496,584	12,97
496,787	101,03
496,989	15,02
497,191	-56,66
497,393	101,03
497,595	-19,8
497,798	0,68
498	23,21
498,202	45,74
498,404	-21,84
498,606	12,97
498,808	60,07
499,011	45,74
499,213	148,14
499,415	-13,65
499,617	66,22
499,819	21,16
500,021	133,8
500,223	-79,19
500,425	-13,65
500,627	2,73
500,829	15,02
501,031	70,31
501,233	-9,56
501,435	37,55
501,637	133,8
501,839	53,93
502,041	-15,7
502,243	62,12
502,445	43,69
502,647	84,65
502,848	94,89
503,05	37,55
503,252	174,76
503,454	174,76
503,656	127,66
503,858	223,91
504,059	258,73
504,261	273,06
504,463	400,04
504,665	209,58
504,867	166,57
505,068	115,37
505,27	217,77
505,472	193,19
505,673	133,8
505,875	60,07
506,077	-42,32
506,278	80,55
506,48	68,27
506,682	88,75
506,883	76,46
507,085	96,94
507,287	51,88
507,488	82,6
507,69	166,57
507,891	96,94
508,093	273,06
508,294	158,38
508,496	139,94
508,697	78,51
508,899	150,18
509,1	152,23
509,302	107,18
509,503	43,69
509,705	101,03
509,906	12,97
510,108	-13,65
510,309	19,11
510,51	101,03
510,712	74,41
510,913	53,93
511,114	176,81
511,316	72,36
511,517	211,62
511,718	156,33
511,92	182,95
512,121	219,82
512,322	248,49
512,524	275,11
512,725	225,96
512,926	240,3
513,127	82,6
513,329	199,34
513,53	76,46
513,731	80,55
513,932	58,03
514,133	78,51
514,334	21,16
514,536	144,04
514,737	137,9
514,938	115,37
515,139	125,61
515,34	84,65
515,541	209,58
515,742	80,55
515,943	185
516,144	146,09
516,345	150,18
516,546	96,94
516,747	105,13
516,948	94,89
517,149	19,11
517,35	-38,23
517,551	-140,63
517,752	21,16
517,953	68,27
518,154	-13,65
518,355	111,27
518,556	129,7
518,756	101,03
518,957	203,43
519,158	332,45
519,359	240,3
519,56	141,99
519,761	225,96
519,961	158,38
520,162	221,86
520,363	166,57
520,564	133,8
520,764	264,87
520,965	170,66
521,166	166,57
521,366	207,53
521,567	217,77
521,768	150,18
521,968	98,99
522,169	152,23
522,37	80,55
522,57	94,89
522,771	82,6
522,972	-11,61
523,172	197,29
523,373	137,9
523,573	47,79
523,774	27,31
523,974	33,45
524,175	53,93
524,375	6,83
524,576	15,02
524,776	12,97
524,977	45,74
525,177	35,5
525,378	-36,18
525,578	47,79
525,778	70,31
525,979	35,5
526,179	-9,56
526,38	10,92
526,58	-30,04
526,78	-46,42
526,981	76,46
527,181	70,31
527,381	37,55
527,582	133,8
527,782	78,51
527,982	53,93
528,182	19,11
528,383	70,31
528,583	60,07
528,783	146,09
528,983	43,69
529,183	10,92
529,384	27,31
529,584	160,42
529,784	164,52
529,984	113,32
530,184	23,21
530,384	27,31
530,584	6,83
530,784	94,89
530,984	111,27
531,185	80,55
531,385	125,61
531,585	146,09
531,785	86,7
531,985	12,97
532,185	107,18
532,385	178,86
532,585	248,49
532,785	332,45
532,984	281,25
533,184	432,8
533,384	481,96
533,584	465,57
533,784	537,25
533,984	610,98
534,184	529,06
534,384	594,59
534,583	617,12
534,783	527,01
534,983	627,36
535,183	518,82
535,383	277,16
535,582	359,08
535,782	234,15
535,982	250,53
536,182	182,95
536,381	133,8
536,581	82,6
536,781	96,94
536,98	117,42
537,18	72,36
537,38	84,65
537,579	35,5
537,779	-1,37
537,979	62,12
538,178	23,21
538,378	55,98
538,577	58,03
538,777	53,93
538,976	84,65
539,176	133,8
539,376	217,77
539,575	170,66
539,774	367,27
539,974	371,37
540,173	471,72
540,373	639,65
540,572	602,79
540,772	541,35
540,971	514,72
541,171	567,97
541,37	428,71
541,569	236,2
541,769	197,29
541,968	131,75
542,167	141,99
542,367	76,46
542,566	55,98
542,765	-5,46
542,965	10,92
543,164	19,11
543,363	86,7
543,562	12,97
543,761	68,27
543,961	170,66
544,16	2,73
544,359	123,56
544,558	47,79
544,757	-17,75
544,957	55,98
545,156	35,5
545,355	35,5
545,554	39,59
545,753	-19,8
545,952	15,02
546,151	96,94
546,35	31,4
546,549	6,83
546,748	105,13
546,947	-50,52
547,146	-85,33
547,345	43,69
547,544	-40,28
547,743	-25,94
547,942	2,73
548,141	12,97
548,34	35,5
548,539	29,35
548,738	-64,85
548,937	19,11
549,135	68,27
549,334	-34,13
549,533	35,5
549,732	51,88
549,931	43,69
550,13	19,11
550,328	-30,04
550,527	-87,38
550,726	58,03
550,925	2,73
551,123	70,31
551,322	-21,84
551,521	62,12
551,72	76,46
551,918	51,88
552,117	72,36
552,315	-3,41
552,514	19,11
552,713	-25,94
552,911	-19,8
553,11	27,31
553,309	-44,37
553,507	19,11
553,706	-25,94
553,904	23,21
554,103	37,55
554,301	21,16
554,5	-79,19
554,698	47,79
554,897	-17,75
555,095	55,98
555,294	-36,18
555,492	41,64
555,69	10,92
555,889	35,5
556,087	94,89
556,286	221,86
556,484	105,13
556,682	82,6
556,881	92,84
557,079	-11,61
557,277	176,81
557,476	144,04
557,674	117,42
557,872	113,32
558,07	66,22
558,269	47,79
558,467	92,84
558,665	25,26
558,863	78,51
559,062	62,12
559,26	127,66
559,458	-79,19
559,656	88,75
559,854	62,12
560,052	51,88
560,25	47,79
560,449	228,01
560,647	82,6
560,845	-5,46
561,043	15,02
561,241	58,03
561,439	154,28
561,637	29,35
561,835	-1,37
562,033	80,55
562,231	-3,41
562,429	-19,8
562,627	51,88
562,825	-21,84
563,023	141,99
563,221	10,92
563,418	-34,13
563,616	12,97
563,814	111,27
564,012	62,12
564,21	111,27
564,408	84,65
564,605	27,31
564,803	68,27
565,001	240,3
565,199	43,69
565,397	152,23
565,594	207,53
565,792	285,35
565,99	195,24
566,188	230,06
566,385	199,34
566,583	201,38
566,781	211,62
566,978	162,47
567,176	223,91
567,373	121,51
567,571	84,65
567,769	109,23
567,966	-19,8
568,164	78,51
568,361	19,11
568,559	125,61
568,756	152,23
568,954	125,61
569,151	187,05
569,349	199,34
569,546	193,19
569,744	84,65
569,941	133,8
570,139	80,55
570,336	111,27
570,534	187,05
570,731	51,88
570,928	27,31
571,126	162,47
571,323	101,03
571,52	80,55
571,718	51,88
571,915	127,66
572,112	-9,56
572,31	187,05
572,507	152,23
572,704	41,64
572,901	37,55
573,099	62,12
573,296	168,62
573,493	31,4
573,69	115,37
573,887	-21,84
574,085	199,34
574,282	141,99
574,479	166,57
574,676	236,2
574,873	299,69
575,07	309,93
575,267	309,93
575,464	412,32
575,661	551,59
575,858	445,09
576,055	617,12
576,252	848,54
576,449	897,69
576,646	881,31
576,843	969,37
577,04	922,27
577,237	987,8
577,434	858,78
577,631	678,56
577,828	756,38
578,025	412,32
578,222	371,37
578,419	359,08
578,615	217,77
578,812	141,99
579,009	105,13
579,206	80,55
579,403	94,89
579,599	166,57
579,796	168,62
579,993	289,45
580,19	133,8
580,386	252,58
580,583	338,6
580,78	248,49
580,976	326,31
581,173	389,8
581,37	340,65
581,566	412,32
581,763	449,19
581,96	449,19
582,156	594,59
582,353	653,98
582,549	709,28
582,746	617,12
582,942	514,72
583,139	625,31
583,335	563,87
583,532	1002,14
583,728	1651,35
583,925	2792,06
584,121	4196,97
584,318	6357,58
584,514	8739,37
584,711	11825,65
584,907	15444,41
585,103	19558,78
585,3	22950,22
585,496	26747,15
585,693	29217
585,889	29450,47
586,085	28463,35
586,281	26130,72
586,478	22391,12
586,674	19138,95
586,87	16918,95
587,067	14006,74
587,263	11467,26
587,459	8346,16
587,655	6462,02
587,851	5507,67
588,048	5184,09
588,244	5302,87
588,44	5542,49
588,636	5894,74
588,832	5769,81
589,028	5771,86
589,224	4971,1
589,42	4469,35
589,617	3912,3
589,813	3375,74
590,009	2847,36
590,205	2386,57
590,401	1837,71
590,597	1434,26
590,793	1317,53
590,989	1125,02
591,185	959,13
591,38	875,17
591,576	740
591,772	723,62
591,968	576,16
592,164	602,79
592,36	479,91
592,556	410,28
592,752	559,78
592,948	684,7
593,143	903,84
593,339	1436,31
593,535	1929,87
593,731	2843,26
593,926	3943,02
594,122	4893,28
594,318	5999,18
594,514	7551,54
594,709	8493,61
594,905	9079,33
595,101	9685,53
595,296	9212,45
595,492	8598,06
595,688	7443
595,883	6582,85
596,079	5833,3
596,275	4934,24
596,47	4160,11
596,666	3013,24
596,861	2622,08
597,057	2202,25
597,252	2126,47
597,448	2208,39
597,643	2607,75
597,839	2796,16
598,034	2671,23
598,23	2552,45
598,425	2534,02
598,621	2419,33
598,816	2040,46
599,011	1706,64
599,207	1495,7
599,402	1403,54
599,597	1071,77
599,793	823,97
599,988	617,12
600,183	428,71
600,379	414,37
600,574	371,37
600,769	281,25
600,965	182,95
601,16	193,19
601,355	185
601,55	215,72
601,745	443,04
601,941	625,31
602,136	725,66
602,331	889,5
602,526	1270,42
602,721	1551
602,916	1882,77
603,111	2259,59
603,307	2427,53
603,502	2767,49
603,697	2658,95
603,892	2554,5
604,087	2329,22
604,282	2075,27
604,477	1761,94
604,672	1546,9
604,867	1170,07
605,062	1002,14
605,257	746,14
605,452	602,79
605,646	486,05
605,841	486,05
606,036	797,34
606,231	1208,98
606,426	1784,46
606,621	2353,8
606,816	3172,99
607,01	4393,58
607,205	5427,8
607,4	6363,72
607,595	7926,32
607,79	8456,75
607,984	9132,58
608,179	9462,3
608,374	9345,56
608,569	9531,93
608,763	9304,6
608,958	9638,42
609,153	10531,34
609,347	11348,48
609,542	11856,37
609,736	12675,56
609,931	13103,59
610,126	13044,2
610,32	13091,3
610,515	12143,09
610,709	11022,85
610,904	9744,92
611,098	8245,8
611,293	7000,64
611,487	5913,17
611,682	4477,54
611,876	3447,41
612,071	2241,16
612,265	1641,11
612,46	1190,55
612,654	1258,14
612,848	1741,46
613,043	2534,02
613,237	3846,77
613,432	5143,13
613,626	7025,22
613,82	9556,5
614,014	11991,54
614,209	14574,03
614,403	17050,02
614,597	19368,32
614,792	20453,75
614,986	21154,15
615,18	20187,51
615,374	18735,5
615,568	16947,62
615,763	15428,03
615,957	14039,51
616,151	12765,67
616,345	11756,02
616,539	10394,12
616,733	9177,63
616,927	7678,52
617,121	6885,95
617,316	6287,95
617,51	5438,04
617,704	4534,89
617,898	4082,28
618,092	3496,57
618,286	3037,82
618,48	2282,12
618,674	1839,76
618,868	1354,39
619,061	887,45
619,255	881,31
619,449	619,17
619,643	422,56
619,837	527,01
620,031	477,86
620,225	506,53
620,419	627,36
620,612	993,95
620,806	1190,55
621	1591,95
621,194	2007,69
621,388	2462,34
621,581	2994,81
621,775	3566,2
621,969	4082,28
622,162	4182,63
622,356	4364,9
622,55	4084,33
622,743	3934,83
622,937	3447,41
623,131	3033,72
623,324	2722,43
623,518	2226,82
623,712	1854,09
623,905	1317,53
624,099	1079,96
624,292	658,08
624,486	428,71
624,679	330,41
624,873	291,49
625,066	477,86
625,26	807,58
625,453	1307,29
625,647	1936,01
625,84	2828,93
626,034	3570,29
626,227	4811,36
626,42	5778
626,614	7031,36
626,807	8229,42
627	9169,44
627,194	9122,34
627,387	9521,69
627,58	8890,91
627,774	7809,59
627,967	7244,35
628,16	5943,89
628,353	5528,15
628,547	4790,88
628,74	3775,09
628,933	2890,37
629,126	2128,52
629,319	1809,04
629,513	1645,2
629,706	1872,53
629,899	2189,96
630,092	2550,4
630,285	3089,02
630,478	3676,79
630,671	4022,89
630,864	4651,62
631,057	4631,14
631,25	4721,25
631,443	4387,43
631,636	4074,09
631,829	3871,34
632,022	3938,93
632,215	4379,24
632,408	4964,96
632,601	5833,3
632,794	6597,19
632,987	8071,73
633,18	9640,47
633,373	11188,74
633,566	12962,28
633,758	13928,92
633,951	15133,12
634,144	14725,58
634,337	14223,83
634,53	12931,56
634,722	11700,73
634,915	9630,23
635,108	8882,72
635,301	7672,37
635,493	6289,99
635,686	4991,58
635,879	3254,9
636,071	2054,8
636,264	1571,47
636,457	1063,58
636,649	742,05
636,842	1133,21
637,034	1647,25
637,227	2316,94
637,42	3103,36
637,612	4287,08
637,805	5749,33
637,997	7506,49
638,19	8909,35
638,382	10324,49
638,575	12384,75
638,767	14813,64
638,96	17404,32
639,152	19777,92
639,344	23044,43
639,537	26849,55
639,729	31334,6
639,922	36685,95
640,114	42534,95
640,306	46995,42
640,499	51425,18
640,691	52486,03
640,883	52651,91
641,075	49883,06
641,268	45670,39
641,46	39350,35
641,652	34015,4
641,844	30019,81
642,037	26474,77
642,229	21770,59
642,421	17199,52
642,613	12331,5
642,805	7825,97
642,998	4887,14
643,19	3082,88
643,382	2042,51
643,574	1350,29
643,766	934,56
643,958	740
644,15	682,66
644,342	615,07
644,534	461,48
644,726	357,03
644,918	387,75
645,11	223,91
645,302	332,45
645,494	291,49
645,686	244,39
645,878	174,76
646,07	205,48
646,262	250,53
646,453	125,61
646,645	264,87
646,837	189,1
647,029	185
647,221	168,62
647,413	96,94
647,604	178,86
647,796	203,43
647,988	174,76
648,18	164,52
648,371	68,27
648,563	248,49
648,755	191,14
648,947	215,72
649,138	551,59
649,33	1452,69
649,521	2589,32
649,713	3906,16
649,905	5495,38
650,096	7547,45
650,288	9726,49
650,479	12321,26
650,671	14762,44
650,863	16970,15
651,054	17799,58
651,246	18526,61
651,437	17824,15
651,629	17197,48
651,82	15610,3
652,011	13847
652,203	12401,13
652,394	11530,75
652,586	10615,3
652,777	9210,4
652,968	8133,17
653,16	6869,57
653,351	6001,23
653,542	5790,29
653,734	5343,83
653,925	5147,23
654,116	4733,54
654,308	4442,73
654,499	3885,68
654,69	3289,72
654,881	2779,78
655,073	2503,3
655,264	2398,85
655,455	1847,95
655,646	1346,2
655,837	1053,34
656,028	653,98
656,219	436,9
656,411	305,83
656,602	213,67
656,793	221,86
656,984	193,19
657,175	96,94
657,366	207,53
657,557	215,72
657,748	166,57
657,939	43,69
658,13	76,46
658,321	277,16
658,512	453,28
658,703	981,66
658,894	1340,05
659,084	1850
659,275	2415,24
659,466	3297,91
659,657	4059,76
659,848	4999,77
660,039	5425,75
660,23	6144,59
660,42	6279,75
660,611	6279,75
660,802	6212,17
660,993	5509,72
661,183	5057,12
661,374	4305,51
661,565	3779,19
661,755	3476,09
661,946	2927,23
662,137	2355,85
662,327	1700,5
662,518	1090,2
662,709	694,94
662,899	428,71
663,09	324,26
663,28	221,86
663,471	103,08
663,662	256,68
663,852	121,51
664,043	117,42
664,233	51,88
664,424	146,09
664,614	76,46
664,804	29,35
664,995	191,14
665,185	117,42
665,376	70,31
665,566	215,72
665,756	109,23
665,947	168,62
666,137	176,81
666,328	565,92
666,518	1004,19
666,708	1483,41
666,898	2454,15
667,089	3609,2
667,279	4772,45
667,469	6105,68
667,659	7703,09
667,85	8792,61
668,04	10228,24
668,23	10773
668,42	11184,64
668,61	10916,36
668,8	10402,32
668,991	9433,63
669,181	8227,37
669,371	7219,77
669,561	6523,46
669,751	5753,43
669,941	4942,43
670,131	3768,95
670,321	3166,84
670,511	2577,03
670,701	2267,78
670,891	2413,19
671,081	2921,09
671,271	3379,83
671,461	4280,94
671,651	5302,87
671,841	5943,89
672,03	6445,64
672,22	6777,41
672,41	6589
672,6	6431,3
672,79	5909,07
672,98	5278,3
673,169	4475,49
673,359	4026,99
673,549	3641,97
673,739	3033,72
673,928	2562,69
674,118	2005,64
674,308	1411,73
674,497	871,07
674,687	578,21
674,877	481,96
675,066	338,6
675,256	250,53
675,446	158,38
675,635	150,18
675,825	88,75
676,014	133,8
676,204	150,18
676,393	166,57
676,583	45,74
676,772	92,84
676,962	43,69
677,151	51,88
677,341	29,35
677,53	109,23
677,72	49,83
677,909	117,42
678,099	-15,7
678,288	23,21
678,477	21,16
678,667	21,16
678,856	139,94
679,045	84,65
679,235	107,18
679,424	123,56
679,613	131,75
679,802	119,46
679,992	68,27
680,181	27,31
680,37	19,11
680,559	33,45
680,748	84,65
680,938	72,36
681,127	60,07
681,316	111,27
681,505	10,92
681,694	-5,46
681,883	152,23
682,072	92,84
682,261	68,27
682,45	-19,8
682,639	-13,65
682,828	27,31
683,017	144,04
683,206	86,7
683,395	-38,23
683,584	15,02
683,773	2,73
683,962	68,27
684,151	-9,56
684,34	125,61
684,529	45,74
684,718	101,03
684,907	76,46
685,095	51,88
685,284	144,04
685,473	29,35
685,662	25,26
685,851	135,85
686,039	47,79
686,228	-7,51
686,417	-21,84
686,606	150,18
686,794	60,07
686,983	-79,19
687,172	78,51
687,36	19,11
687,549	4,78
687,738	27,31
687,926	37,55
688,115	35,5
688,303	29,35
688,492	68,27
688,68	-5,46
688,869	-99,67
689,057	21,16
689,246	-25,94
689,434	80,55
689,623	76,46
689,811	64,17
690	23,21
690,188	53,93
690,377	70,31
690,565	90,79
690,753	158,38
690,942	123,56
691,13	109,23
691,318	84,65
691,507	279,21
691,695	846,49
691,883	1495,7
692,072	2189,96
692,26	3222,14
692,448	4393,58
692,636	5605,97
692,824	6795,84
693,013	7893,55
693,201	8841,76
693,389	9409,05
693,577	9343,52
693,765	9433,63
693,953	8673,83
694,141	7965,23
694,329	6853,19
694,518	5853,78
694,706	5450,33
694,894	4917,86
695,082	4061,8
695,27	3762,8
695,458	2720,39
695,646	2083,47
695,834	1299,09
696,022	893,6
696,209	588,45
696,397	371,37
696,585	289,45
696,773	146,09
696,961	195,24
697,149	53,93
697,337	76,46
697,525	60,07
697,712	88,75
697,9	53,93
698,088	2,73
698,276	109,23
698,463	43,69
698,651	141,99
698,839	12,97
699,027	92,84
699,214	141,99
699,402	150,18
699,59	10,92
699,777	23,21
699,965	101,03
700,152	68,27
700,34	41,64
700,528	27,31
700,715	51,88
700,903	45,74
701,09	29,35
701,278	195,24
701,465	250,53
701,653	338,6
701,84	610,98
702,028	1370,77
702,215	2394,76
702,402	3570,29
702,59	4797,03
702,777	6400,59
702,965	7954,99
703,152	9423,39
703,339	10693,13
703,527	11758,07
703,714	11835,89
703,901	12030,45
704,088	11852,28
704,276	10723,85
704,463	9669,14
704,65	8587,82
704,837	7670,33
705,025	6767,17
705,212	6138,44
705,399	5356,12
705,586	4485,73
705,773	3695,22
705,96	2796,16
706,147	2048,65
706,335	1340,05
706,522	1043,1
706,709	662,18
706,896	543,39
707,083	420,52
707,27	393,89
707,457	383,65
707,644	242,34
707,831	215,72
708,018	187,05
708,205	182,95
708,392	125,61
708,578	125,61
708,765	70,31
708,952	17,07
709,139	105,13
709,326	92,84
709,513	101,03
709,7	-3,41
709,886	111,27
710,073	74,41
710,26	154,28
710,447	60,07
710,633	137,9
710,82	21,16
711,007	29,35
711,193	29,35
711,38	64,17
711,567	43,69
711,753	29,35
711,94	98,99
712,127	90,79
712,313	33,45
712,5	43,69
712,686	117,42
712,873	70,31
713,059	-30,04
713,246	195,24
713,432	29,35
713,619	64,17
713,805	-3,41
713,992	60,07
714,178	-17,75
714,365	35,5
714,551	148,14
714,737	-30,04
714,924	-34,13
715,11	119,46
715,297	68,27
715,483	6,83
715,669	62,12
715,855	35,5
716,042	76,46
716,228	182,95
716,414	400,04
716,6	535,2
716,787	758,43
716,973	903,84
717,159	1284,76
717,345	1518,23
717,531	1600,15
717,718	1788,56
717,904	1987,21
718,09	1936,01
718,276	1833,61
718,462	1698,45
718,648	1516,18
718,834	1299,09
719,02	1202,84
719,206	1047,19
719,392	864,93
719,578	912,03
719,764	776,86
719,95	633,51
720,136	504,48
720,322	404,13
720,508	219,82
720,694	139,94
720,879	109,23
721,065	160,42
721,251	74,41
721,437	55,98
721,623	123,56
721,809	82,6
721,994	39,59
722,18	-46,42
722,366	68,27
722,552	19,11
722,737	-19,8
722,923	150,18
723,109	199,34
723,294	420,52
723,48	768,67
723,666	1251,99
723,851	1802,9
724,037	2413,19
724,222	3254,9
724,408	3893,87
724,593	4440,68
724,779	4999,77
724,965	5081,69
725,15	5026,4
725,336	4858,46
725,521	4690,53
725,706	4100,72
725,892	3633,78
726,077	3265,14
726,263	2910,85
726,448	2607,75
726,634	2249,35
726,819	2114,19
727,004	1878,67
727,19	1421,97
727,375	1153,69
727,56	740
727,745	424,61
727,931	389,8
728,116	185
728,301	150,18
728,486	182,95
728,672	53,93
728,857	103,08
729,042	111,27
729,227	-17,75
729,412	39,59
729,597	-3,41
729,783	-23,89
729,968	31,4
730,153	35,5
730,338	17,07
730,523	78,51
730,708	92,84
730,893	47,79
731,078	12,97
731,263	60,07
731,448	21,16
731,633	70,31
731,818	-17,75
732,003	-52,56
732,187	-36,18
732,372	-62,8
732,557	45,74
732,742	-3,41
732,927	-60,76
733,112	-3,41
733,297	47,79
733,481	27,31
733,666	45,74
733,851	-5,46
734,036	45,74
734,22	-7,51
734,405	117,42
734,59	-27,99
734,774	-5,46
734,959	10,92
735,144	43,69
735,328	60,07
735,513	-87,38
735,698	68,27
735,882	109,23
736,067	111,27
736,251	109,23
736,436	4,78
736,62	-17,75
736,805	51,88
736,989	113,32
737,174	-56,66
737,358	-144,72
737,543	68,27
737,727	92,84
737,911	68,27
738,096	19,11
738,28	129,7
738,465	10,92
738,649	55,98
738,833	92,84
739,018	-27,99
739,202	-5,46
739,386	-19,8
739,57	-30,04
739,755	10,92
739,939	12,97
740,123	-71
740,307	31,4
740,491	70,31
740,676	8,87
740,86	178,86
741,044	17,07
741,228	27,31
741,412	55,98
741,596	-46,42
741,78	-5,46
741,964	43,69
742,148	-13,65
742,332	19,11
742,516	-36,18
742,7	121,51
742,884	205,48
743,068	264,87
743,252	432,8
743,436	666,27
743,62	653,98
743,804	1055,39
743,988	1159,83
744,172	1176,22
744,356	1182,36
744,539	1206,94
744,723	1092,25
744,907	955,04
745,091	1018,52
745,275	887,45
745,458	727,71
745,642	670,37
745,826	641,7
746,009	608,93
746,193	537,25
746,377	494,24
746,56	330,41
746,744	428,71
746,928	287,4
747,111	250,53
747,295	187,05
747,478	117,42
747,662	6,83
747,846	195,24
748,029	193,19
748,213	191,14
748,396	289,45
748,58	252,58
748,763	305,83
748,946	322,21
749,13	524,96
749,313	412,32
749,497	512,67
749,68	518,82
749,863	420,52
750,047	357,03
750,23	357,03
750,413	287,4
750,597	223,91
750,78	182,95
750,963	279,21
751,146	168,62
751,33	137,9
751,513	113,32
751,696	98,99
751,879	119,46
752,062	-30,04
752,246	133,8
752,429	105,13
752,612	141,99
752,795	209,58
752,978	117,42
753,161	195,24
753,344	187,05
753,527	365,22
753,71	395,94
753,893	420,52
754,076	447,14
754,259	514,72
754,442	414,37
754,625	414,37
754,808	428,71
754,991	449,19
755,174	260,77
755,357	250,53
755,539	307,88
755,722	367,27
755,905	285,35
756,088	228,01
756,271	139,94
756,453	201,38
756,636	84,65
756,819	70,31
757,002	-1,37
757,184	125,61
757,367	125,61
757,55	39,59
757,732	58,03
757,915	10,92
758,098	60,07
758,28	29,35
758,463	-9,56
758,645	43,69
758,828	45,74
759,011	76,46
759,193	-13,65
759,376	-27,99
759,558	-30,04
759,741	-21,84
759,923	-60,76
760,105	-11,61
760,288	10,92
760,47	-68,95
760,653	51,88
760,835	-13,65
761,017	-23,89
761,2	-13,65
761,382	150,18
761,564	68,27
761,747	45,74
761,929	23,21
762,111	8,87
762,294	60,07
762,476	158,38
762,658	37,55
762,84	92,84
763,022	19,11
763,205	4,78
763,387	98,99
763,569	92,84
763,751	-52,56
763,933	-15,7
764,115	-32,08
764,297	10,92
764,479	139,94
764,661	-17,75
764,843	35,5
765,025	-46,42
765,207	80,55
765,389	-79,19
765,571	-19,8
765,753	92,84
765,935	60,07
766,117	39,59
766,299	111,27
766,481	129,7
766,663	10,92
766,845	-60,76
767,026	72,36
767,208	60,07
767,39	-36,18
767,572	-111,96
767,753	64,17
767,935	-58,71
768,117	29,35
768,299	101,03
768,48	-27,99
768,662	92,84
768,844	10,92
769,025	144,04
769,207	23,21
769,389	29,35
769,57	58,03
769,752	53,93
769,933	-50,52
770,115	37,55
770,296	31,4
770,478	27,31
770,659	-54,61
770,841	240,3
771,022	35,5
771,204	60,07
771,385	35,5
771,567	111,27
771,748	80,55
771,929	-46,42
772,111	-13,65
772,292	86,7
772,473	-5,46
772,655	113,32
772,836	25,26
773,017	133,8
773,199	133,8
773,38	41,64
773,561	133,8
773,742	64,17
773,923	-3,41
774,105	27,31
774,286	31,4
774,467	-30,04
774,648	-25,94
774,829	21,16
775,01	31,4
775,191	37,55
775,372	0,68
775,553	0,68
775,734	-87,38
775,915	-17,75
776,096	92,84
776,277	19,11
776,458	-38,23
776,639	31,4
776,82	92,84
777,001	-21,84
777,182	-3,41
777,363	74,41
777,544	-34,13
777,725	51,88
777,906	-38,23
778,086	62,12
778,267	180,9
778,448	25,26
778,629	-1,37
778,809	96,94
778,99	12,97
779,171	-50,52
779,352	6,83
779,532	0,68
779,713	2,73
779,894	-75,09
780,074	109,23
780,255	19,11
780,435	141,99
780,616	84,65
780,797	117,42
780,977	-27,99
781,158	-21,84
781,338	-42,32
781,519	51,88
781,699	135,85
781,88	64,17
782,06	58,03
782,241	2,73
782,421	-30,04
782,601	-5,46
782,782	62,12
782,962	74,41
783,142	17,07
783,323	62,12
783,503	113,32
783,683	76,46
783,864	101,03
784,044	43,69
784,224	62,12
784,404	0,68
784,585	60,07
784,765	-13,65
784,945	133,8
785,125	-44,37
785,305	23,21
785,485	23,21
785,666	33,45
785,846	-19,8
786,026	19,11
786,206	2,73
786,386	-27,99
786,566	-38,23
786,746	-36,18
786,926	78,51
787,106	15,02
787,286	-52,56
787,466	39,59
787,646	60,07
787,826	92,84
788,006	158,38
788,185	92,84
788,365	-11,61
788,545	111,27
788,725	-52,56
788,905	-27,99
789,085	35,5
789,264	19,11
789,444	2,73
789,624	68,27
789,804	39,59
789,983	76,46
790,163	10,92
790,343	-11,61
790,522	41,64
790,702	10,92
790,882	-3,41
791,061	84,65
791,241	-9,56
791,42	2,73
791,6	125,61
791,78	68,27
791,959	-54,61
792,139	19,11
792,318	-32,08
792,498	68,27
792,677	43,69
792,856	31,4
793,036	-3,41
793,215	-11,61
793,395	133,8
793,574	96,94
793,753	94,89
793,933	240,3
794,112	232,1
794,291	29,35
794,471	209,58
794,65	72,36
794,829	29,35
795,008	148,14
795,188	78,51
795,367	150,18
795,546	29,35
795,725	51,88
795,904	35,5
796,084	35,5
796,263	58,03
796,442	133,8
796,621	92,84
796,8	96,94
796,979	66,22
797,158	-36,18
797,337	41,64
797,516	117,42
797,695	62,12
797,874	92,84
798,053	78,51
798,232	45,74
798,411	-46,42
798,59	-32,08
798,769	-30,04
798,947	123,56
799,126	-56,66
799,305	43,69
799,484	103,08
799,663	72,36
799,842	76,46
800,02	45,74
800,199	10,92
800,378	113,32
800,557	-46,42
800,735	-95,57
800,914	-9,56
801,093	29,35
801,271	84,65
801,45	68,27
801,628	68,27
801,807	-79,19
801,986	45,74
802,164	-46,42
802,343	-5,46
802,521	-91,48
802,7	39,59
802,878	55,98
803,057	-46,42
803,235	-44,37
803,414	62,12
803,592	53,93
803,771	111,27
803,949	60,07
804,127	-46,42
804,306	80,55
804,484	62,12
804,662	19,11
804,841	-27,99
805,019	27,31
805,197	-5,46
805,375	51,88
805,554	43,69
805,732	-30,04
805,91	-5,46
806,088	10,92
806,266	-101,72
806,445	45,74
806,623	4,78
806,801	-48,47
806,979	53,93
807,157	19,11
807,335	-66,9
807,513	64,17
807,691	35,5
807,869	-36,18
808,047	10,92
808,225	-99,67
808,403	62,12
808,581	2,73
808,759	203,43
808,937	60,07
809,115	123,56
809,293	53,93
809,471	27,31
809,649	35,5
809,826	84,65
810,004	92,84
810,182	-54,61
810,36	-27,99
810,538	2,73
810,715	111,27
810,893	-58,71
811,071	29,35
811,248	25,26
811,426	70,31
811,604	117,42
811,781	29,35
811,959	58,03
812,137	35,5
812,314	2,73
812,492	-3,41
812,669	101,03
812,847	31,4
813,024	39,59
813,202	146,09
813,379	49,83
813,557	125,61
813,734	135,85
813,912	146,09
814,089	125,61
814,267	168,62
814,444	162,47
814,621	82,6
814,799	-62,8
814,976	125,61
815,153	68,27
815,331	29,35
815,508	53,93
815,685	-13,65
815,862	53,93
816,04	43,69
816,217	76,46
816,394	60,07
816,571	60,07
816,748	182,95
816,926	152,23
817,103	359,08
817,28	10,92
817,457	-48,47
817,634	137,9
817,811	-77,14
817,988	10,92
818,165	2,73
818,342	12,97
818,519	35,5
818,696	-9,56
818,873	2,73
819,05	158,38
819,227	-9,56
819,404	76,46
819,581	35,5
819,758	29,35
819,934	10,92
820,111	-27,99
820,288	-11,61
820,465	113,32
820,642	74,41
820,818	92,84
820,995	35,5
821,172	125,61
821,349	17,07
821,525	-5,46
821,702	43,69
821,879	-30,04
822,055	55,98
822,232	-3,41
822,409	19,11
822,585	111,27
822,762	35,5
822,938	68,27
823,115	72,36
823,291	19,11
823,468	103,08
823,644	-19,8
823,821	119,46
823,997	-46,42
824,174	2,73
824,35	0,68
824,527	10,92
824,703	76,46
824,879	-58,71
825,056	70,31
825,232	174,76
825,408	21,16
825,585	10,92
825,761	-15,7
825,937	27,31
826,113	55,98
826,29	25,26
826,466	31,4
826,642	397,99
826,818	80,55
826,994	53,93
827,17	-7,51
827,347	88,75
827,523	-32,08
827,699	49,83
827,875	6,83
828,051	31,4
828,227	64,17
828,403	133,8
828,579	125,61
828,755	68,27
828,931	10,92
829,107	37,55
829,283	182,95
829,459	-5,46
829,635	72,36
829,811	199,34
829,986	268,97
830,162	82,6
830,338	121,51
830,514	119,46
830,69	125,61
830,865	127,66
831,041	41,64
831,217	21,16
831,393	17,07
831,568	12,97
831,744	117,42
831,92	76,46
832,095	76,46
832,271	37,55
832,447	37,55
832,622	168,62
832,798	88,75
832,973	-21,84
833,149	103,08
833,325	70,31
833,5	15,02
833,676	43,69
833,851	51,88
834,027	19,11
834,202	19,11
834,377	101,03
834,553	35,5
834,728	2,73
834,904	43,69
835,079	23,21
835,254	-19,8
835,43	35,5
835,605	6,83
835,78	37,55
835,955	39,59
836,131	51,88
836,306	-21,84
836,481	-27,99
836,656	84,65
836,832	289,45
837,007	225,96
837,182	207,53
837,357	363,17
837,532	352,93
837,707	422,56
837,882	400,04
838,057	420,52
838,232	412,32
838,407	359,08
838,582	285,35
838,757	266,92
838,932	330,41
839,107	191,14
839,282	160,42
839,457	211,62
839,632	252,58
839,807	266,92
839,982	152,23
840,157	209,58
840,332	131,75
840,506	168,62
840,681	135,85
840,856	238,25
841,031	86,7
841,205	166,57
841,38	199,34
841,555	225,96
841,73	195,24
841,904	135,85
842,079	113,32
842,254	193,19
842,428	133,8
842,603	27,31
842,777	27,31
842,952	70,31
843,126	21,16
843,301	45,74
843,476	21,16
843,65	66,22
843,825	148,14
843,999	35,5
844,173	-3,41
844,348	-85,33
844,522	68,27
844,697	2,73
844,871	-17,75
845,045	119,46
845,22	68,27
845,394	201,38
845,568	-13,65
845,743	84,65
845,917	35,5
846,091	51,88
846,265	25,26
846,44	39,59
846,614	60,07
846,788	-54,61
846,962	27,31
847,136	-25,94
847,31	92,84
847,485	84,65
847,659	45,74
847,833	78,51
848,007	64,17
848,181	109,23
848,355	-62,8
848,529	174,76
848,703	141,99
848,877	17,07
849,051	221,86
849,225	223,91
849,399	182,95
849,573	187,05
849,746	121,51
849,92	199,34
850,094	248,49
850,268	133,8
850,442	160,42
850,616	76,46
850,789	109,23
850,963	94,89
851,137	101,03
851,311	223,91
851,484	176,81
851,658	141,99
851,832	125,61
852,005	72,36
852,179	92,84
852,352	86,7
852,526	47,79
852,7	94,89
852,873	-21,84
853,047	133,8
853,22	141,99
853,394	84,65
853,567	166,57
853,741	2,73
853,914	47,79
854,088	27,31
854,261	37,55
854,434	-30,04
854,608	10,92
854,781	-62,8
854,955	-11,61
855,128	35,5
855,301	-27,99
855,475	37,55
855,648	-32,08
855,821	72,36
855,994	82,6
856,168	-3,41
856,341	78,51
856,514	-21,84
856,687	35,5
856,86	35,5
857,033	-17,75
857,207	-44,37
857,38	-79,19
857,553	117,42
857,726	-9,56
857,899	109,23
858,072	2,73
858,245	-5,46
858,418	111,27
858,591	55,98
858,764	49,83
858,937	68,27
859,11	135,85
859,283	133,8
859,455	88,75
859,628	94,89
859,801	129,7
859,974	148,14
860,147	15,02
860,32	109,23
860,492	15,02
860,665	-25,94
860,838	117,42
861,011	90,79
861,183	109,23
861,356	133,8
861,529	43,69
861,701	86,7
861,874	55,98
862,047	178,86
862,219	19,11
862,392	98,99
862,564	27,31
862,737	10,92
862,909	176,81
863,082	-11,61
863,254	119,46
863,427	101,03
863,599	160,42
863,772	70,31
863,944	8,87
864,117	45,74
864,289	45,74
864,461	62,12
864,634	101,03
864,806	109,23
864,978	178,86
865,151	62,12
865,323	234,15
865,495	338,6
865,667	150,18
865,84	316,07
866,012	96,94
866,184	176,81
866,356	96,94
866,528	203,43
866,7	125,61
866,873	125,61
867,045	127,66
867,217	-5,46
867,389	225,96
867,561	109,23
867,733	160,42
867,905	203,43
868,077	60,07
868,249	127,66
868,421	158,38
868,593	133,8
868,765	125,61
868,936	64,17
869,108	166,57
869,28	203,43
869,452	62,12
869,624	62,12
869,796	80,55
869,968	19,11
870,139	70,31
870,311	29,35
870,483	111,27
870,654	-5,46
870,826	68,27
870,998	35,5
871,17	19,11
871,341	53,93
871,513	105,13
871,684	-1,37
871,856	96,94
872,028	76,46
872,199	-36,18
872,371	-56,66
872,542	12,97
872,714	-46,42
872,885	62,12
873,057	-42,32
873,228	88,75
873,4	94,89
873,571	94,89
873,742	-25,94
873,914	35,5
874,085	-21,84
874,256	41,64
874,428	-46,42
874,599	4,78
874,77	117,42
874,942	-19,8
875,113	27,31
875,284	19,11
875,455	-107,86
875,626	35,5
875,798	-13,65
875,969	-62,8
876,14	64,17
876,311	78,51
876,482	94,89
876,653	49,83
876,824	94,89
876,995	86,7
877,166	10,92
877,337	80,55
877,508	-30,04
877,679	37,55
877,85	12,97
878,021	35,5
878,192	203,43
878,363	76,46
878,534	15,02
878,705	19,11
878,876	94,89
879,047	86,7
879,217	109,23
879,388	76,46
879,559	117,42
879,73	207,53
879,9	86,7
880,071	133,8
880,242	154,28
880,413	107,18
880,583	94,89
880,754	174,76
880,924	74,41
881,095	-1,37
881,266	51,88
881,436	113,32
881,607	168,62
881,777	96,94
881,948	72,36
882,118	101,03
882,289	-25,94
882,459	78,51
882,63	25,26
882,8	-15,7
882,971	-3,41
883,141	31,4
883,311	117,42
883,482	23,21
883,652	39,59
883,822	-15,7
883,993	19,11
884,163	80,55
884,333	39,59
884,504	86,7
884,674	51,88
884,844	-7,51
885,014	4,78
885,184	64,17
885,355	62,12
885,525	-5,46
885,695	53,93
885,865	182,95
886,035	127,66
886,205	23,21
886,375	58,03
886,545	29,35
886,715	68,27
886,885	27,31
887,055	-5,46
887,225	62,12
887,395	37,55
887,565	144,04
887,735	47,79
887,905	129,7
888,075	-46,42
888,244	86,7
888,414	39,59
888,584	23,21
888,754	39,59
888,924	-50,52
889,093	117,42
889,263	19,11
889,433	27,31
889,603	47,79
889,772	-11,61
889,942	51,88
890,111	84,65
890,281	19,11
890,451	43,69
890,62	-58,71
890,79	105,13
890,959	10,92
891,129	62,12
891,298	88,75
891,468	23,21
891,637	12,97
891,807	35,5
891,976	84,65
892,146	60,07
892,315	27,31
892,485	152,23
892,654	-15,7
892,823	23,21
892,993	-48,47
893,162	43,69
893,331	84,65
893,501	31,4
893,67	121,51
893,839	0,68
894,008	-1,37
894,177	-11,61
894,347	47,79
894,516	166,57
894,685	43,69
894,854	-54,61
895,023	109,23
895,192	-50,52
