Data from neon_USB4F104161__9__11-46-32-525.txt Node

Date: Tue Apr 14 11:46:32 EDT 2026
User: LaboPhy
Spectrometer: USB4F10416
Trigger mode: 4
Integration Time (sec): 1,000000E-1
Scans to average: 1
Electric dark correction enabled: true
Nonlinearity correction enabled: false
Boxcar width: 0
XAxis mode: Wavelengths
Number of Pixels in Spectrum: 3648
>>>>>Begin Spectral Data<<<<<
177,847	-224,76
178,066	-224,76
178,284	-224,76
178,502	-155,13
178,72	-206,33
178,939	-42,5
179,157	25,09
179,375	-83,45
179,593	72,19
179,812	74,24
180,03	27,14
180,248	41,47
180,466	-48,64
180,685	-46,59
180,903	-17,92
181,121	-40,45
181,339	39,42
181,557	-40,45
181,775	0,51
181,994	-26,11
182,212	-30,21
182,43	23,04
182,648	20,99
182,866	94,72
183,084	94,72
183,302	-9,73
183,52	14,85
183,739	115,2
183,957	104,96
184,175	113,15
184,393	-5,63
184,611	84,48
184,829	57,86
185,047	-75,26
185,265	117,25
185,483	-5,63
185,701	78,33
185,919	74,24
186,137	84,48
186,355	31,23
186,573	51,71
186,791	131,58
187,009	-24,06
187,227	23,04
187,445	39,42
187,663	-17,92
187,881	59,9
188,098	23,04
188,316	14,85
188,534	141,82
188,752	-28,16
188,97	-75,26
189,188	-9,73
189,406	35,33
189,624	59,9
189,841	-1,54
190,059	-95,74
190,277	-24,06
190,495	16,9
190,713	29,18
190,931	162,3
191,148	55,81
191,366	-13,82
191,584	74,24
191,802	96,77
192,019	66,05
192,237	64
192,455	47,62
192,673	68,09
192,89	-26,11
193,108	47,62
193,326	6,66
193,543	39,42
193,761	49,66
193,979	-30,21
194,196	27,14
194,414	25,09
194,632	100,86
194,849	-40,45
195,067	-22,02
195,285	129,53
195,502	-56,83
195,72	20,99
195,937	25,09
196,155	66,05
196,373	82,43
196,59	6,66
196,808	-17,92
197,025	8,7
197,243	197,12
197,46	-71,17
197,678	23,04
197,895	27,14
198,113	2,56
198,33	-73,21
198,548	100,86
198,765	-58,88
198,983	35,33
199,2	-65,02
199,418	49,66
199,635	39,42
199,853	27,14
200,07	59,9
200,288	-1,54
200,505	43,52
200,722	57,86
200,94	-9,73
201,157	-3,58
201,375	14,85
201,592	-32,26
201,809	96,77
202,027	82,43
202,244	82,43
202,461	-9,73
202,679	64
202,896	6,66
203,113	-15,87
203,331	72,19
203,548	20,99
203,765	37,38
203,982	57,86
204,2	-40,45
204,417	25,09
204,634	268,8
204,851	115,2
205,069	57,86
205,286	104,96
205,503	61,95
205,72	96,77
205,937	-36,35
206,155	53,76
206,372	94,72
206,589	-1,54
206,806	90,62
207,023	12,8
207,24	115,2
207,458	16,9
207,675	16,9
207,892	10,75
208,109	-65,02
208,326	6,66
208,543	16,9
208,76	-19,97
208,977	104,96
209,194	64
209,411	23,04
209,628	41,47
209,845	47,62
210,062	-24,06
210,279	-32,26
210,496	8,7
210,713	33,28
210,93	113,15
211,147	59,9
211,364	-34,3
211,581	6,66
211,798	94,72
212,015	23,04
212,232	-42,5
212,449	23,04
212,666	39,42
212,883	10,75
213,1	-5,63
213,317	-17,92
213,533	100,86
213,75	-22,02
213,967	86,53
214,184	-48,64
214,401	10,75
214,618	-28,16
214,835	37,38
215,051	66,05
215,268	74,24
215,485	51,71
215,702	-17,92
215,919	-40,45
216,135	170,49
216,352	-5,63
216,569	41,47
216,786	2,56
217,002	14,85
217,219	100,86
217,436	-75,26
217,652	66,05
217,869	47,62
218,086	90,62
218,302	55,81
218,519	68,09
218,736	-5,63
218,952	-15,87
219,169	41,47
219,386	98,81
219,602	-17,92
219,819	-9,73
220,036	27,14
220,252	104,96
220,469	-32,26
220,685	14,85
220,902	88,57
221,118	23,04
221,335	55,81
221,552	-77,31
221,768	107,01
221,985	-40,45
222,201	-1,54
222,418	64
222,634	-15,87
222,851	47,62
223,067	-17,92
223,284	10,75
223,5	33,28
223,716	-32,26
223,933	33,28
224,149	72,19
224,366	47,62
224,582	-38,4
224,799	-69,12
225,015	-15,87
225,231	39,42
225,448	-65,02
225,664	51,71
225,88	16,9
226,097	-26,11
226,313	39,42
226,529	23,04
226,746	51,71
226,962	-17,92
227,178	14,85
227,395	-50,69
227,611	-17,92
227,827	23,04
228,044	72,19
228,26	66,05
228,476	39,42
228,692	150,01
228,909	41,47
229,125	55,81
229,341	-34,3
229,557	-62,98
229,773	-17,92
229,99	150,01
230,206	-9,73
230,422	80,38
230,638	-28,16
230,854	-9,73
231,07	-42,5
231,286	14,85
231,503	14,85
231,719	68,09
231,935	6,66
232,151	55,81
232,367	41,47
232,583	41,47
232,799	178,69
233,015	76,29
233,231	31,23
233,447	-7,68
233,663	-42,5
233,879	41,47
234,095	-34,3
234,311	57,86
234,527	-9,73
234,743	64
234,959	-26,11
235,175	-1,54
235,391	-50,69
235,607	98,81
235,823	33,28
236,039	43,52
236,255	55,81
236,471	-34,3
236,687	16,9
236,903	-24,06
237,118	-34,3
237,334	-40,45
237,55	39,42
237,766	-36,35
237,982	-1,54
238,198	135,68
238,413	80,38
238,629	109,05
238,845	-13,82
239,061	-24,06
239,277	-38,4
239,492	-17,92
239,708	33,28
239,924	-103,93
240,14	2,56
240,355	172,54
240,571	-7,68
240,787	4,61
241,003	88,57
241,218	27,14
241,434	-15,87
241,65	23,04
241,865	-54,78
242,081	80,38
242,297	-58,88
242,512	82,43
242,728	31,23
242,944	-42,5
243,159	35,33
243,375	-56,83
243,59	55,81
243,806	80,38
244,022	31,23
244,237	10,75
244,453	88,57
244,668	78,33
244,884	145,92
245,099	-30,21
245,315	59,9
245,53	55,81
245,746	64
245,961	176,64
246,177	16,9
246,392	88,57
246,608	41,47
246,823	-75,26
247,039	33,28
247,254	-89,6
247,47	78,33
247,685	-58,88
247,9	0,51
248,116	-1,54
248,331	-34,3
248,547	84,48
248,762	0,51
248,977	27,14
249,193	43,52
249,408	31,23
249,623	-9,73
249,839	-83,45
250,054	-75,26
250,269	23,04
250,485	61,95
250,7	14,85
250,915	25,09
251,13	45,57
251,346	-56,83
251,561	107,01
251,776	145,92
251,991	-99,84
252,207	74,24
252,422	57,86
252,637	31,23
252,852	-17,92
253,067	41,47
253,283	14,85
253,498	35,33
253,713	39,42
253,928	10,75
254,143	-1,54
254,358	68,09
254,573	-54,78
254,788	-42,5
255,004	90,62
255,219	0,51
255,434	-28,16
255,649	-7,68
255,864	49,66
256,079	-22,02
256,294	31,23
256,509	8,7
256,724	27,14
256,939	-17,92
257,154	-30,21
257,369	18,94
257,584	137,73
257,799	31,23
258,014	41,47
258,229	90,62
258,444	66,05
258,659	55,81
258,874	55,81
259,089	31,23
259,304	-58,88
259,518	31,23
259,733	92,67
259,948	4,61
260,163	123,39
260,378	70,14
260,593	-15,87
260,808	49,66
261,022	-32,26
261,237	72,19
261,452	14,85
261,667	-22,02
261,882	57,86
262,096	80,38
262,311	35,33
262,526	-87,55
262,741	-1,54
262,955	-99,84
263,17	-50,69
263,385	31,23
263,6	0,51
263,814	-54,78
264,029	-34,3
264,244	68,09
264,458	57,86
264,673	82,43
264,888	39,42
265,102	80,38
265,317	4,61
265,532	-30,21
265,746	88,57
265,961	72,19
266,175	-1,54
266,39	35,33
266,605	64
266,819	100,86
267,034	27,14
267,248	-5,63
267,463	-30,21
267,677	-67,07
267,892	0,51
268,106	-81,41
268,321	80,38
268,535	98,81
268,75	47,62
268,964	-56,83
269,179	25,09
269,393	10,75
269,608	111,1
269,822	-50,69
270,036	-58,88
270,251	31,23
270,465	-9,73
270,68	74,24
270,894	33,28
271,108	121,34
271,323	-79,36
271,537	-36,35
271,752	55,81
271,966	64
272,18	-28,16
272,394	-7,68
272,609	76,29
272,823	-91,65
273,037	-24,06
273,252	39,42
273,466	6,66
273,68	121,34
273,894	8,7
274,109	27,14
274,323	-44,54
274,537	2,56
274,751	-75,26
274,966	41,47
275,18	2,56
275,394	-32,26
275,608	-58,88
275,822	-89,6
276,036	-17,92
276,25	47,62
276,465	39,42
276,679	64
276,893	10,75
277,107	84,48
277,321	-3,58
277,535	121,34
277,749	104,96
277,963	23,04
278,177	-7,68
278,391	6,66
278,605	-56,83
278,819	80,38
279,033	-89,6
279,247	-24,06
279,461	96,77
279,675	43,52
279,889	-1,54
280,103	98,81
280,317	84,48
280,531	-62,98
280,745	-32,26
280,959	-24,06
281,173	90,62
281,387	6,66
281,601	6,66
281,815	109,05
282,029	-24,06
282,242	8,7
282,456	20,99
282,67	6,66
282,884	-9,73
283,098	8,7
283,312	-7,68
283,525	-30,21
283,739	-17,92
283,953	-13,82
284,167	-17,92
284,381	31,23
284,594	61,95
284,808	25,09
285,022	6,66
285,235	-1,54
285,449	18,94
285,663	64
285,877	23,04
286,09	8,7
286,304	-5,63
286,518	41,47
286,731	-46,59
286,945	80,38
287,159	-3,58
287,372	18,94
287,586	68,09
287,799	-26,11
288,013	-28,16
288,227	35,33
288,44	262,65
288,654	27,14
288,867	-9,73
289,081	39,42
289,294	16,9
289,508	31,23
289,721	68,09
289,935	129,53
290,148	98,81
290,362	53,76
290,575	47,62
290,789	-7,68
291,002	-46,59
291,216	154,11
291,429	-13,82
291,643	-13,82
291,856	49,66
292,069	72,19
292,283	-17,92
292,496	-34,3
292,71	104,96
292,923	64
293,136	35,33
293,35	14,85
293,563	0,51
293,776	74,24
293,99	35,33
294,203	72,19
294,416	-28,16
294,63	16,9
294,843	47,62
295,056	39,42
295,269	-26,11
295,483	-30,21
295,696	10,75
295,909	16,9
296,122	16,9
296,335	39,42
296,549	23,04
296,762	57,86
296,975	31,23
297,188	-9,73
297,401	-93,69
297,615	16,9
297,828	-1,54
298,041	137,73
298,254	-46,59
298,467	64
298,68	18,94
298,893	-24,06
299,106	-42,5
299,319	82,43
299,532	88,57
299,745	-17,92
299,958	-40,45
300,171	-30,21
300,384	2,56
300,598	-58,88
300,81	80,38
301,023	-13,82
301,236	-120,32
301,449	0,51
301,662	-11,78
301,875	0,51
302,088	72,19
302,301	66,05
302,514	-58,88
302,727	64
302,94	14,85
303,153	14,85
303,366	14,85
303,579	-32,26
303,791	76,29
304,004	90,62
304,217	90,62
304,43	-9,73
304,643	2,56
304,855	-24,06
305,068	72,19
305,281	66,05
305,494	66,05
305,707	23,04
305,919	137,73
306,132	0,51
306,345	-26,11
306,558	121,34
306,77	49,66
306,983	-108,03
307,196	121,34
307,408	2,56
307,621	31,23
307,834	39,42
308,046	-34,3
308,259	-30,21
308,472	-24,06
308,684	147,97
308,897	-77,31
309,109	-65,02
309,322	-26,11
309,535	14,85
309,747	98,81
309,96	137,73
310,172	45,57
310,385	96,77
310,597	-1,54
310,81	33,28
311,022	-71,17
311,235	-50,69
311,447	10,75
311,66	33,28
311,872	31,23
312,085	-11,78
312,297	-83,45
312,51	-42,5
312,722	2,56
312,934	35,33
313,147	-69,12
313,359	-103,93
313,572	20,99
313,784	4,61
313,996	53,76
314,209	96,77
314,421	-11,78
314,633	-97,79
314,846	-15,87
315,058	104,96
315,27	92,67
315,483	-54,78
315,695	8,7
315,907	-22,02
316,119	-24,06
316,332	25,09
316,544	47,62
316,756	39,42
316,968	33,28
317,181	25,09
317,393	102,91
317,605	6,66
317,817	-7,68
318,029	10,75
318,241	39,42
318,454	49,66
318,666	6,66
318,878	-87,55
319,09	-36,35
319,302	55,81
319,514	-9,73
319,726	-26,11
319,938	94,72
320,15	104,96
320,362	37,38
320,574	-9,73
320,786	-46,59
320,999	-26,11
321,211	84,48
321,423	23,04
321,635	-17,92
321,847	55,81
322,058	-67,07
322,27	51,71
322,482	66,05
322,694	55,81
322,906	-7,68
323,118	0,51
323,33	39,42
323,542	35,33
323,754	14,85
323,966	-81,41
324,178	55,81
324,389	-42,5
324,601	92,67
324,813	14,85
325,025	64
325,237	14,85
325,449	88,57
325,66	23,04
325,872	-69,12
326,084	-22,02
326,296	2,56
326,507	35,33
326,719	84,48
326,931	33,28
327,143	84,48
327,354	137,73
327,566	-5,63
327,778	49,66
327,989	23,04
328,201	-17,92
328,413	96,77
328,624	72,19
328,836	-15,87
329,048	-93,69
329,259	47,62
329,471	-13,82
329,682	-26,11
329,894	6,66
330,106	-108,03
330,317	57,86
330,529	25,09
330,74	8,7
330,952	47,62
331,163	6,66
331,375	39,42
331,586	-30,21
331,798	-71,17
332,009	27,14
332,221	-1,54
332,432	57,86
332,644	25,09
332,855	12,8
333,067	29,18
333,278	20,99
333,489	92,67
333,701	-5,63
333,912	-42,5
334,124	-58,88
334,335	-9,73
334,546	-46,59
334,758	-62,98
334,969	188,93
335,18	84,48
335,392	-17,92
335,603	82,43
335,814	-15,87
336,025	-44,54
336,237	0,51
336,448	-44,54
336,659	25,09
336,87	107,01
337,082	141,82
337,293	-3,58
337,504	8,7
337,715	68,09
337,926	2,56
338,138	-58,88
338,349	82,43
338,56	137,73
338,771	-24,06
338,982	82,43
339,193	-105,98
339,404	113,15
339,616	-5,63
339,827	64
340,038	-42,5
340,249	55,81
340,46	-5,63
340,671	47,62
340,882	127,49
341,093	74,24
341,304	0,51
341,515	51,71
341,726	33,28
341,937	31,23
342,148	14,85
342,359	12,8
342,57	6,66
342,781	180,73
342,992	78,33
343,203	55,81
343,414	109,05
343,624	51,71
343,835	57,86
344,046	2,56
344,257	100,86
344,468	55,81
344,679	109,05
344,89	111,1
345,1	166,4
345,311	178,69
345,522	180,73
345,733	227,84
345,944	203,26
346,154	219,64
346,365	268,8
346,576	172,54
346,787	117,25
346,997	178,69
347,208	190,97
347,419	156,16
347,629	197,12
347,84	260,6
348,051	4,61
348,261	72,19
348,472	-34,3
348,683	39,42
348,893	-17,92
349,104	72,19
349,315	-54,78
349,525	43,52
349,736	121,34
349,946	23,04
350,157	121,34
350,368	162,3
350,578	49,66
350,789	186,88
350,999	211,45
351,21	215,55
351,42	104,96
351,631	260,6
351,841	236,03
352,052	369,15
352,262	328,19
352,472	217,6
352,683	240,12
352,893	170,49
353,104	131,58
353,314	150,01
353,525	502,26
353,735	64
353,945	43,52
354,156	-65,02
354,366	100,86
354,576	41,47
354,787	39,42
354,997	-13,82
355,207	-50,69
355,418	-38,4
355,628	-1,54
355,838	43,52
356,048	-42,5
356,259	139,77
356,469	-17,92
356,679	20,99
356,889	88,57
357,1	-1,54
357,31	-32,26
357,52	23,04
357,73	-26,11
357,94	8,7
358,15	-50,69
358,361	96,77
358,571	96,77
358,781	94,72
358,991	-54,78
359,201	104,96
359,411	88,57
359,621	129,53
359,831	195,07
360,041	96,77
360,251	121,34
360,461	113,15
360,672	39,42
360,882	-13,82
361,092	-1,54
361,302	139,77
361,512	27,14
361,721	39,42
361,931	18,94
362,141	25,09
362,351	10,75
362,561	104,96
362,771	23,04
362,981	12,8
363,191	-26,11
363,401	-26,11
363,611	-22,02
363,821	-17,92
364,03	27,14
364,24	31,23
364,45	90,62
364,66	238,08
364,87	-13,82
365,08	90,62
365,289	59,9
365,499	51,71
365,709	104,96
365,919	39,42
366,128	41,47
366,338	18,94
366,548	-7,68
366,758	14,85
366,967	-24,06
367,177	41,47
367,387	16,9
367,596	14,85
367,806	59,9
368,016	57,86
368,225	39,42
368,435	109,05
368,644	-9,73
368,854	-42,5
369,064	98,81
369,273	78,33
369,483	0,51
369,692	-60,93
369,902	16,9
370,111	23,04
370,321	-36,35
370,53	33,28
370,74	-26,11
370,949	6,66
371,159	0,51
371,368	18,94
371,578	-7,68
371,787	41,47
371,997	-7,68
372,206	47,62
372,416	35,33
372,625	72,19
372,834	41,47
373,044	-32,26
373,253	64
373,462	25,09
373,672	-40,45
373,881	25,09
374,09	-1,54
374,3	-9,73
374,509	-15,87
374,718	-130,56
374,928	64
375,137	-9,73
375,346	20,99
375,555	55,81
375,765	-65,02
375,974	6,66
376,183	98,81
376,392	-9,73
376,601	-5,63
376,811	37,38
377,02	39,42
377,229	-32,26
377,438	64
377,647	72,19
377,856	-9,73
378,065	2,56
378,275	-17,92
378,484	-15,87
378,693	-3,58
378,902	-7,68
379,111	92,67
379,32	-32,26
379,529	-17,92
379,738	10,75
379,947	0,51
380,156	47,62
380,365	2,56
380,574	66,05
380,783	8,7
380,992	-38,4
381,201	-138,75
381,41	-13,82
381,619	64
381,828	-9,73
382,037	-32,26
382,245	61,95
382,454	29,18
382,663	-48,64
382,872	-52,74
383,081	51,71
383,29	82,43
383,499	-1,54
383,707	156,16
383,916	109,05
384,125	39,42
384,334	8,7
384,542	41,47
384,751	10,75
384,96	-5,63
385,169	-58,88
385,377	111,1
385,586	-62,98
385,795	117,25
386,004	82,43
386,212	-38,4
386,421	39,42
386,63	109,05
386,838	-40,45
387,047	88,57
387,255	107,01
387,464	96,77
387,673	51,71
387,881	131,58
388,09	195,07
388,298	39,42
388,507	25,09
388,715	25,09
388,924	39,42
389,133	-56,83
389,341	-65,02
389,55	68,09
389,758	-15,87
389,967	-42,5
390,175	47,62
390,383	100,86
390,592	133,63
390,8	8,7
391,009	27,14
391,217	-26,11
391,426	82,43
391,634	-50,69
391,842	33,28
392,051	-30,21
392,259	25,09
392,467	-67,07
392,676	-34,3
392,884	18,94
393,092	-58,88
393,301	49,66
393,509	31,23
393,717	57,86
393,925	-1,54
394,134	-34,3
394,342	92,67
394,55	84,48
394,758	74,24
394,967	14,85
395,175	-26,11
395,383	-17,92
395,591	39,42
395,799	68,09
396,007	-7,68
396,216	76,29
396,424	-9,73
396,632	12,8
396,84	-40,45
397,048	-62,98
397,256	35,33
397,464	-30,21
397,672	23,04
397,88	-26,11
398,088	-50,69
398,296	-5,63
398,504	-58,88
398,712	-38,4
398,92	-24,06
399,128	-60,93
399,336	72,19
399,544	59,9
399,752	-5,63
399,96	8,7
400,168	53,76
400,376	-9,73
400,584	37,38
400,792	-46,59
401	-34,3
401,207	-79,36
401,415	31,23
401,623	20,99
401,831	-17,92
402,039	33,28
402,247	80,38
402,454	-5,63
402,662	-1,54
402,87	66,05
403,078	129,53
403,285	115,2
403,493	0,51
403,701	33,28
403,909	20,99
404,116	47,62
404,324	-7,68
404,532	39,42
404,739	-15,87
404,947	-26,11
405,155	-9,73
405,362	80,38
405,57	-58,88
405,778	-46,59
405,985	20,99
406,193	6,66
406,4	-1,54
406,608	43,52
406,816	96,77
407,023	-24,06
407,231	-1,54
407,438	-19,97
407,646	6,66
407,853	-46,59
408,061	-36,35
408,268	55,81
408,476	39,42
408,683	66,05
408,89	31,23
409,098	23,04
409,305	72,19
409,513	55,81
409,72	8,7
409,927	-54,78
410,135	78,33
410,342	-34,3
410,55	33,28
410,757	-32,26
410,964	-17,92
411,172	8,7
411,379	31,23
411,586	-34,3
411,793	-50,69
412,001	-17,92
412,208	-9,73
412,415	-9,73
412,622	18,94
412,83	14,85
413,037	-54,78
413,244	-48,64
413,451	68,09
413,658	76,29
413,866	57,86
414,073	49,66
414,28	145,92
414,487	-75,26
414,694	47,62
414,901	10,75
415,108	-30,21
415,315	96,77
415,522	68,09
415,73	-19,97
415,937	-108,03
416,144	-48,64
416,351	-56,83
416,558	14,85
416,765	14,85
416,972	-40,45
417,179	80,38
417,386	14,85
417,593	14,85
417,8	25,09
418,006	8,7
418,213	-17,92
418,42	80,38
418,627	123,39
418,834	-24,06
419,041	-65,02
419,248	-71,17
419,455	90,62
419,661	-17,92
419,868	-50,69
420,075	20,99
420,282	-99,84
420,489	-17,92
420,696	23,04
420,902	64
421,109	156,16
421,316	-3,58
421,523	104,96
421,729	0,51
421,936	-36,35
422,143	76,29
422,349	2,56
422,556	-91,65
422,763	113,15
422,969	-67,07
423,176	-83,45
423,383	39,42
423,589	256,51
423,796	55,81
424,002	-65,02
424,209	55,81
424,416	6,66
424,622	-91,65
424,829	-42,5
425,035	-32,26
425,242	33,28
425,448	-26,11
425,655	57,86
425,861	-58,88
426,068	115,2
426,274	68,09
426,481	-19,97
426,687	156,16
426,894	-58,88
427,1	-22,02
427,306	-15,87
427,513	14,85
427,719	10,75
427,926	29,18
428,132	33,28
428,338	-19,97
428,545	-34,3
428,751	-46,59
428,957	47,62
429,163	6,66
429,37	96,77
429,576	-9,73
429,782	33,28
429,989	-1,54
430,195	53,76
430,401	12,8
430,607	47,62
430,813	-7,68
431,02	70,14
431,226	64
431,432	-13,82
431,638	6,66
431,844	-7,68
432,05	-58,88
432,257	23,04
432,463	137,73
432,669	2,56
432,875	-9,73
433,081	-50,69
433,287	-15,87
433,493	-52,74
433,699	88,57
433,905	-3,58
434,111	-56,83
434,317	-5,63
434,523	143,87
434,729	0,51
434,935	-67,07
435,141	14,85
435,347	-15,87
435,553	-34,3
435,759	-1,54
435,965	-7,68
436,171	115,2
436,377	109,05
436,582	68,09
436,788	-97,79
436,994	57,86
437,2	-40,45
437,406	-22,02
437,612	64
437,818	41,47
438,023	-175,61
438,229	199,16
438,435	43,52
438,641	-38,4
438,846	10,75
439,052	72,19
439,258	31,23
439,464	-15,87
439,669	66,05
439,875	207,36
440,081	-50,69
440,286	-50,69
440,492	-5,63
440,698	41,47
440,903	39,42
441,109	68,09
441,314	-83,45
441,52	-67,07
441,726	76,29
441,931	-69,12
442,137	47,62
442,342	-30,21
442,548	137,73
442,753	129,53
442,959	41,47
443,164	-34,3
443,37	92,67
443,575	-17,92
443,781	-9,73
443,986	131,58
444,192	10,75
444,397	-56,83
444,602	0,51
444,808	-50,69
445,013	-17,92
445,219	8,7
445,424	18,94
445,629	64
445,835	98,81
446,04	-24,06
446,245	31,23
446,451	14,85
446,656	33,28
446,861	45,57
447,066	49,66
447,272	55,81
447,477	76,29
447,682	-48,64
447,887	-5,63
448,093	33,28
448,298	51,71
448,503	37,38
448,708	-56,83
448,913	-128,51
449,118	0,51
449,324	25,09
449,529	35,33
449,734	64
449,939	-28,16
450,144	57,86
450,349	18,94
450,554	-42,5
450,759	-9,73
450,964	23,04
451,169	16,9
451,374	-28,16
451,579	16,9
451,784	-1,54
451,989	68,09
452,194	2,56
452,399	27,14
452,604	-32,26
452,809	-71,17
453,014	-24,06
453,219	-7,68
453,424	47,62
453,629	-28,16
453,833	2,56
454,038	104,96
454,243	-28,16
454,448	64
454,653	131,58
454,858	39,42
455,062	-30,21
455,267	-30,21
455,472	33,28
455,677	14,85
455,882	57,86
456,086	70,14
456,291	10,75
456,496	-5,63
456,7	-26,11
456,905	-17,92
457,11	-44,54
457,314	-56,83
457,519	-42,5
457,724	-108,03
457,928	16,9
458,133	31,23
458,338	49,66
458,542	-42,5
458,747	14,85
458,951	10,75
459,156	115,2
459,36	-83,45
459,565	113,15
459,769	-17,92
459,974	88,57
460,178	27,14
460,383	-15,87
460,587	-13,82
460,792	96,77
460,996	31,23
461,201	39,42
461,405	14,85
461,61	-7,68
461,814	117,25
462,018	10,75
462,223	6,66
462,427	2,56
462,631	-24,06
462,836	47,62
463,04	72,19
463,244	178,69
463,449	-30,21
463,653	254,46
463,857	-1,54
464,062	33,28
464,266	14,85
464,47	55,81
464,674	76,29
464,878	41,47
465,083	68,09
465,287	82,43
465,491	74,24
465,695	39,42
465,899	-9,73
466,104	64
466,308	47,62
466,512	25,09
466,716	76,29
466,92	-42,5
467,124	55,81
467,328	6,66
467,532	80,38
467,736	-48,64
467,94	-9,73
468,144	27,14
468,348	23,04
468,552	96,77
468,756	33,28
468,96	29,18
469,164	-13,82
469,368	49,66
469,572	16,9
469,776	123,39
469,98	16,9
470,184	57,86
470,388	219,64
470,591	88,57
470,795	186,88
470,999	82,43
471,203	129,53
471,407	139,77
471,611	78,33
471,814	123,39
472,018	-17,92
472,222	59,9
472,426	104,96
472,63	123,39
472,833	64
473,037	64
473,241	14,85
473,444	74,24
473,648	571,9
473,852	-15,87
474,055	-9,73
474,259	-26,11
474,463	8,7
474,666	92,67
474,87	43,52
475,074	45,57
475,277	100,86
475,481	27,14
475,684	14,85
475,888	39,42
476,091	59,9
476,295	-58,88
476,498	-67,07
476,702	14,85
476,905	64
477,109	150,01
477,312	-26,11
477,516	-34,3
477,719	57,86
477,923	-1,54
478,126	104,96
478,329	78,33
478,533	-22,02
478,736	74,24
478,94	6,66
479,143	41,47
479,346	-67,07
479,55	72,19
479,753	115,2
479,956	-62,98
480,159	-54,78
480,363	51,71
480,566	39,42
480,769	47,62
480,972	-58,88
481,176	-22,02
481,379	25,09
481,582	68,09
481,785	-7,68
481,988	31,23
482,192	180,73
482,395	129,53
482,598	31,23
482,801	47,62
483,004	131,58
483,207	82,43
483,41	57,86
483,613	76,29
483,817	82,43
484,02	82,43
484,223	6,66
484,426	64
484,629	-24,06
484,832	39,42
485,035	55,81
485,238	78,33
485,441	80,38
485,644	8,7
485,846	-5,63
486,049	-34,3
486,252	-9,73
486,455	-40,45
486,658	64
486,861	16,9
487,064	64
487,267	-73,21
487,47	80,38
487,672	37,38
487,875	47,62
488,078	49,66
488,281	55,81
488,484	80,38
488,686	113,15
488,889	-17,92
489,092	-34,3
489,295	57,86
489,497	117,25
489,7	80,38
489,903	8,7
490,105	-28,16
490,308	-17,92
490,511	-13,82
490,713	-17,92
490,916	-48,64
491,118	76,29
491,321	23,04
491,524	-87,55
491,726	18,94
491,929	-69,12
492,131	31,23
492,334	-26,11
492,536	-15,87
492,739	-26,11
492,941	45,57
493,144	51,71
493,346	25,09
493,549	55,81
493,751	64
493,954	12,8
494,156	59,9
494,359	-13,82
494,561	-99,84
494,763	96,77
494,966	72,19
495,168	18,94
495,37	-40,45
495,573	47,62
495,775	96,77
495,977	86,53
496,18	25,09
496,382	72,19
496,584	53,76
496,787	117,25
496,989	39,42
497,191	-9,73
497,393	82,43
497,595	-28,16
497,798	-7,68
498	72,19
498,202	-38,4
498,404	39,42
498,606	6,66
498,808	61,95
499,011	84,48
499,213	-26,11
499,415	57,86
499,617	23,04
499,819	68,09
500,021	23,04
500,223	10,75
500,425	-22,02
500,627	-38,4
500,829	39,42
501,031	-24,06
501,233	33,28
501,435	100,86
501,637	150,01
501,839	123,39
502,041	45,57
502,243	47,62
502,445	-15,87
502,647	90,62
502,848	115,2
503,05	55,81
503,252	154,11
503,454	170,49
503,656	227,84
503,858	238,08
504,059	229,88
504,261	233,98
504,463	246,27
504,665	193,02
504,867	104,96
505,068	102,91
505,27	227,84
505,472	162,3
505,673	55,81
505,875	68,09
506,077	-54,78
506,278	-32,26
506,48	-26,11
506,682	31,23
506,883	74,24
507,085	100,86
507,287	25,09
507,488	154,11
507,69	195,07
507,891	64
508,093	303,61
508,294	127,49
508,496	129,53
508,697	156,16
508,899	203,26
509,1	123,39
509,302	129,53
509,503	109,05
509,705	72,19
509,906	41,47
510,108	-9,73
510,309	6,66
510,51	33,28
510,712	72,19
510,913	41,47
511,114	117,25
511,316	100,86
511,517	260,6
511,718	190,97
511,92	186,88
512,121	227,84
512,322	219,64
512,524	367,1
512,725	236,03
512,926	236,03
513,127	39,42
513,329	221,69
513,53	-1,54
513,731	125,44
513,932	104,96
514,133	64
514,334	76,29
514,536	172,54
514,737	213,5
514,938	113,15
515,139	158,21
515,34	166,4
515,541	203,26
515,742	131,58
515,943	178,69
516,144	150,01
516,345	162,3
516,546	154,11
516,747	86,53
516,948	-7,68
517,149	18,94
517,35	-5,63
517,551	0,51
517,752	31,23
517,953	137,73
518,154	82,43
518,355	168,45
518,556	102,91
518,756	98,81
518,957	70,14
519,158	156,16
519,359	227,84
519,56	104,96
519,761	178,69
519,961	256,51
520,162	260,6
520,363	162,3
520,564	166,4
520,764	309,76
520,965	147,97
521,166	281,08
521,366	172,54
521,567	252,41
521,768	145,92
521,968	51,71
522,169	96,77
522,37	88,57
522,57	-22,02
522,771	25,09
522,972	8,7
523,172	131,58
523,373	47,62
523,573	68,09
523,774	57,86
523,974	193,02
524,175	88,57
524,375	10,75
524,576	39,42
524,776	-17,92
524,977	64
525,177	104,96
525,378	25,09
525,578	35,33
525,778	49,66
525,979	74,24
526,179	72,19
526,38	25,09
526,58	10,75
526,78	27,14
526,981	88,57
527,181	23,04
527,381	43,52
527,582	96,77
527,782	104,96
527,982	59,9
528,182	31,23
528,383	64
528,583	-1,54
528,783	129,53
528,983	68,09
529,183	-5,63
529,384	29,18
529,584	80,38
529,784	162,3
529,984	125,44
530,184	55,81
530,384	107,01
530,584	45,57
530,784	59,9
530,984	14,85
531,185	162,3
531,385	129,53
531,585	213,5
531,785	131,58
531,985	104,96
532,185	113,15
532,385	74,24
532,585	250,36
532,785	287,23
532,984	276,99
533,184	508,41
533,384	332,28
533,584	481,78
533,784	645,62
533,984	631,29
534,184	563,7
534,384	590,33
534,583	590,33
534,783	498,17
534,983	580,09
535,183	434,68
535,383	285,18
535,582	342,52
535,782	270,84
535,982	256,51
536,182	141,82
536,381	137,73
536,581	74,24
536,781	131,58
536,98	55,81
537,18	57,86
537,38	107,01
537,579	80,38
537,779	-24,06
537,979	131,58
538,178	57,86
538,378	129,53
538,577	47,62
538,777	121,34
538,976	47,62
539,176	201,21
539,376	172,54
539,575	223,74
539,774	391,67
539,974	375,29
540,173	530,94
540,373	524,79
540,572	575,99
540,772	573,94
540,971	465,4
541,171	504,31
541,37	416,25
541,569	363
541,769	293,37
541,968	186,88
542,167	150,01
542,367	104,96
542,566	41,47
542,765	47,62
542,965	6,66
543,164	45,57
543,363	33,28
543,562	4,61
543,761	80,38
543,961	80,38
544,16	-46,59
544,359	172,54
544,558	109,05
544,757	-17,92
544,957	-3,58
545,156	82,43
545,355	43,52
545,554	41,47
545,753	23,04
545,952	-24,06
546,151	33,28
546,35	55,81
546,549	-15,87
546,748	88,57
546,947	27,14
547,146	-32,26
547,345	61,95
547,544	-42,5
547,743	0,51
547,942	47,62
548,141	6,66
548,34	70,14
548,539	8,7
548,738	-38,4
548,937	8,7
549,135	35,33
549,334	-38,4
549,533	23,04
549,732	25,09
549,931	98,81
550,13	0,51
550,328	14,85
550,527	23,04
550,726	-11,78
550,925	6,66
551,123	25,09
551,322	31,23
551,521	64
551,72	66,05
551,918	80,38
552,117	82,43
552,315	27,14
552,514	-1,54
552,713	-5,63
552,911	-58,88
553,11	-58,88
553,309	14,85
553,507	39,42
553,706	41,47
553,904	88,57
554,103	37,38
554,301	49,66
554,5	-1,54
554,698	127,49
554,897	18,94
555,095	-65,02
555,294	43,52
555,492	-32,26
555,69	72,19
555,889	-48,64
556,087	76,29
556,286	178,69
556,484	137,73
556,682	98,81
556,881	33,28
557,079	92,67
557,277	51,71
557,476	64
557,674	125,44
557,872	176,64
558,07	33,28
558,269	12,8
558,467	55,81
558,665	96,77
558,863	80,38
559,062	-62,98
559,26	49,66
559,458	18,94
559,656	66,05
559,854	47,62
560,052	88,57
560,25	64
560,449	287,23
560,647	88,57
560,845	-58,88
561,043	23,04
561,241	80,38
561,439	80,38
561,637	0,51
561,835	16,9
562,033	39,42
562,231	43,52
562,429	31,23
562,627	59,9
562,825	-32,26
563,023	33,28
563,221	45,57
563,418	6,66
563,616	39,42
563,814	96,77
564,012	-15,87
564,21	84,48
564,408	39,42
564,605	8,7
564,803	39,42
565,001	317,95
565,199	158,21
565,397	184,83
565,594	205,31
565,792	254,46
565,99	129,53
566,188	289,28
566,385	256,51
566,583	236,03
566,781	270,84
566,978	96,77
567,176	246,27
567,373	139,77
567,571	119,29
567,769	137,73
567,966	-9,73
568,164	170,49
568,361	-15,87
568,559	119,29
568,756	76,29
568,954	150,01
569,151	145,92
569,349	223,74
569,546	156,16
569,744	164,35
569,941	188,93
570,139	162,3
570,336	39,42
570,534	154,11
570,731	98,81
570,928	14,85
571,126	203,26
571,323	156,16
571,52	-34,3
571,718	80,38
571,915	168,45
572,112	74,24
572,31	12,8
572,507	147,97
572,704	137,73
572,901	84,48
573,099	51,71
573,296	154,11
573,493	41,47
573,69	33,28
573,887	82,43
574,085	205,31
574,282	123,39
574,479	170,49
574,676	213,5
574,873	164,35
575,07	264,7
575,267	346,62
575,464	309,76
575,661	489,98
575,858	502,26
576,055	612,85
576,252	768,5
576,449	819,7
576,646	915,95
576,843	1022,45
577,04	1090,03
577,237	1006,06
577,434	893,43
577,631	795,12
577,828	707,06
578,025	489,98
578,222	346,62
578,419	322,04
578,615	162,3
578,812	158,21
579,009	115,2
579,206	80,38
579,403	129,53
579,599	289,28
579,796	141,82
579,993	350,71
580,19	147,97
580,386	303,61
580,583	254,46
580,78	301,56
580,976	363
581,173	276,99
581,37	352,76
581,566	498,17
581,763	453,11
581,96	510,46
582,156	606,71
582,353	737,78
582,549	698,87
582,746	645,62
582,942	563,7
583,139	526,84
583,335	608,76
583,532	991,73
583,728	1653,22
583,925	2726,36
584,121	4295,1
584,318	6396,32
584,514	8841,59
584,711	12017,99
584,907	15360,28
585,103	19742,93
585,3	23292,06
585,496	26941,54
585,693	29151,3
585,889	29876,28
586,085	28956,74
586,281	26275,95
586,478	22646,95
586,674	18829,54
586,87	16662,79
587,067	14108,97
587,263	11082,07
587,459	8415,62
587,655	6603,16
587,851	5507,5
588,048	5265,84
588,244	5308,85
588,44	5642,67
588,636	5913
588,832	5824,94
589,028	5562,8
589,224	5054,9
589,42	4348,35
589,617	3862,98
589,813	3326,41
590,009	2910,68
590,205	2591,19
590,401	1786,34
590,597	1415,66
590,793	1231,34
590,989	979,44
591,185	1063,41
591,38	842,23
591,576	764,4
591,772	723,44
591,968	653,81
592,164	653,81
592,36	502,26
592,556	442,87
592,752	532,98
592,948	729,59
593,143	942,58
593,339	1432,04
593,535	2007,52
593,731	2834,9
593,926	3963,33
594,122	4987,32
594,318	6150,56
594,514	7340,43
594,709	8710,52
594,905	9304,43
595,101	9716,08
595,296	9202,04
595,492	8395,14
595,688	7494,03
595,883	6470,05
596,079	5740,97
596,275	4940,21
596,47	4164,03
596,666	3242,45
596,861	2619,86
597,057	2120,16
597,252	2202,08
597,448	2132,45
597,643	2589,14
597,839	2726,36
598,034	2703,83
598,23	2578,9
598,425	2652,63
598,621	2310,62
598,816	2116,06
599,011	1851,88
599,207	1567,21
599,402	1366,51
599,597	1186,29
599,793	913,91
599,988	602,61
600,183	444,92
600,379	418,3
600,574	338,43
600,769	252,41
600,965	236,03
601,16	219,64
601,355	180,73
601,55	375,29
601,745	451,07
601,941	469,5
602,136	797,17
602,331	965,11
602,526	1247,72
602,721	1610,22
602,916	1921,51
603,111	2212,32
603,307	2443,74
603,502	2646,49
603,697	2564,57
603,892	2558,42
604,087	2378,2
604,282	2068,96
604,477	1866,21
604,672	1589,74
604,867	1346,03
605,062	1001,97
605,257	803,32
605,452	551,42
605,646	520,7
605,841	498,17
606,036	852,47
606,231	1022,45
606,426	1645,03
606,621	2390,49
606,816	3279,31
607,01	4417,98
607,205	5472,68
607,4	6355,36
607,595	7854,47
607,79	8628,6
607,984	9183,6
608,179	9263,47
608,374	9427,31
608,569	9554,29
608,763	9167,22
608,958	9771,37
609,153	10453,34
609,347	11270,48
609,542	11979,08
609,736	12732,73
609,931	13031,74
610,126	13230,39
610,32	12892,48
610,515	12278,08
610,709	11348,31
610,904	9595,25
611,098	8149,38
611,293	7043,48
611,487	5904,81
611,682	4411,84
611,876	3287,5
612,071	2300,38
612,265	1546,73
612,46	1315,31
612,654	1227,25
612,848	1825,25
613,043	2615,77
613,237	3752,39
613,432	5314,99
613,626	6979,99
613,82	9519,47
614,014	11993,42
614,209	14770,46
614,403	17228,03
614,597	19456,22
614,792	20500,68
614,986	20981,95
615,18	20234,44
615,374	18755,81
615,568	16742,66
615,763	15456,53
615,957	14315,81
616,151	12855,61
616,345	11692,37
616,539	10592,61
616,733	9152,88
616,927	7920,01
617,121	6810,01
617,316	6371,74
617,51	5302,7
617,704	4587,96
617,898	4043,2
618,092	3482,06
618,286	3033,55
618,48	2310,62
618,674	1923,55
618,868	1360,36
619,061	887,28
619,255	813,56
619,449	571,9
619,643	383,48
619,837	584,18
620,031	416,25
620,225	575,99
620,419	664,05
620,612	965,11
620,806	1247,72
621	1581,54
621,194	2058,72
621,388	2529,75
621,581	3066,32
621,775	3553,74
621,969	4002,24
622,162	4243,9
622,356	4424,12
622,55	4266,43
622,743	3916,23
622,937	3600,84
623,131	3074,51
623,324	2679,26
623,518	2253,28
623,712	1915,36
623,905	1427,95
624,099	1114,61
624,292	721,4
624,486	510,46
624,679	334,33
624,873	383,48
625,066	444,92
625,26	743,92
625,453	1186,29
625,647	1841,64
625,84	2636,25
626,034	3627,46
626,227	4778,42
626,42	5788,07
626,614	7121,3
626,807	8325,5
627	9116,02
627,194	9247,09
627,387	9511,28
627,58	9023,86
627,774	7913,86
627,967	7092,63
628,16	6291,87
628,353	5503,4
628,547	4661,69
628,74	3768,77
628,933	2824,66
629,126	2234,85
629,319	1765,86
629,513	1761,77
629,706	1702,37
629,899	2187,74
630,092	2636,25
630,285	3105,23
630,478	3787,21
630,671	4280,77
630,864	4571,58
631,057	4811,19
631,25	4708,79
631,443	4364,73
631,636	4145,6
631,829	3955,14
632,022	3998,15
632,215	4323,77
632,408	4913,59
632,601	5769,64
632,794	6601,12
632,987	8128,9
633,18	9660,78
633,373	11409,75
633,566	12968,25
633,758	13719,85
633,951	14997,79
634,144	15194,39
634,337	14381,35
634,53	13009,21
634,722	11694,41
634,915	9683,31
635,108	8808,83
635,301	7676,3
635,493	6285,73
635,686	4923,83
635,879	3244,49
636,071	2107,87
636,264	1448,43
636,457	1008,11
636,649	766,45
636,842	975,35
637,034	1645,03
637,227	2320,86
637,42	3187,15
637,612	4391,36
637,805	5740,97
637,997	7481,74
638,19	9040,25
638,382	10541,41
638,575	12474,69
638,767	14989,6
638,96	17373,43
639,152	19753,17
639,344	23238,81
639,537	27021,41
639,729	31494,18
639,922	37212,1
640,114	42821,49
640,306	47689,51
640,499	51455,73
640,691	52535,01
640,883	53315,28
641,075	50188,03
641,268	45840,2
641,46	39913,37
641,652	34439,15
641,844	30423,09
642,037	26499,18
642,229	21731,51
642,421	17377,53
642,613	12222,79
642,805	7768,46
642,998	4921,78
643,19	3168,72
643,382	2058,72
643,574	1393,13
643,766	1030,64
643,958	809,46
644,15	655,86
644,342	655,86
644,534	526,84
644,726	326,14
644,918	391,67
645,11	268,8
645,302	320
645,494	276,99
645,686	244,22
645,878	104,96
646,07	227,84
646,262	188,93
646,453	150,01
646,645	227,84
646,837	154,11
647,029	205,31
647,221	113,15
647,413	186,88
647,604	205,31
647,796	162,3
647,988	250,36
648,18	211,45
648,371	104,96
648,563	145,92
648,755	197,12
648,947	276,99
649,138	637,43
649,33	1491,43
649,521	2521,56
649,713	3971,52
649,905	5595,56
650,096	7651,72
650,288	9972,07
650,479	12534,08
650,671	14948,64
650,863	17142,01
651,054	18288,87
651,246	18483,43
651,437	18018,54
651,629	17311,99
651,82	15825,17
652,011	13945,13
652,203	12310,85
652,394	11635,02
652,586	10568,03
652,777	9355,63
652,968	8077,7
653,16	7027,09
653,351	6146,47
653,542	5939,62
653,734	5358
653,925	5142,96
654,116	4866,49
654,308	4438,46
654,499	3756,49
654,69	3406,28
654,881	3045,84
655,073	2517,47
655,264	2382,3
655,455	1939,94
655,646	1468,91
655,837	1055,22
656,028	737,78
656,219	481,78
656,411	276,99
656,602	264,7
656,793	276,99
656,984	162,3
657,175	96,77
657,366	137,73
657,557	195,07
657,748	113,15
657,939	100,86
658,13	64
658,321	270,84
658,512	567,8
658,703	850,42
658,894	1223,15
659,084	1743,33
659,275	2456,03
659,466	3045,84
659,657	4145,6
659,848	4882,87
660,039	5626,28
660,23	6306,21
660,42	6381,98
660,611	6291,87
660,802	5996,96
660,993	5491,12
661,183	5011,89
661,374	4170,18
661,565	4014,53
661,755	3320,27
661,946	2890,2
662,137	2284
662,327	1808,87
662,518	1069,55
662,709	727,54
662,899	449,02
663,09	342,52
663,28	254,46
663,471	113,15
663,662	313,85
663,852	178,69
664,043	84,48
664,233	96,77
664,424	137,73
664,614	55,81
664,804	137,73
664,995	236,03
665,185	221,69
665,376	70,14
665,566	164,35
665,756	135,68
665,947	186,88
666,137	164,35
666,328	532,98
666,518	885,23
666,708	1569,26
666,898	2367,96
667,089	3480,01
667,279	4803
667,469	6162,85
667,659	7571,85
667,85	8862,07
668,04	10533,22
668,23	11032,92
668,42	11231,57
668,61	10983,77
668,8	10770,78
668,991	9468,27
669,181	8450,43
669,371	7408,01
669,561	6404,51
669,751	5734,82
669,941	4884,92
670,131	4002,24
670,321	3109,33
670,511	2548,19
670,701	2316,76
670,891	2603,48
671,081	2832,85
671,271	3652,04
671,461	4430,27
671,651	5218,74
671,841	6062,5
672,03	6449,57
672,22	6660,51
672,41	6668,7
672,6	6404,51
672,79	5947,81
672,98	5366,19
673,169	4487,61
673,359	4110,79
673,549	3588,55
673,739	3029,46
673,928	2456,03
674,118	2183,65
674,308	1362,41
674,497	973,3
674,687	522,74
674,877	401,91
675,066	260,6
675,256	162,3
675,446	211,45
675,635	129,53
675,825	82,43
676,014	98,81
676,204	96,77
676,393	164,35
676,583	139,77
676,772	129,53
676,962	-5,63
677,151	23,04
677,341	0,51
677,53	66,05
677,72	137,73
677,909	82,43
678,099	2,56
678,288	-7,68
678,477	84,48
678,667	25,09
678,856	16,9
679,045	86,53
679,235	90,62
679,424	109,05
679,613	6,66
679,802	96,77
679,992	-5,63
680,181	53,76
680,37	80,38
680,559	84,48
680,748	49,66
680,938	39,42
681,127	66,05
681,316	64
681,505	90,62
681,694	-13,82
681,883	33,28
682,072	80,38
682,261	96,77
682,45	-26,11
682,639	-1,54
682,828	102,91
683,017	107,01
683,206	14,85
683,395	31,23
683,584	64
683,773	47,62
683,962	-1,54
684,151	8,7
684,34	76,29
684,529	57,86
684,718	8,7
684,907	23,04
685,095	96,77
685,284	115,2
685,473	90,62
685,662	104,96
685,851	80,38
686,039	66,05
686,228	88,57
686,417	-9,73
686,606	178,69
686,794	74,24
686,983	-26,11
687,172	104,96
687,36	8,7
687,549	72,19
687,738	-17,92
687,926	23,04
688,115	-17,92
688,303	49,66
688,492	90,62
688,68	27,14
688,869	6,66
689,057	-24,06
689,246	-87,55
689,434	64
689,623	90,62
689,811	51,71
690	39,42
690,188	-62,98
690,377	43,52
690,565	129,53
690,753	90,62
690,942	55,81
691,13	113,15
691,318	193,02
691,507	317,95
691,695	834,04
691,883	1413,61
692,072	2202,08
692,26	3234,25
692,448	4465,08
692,636	5642,67
692,824	6988,18
693,013	7950,73
693,201	8829,31
693,389	9374,06
693,577	9404,78
693,765	9179,51
693,953	8817,02
694,141	7836,04
694,329	6832,54
694,518	5956,01
694,706	5597,61
694,894	4835,77
695,082	4170,18
695,27	3504,59
695,458	2707,93
695,646	1950,18
695,834	1362,41
696,022	823,8
696,209	530,94
696,397	399,87
696,585	297,47
696,773	219,64
696,961	170,49
697,149	16,9
697,337	92,67
697,525	180,73
697,712	35,33
697,9	88,57
698,088	68,09
698,276	33,28
698,463	39,42
698,651	137,73
698,839	55,81
699,027	59,9
699,214	74,24
699,402	55,81
699,59	16,9
699,777	49,66
699,965	137,73
700,152	66,05
700,34	-3,58
700,528	27,14
700,715	41,47
700,903	109,05
701,09	45,57
701,278	111,1
701,465	154,11
701,653	326,14
701,84	725,49
702,028	1538,54
702,215	2480,6
702,402	3516,87
702,59	4929,97
702,777	6390,17
702,965	7960,97
703,152	9388,4
703,339	10889,56
703,527	11819,34
703,714	12022,09
703,901	12228,93
704,088	11755,85
704,276	11155,8
704,463	10002,79
704,65	8472,96
704,837	7518,61
705,025	7072,15
705,212	6031,78
705,399	5245,36
705,586	4694,46
705,773	3799,49
705,96	2795,99
706,147	2116,06
706,335	1354,22
706,522	1092,08
706,709	727,54
706,896	555,51
707,083	457,21
707,27	303,61
707,457	350,71
707,644	272,89
707,831	162,3
708,018	72,19
708,205	129,53
708,392	145,92
708,578	160,25
708,765	113,15
708,952	72,19
709,139	74,24
709,326	49,66
709,513	16,9
709,7	23,04
709,886	109,05
710,073	109,05
710,26	104,96
710,447	127,49
710,633	49,66
710,82	25,09
711,007	-32,26
711,193	25,09
711,38	66,05
711,567	104,96
711,753	72,19
711,94	6,66
712,127	137,73
712,313	80,38
712,5	104,96
712,686	96,77
712,873	12,8
713,059	57,86
713,246	131,58
713,432	18,94
713,619	-3,58
713,805	96,77
713,992	98,81
714,178	102,91
714,365	86,53
714,551	104,96
714,737	0,51
714,924	-34,3
715,11	43,52
715,297	35,33
715,483	6,66
715,669	0,51
715,855	88,57
716,042	74,24
716,228	238,08
716,414	424,44
716,6	571,9
716,787	786,93
716,973	1055,22
717,159	1319,4
717,345	1432,04
717,531	1759,72
717,718	1948,13
717,904	1829,35
718,09	1890,79
718,276	1696,23
718,462	1753,57
718,648	1591,78
718,834	1341,93
719,02	1221,1
719,206	1008,11
719,392	915,95
719,578	801,27
719,764	694,77
719,95	510,46
720,136	573,94
720,322	295,42
720,508	260,6
720,694	246,27
720,879	115,2
721,065	156,16
721,251	16,9
721,437	74,24
721,623	158,21
721,809	98,81
721,994	94,72
722,18	23,04
722,366	39,42
722,552	80,38
722,737	37,38
722,923	174,59
723,109	135,68
723,294	473,59
723,48	817,65
723,666	1368,56
723,851	1843,68
724,037	2499,03
724,222	3176,91
724,408	4045,25
724,593	4385,21
724,779	4979,12
724,965	4919,73
725,15	5085,62
725,336	5061,04
725,521	4643,26
725,706	4264,38
725,892	3783,11
726,077	3183,06
726,263	2920,92
726,448	2707,93
726,634	2294,24
726,819	2001,38
727,004	1804,77
727,19	1407,47
727,375	1214,96
727,56	662,01
727,745	410,11
727,931	420,35
728,116	188,93
728,301	145,92
728,486	199,16
728,672	72,19
728,857	98,81
729,042	61,95
729,227	14,85
729,412	18,94
729,597	39,42
729,783	-32,26
729,968	49,66
730,153	150,01
730,338	8,7
730,523	49,66
730,708	47,62
730,893	47,62
731,078	-17,92
731,263	72,19
731,448	55,81
731,633	35,33
731,818	-48,64
732,003	6,66
732,187	-34,3
732,372	0,51
732,557	78,33
732,742	-40,45
732,927	-71,17
733,112	6,66
733,297	10,75
733,481	-42,5
733,666	115,2
733,851	84,48
734,036	25,09
734,22	12,8
734,405	150,01
734,59	41,47
734,774	57,86
734,959	-75,26
735,144	2,56
735,328	-5,63
735,513	-42,5
735,698	-9,73
735,882	96,77
736,067	115,2
736,251	51,71
736,436	-24,06
736,62	33,28
736,805	-75,26
736,989	111,1
737,174	-54,78
737,358	-65,02
737,543	104,96
737,727	45,57
737,911	70,14
738,096	25,09
738,28	43,52
738,465	31,23
738,649	33,28
738,833	51,71
739,018	43,52
739,202	27,14
739,386	23,04
739,57	-9,73
739,755	78,33
739,939	14,85
740,123	-7,68
740,307	68,09
740,491	55,81
740,676	14,85
740,86	72,19
741,044	96,77
741,228	-46,59
741,412	-5,63
741,596	-56,83
741,78	-73,21
741,964	84,48
742,148	18,94
742,332	55,81
742,516	-56,83
742,7	80,38
742,884	213,5
743,068	326,14
743,252	455,16
743,436	707,06
743,62	715,25
743,804	1081,84
743,988	1178,09
744,172	1268,2
744,356	1223,15
744,539	1155,57
744,723	1153,52
744,907	1059,31
745,091	973,3
745,275	834,04
745,458	827,89
745,642	662,01
745,826	563,7
746,009	557,56
746,193	530,94
746,377	459,26
746,56	483,83
746,744	399,87
746,928	221,69
747,111	186,88
747,295	72,19
747,478	119,29
747,662	64
747,846	219,64
748,029	180,73
748,213	248,32
748,396	244,22
748,58	348,67
748,763	367,1
748,946	350,71
749,13	547,32
749,313	471,54
749,497	598,52
749,68	442,87
749,863	383,48
750,047	356,86
750,23	358,91
750,413	369,15
750,597	293,37
750,78	221,69
750,963	231,93
751,146	121,34
751,33	162,3
751,513	160,25
751,696	80,38
751,879	156,16
752,062	8,7
752,246	51,71
752,429	43,52
752,612	152,06
752,795	121,34
752,978	170,49
753,161	133,63
753,344	260,6
753,527	317,95
753,71	449,02
753,893	500,22
754,076	428,54
754,259	492,02
754,442	377,34
754,625	360,95
754,808	541,18
754,991	375,29
755,174	281,08
755,357	334,33
755,539	268,8
755,722	291,32
755,905	221,69
756,088	170,49
756,271	123,39
756,453	193,02
756,636	174,59
756,819	96,77
757,002	72,19
757,184	111,1
757,367	240,12
757,55	47,62
757,732	96,77
757,915	90,62
758,098	-54,78
758,28	98,81
758,463	72,19
758,645	66,05
758,828	18,94
759,011	113,15
759,193	45,57
759,376	76,29
759,558	72,19
759,741	25,09
759,923	-5,63
760,105	-9,73
760,288	37,38
760,47	-83,45
760,653	-46,59
760,835	41,47
761,017	2,56
761,2	-1,54
761,382	80,38
761,564	-1,54
761,747	74,24
761,929	16,9
762,111	51,71
762,294	6,66
762,476	129,53
762,658	49,66
762,84	74,24
763,022	16,9
763,205	66,05
763,387	113,15
763,569	41,47
763,751	-42,5
763,933	-17,92
764,115	-58,88
764,297	39,42
764,479	47,62
764,661	-17,92
764,843	113,15
765,025	35,33
765,207	41,47
765,389	-38,4
765,571	-75,26
765,753	53,76
765,935	2,56
766,117	8,7
766,299	84,48
766,481	133,63
766,663	23,04
766,845	-26,11
767,026	39,42
767,208	64
767,39	-69,12
767,572	-17,92
767,753	80,38
767,935	29,18
768,117	-54,78
768,299	117,25
768,48	49,66
768,662	49,66
768,844	-5,63
769,025	145,92
769,207	57,86
769,389	-85,5
769,57	25,09
769,752	80,38
769,933	-42,5
770,115	115,2
770,296	-17,92
770,478	72,19
770,659	33,28
770,841	170,49
771,022	90,62
771,204	59,9
771,385	-15,87
771,567	12,8
771,748	125,44
771,929	-34,3
772,111	31,23
772,292	64
772,473	47,62
772,655	41,47
772,836	57,86
773,017	72,19
773,199	8,7
773,38	23,04
773,561	10,75
773,742	59,9
773,923	55,81
774,105	125,44
774,286	49,66
774,467	53,76
774,648	14,85
774,829	64
775,01	-9,73
775,191	-62,98
775,372	-13,82
775,553	6,66
775,734	-1,54
775,915	0,51
776,096	20,99
776,277	57,86
776,458	-62,98
776,639	16,9
776,82	147,97
777,001	-34,3
777,182	-5,63
777,363	-81,41
777,544	-58,88
777,725	49,66
777,906	10,75
778,086	45,57
778,267	107,01
778,448	27,14
778,629	-26,11
778,809	137,73
778,99	20,99
779,171	10,75
779,352	14,85
779,532	-79,36
779,713	25,09
779,894	68,09
780,074	92,67
780,255	47,62
780,435	98,81
780,616	72,19
780,797	96,77
780,977	-58,88
781,158	-85,5
781,338	74,24
781,519	86,53
781,699	141,82
781,88	33,28
782,06	59,9
782,241	-19,97
782,421	-75,26
782,601	41,47
782,782	66,05
782,962	72,19
783,142	16,9
783,323	6,66
783,503	162,3
783,683	80,38
783,864	45,57
784,044	25,09
784,224	125,44
784,404	53,76
784,585	39,42
784,765	31,23
784,945	162,3
785,125	16,9
785,305	43,52
785,485	96,77
785,666	18,94
785,846	-32,26
786,026	39,42
786,206	49,66
786,386	66,05
786,566	137,73
786,746	-56,83
786,926	115,2
787,106	-17,92
787,286	-9,73
787,466	14,85
787,646	96,77
787,826	80,38
788,006	104,96
788,185	4,61
788,365	-9,73
788,545	80,38
788,725	-15,87
788,905	133,63
789,085	51,71
789,264	25,09
789,444	23,04
789,624	88,57
789,804	8,7
789,983	27,14
790,163	2,56
790,343	43,52
790,522	16,9
790,702	66,05
790,882	0,51
791,061	57,86
791,241	-30,21
791,42	-7,68
791,6	88,57
791,78	41,47
791,959	-22,02
792,139	-89,6
792,318	10,75
792,498	84,48
792,677	45,57
792,856	35,33
793,036	25,09
793,215	-32,26
793,395	92,67
793,574	84,48
793,753	27,14
793,933	96,77
794,112	104,96
794,291	33,28
794,471	125,44
794,65	57,86
794,829	39,42
795,008	74,24
795,188	23,04
795,367	133,63
795,546	47,62
795,725	72,19
795,904	53,76
796,084	70,14
796,263	160,25
796,442	143,87
796,621	102,91
796,8	86,53
796,979	88,57
797,158	-75,26
797,337	43,52
797,516	41,47
797,695	96,77
797,874	14,85
798,053	98,81
798,232	8,7
798,411	-44,54
798,59	-95,74
798,769	-15,87
798,947	72,19
799,126	14,85
799,305	45,57
799,484	51,71
799,663	37,38
799,842	90,62
800,02	35,33
800,199	-38,4
800,378	31,23
800,557	-26,11
800,735	-50,69
800,914	14,85
801,093	-19,97
801,271	37,38
801,45	4,61
801,628	121,34
801,807	16,9
801,986	39,42
802,164	27,14
802,343	4,61
802,521	-9,73
802,7	76,29
802,878	74,24
803,057	39,42
803,235	96,77
803,414	8,7
803,592	90,62
803,771	10,75
803,949	66,05
804,127	6,66
804,306	72,19
804,484	82,43
804,662	31,23
804,841	-5,63
805,019	-32,26
805,197	18,94
805,375	25,09
805,554	6,66
805,732	-30,21
805,91	-7,68
806,088	-73,21
806,266	-73,21
806,445	49,66
806,623	-22,02
806,801	-34,3
806,979	139,77
807,157	49,66
807,335	-120,32
807,513	76,29
807,691	39,42
807,869	12,8
808,047	-22,02
808,225	-32,26
808,403	137,73
808,581	39,42
808,759	197,12
808,937	61,95
809,115	23,04
809,293	23,04
809,471	16,9
809,649	0,51
809,826	88,57
810,004	92,67
810,182	43,52
810,36	31,23
810,538	14,85
810,715	-22,02
810,893	-58,88
811,071	12,8
811,248	109,05
811,426	43,52
811,604	113,15
811,781	31,23
811,959	121,34
812,137	102,91
812,314	72,19
812,492	-9,73
812,669	55,81
812,847	39,42
813,024	14,85
813,202	156,16
813,379	96,77
813,557	178,69
813,734	141,82
813,912	162,3
814,089	33,28
814,267	123,39
814,444	137,73
814,621	59,9
814,799	82,43
814,976	113,15
815,153	53,76
815,331	80,38
815,508	68,09
815,685	41,47
815,862	29,18
816,04	-34,3
816,217	-5,63
816,394	-9,73
816,571	94,72
816,748	117,25
816,926	129,53
817,103	360,95
817,28	131,58
817,457	-32,26
817,634	121,34
817,811	-62,98
817,988	49,66
818,165	-3,58
818,342	10,75
818,519	0,51
818,696	-56,83
818,873	-42,5
819,05	6,66
819,227	-58,88
819,404	47,62
819,581	31,23
819,758	-40,45
819,934	14,85
820,111	33,28
820,288	-26,11
820,465	162,3
820,642	-54,78
820,818	113,15
820,995	66,05
821,172	-48,64
821,349	98,81
821,525	47,62
821,702	31,23
821,879	6,66
822,055	27,14
822,232	-9,73
822,409	25,09
822,585	39,42
822,762	66,05
822,938	76,29
823,115	86,53
823,291	41,47
823,468	215,55
823,644	29,18
823,821	31,23
823,997	16,9
824,174	55,81
824,35	0,51
824,527	64
824,703	-40,45
824,879	-1,54
825,056	45,57
825,232	125,44
825,408	57,86
825,585	-3,58
825,761	-3,58
825,937	39,42
826,113	41,47
826,29	129,53
826,466	-24,06
826,642	399,87
826,818	-26,11
826,994	-7,68
827,17	-9,73
827,347	49,66
827,523	-9,73
827,699	80,38
827,875	96,77
828,051	100,86
828,227	35,33
828,403	80,38
828,579	188,93
828,755	121,34
828,931	64
829,107	68,09
829,283	150,01
829,459	72,19
829,635	131,58
829,811	190,97
829,986	145,92
830,162	88,57
830,338	115,2
830,514	23,04
830,69	113,15
830,865	20,99
831,041	115,2
831,217	-32,26
831,393	64
831,568	72,19
831,744	84,48
831,92	102,91
832,095	-7,68
832,271	8,7
832,447	55,81
832,622	139,77
832,798	55,81
832,973	88,57
833,149	111,1
833,325	47,62
833,5	104,96
833,676	6,66
833,851	29,18
834,027	2,56
834,202	59,9
834,377	53,76
834,553	61,95
834,728	80,38
834,904	68,09
835,079	-1,54
835,254	10,75
835,43	82,43
835,605	80,38
835,78	-7,68
835,955	-30,21
836,131	84,48
836,306	-17,92
836,481	0,51
836,656	129,53
836,832	182,78
837,007	137,73
837,182	248,32
837,357	344,57
837,532	381,43
837,707	406,01
837,882	469,5
838,057	580,09
838,232	387,58
838,407	317,95
838,582	231,93
838,757	344,57
838,932	334,33
839,107	227,84
839,282	172,54
839,457	139,77
839,632	301,56
839,807	199,16
839,982	168,45
840,157	252,41
840,332	203,26
840,506	203,26
840,681	104,96
840,856	238,08
841,031	133,63
841,205	115,2
841,38	252,41
841,555	262,65
841,73	156,16
841,904	111,1
842,079	82,43
842,254	98,81
842,428	109,05
842,603	90,62
842,777	-1,54
842,952	113,15
843,126	-1,54
843,301	170,49
843,476	-58,88
843,65	23,04
843,825	80,38
843,999	-34,3
844,173	57,86
844,348	23,04
844,522	104,96
844,697	29,18
844,871	64
845,045	51,71
845,22	47,62
845,394	98,81
845,568	51,71
845,743	96,77
845,917	64
846,091	33,28
846,265	39,42
846,44	88,57
846,614	57,86
846,788	4,61
846,962	84,48
847,136	43,52
847,31	66,05
847,485	92,67
847,659	-13,82
847,833	-17,92
848,007	57,86
848,181	37,38
848,355	-17,92
848,529	98,81
848,703	137,73
848,877	84,48
849,051	154,11
849,225	252,41
849,399	131,58
849,573	156,16
849,746	213,5
849,92	154,11
850,094	193,02
850,268	195,07
850,442	199,16
850,616	76,29
850,789	145,92
850,963	104,96
851,137	86,53
851,311	139,77
851,484	172,54
851,658	137,73
851,832	139,77
852,005	72,19
852,179	66,05
852,352	96,77
852,526	125,44
852,7	129,53
852,873	47,62
853,047	115,2
853,22	88,57
853,394	109,05
853,567	33,28
853,741	47,62
853,914	33,28
854,088	80,38
854,261	47,62
854,434	-9,73
854,608	-73,21
854,781	33,28
854,955	6,66
855,128	64
855,301	23,04
855,475	33,28
855,648	20,99
855,821	72,19
855,994	84,48
856,168	14,85
856,341	47,62
856,514	47,62
856,687	49,66
856,86	64
857,033	78,33
857,207	47,62
857,38	-5,63
857,553	35,33
857,726	76,29
857,899	137,73
858,072	-73,21
858,245	-48,64
858,418	43,52
858,591	45,57
858,764	129,53
858,937	178,69
859,11	92,67
859,283	147,97
859,455	66,05
859,628	145,92
859,801	211,45
859,974	100,86
860,147	43,52
860,32	23,04
860,492	121,34
860,665	-17,92
860,838	121,34
861,011	80,38
861,183	137,73
861,356	125,44
861,529	162,3
861,701	43,52
861,874	84,48
862,047	186,88
862,219	53,76
862,392	156,16
862,564	41,47
862,737	55,81
862,909	137,73
863,082	25,09
863,254	121,34
863,427	170,49
863,599	156,16
863,772	66,05
863,944	178,69
864,117	39,42
864,289	72,19
864,461	31,23
864,634	80,38
864,806	121,34
864,978	188,93
865,151	41,47
865,323	215,55
865,495	221,69
865,667	158,21
865,84	352,76
866,012	170,49
866,184	240,12
866,356	125,44
866,528	195,07
866,7	100,86
866,873	68,09
867,045	156,16
867,217	43,52
867,389	172,54
867,561	96,77
867,733	172,54
867,905	74,24
868,077	164,35
868,249	78,33
868,421	100,86
868,593	113,15
868,765	129,53
868,936	125,44
869,108	166,4
869,28	174,59
869,452	64
869,624	6,66
869,796	123,39
869,968	35,33
870,139	162,3
870,311	6,66
870,483	139,77
870,654	51,71
870,826	-7,68
870,998	14,85
871,17	49,66
871,341	39,42
871,513	98,81
871,684	8,7
871,856	80,38
872,028	14,85
872,199	-26,11
872,371	-34,3
872,542	96,77
872,714	16,9
872,885	133,63
873,057	-1,54
873,228	27,14
873,4	107,01
873,571	203,26
873,742	-17,92
873,914	47,62
874,085	8,7
874,256	18,94
874,428	-17,92
874,599	-34,3
874,77	145,92
874,942	-97,79
875,113	31,23
875,284	8,7
875,455	0,51
875,626	23,04
875,798	31,23
875,969	45,57
876,14	16,9
876,311	43,52
876,482	64
876,653	57,86
876,824	55,81
876,995	-13,82
877,166	49,66
877,337	27,14
877,508	47,62
877,679	88,57
877,85	-9,73
878,021	98,81
878,192	186,88
878,363	102,91
878,534	137,73
878,705	178,69
878,876	55,81
879,047	209,4
879,217	72,19
879,388	131,58
879,559	172,54
879,73	107,01
879,9	82,43
880,071	182,78
880,242	170,49
880,413	129,53
880,583	205,31
880,754	143,87
880,924	12,8
881,095	14,85
881,266	41,47
881,436	121,34
881,607	107,01
881,777	143,87
881,948	25,09
882,118	127,49
882,289	-22,02
882,459	154,11
882,63	57,86
882,8	109,05
882,971	64
883,141	80,38
883,311	137,73
883,482	76,29
883,652	31,23
883,822	-48,64
883,993	-65,02
884,163	45,57
884,333	2,56
884,504	121,34
884,674	98,81
884,844	51,71
885,014	-32,26
885,184	64
885,355	14,85
885,525	33,28
885,695	84,48
885,865	35,33
886,035	123,39
886,205	-26,11
886,375	121,34
886,545	78,33
886,715	-54,78
886,885	37,38
887,055	51,71
887,225	51,71
887,395	76,29
887,565	172,54
887,735	98,81
887,905	80,38
888,075	-114,17
888,244	88,57
888,414	82,43
888,584	107,01
888,754	82,43
888,924	47,62
889,093	172,54
889,263	14,85
889,433	84,48
889,603	47,62
889,772	47,62
889,942	135,68
890,111	221,69
890,281	27,14
890,451	90,62
890,62	72,19
890,79	57,86
890,959	66,05
891,129	96,77
891,298	23,04
891,468	-1,54
891,637	41,47
891,807	55,81
891,976	39,42
892,146	-7,68
892,315	107,01
892,485	80,38
892,654	31,23
892,823	-30,21
892,993	14,85
893,162	47,62
893,331	33,28
893,501	41,47
893,67	92,67
893,839	-42,5
894,008	39,42
894,177	27,14
894,347	6,66
894,516	158,21
894,685	31,23
894,854	47,62
895,023	82,43
895,192	25,09
