Data from filtre 450_USB4F104151__8__11-55-00-426.txt Node

Date: Wed Apr 15 11:55:00 EDT 2026
User: LaboPhy
Spectrometer: USB4F10415
Trigger mode: 4
Integration Time (sec): 2,100000E-2
Scans to average: 1
Electric dark correction enabled: true
Nonlinearity correction enabled: false
Boxcar width: 0
XAxis mode: Wavelengths
Number of Pixels in Spectrum: 3648
>>>>>Begin Spectral Data<<<<<
178,204	-144,72
178,424	-144,72
178,644	-144,72
178,864	-134,48
179,084	-101,72
179,304	55,98
179,524	-44,37
179,744	2,73
179,964	-13,65
180,184	8,87
180,404	-7,51
180,624	-27,99
180,844	4,78
181,064	-7,51
181,283	-5,46
181,503	4,78
181,723	29,35
181,943	-11,61
182,163	31,4
182,383	4,78
182,602	72,36
182,822	29,35
183,042	35,5
183,262	-19,8
183,482	-56,66
183,701	-60,76
183,921	21,16
184,141	-5,46
184,361	19,11
184,58	-7,51
184,8	8,87
185,02	-21,85
185,239	-13,65
185,459	-34,13
185,679	70,31
185,898	-73,04
186,118	96,94
186,338	-5,46
186,557	80,55
186,777	-30,04
186,997	35,5
187,216	15,02
187,436	84,65
187,655	-46,42
187,875	55,98
188,095	31,4
188,314	-13,65
188,534	6,83
188,753	127,66
188,973	51,88
189,192	76,46
189,412	49,83
189,631	51,88
189,851	31,4
190,07	10,92
190,29	-46,42
190,509	23,21
190,729	29,35
190,948	35,5
191,168	105,13
191,387	31,4
191,607	27,31
191,826	47,79
192,045	-1,37
192,265	2,73
192,484	66,22
192,704	33,45
192,923	4,78
193,142	53,93
193,362	25,26
193,581	60,07
193,8	15,02
194,02	-13,65
194,239	-75,09
194,458	60,07
194,678	17,07
194,897	76,46
195,116	23,21
195,335	2,73
195,555	-23,89
195,774	-5,46
195,993	43,69
196,212	4,78
196,432	88,75
196,651	-5,46
196,87	19,11
197,089	94,89
197,308	12,97
197,528	78,51
197,747	-9,56
197,966	17,07
198,185	10,92
198,404	19,11
198,623	53,93
198,842	27,31
199,062	-19,8
199,281	-13,65
199,5	35,5
199,719	-19,8
199,938	8,87
200,157	10,92
200,376	0,68
200,595	86,7
200,814	35,5
201,033	8,87
201,252	12,97
201,471	35,5
201,69	66,22
201,909	23,21
202,128	2,73
202,347	-21,85
202,566	-46,42
202,785	-13,65
203,004	39,59
203,223	27,31
203,442	29,35
203,661	-54,61
203,879	-38,23
204,098	88,75
204,317	-5,46
204,536	21,16
204,755	-19,8
204,974	37,55
205,193	10,92
205,411	74,41
205,63	8,87
205,849	2,73
206,068	43,69
206,287	-36,18
206,505	39,59
206,724	-66,9
206,943	10,92
207,162	-34,13
207,381	19,11
207,599	15,02
207,818	23,21
208,037	12,97
208,255	2,73
208,474	33,45
208,693	-56,66
208,911	94,89
209,13	2,73
209,349	49,83
209,567	-34,13
209,786	33,45
210,005	15,02
210,223	-21,85
210,442	-32,08
210,661	49,83
210,879	-11,61
211,098	55,98
211,316	60,07
211,535	45,74
211,753	6,83
211,972	70,31
212,191	-21,85
212,409	2,73
212,628	72,36
212,846	51,88
213,065	31,4
213,283	51,88
213,502	-3,41
213,72	15,02
213,938	17,07
214,157	62,12
214,375	72,36
214,594	21,16
214,812	62,12
215,031	-15,7
215,249	-52,56
215,467	-25,94
215,686	0,68
215,904	-9,56
216,122	0,68
216,341	92,84
216,559	-13,65
216,778	76,46
216,996	2,73
217,214	15,02
217,432	21,16
217,651	-46,42
217,869	66,22
218,087	29,35
218,306	10,92
218,524	15,02
218,742	6,83
218,96	27,31
219,179	23,21
219,397	45,74
219,615	41,64
219,833	-11,61
220,051	33,45
220,27	43,69
220,488	-9,56
220,706	51,88
220,924	-68,95
221,142	-5,46
221,36	-3,41
221,578	-25,94
221,796	29,35
222,015	-5,46
222,233	19,11
222,451	94,89
222,669	-17,75
222,887	60,07
223,105	55,98
223,323	-17,75
223,541	-60,76
223,759	10,92
223,977	19,11
224,195	70,31
224,413	62,12
224,631	27,31
224,849	-40,28
225,067	60,07
225,285	-42,32
225,503	62,12
225,721	-38,23
225,939	47,79
226,157	27,31
226,375	31,4
226,592	103,08
226,81	31,4
227,028	74,41
227,246	109,22
227,464	33,45
227,682	43,69
227,9	2,73
228,117	10,92
228,335	62,12
228,553	2,73
228,771	-77,14
228,989	19,11
229,206	-17,75
229,424	-27,99
229,642	-15,7
229,86	-9,56
230,077	10,92
230,295	-32,08
230,513	2,73
230,731	35,5
230,948	45,74
231,166	64,17
231,384	-21,85
231,601	-3,41
231,819	-7,51
232,037	-9,56
232,254	0,68
232,472	-54,61
232,689	-27,99
232,907	2,73
233,125	27,31
233,342	-13,65
233,56	25,26
233,777	8,87
233,995	-9,56
234,213	84,65
234,43	19,11
234,648	15,02
234,865	-116,05
235,083	-1,37
235,3	45,74
235,518	15,02
235,735	103,08
235,953	25,26
236,17	-44,37
236,388	-23,89
236,605	-3,41
236,822	49,83
237,04	-23,89
237,257	-34,13
237,475	-25,94
237,692	88,75
237,909	29,35
238,127	-34,13
238,344	-9,56
238,562	60,07
238,779	-34,13
238,996	0,68
239,214	39,59
239,431	51,88
239,648	6,83
239,865	0,68
240,083	12,97
240,3	12,97
240,517	-46,42
240,735	-3,41
240,952	31,4
241,169	-3,41
241,386	29,35
241,603	-3,41
241,821	-15,7
242,038	62,12
242,255	10,92
242,472	-71
242,689	27,31
242,907	29,35
243,124	-32,08
243,341	-5,46
243,558	49,83
243,775	19,11
243,992	23,21
244,209	119,46
244,426	-3,41
244,643	39,59
244,86	-23,89
245,078	12,97
245,295	12,97
245,512	-17,75
245,729	-13,65
245,946	35,5
246,163	-17,75
246,38	-21,85
246,597	-42,32
246,814	6,83
247,031	70,31
247,248	68,27
247,464	35,5
247,681	29,35
247,898	68,27
248,115	-62,8
248,332	-73,04
248,549	-3,41
248,766	98,99
248,983	15,02
249,2	-5,46
249,417	4,78
249,633	-36,18
249,85	23,21
250,067	19,11
250,284	19,11
250,501	117,42
250,717	117,42
250,934	-21,85
251,151	-38,23
251,368	-66,9
251,585	2,73
251,801	49,83
252,018	10,92
252,235	21,16
252,451	-44,37
252,668	-25,94
252,885	47,79
253,102	17,07
253,318	35,5
253,535	-32,08
253,752	43,69
253,968	21,16
254,185	19,11
254,401	47,79
254,618	35,5
254,835	-17,75
255,051	92,84
255,268	-7,51
255,484	12,97
255,701	-5,46
255,917	-19,8
256,134	35,5
256,351	-19,8
256,567	39,59
256,784	37,55
257	-34,13
257,217	-1,37
257,433	74,41
257,65	-13,65
257,866	19,11
258,082	35,5
258,299	-62,8
258,515	78,51
258,732	12,97
258,948	-30,04
259,165	35,5
259,381	72,36
259,597	-1,37
259,814	-21,85
260,03	31,4
260,246	8,87
260,463	19,11
260,679	47,79
260,895	2,73
261,112	-1,37
261,328	-1,37
261,544	29,35
261,761	19,11
261,977	-68,95
262,193	-11,61
262,409	2,73
262,626	-3,41
262,842	21,16
263,058	-83,28
263,274	21,16
263,49	55,98
263,707	49,83
263,923	17,07
264,139	-15,7
264,355	23,21
264,571	-52,56
264,787	10,92
265,004	43,69
265,22	55,98
265,436	2,73
265,652	15,02
265,868	103,08
266,084	60,07
266,3	4,78
266,516	35,5
266,732	12,97
266,948	4,78
267,164	-19,8
267,38	-46,42
267,596	-3,41
267,812	37,55
268,028	76,46
268,244	-46,42
268,46	-32,08
268,676	29,35
268,892	68,27
269,108	-3,41
269,324	-19,8
269,54	19,11
269,756	19,11
269,972	-1,37
270,188	-21,85
270,403	-52,56
270,619	-1,37
270,835	-34,13
271,051	12,97
271,267	-9,56
271,483	-5,46
271,698	-30,04
271,914	8,87
272,13	78,51
272,346	2,73
272,562	35,5
272,777	17,07
272,993	-23,89
273,209	39,59
273,425	12,97
273,64	-7,51
273,856	47,79
274,072	29,35
274,287	2,73
274,503	35,5
274,719	-50,52
274,934	31,4
275,15	12,97
275,366	55,98
275,581	-11,61
275,797	-52,56
276,012	-1,37
276,228	19,11
276,444	-77,14
276,659	27,31
276,875	23,21
277,09	-36,18
277,306	62,12
277,521	-5,46
277,737	47,79
277,952	62,12
278,168	94,89
278,383	35,5
278,599	78,51
278,814	68,27
279,03	2,73
279,245	-13,65
279,461	-68,95
279,676	-5,46
279,892	10,92
280,107	2,73
280,322	10,92
280,538	17,07
280,753	21,16
280,969	53,93
281,184	-1,37
281,399	70,31
281,615	60,07
281,83	-21,85
282,045	-27,99
282,26	23,21
282,476	19,11
282,691	41,64
282,906	10,92
283,122	37,55
283,337	80,55
283,552	37,55
283,767	-68,95
283,983	39,59
284,198	-19,8
284,413	70,31
284,628	25,26
284,843	47,79
285,058	29,35
285,274	-52,56
285,489	-58,71
285,704	47,79
285,919	-21,85
286,134	4,78
286,349	-5,46
286,564	4,78
286,779	51,88
286,995	-5,46
287,21	-23,89
287,425	51,88
287,64	-3,41
287,855	21,16
288,07	51,88
288,285	-5,46
288,5	60,07
288,715	35,5
288,93	8,87
289,145	-19,8
289,36	35,5
289,575	27,31
289,79	70,31
290,004	51,88
290,219	68,27
290,434	29,35
290,649	4,78
290,864	-46,42
291,079	4,78
291,294	88,75
291,509	45,74
291,724	33,45
291,938	-21,85
292,153	92,84
292,368	-46,42
292,583	37,55
292,798	21,16
293,012	43,69
293,227	23,21
293,442	8,87
293,657	-3,41
293,871	88,75
294,086	21,16
294,301	23,21
294,516	4,78
294,73	-50,52
294,945	21,16
295,16	-1,37
295,374	25,26
295,589	12,97
295,804	-30,04
296,018	-107,86
296,233	88,75
296,447	19,11
296,662	23,21
296,877	-11,61
297,091	62,12
297,306	-21,85
297,52	70,31
297,735	-11,61
297,949	27,31
298,164	-21,85
298,378	117,42
298,593	-11,61
298,807	-68,95
299,022	72,36
299,236	12,97
299,451	10,92
299,665	2,73
299,88	31,4
300,094	-32,08
300,309	-30,04
300,523	21,16
300,737	25,26
300,952	76,46
301,166	45,74
301,381	10,92
301,595	-38,23
301,809	-36,18
302,024	-13,65
302,238	-25,94
302,452	43,69
302,667	-34,13
302,881	82,6
303,095	78,51
303,309	23,21
303,524	-32,08
303,738	-54,61
303,952	68,27
304,166	-62,8
304,381	-17,75
304,595	15,02
304,809	-3,41
305,023	35,5
305,237	-15,7
305,452	19,11
305,666	78,51
305,88	2,73
306,094	-36,18
306,308	64,17
306,522	2,73
306,736	45,74
306,95	23,21
307,164	84,65
307,379	4,78
307,593	70,31
307,807	45,74
308,021	33,45
308,235	6,83
308,449	-89,43
308,663	-52,56
308,877	84,65
309,091	-54,61
309,305	0,68
309,519	-54,61
309,733	105,13
309,947	-21,85
310,161	-62,8
310,374	55,98
310,588	23,21
310,802	37,55
311,016	-38,23
311,23	23,21
311,444	-5,46
311,658	43,69
311,872	29,35
312,085	-32,08
312,299	19,11
312,513	62,12
312,727	-1,37
312,941	55,98
313,154	43,69
313,368	-40,28
313,582	-46,42
313,796	27,31
314,009	35,5
314,223	19,11
314,437	12,97
314,651	53,93
314,864	43,69
315,078	-30,04
315,292	0,68
315,505	-3,41
315,719	15,02
315,933	25,26
316,146	49,83
316,36	8,87
316,573	4,78
316,787	-3,41
317,001	80,55
317,214	-30,04
317,428	84,65
317,641	27,31
317,855	4,78
318,068	-30,04
318,282	2,73
318,495	53,93
318,709	23,21
318,922	47,79
319,136	35,5
319,349	-9,56
319,563	39,59
319,776	19,11
319,99	4,78
320,203	64,17
320,417	17,07
320,63	53,93
320,843	37,55
321,057	62,12
321,27	-46,42
321,483	10,92
321,697	62,12
321,91	51,88
322,124	51,88
322,337	84,65
322,55	-21,85
322,763	19,11
322,977	31,4
323,19	-52,56
323,403	58,03
323,617	-32,08
323,83	33,45
324,043	-23,89
324,256	-5,46
324,469	-15,7
324,683	-3,41
324,896	39,59
325,109	-17,75
325,322	-9,56
325,535	10,92
325,748	15,02
325,962	-66,9
326,175	10,92
326,388	45,74
326,601	-30,04
326,814	35,5
327,027	84,65
327,24	23,21
327,453	53,93
327,666	23,21
327,879	64,17
328,092	121,51
328,305	-17,75
328,518	-56,66
328,731	-25,94
328,944	23,21
329,157	-60,76
329,37	68,27
329,583	47,79
329,796	2,73
330,009	21,16
330,222	43,69
330,435	53,93
330,648	37,55
330,861	-101,72
331,073	-7,51
331,286	76,46
331,499	51,88
331,712	-30,04
331,925	-11,61
332,138	-17,75
332,35	68,27
332,563	-62,8
332,776	78,51
332,989	-11,61
333,202	-19,8
333,414	72,36
333,627	39,59
333,84	17,07
334,053	0,68
334,265	43,69
334,478	-21,85
334,691	-54,61
334,903	62,12
335,116	-5,46
335,329	92,84
335,541	135,85
335,754	96,94
335,966	-36,18
336,179	0,68
336,392	4,78
336,604	55,98
336,817	-44,37
337,029	19,11
337,242	62,12
337,454	21,16
337,667	10,92
337,88	105,13
338,092	51,88
338,305	-1,37
338,517	55,98
338,729	43,69
338,942	84,65
339,154	43,69
339,367	-21,85
339,579	51,88
339,792	-27,99
340,004	6,83
340,217	82,6
340,429	53,93
340,641	21,16
340,854	45,74
341,066	-85,33
341,278	31,4
341,491	53,93
341,703	60,07
341,915	-36,18
342,128	33,45
342,34	-83,28
342,552	-42,32
342,764	-1,37
342,977	35,5
343,189	33,45
343,401	-1,37
343,613	-17,75
343,826	47,79
344,038	17,07
344,25	60,07
344,462	31,4
344,674	-5,46
344,886	-42,32
345,099	-36,18
345,311	-25,94
345,523	-15,7
345,735	-36,18
345,947	-9,56
346,159	21,16
346,371	-17,75
346,583	-54,61
346,795	12,97
347,007	39,59
347,219	60,07
347,431	45,74
347,643	10,92
347,855	41,64
348,067	19,11
348,279	29,35
348,491	37,55
348,703	-30,04
348,915	-1,37
349,127	-21,85
349,339	8,87
349,551	-36,18
349,763	19,11
349,975	-11,61
350,187	51,88
350,399	58,03
350,61	-21,85
350,822	-5,46
351,034	27,31
351,246	19,11
351,458	12,97
351,669	27,31
351,881	78,51
352,093	53,93
352,305	62,12
352,517	-17,75
352,728	12,97
352,94	-32,08
353,152	27,31
353,363	-21,85
353,575	8,87
353,787	76,46
353,999	72,36
354,21	-17,75
354,422	-11,61
354,633	-36,18
354,845	-34,13
355,057	21,16
355,268	17,07
355,48	23,21
355,692	2,73
355,903	8,87
356,115	84,65
356,326	-48,47
356,538	35,5
356,749	21,16
356,961	47,79
357,172	-34,13
357,384	21,16
357,595	51,88
357,807	74,41
358,018	2,73
358,23	64,17
358,441	113,32
358,653	66,22
358,864	-25,94
359,075	-52,56
359,287	33,45
359,498	15,02
359,709	-17,75
359,921	-9,56
360,132	2,73
360,344	2,73
360,555	-23,89
360,766	19,11
360,977	-25,94
361,189	23,21
361,4	19,11
361,611	70,31
361,823	111,27
362,034	62,12
362,245	-5,46
362,456	-11,61
362,667	55,98
362,879	-3,41
363,09	-19,8
363,301	19,11
363,512	-3,41
363,723	35,5
363,935	45,74
364,146	51,88
364,357	45,74
364,568	41,64
364,779	47,79
364,99	68,27
365,201	27,31
365,412	35,5
365,623	-27,99
365,834	55,98
366,045	2,73
366,256	35,5
366,467	55,98
366,678	-19,8
366,889	4,78
367,1	35,5
367,311	43,69
367,522	23,21
367,733	-42,32
367,944	55,98
368,155	35,5
368,366	51,88
368,577	64,17
368,788	45,74
368,999	-11,61
369,209	27,31
369,42	35,5
369,631	29,35
369,842	60,07
370,053	21,16
370,264	15,02
370,474	2,73
370,685	21,16
370,896	4,78
371,107	6,83
371,317	-71
371,528	-13,65
371,739	23,21
371,95	-25,94
372,16	17,07
372,371	15,02
372,582	27,31
372,792	2,73
373,003	-13,65
373,214	-17,75
373,424	60,07
373,635	53,93
373,846	27,31
374,056	8,87
374,267	-3,41
374,477	8,87
374,688	-44,37
374,898	111,27
375,109	72,36
375,319	82,6
375,53	-1,37
375,74	-3,41
375,951	-27,99
376,161	-36,18
376,372	-25,94
376,582	17,07
376,793	21,16
377,003	55,98
377,214	4,78
377,424	21,16
377,635	39,59
377,845	-17,75
378,055	101,03
378,266	47,79
378,476	-52,56
378,686	78,51
378,897	41,64
379,107	43,69
379,317	70,31
379,528	31,4
379,738	60,07
379,948	-5,46
380,158	10,92
380,369	23,21
380,579	12,97
380,789	68,27
380,999	-7,51
381,21	33,45
381,42	33,45
381,63	-13,65
381,84	-40,28
382,05	92,84
382,261	27,31
382,471	23,21
382,681	15,02
382,891	58,03
383,101	25,26
383,311	-32,08
383,521	43,69
383,731	-38,23
383,941	27,31
384,151	35,5
384,361	-34,13
384,571	-13,65
384,781	-58,71
384,991	-5,46
385,201	84,65
385,411	23,21
385,621	105,13
385,831	49,83
386,041	-25,94
386,251	-9,56
386,461	43,69
386,671	0,68
386,881	-34,13
387,091	15,02
387,301	60,07
387,511	53,93
387,72	-66,9
387,93	-5,46
388,14	27,31
388,35	-21,85
388,56	113,32
388,769	19,11
388,979	-44,37
389,189	-1,37
389,399	31,4
389,609	68,27
389,818	68,27
390,028	-1,37
390,238	64,17
390,447	12,97
390,657	27,31
390,867	4,78
391,076	-54,61
391,286	6,83
391,496	-54,61
391,705	-42,32
391,915	70,31
392,125	84,65
392,334	35,5
392,544	-13,65
392,753	60,07
392,963	62,12
393,172	10,92
393,382	25,26
393,591	127,66
393,801	-19,8
394,01	76,46
394,22	-9,56
394,429	62,12
394,639	45,74
394,848	17,07
395,058	-19,8
395,267	35,5
395,477	12,97
395,686	17,07
395,895	55,98
396,105	60,07
396,314	92,84
396,524	-9,56
396,733	-13,65
396,942	2,73
397,152	10,92
397,361	103,08
397,57	4,78
397,78	33,45
397,989	-1,37
398,198	84,65
398,407	-32,08
398,617	0,68
398,826	6,83
399,035	2,73
399,244	-38,23
399,453	107,18
399,663	27,31
399,872	-17,75
400,081	-19,8
400,29	105,13
400,499	-34,13
400,708	64,17
400,917	-5,46
401,127	70,31
401,336	-3,41
401,545	35,5
401,754	43,69
401,963	35,5
402,172	29,35
402,381	2,73
402,59	23,21
402,799	-7,51
403,008	35,5
403,217	39,59
403,426	47,79
403,635	53,93
403,844	45,74
404,053	2,73
404,262	-19,8
404,471	64,17
404,68	27,31
404,888	37,55
405,097	84,65
405,306	27,31
405,515	27,31
405,724	15,02
405,933	19,11
406,142	2,73
406,35	45,74
406,559	-50,52
406,768	4,78
406,977	39,59
407,185	-5,46
407,394	-42,32
407,603	45,74
407,812	68,27
408,02	37,55
408,229	10,92
408,438	15,02
408,646	35,5
408,855	27,31
409,064	8,87
409,272	-19,8
409,481	35,5
409,69	29,35
409,898	35,5
410,107	-7,51
410,315	19,11
410,524	-60,76
410,733	2,73
410,941	-13,65
411,15	88,75
411,358	-21,85
411,567	55,98
411,775	19,11
411,984	-23,89
412,192	29,35
412,401	45,74
412,609	68,27
412,818	70,31
413,026	21,16
413,234	82,6
413,443	82,6
413,651	-19,8
413,86	49,83
414,068	-1,37
414,276	51,88
414,485	35,5
414,693	68,27
414,901	64,17
415,11	17,07
415,318	31,4
415,526	8,87
415,734	68,27
415,943	43,69
416,151	-13,65
416,359	37,55
416,567	88,75
416,776	-3,41
416,984	62,12
417,192	19,11
417,4	-13,65
417,608	51,88
417,817	31,4
418,025	33,45
418,233	-3,41
418,441	-1,37
418,649	2,73
418,857	25,26
419,065	51,88
419,273	37,55
419,481	47,79
419,689	10,92
419,897	17,07
420,105	8,87
420,313	-15,7
420,521	23,21
420,729	27,31
420,937	-11,61
421,145	-3,41
421,353	37,55
421,561	60,07
421,769	29,35
421,977	17,07
422,185	25,26
422,393	-7,51
422,601	37,55
422,809	94,89
423,017	-19,8
423,224	10,92
423,432	94,89
423,64	39,59
423,848	96,94
424,056	0,68
424,263	45,74
424,471	12,97
424,679	35,5
424,887	-1,37
425,094	27,31
425,302	31,4
425,51	-56,66
425,718	96,94
425,925	10,92
426,133	10,92
426,341	68,27
426,548	109,22
426,756	29,35
426,964	41,64
427,171	39,59
427,379	10,92
427,586	-21,85
427,794	45,74
428,001	70,31
428,209	2,73
428,417	29,35
428,624	29,35
428,832	-5,46
429,039	62,12
429,247	86,7
429,454	35,5
429,662	107,18
429,869	-5,46
430,076	2,73
430,284	33,45
430,491	-15,7
430,699	10,92
430,906	66,22
431,114	43,69
431,321	45,74
431,528	-5,46
431,736	51,88
431,943	60,07
432,15	66,22
432,358	39,59
432,565	137,9
432,772	-36,18
432,979	101,03
433,187	35,5
433,394	78,51
433,601	21,16
433,808	23,21
434,016	92,84
434,223	60,07
434,43	2,73
434,637	47,79
434,844	27,31
435,052	45,74
435,259	53,93
435,466	70,31
435,673	78,51
435,88	35,5
436,087	86,7
436,294	0,68
436,501	125,61
436,708	17,07
436,915	103,08
437,122	125,61
437,329	58,03
437,537	41,64
437,743	68,27
437,95	58,03
438,157	47,79
438,364	76,46
438,571	111,27
438,778	84,65
438,985	123,56
439,192	109,22
439,399	84,65
439,606	29,35
439,813	113,32
440,02	133,8
440,227	62,12
440,433	109,22
440,64	111,27
440,847	78,51
441,054	148,14
441,261	103,08
441,467	162,47
441,674	82,6
441,881	156,33
442,088	187,05
442,294	199,34
442,501	215,72
442,708	182,95
442,914	187,05
443,121	273,06
443,328	316,07
443,534	238,25
443,741	277,16
443,948	316,07
444,154	385,7
444,361	451,24
444,568	393,89
444,774	406,18
444,981	496,29
445,187	617,12
445,394	619,17
445,6	717,47
445,807	850,59
446,013	854,69
446,22	799,39
446,426	1077,91
446,633	1262,23
446,839	1475,22
447,046	1462,93
447,252	1823,37
447,459	2013,84
447,665	2312,84
447,871	2783,87
448,078	3158,65
448,284	3410,55
448,491	4000,37
448,697	4674,15
448,903	5483,09
449,11	6283,85
449,316	7066,17
449,522	8067,63
449,728	9493,02
449,935	11045,38
450,141	12708,33
450,347	14721,48
450,553	16099,76
450,76	18405,78
450,966	21301,61
451,172	23425,35
451,378	26159,39
451,584	28465,4
451,791	31144,14
451,997	33638,57
452,203	36610,17
452,409	39739,47
452,615	40724,54
452,821	41875,5
453,027	42389,54
453,233	46524,39
453,44	45805,55
453,646	47183,83
453,852	49405,88
454,058	50814,88
454,264	50720,68
454,47	51789,72
454,676	51634,07
454,882	54683,5
455,088	50843,55
455,294	52000,66
455,5	53843,83
455,705	54683,5
455,911	53485,43
456,117	53112,7
456,323	53972,85
456,529	51656,6
456,735	54904,68
456,941	55068,51
457,147	55310,17
457,352	53972,85
457,558	53780,34
457,764	55326,56
457,97	55672,67
458,176	55506,78
458,381	56029,01
458,587	54402,92
458,793	55775,06
458,999	52918,15
459,204	57593,66
459,41	57825,08
459,616	54022
459,821	53974,9
460,027	54234,99
460,233	53196,67
460,438	49964,98
460,644	50382,76
460,85	46956,51
461,055	45088,76
461,261	43493,39
461,466	38291,55
461,672	35899,53
461,878	36135,04
462,083	32004,29
462,289	28870,9
462,494	26038,56
462,7	23214,41
462,905	20527,47
463,111	19818,88
463,316	17568,16
463,522	15821,24
463,727	14287,31
463,932	12693,99
464,138	11608,57
464,343	10291,73
464,549	8976,93
464,754	8387,11
464,959	7494,2
465,165	6621,77
465,37	5696,08
465,575	4958,81
465,781	4596,32
465,986	4180,59
466,191	3734,13
466,397	3232,38
466,602	2886,27
466,807	2763,39
467,012	2452,1
467,218	2181,77
467,423	2009,74
467,628	1974,92
467,833	1698,45
468,038	1626,77
468,244	1342,1
468,449	1346,2
468,654	1272,47
468,859	1145,5
469,064	1133,21
469,269	957,08
469,474	840,35
469,679	912,03
469,885	735,9
470,09	764,58
470,295	653,98
470,5	633,5
470,705	627,36
470,91	545,44
471,115	516,77
471,32	522,91
471,525	471,72
471,73	518,82
471,935	494,24
472,139	324,26
472,344	359,08
472,549	379,56
472,754	391,84
472,959	389,8
473,164	291,49
473,369	258,73
473,574	375,46
473,778	332,45
473,983	238,25
474,188	232,1
474,393	234,15
474,598	197,29
474,802	246,44
475,007	185
475,212	236,2
475,417	152,23
475,621	176,81
475,826	125,61
476,031	217,77
476,235	68,27
476,44	162,47
476,645	176,81
476,849	182,95
477,054	176,81
477,259	158,38
477,463	182,95
477,668	232,1
477,872	215,72
478,077	123,56
478,282	105,13
478,486	135,85
478,691	121,51
478,895	51,88
479,1	105,13
479,304	125,61
479,509	123,56
479,713	117,42
479,918	55,98
480,122	109,22
480,326	80,55
480,531	60,07
480,735	84,65
480,94	78,51
481,144	76,46
481,348	135,85
481,553	174,76
481,757	115,37
481,961	15,02
482,166	96,94
482,37	35,5
482,574	47,79
482,778	4,78
482,983	78,51
483,187	35,5
483,391	62,12
483,595	84,65
483,8	88,75
484,004	121,51
484,208	113,32
484,412	146,09
484,616	160,42
484,821	68,27
485,025	41,64
485,229	88,75
485,433	96,94
485,637	111,27
485,841	86,7
486,045	-5,46
486,249	62,12
486,453	84,65
486,657	88,75
486,861	43,69
487,065	72,36
487,269	64,17
487,473	43,69
487,677	41,64
487,881	62,12
488,085	141,99
488,289	88,75
488,493	31,4
488,697	53,93
488,901	60,07
489,105	39,59
489,309	37,55
489,512	-9,56
489,716	84,65
489,92	19,11
490,124	51,88
490,328	84,65
490,531	33,45
490,735	66,22
490,939	-9,56
491,143	72,36
491,346	58,03
491,55	72,36
491,754	84,65
491,958	25,26
492,161	68,27
492,365	-9,56
492,569	6,83
492,772	29,35
492,976	0,68
493,18	-30,04
493,383	68,27
493,587	68,27
493,79	23,21
493,994	31,4
494,197	10,92
494,401	29,35
494,605	-3,41
494,808	23,21
495,012	4,78
495,215	152,23
495,419	72,36
495,622	51,88
495,825	6,83
496,029	27,31
496,232	66,22
496,436	47,79
496,639	53,93
496,843	68,27
497,046	15,02
497,249	19,11
497,453	19,11
497,656	35,5
497,859	-13,65
498,063	53,93
498,266	10,92
498,469	-5,46
498,673	-34,13
498,876	37,55
499,079	12,97
499,282	-13,65
499,485	105,13
499,689	27,31
499,892	111,27
500,095	-1,37
500,298	92,84
500,501	-34,13
500,705	29,35
500,908	12,97
501,111	-19,8
501,314	43,69
501,517	17,07
501,72	45,74
501,923	94,89
502,126	2,73
502,329	29,35
502,532	66,22
502,735	39,59
502,938	64,17
503,141	19,11
503,344	37,55
503,547	-1,37
503,75	43,69
503,953	31,4
504,156	68,27
504,359	17,07
504,562	31,4
504,765	10,92
504,968	19,11
505,17	94,89
505,373	35,5
505,576	-1,37
505,779	6,83
505,982	19,11
506,185	55,98
506,387	19,11
506,59	119,46
506,793	23,21
506,996	-44,37
507,198	15,02
507,401	90,79
507,604	39,59
507,807	-25,94
508,009	12,97
508,212	27,31
508,415	64,17
508,617	-30,04
508,82	-21,85
509,022	-11,61
509,225	6,83
509,428	43,69
509,63	66,22
509,833	35,5
510,035	84,65
510,238	43,69
510,44	-13,65
510,643	37,55
510,845	55,98
511,048	86,7
511,25	-7,51
511,453	0,68
511,655	17,07
511,858	66,22
512,06	-3,41
512,262	-25,94
512,465	-62,8
512,667	-27,99
512,87	35,5
513,072	33,45
513,274	-5,46
513,477	58,03
513,679	51,88
513,881	15,02
514,084	4,78
514,286	43,69
514,488	72,36
514,69	19,11
514,893	10,92
515,095	53,93
515,297	10,92
515,499	-25,94
515,701	2,73
515,904	86,7
516,106	6,83
516,308	68,27
516,51	17,07
516,712	31,4
516,914	37,55
517,116	-19,8
517,318	-34,13
517,52	2,73
517,722	19,11
517,925	12,97
518,127	12,97
518,329	2,73
518,531	12,97
518,733	8,87
518,935	-27,99
519,136	125,61
519,338	-25,94
519,54	4,78
519,742	41,64
519,944	66,22
520,146	27,31
520,348	37,55
520,55	60,07
520,752	-25,94
520,954	29,35
521,155	43,69
521,357	10,92
521,559	4,78
521,761	117,42
521,963	109,22
522,164	-27,99
522,366	15,02
522,568	-5,46
522,77	55,98
522,971	68,27
523,173	-30,04
523,375	-19,8
523,576	68,27
523,778	60,07
523,98	29,35
524,181	-38,23
524,383	2,73
524,584	55,98
524,786	45,74
524,988	-3,41
525,189	10,92
525,391	49,83
525,592	19,11
525,794	-46,42
525,995	-3,41
526,197	86,7
526,398	107,18
526,6	19,11
526,801	55,98
527,003	-42,32
527,204	2,73
527,406	47,79
527,607	45,74
527,808	-3,41
528,01	94,89
528,211	33,45
528,412	31,4
528,614	15,02
528,815	58,03
529,016	-36,18
529,218	94,89
529,419	-9,56
529,62	-44,37
529,822	64,17
530,023	80,55
530,224	10,92
530,425	72,36
530,626	0,68
530,828	27,31
531,029	-9,56
531,23	-40,28
531,431	92,84
531,632	51,88
531,833	-30,04
532,035	-1,37
532,236	41,64
532,437	2,73
532,638	-60,76
532,839	-38,23
533,04	66,22
533,241	-3,41
533,442	-25,94
533,643	43,69
533,844	10,92
534,045	4,78
534,246	-38,23
534,447	-30,04
534,648	-1,37
534,849	45,74
535,05	19,11
535,251	15,02
535,451	41,64
535,652	41,64
535,853	-38,23
536,054	84,65
536,255	58,03
536,456	31,4
536,657	-5,46
536,857	6,83
537,058	27,31
537,259	4,78
537,46	39,59
537,66	2,73
537,861	29,35
538,062	-11,61
538,263	-30,04
538,463	2,73
538,664	2,73
538,865	2,73
539,065	-38,23
539,266	103,08
539,466	-21,85
539,667	35,5
539,868	-36,18
540,068	47,79
540,269	45,74
540,469	37,55
540,67	84,65
540,87	23,21
541,071	-56,66
541,271	68,27
541,472	62,12
541,672	90,79
541,873	55,98
542,073	6,83
542,274	68,27
542,474	6,83
542,675	23,21
542,875	19,11
543,075	-34,13
543,276	117,42
543,476	-9,56
543,676	23,21
543,877	96,94
544,077	-40,28
544,277	45,74
544,478	53,93
544,678	-5,46
544,878	-3,41
545,078	-34,13
545,279	101,03
545,479	15,02
545,679	4,78
545,879	-34,13
546,079	-3,41
546,28	23,21
546,48	96,94
546,68	58,03
546,88	64,17
547,08	-11,61
547,28	-5,46
547,48	-19,8
547,68	-17,75
547,88	47,79
548,081	51,88
548,281	43,69
548,481	-21,85
548,681	-30,04
548,881	-36,18
549,081	10,92
549,28	111,27
549,48	84,65
549,68	17,07
549,88	27,31
550,08	29,35
550,28	60,07
550,48	4,78
550,68	62,12
550,88	-13,65
551,08	105,13
551,279	12,97
551,479	58,03
551,679	-13,65
551,879	-66,9
552,079	6,83
552,278	12,97
552,478	72,36
552,678	23,21
552,878	62,12
553,077	-27,99
553,277	45,74
553,477	60,07
553,676	-77,14
553,876	-13,65
554,076	19,11
554,275	41,64
554,475	17,07
554,674	-15,7
554,874	-3,41
555,074	6,83
555,273	-40,28
555,473	-44,37
555,672	-40,28
555,872	25,26
556,071	29,35
556,271	53,93
556,47	15,02
556,67	25,26
556,869	101,03
557,068	68,27
557,268	41,64
557,467	29,35
557,667	35,5
557,866	27,31
558,065	-3,41
558,265	-38,23
558,464	-9,56
558,663	-9,56
558,863	111,27
559,062	10,92
559,261	35,5
559,461	29,35
559,66	76,46
559,859	-58,71
560,058	-13,65
560,258	4,78
560,457	53,93
560,656	117,42
560,855	-32,08
561,054	-62,8
561,253	31,4
561,453	-15,7
561,652	43,69
561,851	23,21
562,05	31,4
562,249	-3,41
562,448	-30,04
562,647	-15,7
562,846	55,98
563,045	10,92
563,244	-7,51
563,443	-21,85
563,642	-9,56
563,841	-15,7
564,04	-15,7
564,239	21,16
564,438	107,18
564,637	-13,65
564,836	68,27
565,035	68,27
565,234	-1,37
565,432	41,64
565,631	-3,41
565,83	-68,95
566,029	-19,8
566,228	19,11
566,427	29,35
566,625	-7,51
566,824	-11,61
567,023	-17,75
567,222	19,11
567,42	17,07
567,619	2,73
567,818	6,83
568,016	49,83
568,215	31,4
568,414	19,11
568,612	-25,94
568,811	49,83
569,01	-75,09
569,208	29,35
569,407	47,79
569,605	62,12
569,804	-48,47
570,002	27,31
570,201	-101,72
570,4	43,69
570,598	10,92
570,797	19,11
570,995	-42,32
571,193	-13,65
571,392	-5,46
571,59	-42,32
571,789	-9,56
571,987	6,83
572,186	23,21
572,384	72,36
572,582	25,26
572,781	98,99
572,979	-34,13
573,177	6,83
573,376	-5,46
573,574	-1,37
573,772	-48,47
573,971	-1,37
574,169	-71
574,367	74,41
574,565	-56,66
574,763	72,36
574,962	-27,99
575,16	8,87
575,358	-44,37
575,556	51,88
575,754	-44,37
575,952	2,73
576,151	27,31
576,349	76,46
576,547	-23,89
576,745	-44,37
576,943	-21,85
577,141	15,02
577,339	62,12
577,537	21,16
577,735	25,26
577,933	10,92
578,131	-1,37
578,329	8,87
578,527	4,78
578,725	43,69
578,923	-30,04
579,121	-9,56
579,319	-52,56
579,516	19,11
579,714	21,16
579,912	-21,85
580,11	-46,42
580,308	35,5
580,506	-19,8
580,704	-21,85
580,901	21,16
581,099	64,17
581,297	-40,28
581,495	-5,46
581,692	-40,28
581,89	76,46
582,088	-71
582,285	15,02
582,483	15,02
582,681	-5,46
582,878	43,69
583,076	-5,46
583,274	39,59
583,471	105,13
583,669	-11,61
583,866	10,92
584,064	0,68
584,262	-1,37
584,459	-60,76
584,657	88,75
584,854	-15,7
585,052	55,98
585,249	6,83
585,447	86,7
585,644	-111,96
585,841	23,21
586,039	17,07
586,236	4,78
586,434	-54,61
586,631	-11,61
586,828	-46,42
587,026	0,68
587,223	27,31
587,42	2,73
587,618	43,69
587,815	-1,37
588,012	-5,46
588,21	-50,52
588,407	-11,61
588,604	-99,67
588,801	-95,57
588,999	-3,41
589,196	39,59
589,393	-11,61
589,59	51,88
589,787	-5,46
589,984	4,78
590,182	-38,23
590,379	39,59
590,576	27,31
590,773	76,46
590,97	37,55
591,167	41,64
591,364	43,69
591,561	-9,56
591,758	84,65
591,955	62,12
592,152	25,26
592,349	-21,85
592,546	31,4
592,743	10,92
592,94	-21,85
593,137	8,87
593,334	-7,51
593,531	15,02
593,727	-75,09
593,924	-38,23
594,121	-27,99
594,318	-50,52
594,515	60,07
594,712	-1,37
594,908	2,73
595,105	-9,56
595,302	-25,94
595,499	15,02
595,696	-7,51
595,892	-25,94
596,089	68,27
596,286	-36,18
596,482	12,97
596,679	4,78
596,876	35,5
597,072	-36,18
597,269	12,97
597,466	78,51
597,662	27,31
597,859	-1,37
598,055	-77,14
598,252	-23,89
598,448	4,78
598,645	-19,8
598,841	51,88
599,038	43,69
599,234	27,31
599,431	-13,65
599,627	-19,8
599,824	2,73
600,02	37,55
600,217	-23,89
600,413	-19,8
600,609	-17,75
600,806	27,31
601,002	35,5
601,198	10,92
601,395	45,74
601,591	0,68
601,787	-46,42
601,984	84,65
602,18	-25,94
602,376	-30,04
602,572	21,16
602,769	135,85
602,965	17,07
603,161	68,27
603,357	-17,75
603,553	8,87
603,75	-7,51
603,946	29,35
604,142	-95,57
604,338	74,41
604,534	-34,13
604,73	17,07
604,926	-23,89
605,122	111,27
605,318	12,97
605,514	33,45
605,71	-7,51
605,906	-38,23
606,102	-34,13
606,298	-50,52
606,494	53,93
606,69	6,83
606,886	29,35
607,082	15,02
607,278	-9,56
607,474	62,12
607,67	-21,85
607,866	-40,28
608,062	21,16
608,257	19,11
608,453	10,92
608,649	-19,8
608,845	-11,61
609,041	55,98
609,236	-38,23
609,432	-1,37
609,628	66,22
609,824	-9,56
610,019	-19,8
610,215	23,21
610,411	19,11
610,606	78,51
610,802	10,92
610,998	-17,75
611,193	-13,65
611,389	-38,23
611,584	-38,23
611,78	35,5
611,976	12,97
612,171	53,93
612,367	-52,56
612,562	49,83
612,758	-13,65
612,953	19,11
613,149	74,41
613,344	-9,56
613,539	-30,04
613,735	43,69
613,93	49,83
614,126	23,21
614,321	58,03
614,517	62,12
614,712	53,93
614,907	51,88
615,103	2,73
615,298	-5,46
615,493	-50,52
615,688	-21,85
615,884	-44,37
616,079	15,02
616,274	86,7
616,47	12,97
616,665	-71
616,86	23,21
617,055	51,88
617,25	-11,61
617,445	35,5
617,641	-3,41
617,836	-44,37
618,031	37,55
618,226	53,93
618,421	-64,85
618,616	-3,41
618,811	-21,85
619,006	-3,41
619,201	25,26
619,396	0,68
619,591	-13,65
619,786	27,31
619,981	111,27
620,176	-11,61
620,371	37,55
620,566	10,92
620,761	35,5
620,956	37,55
621,151	12,97
621,346	23,21
621,541	6,83
621,735	-3,41
621,93	-9,56
622,125	-19,8
622,32	27,31
622,515	-5,46
622,709	2,73
622,904	19,11
623,099	-5,46
623,294	-21,85
623,488	19,11
623,683	-9,56
623,878	74,41
624,072	21,16
624,267	10,92
624,462	6,83
624,656	60,07
624,851	-77,14
625,046	37,55
625,24	-27,99
625,435	6,83
625,629	-44,37
625,824	12,97
626,018	-9,56
626,213	15,02
626,407	-13,65
626,602	10,92
626,796	23,21
626,991	15,02
627,185	-91,48
627,38	-5,46
627,574	35,5
627,768	-13,65
627,963	-21,85
628,157	0,68
628,352	-46,42
628,546	-38,23
628,74	-3,41
628,935	-21,85
629,129	19,11
629,323	53,93
629,517	27,31
629,712	-27,99
629,906	2,73
630,1	90,79
630,294	-25,94
630,489	-36,18
630,683	-52,56
630,877	41,64
631,071	-42,32
631,265	-64,85
631,459	2,73
631,653	39,59
631,848	-9,56
632,042	64,17
632,236	-64,85
632,43	19,11
632,624	49,83
632,818	29,35
633,012	25,26
633,206	-3,41
633,4	-21,85
633,594	-30,04
633,788	-13,65
633,982	33,45
634,176	23,21
634,369	39,59
634,563	-17,75
634,757	-56,66
634,951	-25,94
635,145	-3,41
635,339	-36,18
635,533	27,31
635,726	8,87
635,92	-3,41
636,114	-7,51
636,308	0,68
636,501	-21,85
636,695	8,87
636,889	0,68
637,083	35,5
637,276	15,02
637,47	10,92
637,664	-17,75
637,857	0,68
638,051	-3,41
638,244	-11,61
638,438	101,03
638,632	19,11
638,825	-9,56
639,019	21,16
639,212	-1,37
639,406	-46,42
639,599	-7,51
639,793	51,88
639,986	35,5
640,18	-48,47
640,373	-46,42
640,567	60,07
640,76	19,11
640,954	37,55
641,147	2,73
641,34	-50,52
641,534	64,17
641,727	92,84
641,92	62,12
642,114	-9,56
642,307	-60,76
642,5	-17,75
642,694	90,79
642,887	-13,65
643,08	19,11
643,273	-25,94
643,467	-19,8
643,66	-1,37
643,853	-21,85
644,046	39,59
644,239	-13,65
644,432	86,7
644,626	-38,23
644,819	55,98
645,012	-3,41
645,205	33,45
645,398	10,92
645,591	-13,65
645,784	27,31
645,977	-27,99
646,17	37,55
646,363	23,21
646,556	31,4
646,749	-46,42
646,942	-15,7
647,135	31,4
647,328	-19,8
647,521	49,83
647,714	29,35
647,907	-11,61
648,099	39,59
648,292	29,35
648,485	6,83
648,678	17,07
648,871	21,16
649,064	76,46
649,256	19,11
649,449	-30,04
649,642	-60,76
649,835	-50,52
650,027	12,97
650,22	-7,51
650,413	2,73
650,605	68,27
650,798	-44,37
650,991	-13,65
651,183	-42,32
651,376	-34,13
651,568	10,92
651,761	10,92
651,954	-32,08
652,146	-17,75
652,339	-23,89
652,531	29,35
652,724	15,02
652,916	-9,56
653,109	17,07
653,301	62,12
653,494	-23,89
653,686	-1,37
653,879	90,79
654,071	55,98
654,263	-36,18
654,456	-21,85
654,648	-42,32
654,84	-11,61
655,033	-62,8
655,225	-5,46
655,417	-9,56
655,61	-3,41
655,802	41,64
655,994	39,59
656,186	-32,08
656,379	-3,41
656,571	-11,61
656,763	-30,04
656,955	8,87
657,148	35,5
657,34	45,74
657,532	12,97
657,724	10,92
657,916	2,73
658,108	35,5
658,3	-44,37
658,492	96,94
658,684	35,5
658,876	-42,32
659,068	-3,41
659,26	19,11
659,452	-32,08
659,644	90,79
659,836	27,31
660,028	94,89
660,22	80,55
660,412	-21,85
660,604	-27,99
660,796	55,98
660,988	8,87
661,18	23,21
661,372	23,21
661,563	19,11
661,755	74,41
661,947	-30,04
662,139	-34,13
662,331	-1,37
662,522	86,7
662,714	35,5
662,906	-9,56
663,097	-9,56
663,289	-30,04
663,481	47,79
663,673	-19,8
663,864	66,22
664,056	51,88
664,247	-68,95
664,439	64,17
664,631	68,27
664,822	37,55
665,014	21,16
665,205	41,64
665,397	58,03
665,588	2,73
665,78	-40,28
665,971	21,16
666,163	121,51
666,354	-19,8
666,546	25,26
666,737	-1,37
666,929	15,02
667,12	-27,99
667,311	-27,99
667,503	-25,94
667,694	10,92
667,885	78,51
668,077	-19,8
668,268	-21,85
668,459	49,83
668,651	-25,94
668,842	27,31
669,033	-60,76
669,224	-44,37
669,416	47,79
669,607	23,21
669,798	-38,23
669,989	29,35
670,18	62,12
670,371	10,92
670,563	-38,23
670,754	6,83
670,945	2,73
671,136	-46,42
671,327	0,68
671,518	-5,46
671,709	39,59
671,9	15,02
672,091	58,03
672,282	-13,65
672,473	35,5
672,664	-19,8
672,855	27,31
673,046	133,8
673,237	66,22
673,428	-1,37
673,619	29,35
673,809	-3,41
674	90,79
674,191	25,26
674,382	37,55
674,573	17,07
674,764	25,26
674,954	64,17
675,145	-17,75
675,336	23,21
675,527	-17,75
675,717	66,22
675,908	23,21
676,099	10,92
676,289	10,92
676,48	33,45
676,671	72,36
676,861	53,93
677,052	6,83
677,243	-46,42
677,433	23,21
677,624	2,73
677,814	49,83
678,005	43,69
678,195	111,27
678,386	-9,56
678,576	29,35
678,767	-9,56
678,957	-7,51
679,148	12,97
679,338	45,74
679,529	64,17
679,719	-25,94
679,909	68,27
680,1	2,73
680,29	-1,37
680,481	35,5
680,671	-36,18
680,861	21,16
681,052	12,97
681,242	15,02
681,432	15,02
681,622	88,75
681,813	-17,75
682,003	-27,99
682,193	-11,61
682,383	-44,37
682,573	27,31
682,764	-3,41
682,954	-56,66
683,144	21,16
683,334	-85,33
683,524	-1,37
683,714	-3,41
683,904	39,59
684,094	-1,37
684,284	78,51
684,474	35,5
684,664	98,99
684,854	23,21
685,044	-25,94
685,234	-3,41
685,424	12,97
685,614	-11,61
685,804	45,74
685,994	-36,18
686,184	55,98
686,374	-17,75
686,564	27,31
686,753	23,21
686,943	2,73
687,133	6,83
687,323	68,27
687,513	43,69
687,702	-3,41
687,892	-30,04
688,082	31,4
688,272	39,59
688,461	68,27
688,651	27,31
688,841	-3,41
689,03	-38,23
689,22	25,26
689,41	109,22
689,599	29,35
689,789	-11,61
689,979	45,74
690,168	-1,37
690,358	33,45
690,547	-30,04
690,737	-27,99
690,926	6,83
691,116	27,31
691,305	27,31
691,495	-54,61
691,684	-3,41
691,874	-36,18
692,063	6,83
692,252	-11,61
692,442	92,84
692,631	-23,89
692,82	0,68
693,01	45,74
693,199	-21,85
693,388	39,59
693,578	-19,8
693,767	25,26
693,956	-27,99
694,146	-9,56
694,335	2,73
694,524	86,7
694,713	-13,65
694,902	-34,13
695,092	6,83
695,281	6,83
695,47	-60,76
695,659	-34,13
695,848	53,93
696,037	70,31
696,226	29,35
696,415	8,87
696,604	21,16
696,793	-11,61
696,982	6,83
697,171	60,07
697,36	-99,67
697,549	-30,04
697,738	-25,94
697,927	-52,56
698,116	35,5
698,305	92,84
698,494	-75,09
698,683	10,92
698,872	53,93
699,061	37,55
699,25	-95,57
699,438	86,7
699,627	-13,65
699,816	55,98
700,005	-25,94
700,193	8,87
700,382	-32,08
700,571	23,21
700,76	4,78
700,948	2,73
701,137	-5,46
701,326	-3,41
701,514	39,59
701,703	-5,46
701,892	45,74
702,08	101,03
702,269	12,97
702,457	-5,46
702,646	88,75
702,834	53,93
703,023	96,94
703,212	72,36
703,4	31,4
703,589	-36,18
703,777	92,84
703,965	-38,23
704,154	-3,41
704,342	-27,99
704,531	-3,41
704,719	4,78
704,907	-5,46
705,096	2,73
705,284	-13,65
705,472	-54,61
705,661	-5,46
705,849	-60,76
706,037	29,35
706,226	-50,52
706,414	78,51
706,602	-30,04
706,79	51,88
706,979	10,92
707,167	31,4
707,355	-52,56
707,543	-30,04
707,731	19,11
707,919	-27,99
708,107	-48,47
708,296	-21,85
708,484	-17,75
708,672	-21,85
708,86	6,83
709,048	10,92
709,236	-9,56
709,424	76,46
709,612	74,41
709,8	-42,32
709,988	10,92
710,176	47,79
710,364	-46,42
710,551	43,69
710,739	37,55
710,927	29,35
711,115	-38,23
711,303	-11,61
711,491	10,92
711,679	-3,41
711,866	55,98
712,054	4,78
712,242	2,73
712,43	33,45
712,617	39,59
712,805	60,07
712,993	-54,61
713,181	-60,76
713,368	-11,61
713,556	31,4
713,744	2,73
713,931	6,83
714,119	27,31
714,306	-54,61
714,494	4,78
714,682	-79,19
714,869	-58,71
715,057	-1,37
715,244	-34,13
715,432	-7,51
715,619	-54,61
715,807	53,93
715,994	15,02
716,182	76,46
716,369	27,31
716,556	-54,61
716,744	-21,85
716,931	33,45
717,119	-3,41
717,306	-150,87
717,493	55,98
717,681	-34,13
717,868	-3,41
718,055	10,92
718,242	47,79
718,43	-5,46
718,617	-17,75
718,804	25,26
718,991	35,5
719,179	15,02
719,366	-11,61
719,553	23,21
719,74	6,83
719,927	-15,7
720,114	8,87
720,301	-75,09
720,488	19,11
720,676	4,78
720,863	51,88
721,05	-52,56
721,237	8,87
721,424	-3,41
721,611	78,51
721,798	-17,75
721,985	43,69
722,172	-30,04
722,358	-1,37
722,545	43,69
722,732	62,12
722,919	47,79
723,106	15,02
723,293	29,35
723,48	39,59
723,667	-87,38
723,853	37,55
724,04	-15,7
724,227	10,92
724,414	-5,46
724,6	27,31
724,787	47,79
724,974	53,93
725,161	-21,85
725,347	17,07
725,534	-19,8
725,72	82,6
725,907	23,21
726,094	86,7
726,28	8,87
726,467	-38,23
726,653	29,35
726,84	49,83
727,027	23,21
727,213	15,02
727,4	60,07
727,586	47,79
727,773	-32,08
727,959	6,83
728,145	33,45
728,332	60,07
728,518	-27,99
728,705	12,97
728,891	21,16
729,077	47,79
729,264	19,11
729,45	-23,89
729,636	62,12
729,823	-44,37
730,009	45,74
730,195	-5,46
730,382	60,07
730,568	6,83
730,754	12,97
730,94	-44,37
731,126	45,74
731,313	37,55
731,499	10,92
731,685	60,07
731,871	-13,65
732,057	43,69
732,243	37,55
732,429	-17,75
732,615	-46,42
732,801	-5,46
732,987	8,87
733,173	-9,56
733,359	-30,04
733,545	72,36
733,731	-27,99
733,917	21,16
734,103	-5,46
734,289	-36,18
734,475	-1,37
734,661	19,11
734,847	60,07
735,033	-9,56
735,219	-21,85
735,404	31,4
735,59	-44,37
735,776	35,5
735,962	2,73
736,148	-64,85
736,333	-46,42
736,519	-27,99
736,705	-46,42
736,89	39,59
737,076	43,69
737,262	21,16
737,447	-21,85
737,633	-36,18
737,819	-27,99
738,004	21,16
738,19	62,12
738,375	12,97
738,561	12,97
738,747	23,21
738,932	2,73
739,118	6,83
739,303	-7,51
739,489	58,03
739,674	62,12
739,859	2,73
740,045	80,55
740,23	-1,37
740,416	-54,61
740,601	37,55
740,786	-13,65
740,972	-7,51
741,157	-42,32
741,342	29,35
741,528	33,45
741,713	19,11
741,898	-1,37
742,084	-46,42
742,269	37,55
742,454	43,69
742,639	8,87
742,824	10,92
743,01	-11,61
743,195	72,36
743,38	-5,46
743,565	41,64
743,75	8,87
743,935	29,35
744,12	-27,99
744,305	2,73
744,49	-19,8
744,675	-19,8
744,86	10,92
745,045	39,59
745,23	23,21
745,415	-19,8
745,6	86,7
745,785	15,02
745,97	66,22
746,155	88,75
746,34	-1,37
746,525	6,83
746,71	39,59
746,895	-9,56
747,079	-19,8
747,264	-7,51
747,449	-62,8
747,634	-36,18
747,819	17,07
748,003	27,31
748,188	-50,52
748,373	-34,13
748,557	6,83
748,742	25,26
748,927	109,22
749,111	-25,94
749,296	-15,7
749,481	25,26
749,665	2,73
749,85	23,21
750,034	29,35
750,219	2,73
750,404	-11,61
750,588	-30,04
750,773	27,31
750,957	-13,65
751,141	47,79
751,326	0,68
751,51	-3,41
751,695	-3,41
751,879	-11,61
752,064	72,36
752,248	25,26
752,432	31,4
752,617	-36,18
752,801	78,51
752,985	-42,32
753,17	27,31
753,354	-42,32
753,538	4,78
753,722	-36,18
753,907	27,31
754,091	6,83
754,275	-40,28
754,459	-58,71
754,643	-52,56
754,828	21,16
755,012	47,79
755,196	-3,41
755,38	25,26
755,564	-27,99
755,748	31,4
755,932	-21,85
756,116	-17,75
756,3	-21,85
756,484	35,5
756,668	19,11
756,852	4,78
757,036	64,17
757,22	92,84
757,404	-23,89
757,588	25,26
757,772	-75,09
757,956	2,73
758,14	29,35
758,323	8,87
758,507	43,69
758,691	-68,95
758,875	70,31
759,059	4,78
759,242	-5,46
759,426	55,98
759,61	-38,23
759,794	2,73
759,977	43,69
760,161	-19,8
760,345	29,35
760,528	-38,23
760,712	-77,14
760,895	62,12
761,079	70,31
761,263	-62,8
761,446	-5,46
761,63	15,02
761,813	0,68
761,997	10,92
762,18	-54,61
762,364	10,92
762,547	-46,42
762,731	10,92
762,914	4,78
763,098	-30,04
763,281	-1,37
763,464	-71
763,648	-54,61
763,831	-11,61
764,015	-21,85
764,198	-9,56
764,381	-42,32
764,564	33,45
764,748	-27,99
764,931	43,69
765,114	8,87
765,297	62,12
765,481	-30,04
765,664	-11,61
765,847	0,68
766,03	31,4
766,213	2,73
766,397	-30,04
766,58	-68,95
766,763	45,74
766,946	-36,18
767,129	-52,56
767,312	-13,65
767,495	-42,32
767,678	-42,32
767,861	-58,71
768,044	37,55
768,227	-9,56
768,41	45,74
768,593	15,02
768,776	-36,18
768,959	-77,14
769,142	17,07
769,324	51,88
769,507	23,21
769,69	-11,61
769,873	-19,8
770,056	80,55
770,239	39,59
770,421	19,11
770,604	-25,94
770,787	-52,56
770,97	-11,61
771,152	-50,52
771,335	2,73
771,518	-38,23
771,7	2,73
771,883	-5,46
772,066	-3,41
772,248	2,73
772,431	62,12
772,613	-11,61
772,796	-23,89
772,978	19,11
773,161	-13,65
773,343	-75,09
773,526	-34,13
773,708	-79,19
773,891	-5,46
774,073	-54,61
774,256	-54,61
774,438	76,46
774,621	0,68
774,803	60,07
774,985	35,5
775,168	60,07
775,35	-21,85
775,532	-11,61
775,715	-25,94
775,897	51,88
776,079	-13,65
776,261	21,16
776,444	-11,61
776,626	12,97
776,808	-17,75
776,99	4,78
777,173	27,31
777,355	62,12
777,537	-3,41
777,719	23,21
777,901	-5,46
778,083	-13,65
778,265	-42,32
778,447	37,55
778,629	-11,61
778,811	-56,66
778,993	45,74
779,175	-62,8
779,357	-21,85
779,539	-5,46
779,721	-21,85
779,903	-27,99
780,085	-27,99
780,267	-50,52
780,449	-46,42
780,631	23,21
780,812	17,07
780,994	80,55
781,176	-5,46
781,358	78,51
781,54	-32,08
781,721	53,93
781,903	12,97
782,085	41,64
782,267	2,73
782,448	-19,8
782,63	-9,56
782,812	47,79
782,993	53,93
783,175	47,79
783,357	0,68
783,538	-19,8
783,72	-9,56
783,901	-44,37
784,083	62,12
784,264	-36,18
784,446	31,4
784,627	19,11
784,809	23,21
784,99	4,78
785,172	4,78
785,353	19,11
785,535	6,83
785,716	-21,85
785,897	-40,28
786,079	27,31
786,26	-13,65
786,441	-9,56
786,623	39,59
786,804	-19,8
786,985	74,41
787,167	53,93
787,348	-13,65
787,529	41,64
787,71	58,03
787,891	19,11
788,073	-36,18
788,254	-15,7
788,435	-27,99
788,616	-11,61
788,797	-11,61
788,978	4,78
789,159	-40,28
789,34	35,5
789,522	4,78
789,703	-83,28
789,884	47,79
790,065	8,87
790,246	-36,18
790,427	-27,99
790,607	12,97
790,788	15,02
790,969	-11,61
791,15	76,46
791,331	-27,99
791,512	6,83
791,693	64,17
791,874	31,4
792,054	78,51
792,235	37,55
792,416	-40,28
792,597	-46,42
792,778	8,87
792,958	-34,13
793,139	23,21
793,32	-11,61
793,5	-56,66
793,681	62,12
793,862	35,5
794,042	68,27
794,223	-32,08
794,404	-42,32
794,584	6,83
794,765	-5,46
794,945	-5,46
795,126	51,88
795,306	72,36
795,487	-38,23
795,667	-44,37
795,848	53,93
796,028	-38,23
796,209	-46,42
796,389	19,11
796,57	-11,61
796,75	62,12
796,93	19,11
797,111	4,78
797,291	25,26
797,471	41,64
797,652	-17,75
797,832	17,07
798,012	92,84
798,192	-40,28
798,373	-77,14
798,553	-5,46
798,733	-50,52
798,913	-13,65
799,093	39,59
799,274	-7,51
799,454	39,59
799,634	43,69
799,814	-11,61
799,994	-23,89
800,174	35,5
800,354	-5,46
800,534	4,78
800,714	-68,95
800,894	31,4
801,074	-17,75
801,254	-11,61
801,434	-30,04
801,614	-13,65
801,794	-95,57
801,974	383,65
802,154	-30,04
802,334	70,31
802,514	53,93
802,693	27,31
802,873	-34,13
803,053	10,92
803,233	0,68
803,413	-81,24
803,592	-68,95
803,772	-15,7
803,952	-13,65
804,131	-11,61
804,311	-3,41
804,491	-19,8
804,67	-25,94
804,85	80,55
805,03	-17,75
805,209	-1,37
805,389	4,78
805,568	47,79
805,748	-3,41
805,928	-13,65
806,107	-58,71
806,287	23,21
806,466	29,35
806,646	29,35
806,825	23,21
807,004	8,87
807,184	27,31
807,363	6,83
807,543	37,55
807,722	19,11
807,901	-40,28
808,081	-54,61
808,26	-36,18
808,439	19,11
808,619	-73,04
808,798	-9,56
808,977	6,83
809,156	12,97
809,336	-44,37
809,515	-13,65
809,694	35,5
809,873	58,03
810,052	-58,71
810,231	-9,56
810,411	-48,47
810,59	-54,61
810,769	-27,99
810,948	98,99
811,127	74,41
811,306	-62,8
811,485	6,83
811,664	21,16
811,843	-42,32
812,022	-11,61
812,201	12,97
812,38	43,69
812,559	-19,8
812,737	33,45
812,916	-38,23
813,095	-68,95
813,274	-1,37
813,453	-46,42
813,632	-54,61
813,811	2,73
813,989	-1,37
814,168	19,11
814,347	10,92
814,526	-56,66
814,704	72,36
814,883	15,02
815,062	-120,15
815,24	0,68
815,419	-19,8
815,598	-7,51
815,776	6,83
815,955	37,55
816,133	6,83
816,312	68,27
816,49	-30,04
816,669	39,59
816,847	27,31
817,026	27,31
817,204	-5,46
817,383	-9,56
817,561	-34,13
817,74	49,83
817,918	-85,33
818,097	2,73
818,275	-11,61
818,453	90,79
818,632	-5,46
818,81	-38,23
818,988	8,87
819,167	-30,04
819,345	-46,42
819,523	-15,7
819,701	2,73
819,879	-27,99
820,058	-38,23
820,236	-3,41
820,414	-11,61
820,592	35,5
820,77	-1,37
820,948	-21,85
821,127	29,35
821,305	23,21
821,483	-30,04
821,661	49,83
821,839	25,26
822,017	-71
822,195	12,97
822,373	-21,85
822,551	-25,94
822,729	19,11
822,907	12,97
823,085	12,97
823,262	27,31
823,44	-21,85
823,618	-68,95
823,796	33,45
823,974	6,83
824,152	70,31
824,329	-27,99
824,507	19,11
824,685	17,07
824,863	37,55
825,04	-19,8
825,218	-17,75
825,396	55,98
825,574	19,11
825,751	-36,18
825,929	-62,8
826,107	4,78
826,284	-15,7
826,462	-48,47
826,639	37,55
826,817	-91,48
826,994	-60,76
827,172	29,35
827,349	-19,8
827,527	-17,75
827,704	68,27
827,882	19,11
828,059	10,92
828,237	-23,89
828,414	72,36
828,591	-54,61
828,769	12,97
828,946	2,73
829,124	15,02
829,301	64,17
829,478	37,55
829,655	-34,13
829,833	23,21
830,01	-48,47
830,187	-89,43
830,364	-60,76
830,542	17,07
830,719	21,16
830,896	-15,7
831,073	-62,8
831,25	-9,56
831,427	-32,08
831,604	6,83
831,782	51,88
831,959	-5,46
832,136	-54,61
832,313	80,55
832,49	41,64
832,667	-5,46
832,844	-3,41
833,021	10,92
833,198	4,78
833,374	35,5
833,551	53,93
833,728	39,59
833,905	45,74
834,082	-42,32
834,259	-17,75
834,436	96,94
834,612	2,73
834,789	43,69
834,966	-19,8
835,143	-21,85
835,319	-66,9
835,496	37,55
835,673	-44,37
835,85	10,92
836,026	-1,37
836,203	-3,41
836,38	-21,85
836,556	-15,7
836,733	15,02
836,909	53,93
837,086	45,74
837,262	-46,42
837,439	-3,41
837,616	-50,52
837,792	-60,76
837,968	23,21
838,145	-7,51
838,321	-71
838,498	-79,19
838,674	10,92
838,851	45,74
839,027	19,11
839,203	27,31
839,38	-5,46
839,556	6,83
839,732	78,51
839,909	-52,56
840,085	-46,42
840,261	-15,7
840,437	27,31
840,614	-114
840,79	45,74
840,966	53,93
841,142	23,21
841,318	12,97
841,494	-19,8
841,671	39,59
841,847	41,64
842,023	19,11
842,199	-50,52
842,375	78,51
842,551	-52,56
842,727	-66,9
842,903	80,55
843,079	-50,52
843,255	37,55
843,431	60,07
843,607	12,97
843,783	-17,75
843,959	37,55
844,134	-17,75
844,31	-13,65
844,486	-3,41
844,662	25,26
844,838	-11,61
845,013	37,55
845,189	-23,89
845,365	21,16
845,541	10,92
845,716	92,84
845,892	-11,61
846,068	-7,51
846,244	21,16
846,419	37,55
846,595	-42,32
846,77	88,75
846,946	43,69
847,122	27,31
847,297	10,92
847,473	68,27
847,648	-34,13
847,824	55,98
847,999	-38,23
848,175	37,55
848,35	-13,65
848,526	33,45
848,701	-7,51
848,876	43,69
849,052	45,74
849,227	64,17
849,403	-5,46
849,578	-56,66
849,753	37,55
849,929	15,02
850,104	-46,42
850,279	-1,37
850,454	-101,72
850,63	76,46
850,805	-25,94
850,98	29,35
851,155	-34,13
851,33	-11,61
851,505	-32,08
851,681	-17,75
851,856	-36,18
852,031	-21,85
852,206	12,97
852,381	-21,85
852,556	31,4
852,731	-9,56
852,906	15,02
853,081	-9,56
853,256	51,88
853,431	39,59
853,606	19,11
853,781	-87,38
853,956	-38,23
854,131	43,69
854,305	6,83
854,48	-21,85
854,655	-56,66
854,83	-83,28
855,005	-40,28
855,18	-38,23
855,354	-68,95
855,529	58,03
855,704	10,92
855,879	2,73
856,053	0,68
856,228	6,83
856,403	-44,37
856,577	35,5
856,752	-77,14
856,926	17,07
857,101	2,73
857,276	25,26
857,45	-46,42
857,625	19,11
857,799	4,78
857,974	-19,8
858,148	-7,51
858,323	27,31
858,497	-27,99
858,672	-17,75
858,846	-13,65
859,02	6,83
859,195	-95,57
859,369	-66,9
859,543	-42,32
859,718	10,92
859,892	8,87
860,066	-9,56
860,241	31,4
860,415	60,07
860,589	53,93
860,763	33,45
860,938	27,31
861,112	-30,04
861,286	-25,94
861,46	8,87
861,634	-19,8
861,808	21,16
861,982	-25,94
862,157	-66,9
862,331	-32,08
862,505	-46,42
862,679	-27,99
862,853	-17,75
863,027	55,98
863,201	-5,46
863,375	19,11
863,549	-5,46
863,722	19,11
863,896	41,64
864,07	-42,32
864,244	31,4
864,418	78,51
864,592	19,11
864,766	-30,04
864,939	-46,42
865,113	23,21
865,287	60,07
865,461	-62,8
865,634	84,65
865,808	-64,85
865,982	4,78
866,156	15,02
866,329	-1,37
866,503	10,92
866,676	29,35
866,85	-21,85
867,024	-11,61
867,197	25,26
867,371	47,79
867,544	-17,75
867,718	-30,04
867,891	68,27
868,065	-66,9
868,238	-1,37
868,412	-11,61
868,585	-36,18
868,759	27,31
868,932	-103,76
869,105	2,73
869,279	-3,41
869,452	-87,38
869,625	58,03
869,799	-40,28
869,972	2,73
870,145	-38,23
870,319	55,98
870,492	15,02
870,665	-89,43
870,838	-36,18
871,011	-48,47
871,185	6,83
871,358	-23,89
871,531	49,83
871,704	-68,95
871,877	45,74
872,05	-34,13
872,223	-9,56
872,396	58,03
872,569	66,22
872,742	35,5
872,915	-58,71
873,088	21,16
873,261	-5,46
873,434	-23,89
873,607	21,16
873,78	-11,61
873,953	6,83
874,126	-5,46
874,299	2,73
874,471	-36,18
874,644	43,69
874,817	-9,56
874,99	78,51
875,163	-15,7
875,335	35,5
875,508	62,12
875,681	4,78
875,853	37,55
876,026	12,97
876,199	-30,04
876,371	2,73
876,544	19,11
876,717	-9,56
876,889	27,31
877,062	15,02
877,234	6,83
877,407	2,73
877,579	-46,42
877,752	-32,08
877,924	-5,46
878,097	64,17
878,269	-52,56
878,442	84,65
878,614	-75,09
878,786	-9,56
878,959	-36,18
879,131	-21,85
879,303	-44,37
879,476	-21,85
879,648	12,97
879,82	-46,42
879,993	-13,65
880,165	-5,46
880,337	37,55
880,509	41,64
880,681	-48,47
880,854	37,55
881,026	-3,41
881,198	60,07
881,37	37,55
881,542	-17,75
881,714	-27,99
881,886	-85,33
882,058	-34,13
882,23	21,16
882,402	12,97
882,574	4,78
882,746	-21,85
882,918	27,31
883,09	27,31
883,262	-3,41
883,434	-42,32
883,606	-42,32
883,778	-40,28
883,95	105,13
884,122	-19,8
884,293	-17,75
884,465	-11,61
884,637	92,84
884,809	-77,14
884,98	-62,8
885,152	2,73
885,324	-11,61
885,496	-30,04
885,667	-38,23
885,839	68,27
886,011	60,07
886,182	-9,56
886,354	-13,65
886,525	12,97
886,697	76,46
886,869	-21,85
887,04	12,97
887,212	78,51
887,383	6,83
887,555	-54,61
887,726	45,74
887,897	-54,61
888,069	-79,19
888,24	-13,65
888,412	-44,37
888,583	19,11
888,754	-30,04
888,926	-15,7
889,097	-54,61
889,268	-38,23
889,44	37,55
889,611	-9,56
889,782	-21,85
889,953	-66,9
890,125	111,27
890,296	-19,8
890,467	-50,52
890,638	2,73
890,809	-9,56
890,98	-44,37
891,151	23,21
891,323	4,78
891,494	15,02
891,665	4,78
891,836	43,69
892,007	43,69
892,178	90,79
892,349	4,78
892,52	-11,61
892,691	-5,46
892,862	-50,52
893,032	-27,99
893,203	51,88
893,374	-58,71
893,545	27,31
893,716	0,68
893,887	15,02
894,057	-44,37
894,228	43,69
894,399	55,98
894,57	19,11
894,74	-71
894,911	-27,99
895,082	-99,67
895,253	-71
895,423	-5,46
895,594	41,64
895,764	4,78
895,935	70,31
896,106	39,59
896,276	27,31
896,447	-23,89
896,617	-21,85
896,788	-9,56
896,958	17,07
897,129	-32,08
897,299	27,31
897,47	-13,65
897,64	-36,18
897,81	-56,66
897,981	21,16
898,151	-75,09
898,322	-19,8
898,492	-19,8
898,662	12,97
898,832	15,02
899,003	-52,56
899,173	-3,41
899,343	-42,32
899,513	-93,52
