Data from filtre 450_USB4F104151__6__11-55-00-384.txt Node

Date: Wed Apr 15 11:55:00 EDT 2026
User: LaboPhy
Spectrometer: USB4F10415
Trigger mode: 4
Integration Time (sec): 2,100000E-2
Scans to average: 1
Electric dark correction enabled: true
Nonlinearity correction enabled: false
Boxcar width: 0
XAxis mode: Wavelengths
Number of Pixels in Spectrum: 3648
>>>>>Begin Spectral Data<<<<<
178,204	-37,03
178,424	-37,03
178,644	-37,03
178,864	-53,42
179,084	-110,76
179,304	10,07
179,524	-14,51
179,744	22,36
179,964	-18,6
180,184	3,93
180,404	20,31
180,624	-8,36
180,844	3,93
181,064	24,4
181,283	-8,36
181,503	-0,17
181,723	-34,99
181,943	-61,61
182,163	20,31
182,383	-32,94
182,602	36,69
182,822	71,51
183,042	38,74
183,262	24,4
183,482	-77,99
183,701	12,12
183,921	-20,65
184,141	-47,27
184,361	12,12
184,58	-28,84
184,8	-26,79
185,02	3,93
185,239	-26,79
185,459	-45,23
185,679	71,51
185,898	-8,36
186,118	61,27
186,338	-22,7
186,557	55,12
186,777	-59,56
186,997	-18,6
187,216	22,36
187,436	75,6
187,655	73,56
187,875	38,74
188,095	-0,17
188,314	36,69
188,534	28,5
188,753	48,98
188,973	-8,36
189,192	69,46
189,412	69,46
189,631	-2,22
189,851	-28,84
190,07	38,74
190,29	-6,31
190,509	5,97
190,729	-22,7
190,948	-34,99
191,168	79,7
191,387	48,98
191,607	-26,79
191,826	-24,75
192,045	77,65
192,265	-16,55
192,484	-26,79
192,704	5,97
192,923	-34,99
193,142	120,66
193,362	-18,6
193,581	102,23
193,8	12,12
194,02	71,51
194,239	-28,84
194,458	-16,55
194,678	-59,56
194,897	14,17
195,116	28,5
195,335	-26,79
195,555	-37,03
195,774	40,79
195,993	30,55
196,212	-75,95
196,432	14,17
196,651	-49,32
196,87	102,23
197,089	20,31
197,308	81,75
197,528	30,55
197,747	14,17
197,966	36,69
198,185	120,66
198,404	20,31
198,623	20,31
198,842	75,6
199,062	-2,22
199,281	81,75
199,5	-18,6
199,719	77,65
199,938	44,88
200,157	126,8
200,376	73,56
200,595	36,69
200,814	22,36
201,033	-28,84
201,252	5,97
201,471	-10,41
201,69	57,17
201,909	-37,03
202,128	12,12
202,347	61,27
202,566	3,93
202,785	3,93
203,004	14,17
203,223	28,5
203,442	-16,55
203,661	79,7
203,879	-39,08
204,098	3,93
204,317	-47,27
204,536	55,12
204,755	44,88
204,974	51,03
205,193	34,64
205,411	22,36
205,63	38,74
205,849	67,41
206,068	87,89
206,287	40,79
206,505	-34,99
206,724	3,93
206,943	20,31
207,162	46,93
207,381	28,5
207,599	1,88
207,818	-45,23
208,037	-4,27
208,255	-10,41
208,474	22,36
208,693	16,21
208,911	-73,9
209,13	34,64
209,349	69,46
209,567	-14,51
209,786	44,88
210,005	-2,22
210,223	44,88
210,442	77,65
210,661	-2,22
210,879	-61,61
211,098	-4,27
211,316	40,79
211,535	61,27
211,753	40,79
211,972	12,12
212,191	36,69
212,409	36,69
212,628	22,36
212,846	32,6
213,065	32,6
213,283	-4,27
213,502	10,07
213,72	-41,13
213,938	28,5
214,157	-2,22
214,375	-4,27
214,594	3,93
214,812	-26,79
215,031	32,6
215,249	53,08
215,467	-10,41
215,686	55,12
215,904	59,22
216,122	5,97
216,341	32,6
216,559	30,55
216,778	63,32
216,996	26,45
217,214	48,98
217,432	-86,19
217,651	42,84
217,869	-65,71
218,087	38,74
218,306	3,93
218,524	10,07
218,742	-0,17
218,96	16,21
219,179	40,79
219,397	-4,27
219,615	100,18
219,833	44,88
220,051	20,31
220,27	77,65
220,488	-28,84
220,706	32,6
220,924	-32,94
221,142	51,03
221,36	36,69
221,578	104,28
221,796	79,7
222,015	73,56
222,233	51,03
222,451	53,08
222,669	-20,65
222,887	71,51
223,105	-51,37
223,323	44,88
223,541	-16,55
223,759	-0,17
223,977	24,4
224,195	-24,75
224,413	24,4
224,631	20,31
224,849	-26,79
225,067	65,36
225,285	77,65
225,503	12,12
225,721	-2,22
225,939	32,6
226,157	77,65
226,375	102,23
226,592	-51,37
226,81	-14,51
227,028	3,93
227,246	3,93
227,464	16,21
227,682	-26,79
227,9	40,79
228,117	59,22
228,335	-2,22
228,553	-16,55
228,771	30,55
228,989	77,65
229,206	-4,27
229,424	1,88
229,642	-6,31
229,86	-16,55
230,077	-28,84
230,295	24,4
230,513	53,08
230,731	100,18
230,948	-32,94
231,166	-32,94
231,384	44,88
231,601	5,97
231,819	96,08
232,037	55,12
232,254	-51,37
232,472	36,69
232,689	-4,27
232,907	-24,75
233,125	16,21
233,342	5,97
233,56	-14,51
233,777	-0,17
233,995	-12,46
234,213	14,17
234,43	48,98
234,648	-0,17
234,865	-39,08
235,083	-2,22
235,3	38,74
235,518	38,74
235,735	69,46
235,953	55,12
236,17	-73,9
236,388	14,17
236,605	20,31
236,822	69,46
237,04	87,89
237,257	22,36
237,475	-86,19
237,692	44,88
237,909	-2,22
238,127	18,26
238,344	8,02
238,562	8,02
238,779	10,07
238,996	36,69
239,214	32,6
239,431	36,69
239,648	-32,94
239,865	14,17
240,083	1,88
240,3	-10,41
240,517	5,97
240,735	-14,51
240,952	61,27
241,169	-43,18
241,386	28,5
241,603	-69,8
241,821	36,69
242,038	40,79
242,255	28,5
242,472	3,93
242,689	24,4
242,907	30,55
243,124	-43,18
243,341	-2,22
243,558	-65,71
243,775	32,6
243,992	44,88
244,209	67,41
244,426	96,08
244,643	53,08
244,86	69,46
245,078	30,55
245,295	42,84
245,512	-28,84
245,729	-16,55
245,946	3,93
246,163	77,65
246,38	46,93
246,597	-4,27
246,814	44,88
247,031	-10,41
247,248	-80,04
247,464	14,17
247,681	12,12
247,898	57,17
248,115	34,64
248,332	-37,03
248,549	22,36
248,766	36,69
248,983	3,93
249,2	69,46
249,417	46,93
249,633	-8,36
249,85	-0,17
250,067	-28,84
250,284	26,45
250,501	-32,94
250,717	-2,22
250,934	-94,38
251,151	14,17
251,368	-37,03
251,585	42,84
251,801	-24,75
252,018	30,55
252,235	57,17
252,451	32,6
252,668	8,02
252,885	75,6
253,102	-10,41
253,318	-8,36
253,535	44,88
253,752	-12,46
253,968	30,55
254,185	32,6
254,401	53,08
254,618	-20,65
254,835	12,12
255,051	24,4
255,268	-22,7
255,484	42,84
255,701	40,79
255,917	-0,17
256,134	-18,6
256,351	53,08
256,567	-69,8
256,784	30,55
257	16,21
257,217	10,07
257,433	36,69
257,65	36,69
257,866	65,36
258,082	30,55
258,299	28,5
258,515	77,65
258,732	5,97
258,948	8,02
259,165	-2,22
259,381	-53,42
259,597	16,21
259,814	-39,08
260,03	-12,46
260,246	20,31
260,463	-12,46
260,679	53,08
260,895	36,69
261,112	128,85
261,328	12,12
261,544	20,31
261,761	40,79
261,977	-4,27
262,193	-26,79
262,409	-0,17
262,626	26,45
262,842	26,45
263,058	10,07
263,274	36,69
263,49	-28,84
263,707	65,36
263,923	-18,6
264,139	-57,51
264,355	-51,37
264,571	36,69
264,787	42,84
265,004	24,4
265,22	-77,99
265,436	28,5
265,652	-16,55
265,868	30,55
266,084	24,4
266,3	-41,13
266,516	61,27
266,732	12,12
266,948	3,93
267,164	44,88
267,38	12,12
267,596	36,69
267,812	14,17
268,028	102,23
268,244	-49,32
268,46	-67,75
268,676	3,93
268,892	-26,79
269,108	61,27
269,324	36,69
269,54	-12,46
269,756	46,93
269,972	-10,41
270,188	20,31
270,403	-43,18
270,619	65,36
270,835	-30,89
271,051	20,31
271,267	38,74
271,483	-10,41
271,698	42,84
271,914	38,74
272,13	-55,47
272,346	63,32
272,562	24,4
272,777	77,65
272,993	-67,75
273,209	-22,7
273,425	-20,65
273,64	14,17
273,856	30,55
274,072	-12,46
274,287	20,31
274,503	69,46
274,719	32,6
274,934	14,17
275,15	-80,04
275,366	5,97
275,581	38,74
275,797	3,93
276,012	16,21
276,228	32,6
276,444	30,55
276,659	98,13
276,875	-28,84
277,09	-90,28
277,306	-34,99
277,521	-20,65
277,737	-16,55
277,952	81,75
278,168	-20,65
278,383	-18,6
278,599	-16,55
278,814	16,21
279,03	3,93
279,245	44,88
279,461	46,93
279,676	44,88
279,892	-45,23
280,107	-18,6
280,322	22,36
280,538	67,41
280,753	-127,14
280,969	46,93
281,184	-45,23
281,399	22,36
281,615	20,31
281,83	-8,36
282,045	22,36
282,26	-49,32
282,476	55,12
282,691	85,84
282,906	-55,47
283,122	3,93
283,337	30,55
283,552	18,26
283,767	-24,75
283,983	57,17
284,198	30,55
284,413	61,27
284,628	5,97
284,843	-12,46
285,058	3,93
285,274	-22,7
285,489	-0,17
285,704	26,45
285,919	-51,37
286,134	14,17
286,349	14,17
286,564	-4,27
286,779	30,55
286,995	28,5
287,21	-67,75
287,425	46,93
287,64	22,36
287,855	-18,6
288,07	-37,03
288,285	38,74
288,5	3,93
288,715	61,27
288,93	24,4
289,145	-73,9
289,36	22,36
289,575	-24,75
289,79	-39,08
290,004	-34,99
290,219	5,97
290,434	94,04
290,649	-61,61
290,864	8,02
291,079	-37,03
291,294	44,88
291,509	-45,23
291,724	53,08
291,938	3,93
292,153	51,03
292,368	-10,41
292,583	12,12
292,798	40,79
293,012	18,26
293,227	-0,17
293,442	1,88
293,657	32,6
293,871	73,56
294,086	28,5
294,301	44,88
294,516	91,99
294,73	-20,65
294,945	26,45
295,16	-10,41
295,374	57,17
295,589	36,69
295,804	-2,22
296,018	-39,08
296,233	16,21
296,447	24,4
296,662	3,93
296,877	-69,8
297,091	73,56
297,306	-8,36
297,52	20,31
297,735	12,12
297,949	32,6
298,164	94,04
298,378	38,74
298,593	34,64
298,807	-34,99
299,022	53,08
299,236	85,84
299,451	46,93
299,665	-26,79
299,88	-10,41
300,094	44,88
300,309	44,88
300,523	8,02
300,737	-22,7
300,952	26,45
301,166	5,97
301,381	-28,84
301,595	63,32
301,809	38,74
302,024	-26,79
302,238	8,02
302,452	69,46
302,667	-49,32
302,881	-10,41
303,095	75,6
303,309	-18,6
303,524	12,12
303,738	-18,6
303,952	-39,08
304,166	79,7
304,381	-28,84
304,595	-18,6
304,809	-37,03
305,023	77,65
305,237	-12,46
305,452	20,31
305,666	96,08
305,88	42,84
306,094	5,97
306,308	24,4
306,522	-20,65
306,736	55,12
306,95	12,12
307,164	53,08
307,379	12,12
307,593	57,17
307,807	53,08
308,021	77,65
308,235	69,46
308,449	-28,84
308,663	85,84
308,877	-18,6
309,091	51,03
309,305	-18,6
309,519	-45,23
309,733	-8,36
309,947	-49,32
310,161	-8,36
310,374	69,46
310,588	36,69
310,802	32,6
311,016	28,5
311,23	14,17
311,444	77,65
311,658	36,69
311,872	44,88
312,085	77,65
312,299	8,02
312,513	-26,79
312,727	71,51
312,941	-45,23
313,154	48,98
313,368	12,12
313,582	26,45
313,796	57,17
314,009	-41,13
314,223	5,97
314,437	55,12
314,651	24,4
314,864	-24,75
315,078	3,93
315,292	-37,03
315,505	-4,27
315,719	63,32
315,933	83,8
316,146	5,97
316,36	20,31
316,573	3,93
316,787	3,93
317,001	8,02
317,214	3,93
317,428	55,12
317,641	3,93
317,855	-12,46
318,068	48,98
318,282	63,32
318,495	67,41
318,709	3,93
318,922	30,55
319,136	12,12
319,349	14,17
319,563	61,27
319,776	20,31
319,99	18,26
320,203	-6,31
320,417	-28,84
320,63	3,93
320,843	5,97
321,057	28,5
321,27	14,17
321,483	44,88
321,697	75,6
321,91	8,02
322,124	32,6
322,337	57,17
322,55	28,5
322,763	-24,75
322,977	20,31
323,19	16,21
323,403	-0,17
323,617	-14,51
323,83	-28,84
324,043	67,41
324,256	-12,46
324,469	5,97
324,683	46,93
324,896	10,07
325,109	42,84
325,322	-45,23
325,535	110,42
325,748	42,84
325,962	-28,84
326,175	55,12
326,388	85,84
326,601	73,56
326,814	38,74
327,027	-53,42
327,24	38,74
327,453	-26,79
327,666	8,02
327,879	63,32
328,092	3,93
328,305	38,74
328,518	-65,71
328,731	5,97
328,944	-2,22
329,157	12,12
329,37	-26,79
329,583	73,56
329,796	36,69
330,009	61,27
330,222	3,93
330,435	24,4
330,648	-10,41
330,861	-4,27
331,073	10,07
331,286	-26,79
331,499	44,88
331,712	-16,55
331,925	20,31
332,138	-6,31
332,35	55,12
332,563	14,17
332,776	51,03
332,989	-32,94
333,202	-69,8
333,414	67,41
333,627	-2,22
333,84	-34,99
334,053	28,5
334,265	16,21
334,478	61,27
334,691	46,93
334,903	57,17
335,116	-12,46
335,329	53,08
335,541	69,46
335,754	-34,99
335,966	-34,99
336,179	57,17
336,392	-37,03
336,604	-39,08
336,817	-0,17
337,029	40,79
337,242	-59,56
337,454	53,08
337,667	48,98
337,88	73,56
338,092	-77,99
338,305	77,65
338,517	20,31
338,729	12,12
338,942	48,98
339,154	-24,75
339,367	-4,27
339,579	-2,22
339,792	-20,65
340,004	-57,51
340,217	-16,55
340,429	130,9
340,641	18,26
340,854	-24,75
341,066	-20,65
341,278	53,08
341,491	24,4
341,703	14,17
341,915	-22,7
342,128	12,12
342,34	48,98
342,552	-24,75
342,764	-34,99
342,977	51,03
343,189	69,46
343,401	-12,46
343,613	28,5
343,826	28,5
344,038	8,02
344,25	-20,65
344,462	-16,55
344,674	-12,46
344,886	5,97
345,099	36,69
345,311	36,69
345,523	63,32
345,735	-14,51
345,947	32,6
346,159	20,31
346,371	89,94
346,583	36,69
346,795	96,08
347,007	-24,75
347,219	38,74
347,431	14,17
347,643	57,17
347,855	-30,89
348,067	-14,51
348,279	34,64
348,491	96,08
348,703	28,5
348,915	81,75
349,127	-34,99
349,339	32,6
349,551	-34,99
349,763	51,03
349,975	-8,36
350,187	-65,71
350,399	-8,36
350,61	-6,31
350,822	61,27
351,034	81,75
351,246	59,22
351,458	24,4
351,669	46,93
351,881	12,12
352,093	-8,36
352,305	57,17
352,517	-2,22
352,728	-4,27
352,94	75,6
353,152	24,4
353,363	-69,8
353,575	-2,22
353,787	71,51
353,999	-6,31
354,21	28,5
354,422	-10,41
354,633	40,79
354,845	20,31
355,057	38,74
355,268	-67,75
355,48	65,36
355,692	36,69
355,903	8,02
356,115	-20,65
356,326	-34,99
356,538	57,17
356,749	38,74
356,961	14,17
357,172	30,55
357,384	16,21
357,595	71,51
357,807	16,21
358,018	-28,84
358,23	3,93
358,441	12,12
358,653	-8,36
358,864	-34,99
359,075	28,5
359,287	48,98
359,498	61,27
359,709	28,5
359,921	110,42
360,132	-24,75
360,344	5,97
360,555	61,27
360,766	-12,46
360,977	8,02
361,189	-4,27
361,4	38,74
361,611	-16,55
361,823	-26,79
362,034	-47,27
362,245	1,88
362,456	-24,75
362,667	81,75
362,879	61,27
363,09	-47,27
363,301	46,93
363,512	-14,51
363,723	-28,84
363,935	-28,84
364,146	57,17
364,357	14,17
364,568	12,12
364,779	32,6
364,99	16,21
365,201	8,02
365,412	48,98
365,623	3,93
365,834	67,41
366,045	-12,46
366,256	-24,75
366,467	8,02
366,678	26,45
366,889	75,6
367,1	-4,27
367,311	28,5
367,522	28,5
367,733	12,12
367,944	53,08
368,155	-12,46
368,366	137,04
368,577	3,93
368,788	24,4
368,999	-20,65
369,209	1,88
369,42	71,51
369,631	104,28
369,842	89,94
370,053	79,7
370,264	14,17
370,474	44,88
370,685	67,41
370,896	53,08
371,107	79,7
371,317	14,17
371,528	-16,55
371,739	42,84
371,95	22,36
372,16	-30,89
372,371	-28,84
372,582	-8,36
372,792	-0,17
373,003	-4,27
373,214	-47,27
373,424	44,88
373,635	-34,99
373,846	53,08
374,056	20,31
374,267	20,31
374,477	83,8
374,688	48,98
374,898	8,02
375,109	5,97
375,319	-14,51
375,53	30,55
375,74	-32,94
375,951	12,12
376,161	53,08
376,372	22,36
376,582	-22,7
376,793	40,79
377,003	5,97
377,214	14,17
377,424	18,26
377,635	20,31
377,845	-39,08
378,055	28,5
378,266	-43,18
378,476	-0,17
378,686	-18,6
378,897	44,88
379,107	18,26
379,317	38,74
379,528	67,41
379,738	65,36
379,948	-69,8
380,158	59,22
380,369	-4,27
380,579	55,12
380,789	44,88
380,999	69,46
381,21	44,88
381,42	87,89
381,63	-30,89
381,84	18,26
382,05	44,88
382,261	44,88
382,471	-18,6
382,681	22,36
382,891	57,17
383,101	28,5
383,311	71,51
383,521	42,84
383,731	57,17
383,941	-4,27
384,151	61,27
384,361	20,31
384,571	-45,23
384,781	3,93
384,991	79,7
385,201	46,93
385,411	16,21
385,621	12,12
385,831	-65,71
386,041	44,88
386,251	71,51
386,461	91,99
386,671	51,03
386,881	-22,7
387,091	-32,94
387,301	12,12
387,511	8,02
387,72	20,31
387,93	67,41
388,14	8,02
388,35	46,93
388,56	-32,94
388,769	110,42
388,979	-20,65
389,189	8,02
389,399	77,65
389,609	-37,03
389,818	-18,6
390,028	3,93
390,238	24,4
390,447	3,93
390,657	-20,65
390,867	22,36
391,076	-28,84
391,286	22,36
391,496	12,12
391,705	14,17
391,915	94,04
392,125	-18,6
392,334	-14,51
392,544	151,38
392,753	32,6
392,963	16,21
393,172	36,69
393,382	12,12
393,591	-12,46
393,801	8,02
394,01	71,51
394,22	22,36
394,429	102,23
394,639	-8,36
394,848	57,17
395,058	12,12
395,267	-39,08
395,477	67,41
395,686	65,36
395,895	48,98
396,105	145,24
396,314	85,84
396,524	-18,6
396,733	-34,99
396,942	24,4
397,152	91,99
397,361	16,21
397,57	-18,6
397,78	44,88
397,989	55,12
398,198	94,04
398,407	-32,94
398,617	-26,79
398,826	-43,18
399,035	8,02
399,244	26,45
399,453	75,6
399,663	12,12
399,872	8,02
400,081	14,17
400,29	77,65
400,499	40,79
400,708	-0,17
400,917	-26,79
401,127	-28,84
401,336	34,64
401,545	26,45
401,754	61,27
401,963	-28,84
402,172	28,5
402,381	-55,47
402,59	5,97
402,799	44,88
403,008	40,79
403,217	53,08
403,426	-32,94
403,635	-53,42
403,844	12,12
404,053	-39,08
404,262	55,12
404,471	81,75
404,68	16,21
404,888	-0,17
405,097	-32,94
405,306	8,02
405,515	65,36
405,724	8,02
405,933	32,6
406,142	8,02
406,35	48,98
406,559	30,55
406,768	61,27
406,977	14,17
407,185	61,27
407,394	36,69
407,603	-8,36
407,812	32,6
408,02	20,31
408,229	-84,14
408,438	28,5
408,646	10,07
408,855	-41,13
409,064	20,31
409,272	1,88
409,481	12,12
409,69	-22,7
409,898	-18,6
410,107	161,62
410,315	48,98
410,524	38,74
410,733	73,56
410,941	53,08
411,15	22,36
411,358	3,93
411,567	26,45
411,775	110,42
411,984	20,31
412,192	22,36
412,401	16,21
412,609	102,23
412,818	89,94
413,026	83,8
413,234	85,84
413,443	-53,42
413,651	3,93
413,86	-14,51
414,068	28,5
414,276	3,93
414,485	32,6
414,693	118,61
414,901	40,79
415,11	59,22
415,318	53,08
415,526	51,03
415,734	46,93
415,943	34,64
416,151	53,08
416,359	108,37
416,567	14,17
416,776	28,5
416,984	118,61
417,192	87,89
417,4	48,98
417,608	73,56
417,817	3,93
418,025	-20,65
418,233	42,84
418,441	-39,08
418,649	-28,84
418,857	-4,27
419,065	34,64
419,273	-43,18
419,481	32,6
419,689	77,65
419,897	-4,27
420,105	-24,75
420,313	-2,22
420,521	55,12
420,729	51,03
420,937	20,31
421,145	22,36
421,353	57,17
421,561	24,4
421,769	-20,65
421,977	-34,99
422,185	16,21
422,393	18,26
422,601	-34,99
422,809	61,27
423,017	57,17
423,224	20,31
423,432	1,88
423,64	104,28
423,848	-8,36
424,056	20,31
424,263	106,32
424,471	1,88
424,679	57,17
424,887	40,79
425,094	34,64
425,302	24,4
425,51	32,6
425,718	46,93
425,925	57,17
426,133	42,84
426,341	30,55
426,548	-10,41
426,756	-18,6
426,964	-71,85
427,171	-37,03
427,379	22,36
427,586	-16,55
427,794	-12,46
428,001	26,45
428,209	-26,79
428,417	89,94
428,624	20,31
428,832	137,04
429,039	32,6
429,247	30,55
429,454	77,65
429,662	151,38
429,869	57,17
430,076	12,12
430,284	-8,36
430,491	69,46
430,699	16,21
430,906	55,12
431,114	-4,27
431,321	55,12
431,528	110,42
431,736	36,69
431,943	42,84
432,15	14,17
432,358	87,89
432,565	110,42
432,772	-28,84
432,979	120,66
433,187	57,17
433,394	-30,89
433,601	-10,41
433,808	40,79
434,016	36,69
434,223	16,21
434,43	71,51
434,637	71,51
434,844	51,03
435,052	24,4
435,259	18,26
435,466	120,66
435,673	108,37
435,88	30,55
436,087	-2,22
436,294	81,75
436,501	46,93
436,708	36,69
436,915	85,84
437,122	102,23
437,329	44,88
437,537	-4,27
437,743	12,12
437,95	104,28
438,157	61,27
438,364	40,79
438,571	106,32
438,778	104,28
438,985	135
439,192	71,51
439,399	100,18
439,606	106,32
439,813	89,94
440,02	55,12
440,227	180,05
440,433	175,95
440,64	126,8
440,847	63,32
441,054	106,32
441,261	120,66
441,467	145,24
441,674	190,29
441,881	161,62
442,088	139,09
442,294	227,15
442,501	157,52
442,708	245,59
442,914	280,4
443,121	325,46
443,328	188,24
443,534	323,41
443,741	333,65
443,948	282,45
444,154	341,84
444,361	407,38
444,568	448,33
444,774	499,53
444,981	464,72
445,187	489,29
445,394	634,7
445,6	716,62
445,807	812,87
446,013	876,36
446,22	915,27
446,426	1161,03
446,633	1273,67
446,839	1404,74
447,046	1431,36
447,252	1808,19
447,459	2086,71
447,665	2225,97
447,871	2580,27
448,078	3102,5
448,284	3481,38
448,491	4067,1
448,697	4779,79
448,903	5351,17
449,11	6188,79
449,316	7036,65
449,522	8410,84
449,728	9696,96
449,935	10923,69
450,141	12603,03
450,347	14677,62
450,553	15939,17
450,76	18202,18
450,966	21388,81
451,172	23299,57
451,378	26052,04
451,584	28575,14
451,791	30899,58
451,997	33559,89
452,203	36904,23
452,409	38921,48
452,615	40453,36
452,821	41915,61
453,027	42431,69
453,233	46308,5
453,44	45913,24
453,646	47400,07
453,852	48886,89
454,058	51008,59
454,264	50738,26
454,47	51725,38
454,676	51645,51
454,882	54803,47
455,088	51055,69
455,294	52247,61
455,5	53769,25
455,705	54549,52
455,911	53343,27
456,117	53318,7
456,323	53838,88
456,529	52159,55
456,735	55219,21
456,941	54952,97
457,147	54758,42
457,352	54629,4
457,558	53906,46
457,764	55378,95
457,97	55524,36
458,176	55045,13
458,381	55997,44
458,587	54780,95
458,793	55436,3
458,999	52859,95
459,204	57813,99
459,41	57381,87
459,616	53879,84
459,821	54174,75
460,027	54305,82
460,233	53355,56
460,438	50099,29
460,644	50488,4
460,85	47365,25
461,055	45323,43
461,261	43494,59
461,466	38501,64
461,672	35556,66
461,878	36236,59
462,083	31696,24
462,289	28566,95
462,494	25863,63
462,7	22846,97
462,905	20735,51
463,111	19564,07
463,316	17878,6
463,522	15863,4
463,727	14452,34
463,932	12873,36
464,138	11642,53
464,343	10065,6
464,549	8888,01
464,754	8281,81
464,959	7511,78
465,165	6631,15
465,37	5680,89
465,575	5003,02
465,781	4568,85
465,986	4296,47
466,191	3659,55
466,397	3333,92
466,602	2801,45
466,807	2680,62
467,012	2363,19
467,218	2228,02
467,423	2068,28
467,628	1990,45
467,833	1867,58
468,038	1683,26
468,244	1433,41
468,449	1322,82
468,654	1290,05
468,859	1171,27
469,064	945,99
469,269	950,09
469,474	913,22
469,679	894,79
469,885	714,57
470,09	724,81
470,295	735,05
470,5	587,6
470,705	681,8
470,91	601,93
471,115	612,17
471,32	493,39
471,525	536,4
471,73	483,15
471,935	415,57
472,139	413,52
472,344	323,41
472,549	257,87
472,754	323,41
472,959	288,59
473,164	384,85
473,369	274,26
473,574	259,92
473,778	251,73
473,983	274,26
474,188	286,54
474,393	290,64
474,598	241,49
474,802	280,4
475,007	157,52
475,212	212,82
475,417	200,53
475,621	251,73
475,826	155,47
476,031	143,19
476,235	147,28
476,44	216,91
476,645	108,37
476,849	221,01
477,054	106,32
477,259	155,47
477,463	96,08
477,668	206,67
477,872	135
478,077	157,52
478,282	94,04
478,486	153,43
478,691	75,6
478,895	102,23
479,1	122,71
479,304	149,33
479,509	184,15
479,713	102,23
479,918	184,15
480,122	79,7
480,326	69,46
480,531	81,75
480,735	96,08
480,94	20,31
481,144	94,04
481,348	108,37
481,553	85,84
481,757	98,13
481,961	89,94
482,166	96,08
482,37	77,65
482,574	141,14
482,778	44,88
482,983	118,61
483,187	106,32
483,391	63,32
483,595	57,17
483,8	67,41
484,004	69,46
484,208	79,7
484,412	32,6
484,616	85,84
484,821	42,84
485,025	-6,31
485,229	77,65
485,433	42,84
485,637	87,89
485,841	71,51
486,045	87,89
486,249	55,12
486,453	24,4
486,657	73,56
486,861	-4,27
487,065	98,13
487,269	22,36
487,473	42,84
487,677	85,84
487,881	91,99
488,085	96,08
488,289	71,51
488,493	-12,46
488,697	59,22
488,901	100,18
489,105	51,03
489,309	12,12
489,512	73,56
489,716	85,84
489,92	20,31
490,124	106,32
490,328	77,65
490,531	46,93
490,735	32,6
490,939	61,27
491,143	44,88
491,346	8,02
491,55	44,88
491,754	24,4
491,958	85,84
492,161	94,04
492,365	94,04
492,569	-10,41
492,772	87,89
492,976	18,26
493,18	94,04
493,383	112,47
493,587	10,07
493,79	79,7
493,994	18,26
494,197	3,93
494,401	67,41
494,605	61,27
494,808	22,36
495,012	14,17
495,215	94,04
495,419	71,51
495,622	24,4
495,825	32,6
496,029	22,36
496,232	65,36
496,436	36,69
496,639	59,22
496,843	-49,32
497,046	57,17
497,249	69,46
497,453	46,93
497,656	28,5
497,859	12,12
498,063	20,31
498,266	65,36
498,469	-43,18
498,673	22,36
498,876	-26,79
499,079	-8,36
499,282	69,46
499,485	32,6
499,689	91,99
499,892	40,79
500,095	20,31
500,298	16,21
500,501	-53,42
500,705	-20,65
500,908	-26,79
501,111	5,97
501,314	59,22
501,517	55,12
501,72	20,31
501,923	14,17
502,126	-6,31
502,329	69,46
502,532	18,26
502,735	22,36
502,938	73,56
503,141	12,12
503,344	67,41
503,547	-2,22
503,75	12,12
503,953	-43,18
504,156	71,51
504,359	22,36
504,562	8,02
504,765	-39,08
504,968	28,5
505,17	12,12
505,373	10,07
505,576	-65,71
505,779	-20,65
505,982	28,5
506,185	75,6
506,387	20,31
506,59	-0,17
506,793	-26,79
506,996	16,21
507,198	-63,66
507,401	30,55
507,604	20,31
507,807	-28,84
508,009	20,31
508,212	112,47
508,415	-16,55
508,617	10,07
508,82	53,08
509,022	44,88
509,225	42,84
509,428	-4,27
509,63	22,36
509,833	8,02
510,035	65,36
510,238	110,42
510,44	-0,17
510,643	44,88
510,845	48,98
511,048	65,36
511,25	73,56
511,453	20,31
511,655	-6,31
511,858	59,22
512,06	51,03
512,262	-8,36
512,465	14,17
512,667	-4,27
512,87	32,6
513,072	87,89
513,274	34,64
513,477	12,12
513,679	-18,6
513,881	94,04
514,084	-0,17
514,286	73,56
514,488	12,12
514,69	42,84
514,893	-26,79
515,095	5,97
515,297	12,12
515,499	3,93
515,701	-26,79
515,904	38,74
516,106	1,88
516,308	77,65
516,51	-18,6
516,712	30,55
516,914	32,6
517,116	94,04
517,318	40,79
517,52	51,03
517,722	16,21
517,925	12,12
518,127	53,08
518,329	24,4
518,531	10,07
518,733	12,12
518,935	22,36
519,136	8,02
519,338	-14,51
519,54	-2,22
519,742	30,55
519,944	40,79
520,146	-28,84
520,348	24,4
520,55	28,5
520,752	-34,99
520,954	46,93
521,155	28,5
521,357	-6,31
521,559	30,55
521,761	16,21
521,963	-26,79
522,164	18,26
522,366	59,22
522,568	57,17
522,77	3,93
522,971	-41,13
523,173	-39,08
523,375	36,69
523,576	10,07
523,778	24,4
523,98	63,32
524,181	69,46
524,383	65,36
524,584	-18,6
524,786	8,02
524,988	32,6
525,189	-12,46
525,391	48,98
525,592	20,31
525,794	5,97
525,995	-2,22
526,197	85,84
526,398	102,23
526,6	-28,84
526,801	61,27
527,003	26,45
527,204	-22,7
527,406	5,97
527,607	-12,46
527,808	44,88
528,01	71,51
528,211	-26,79
528,412	10,07
528,614	46,93
528,815	36,69
529,016	-8,36
529,218	8,02
529,419	51,03
529,62	-10,41
529,822	46,93
530,023	65,36
530,224	16,21
530,425	53,08
530,626	12,12
530,828	12,12
531,029	-90,28
531,23	3,93
531,431	-10,41
531,632	79,7
531,833	-28,84
532,035	14,17
532,236	-2,22
532,437	-28,84
532,638	-39,08
532,839	1,88
533,04	22,36
533,241	38,74
533,442	-12,46
533,643	79,7
533,844	53,08
534,045	-8,36
534,246	-37,03
534,447	-53,42
534,648	-4,27
534,849	-18,6
535,05	-14,51
535,251	1,88
535,451	3,93
535,652	34,64
535,853	-2,22
536,054	53,08
536,255	-12,46
536,456	53,08
536,657	14,17
536,857	26,45
537,058	10,07
537,259	53,08
537,46	-4,27
537,66	-22,7
537,861	40,79
538,062	-32,94
538,263	-61,61
538,463	94,04
538,664	-12,46
538,865	5,97
539,065	-2,22
539,266	53,08
539,466	36,69
539,667	28,5
539,868	-28,84
540,068	3,93
540,269	3,93
540,469	46,93
540,67	22,36
540,87	-32,94
541,071	-4,27
541,271	65,36
541,472	44,88
541,672	32,6
541,873	-28,84
542,073	14,17
542,274	102,23
542,474	3,93
542,675	-4,27
542,875	28,5
543,075	12,12
543,276	1,88
543,476	20,31
543,676	20,31
543,877	36,69
544,077	36,69
544,277	26,45
544,478	55,12
544,678	-63,66
544,878	38,74
545,078	22,36
545,279	96,08
545,479	24,4
545,679	-28,84
545,879	-24,75
546,079	20,31
546,28	28,5
546,48	61,27
546,68	61,27
546,88	44,88
547,08	3,93
547,28	112,47
547,48	-6,31
547,68	20,31
547,88	112,47
548,081	3,93
548,281	-53,42
548,481	26,45
548,681	65,36
548,881	22,36
549,081	-55,47
549,28	85,84
549,48	-51,37
549,68	5,97
549,88	8,02
550,08	-6,31
550,28	32,6
550,48	53,08
550,68	59,22
550,88	3,93
551,08	-4,27
551,279	30,55
551,479	3,93
551,679	5,97
551,879	-26,79
552,079	-28,84
552,278	3,93
552,478	61,27
552,678	30,55
552,878	57,17
553,077	32,6
553,277	22,36
553,477	-28,84
553,676	40,79
553,876	-55,47
554,076	63,32
554,275	-18,6
554,475	69,46
554,674	-24,75
554,874	12,12
555,074	57,17
555,273	30,55
555,473	8,02
555,672	-32,94
555,872	-24,75
556,071	30,55
556,271	53,08
556,47	46,93
556,67	42,84
556,869	40,79
557,068	-37,03
557,268	-28,84
557,467	81,75
557,667	-10,41
557,866	16,21
558,065	38,74
558,265	-14,51
558,464	22,36
558,663	1,88
558,863	8,02
559,062	-8,36
559,261	-24,75
559,461	12,12
559,66	89,94
559,859	18,26
560,058	20,31
560,258	-12,46
560,457	67,41
560,656	94,04
560,855	-8,36
561,054	30,55
561,253	51,03
561,453	8,02
561,652	3,93
561,851	12,12
562,05	1,88
562,249	-16,55
562,448	44,88
562,647	-0,17
562,846	10,07
563,045	61,27
563,244	5,97
563,443	5,97
563,642	-59,56
563,841	32,6
564,04	-53,42
564,239	28,5
564,438	3,93
564,637	-45,23
564,836	14,17
565,035	-12,46
565,234	-34,99
565,432	28,5
565,631	-18,6
565,83	-26,79
566,029	-0,17
566,228	28,5
566,427	77,65
566,625	-4,27
566,824	96,08
567,023	-53,42
567,222	-2,22
567,42	59,22
567,619	87,89
567,818	53,08
568,016	-12,46
568,215	-34,99
568,414	57,17
568,612	81,75
568,811	5,97
569,01	-28,84
569,208	61,27
569,407	-49,32
569,605	-6,31
569,804	12,12
570,002	-24,75
570,201	-20,65
570,4	53,08
570,598	-43,18
570,797	53,08
570,995	-34,99
571,193	38,74
571,392	28,5
571,59	-4,27
571,789	24,4
571,987	22,36
572,186	110,42
572,384	-0,17
572,582	-22,7
572,781	34,64
572,979	24,4
573,177	5,97
573,376	-8,36
573,574	104,28
573,772	44,88
573,971	-57,51
574,169	-6,31
574,367	28,5
574,565	-4,27
574,763	-37,03
574,962	53,08
575,16	-12,46
575,358	3,93
575,556	-34,99
575,754	16,21
575,952	-45,23
576,151	-4,27
576,349	24,4
576,547	-10,41
576,745	51,03
576,943	3,93
577,141	-2,22
577,339	12,12
577,537	53,08
577,735	-16,55
577,933	53,08
578,131	16,21
578,329	16,21
578,527	-34,99
578,725	3,93
578,923	-28,84
579,121	112,47
579,319	32,6
579,516	1,88
579,714	98,13
579,912	22,36
580,11	-47,27
580,308	-16,55
580,506	3,93
580,704	-32,94
580,901	32,6
581,099	75,6
581,297	28,5
581,495	-28,84
581,692	-2,22
581,89	34,64
582,088	71,51
582,285	48,98
582,483	69,46
582,681	8,02
582,878	-77,99
583,076	28,5
583,274	53,08
583,471	65,36
583,669	48,98
583,866	20,31
584,064	-57,51
584,262	-20,65
584,459	-12,46
584,657	53,08
584,854	55,12
585,052	36,69
585,249	30,55
585,447	38,74
585,644	-8,36
585,841	22,36
586,039	32,6
586,236	53,08
586,434	65,36
586,631	-2,22
586,828	-41,13
587,026	36,69
587,223	-55,47
587,42	-20,65
587,618	51,03
587,815	77,65
588,012	-8,36
588,21	-4,27
588,407	18,26
588,604	-10,41
588,801	5,97
588,999	-4,27
589,196	-28,84
589,393	-4,27
589,59	53,08
589,787	-63,66
589,984	61,27
590,182	-12,46
590,379	-18,6
590,576	18,26
590,773	-28,84
590,97	75,6
591,167	22,36
591,364	3,93
591,561	26,45
591,758	20,31
591,955	48,98
592,152	46,93
592,349	-0,17
592,546	42,84
592,743	-116,9
592,94	5,97
593,137	-16,55
593,334	-22,7
593,531	-0,17
593,727	22,36
593,924	-49,32
594,121	16,21
594,318	-32,94
594,515	75,6
594,712	8,02
594,908	-28,84
595,105	-30,89
595,302	32,6
595,499	-16,55
595,696	42,84
595,892	-34,99
596,089	100,18
596,286	-77,99
596,482	-53,42
596,679	8,02
596,876	32,6
597,072	53,08
597,269	-12,46
597,466	10,07
597,662	-12,46
597,859	12,12
598,055	-10,41
598,252	65,36
598,448	14,17
598,645	-22,7
598,841	36,69
599,038	24,4
599,234	36,69
599,431	46,93
599,627	3,93
599,824	16,21
600,02	3,93
600,217	-32,94
600,413	-67,75
600,609	42,84
600,806	81,75
601,002	1,88
601,198	-32,94
601,395	75,6
601,591	28,5
601,787	67,41
601,984	28,5
602,18	67,41
602,376	-77,99
602,572	40,79
602,769	12,12
602,965	-16,55
603,161	65,36
603,357	87,89
603,553	94,04
603,75	44,88
603,946	55,12
604,142	-2,22
604,338	20,31
604,534	24,4
604,73	26,45
604,926	69,46
605,122	40,79
605,318	-53,42
605,514	30,55
605,71	-28,84
605,906	3,93
606,102	18,26
606,298	8,02
606,494	32,6
606,69	71,51
606,886	-30,89
607,082	-34,99
607,278	-18,6
607,474	57,17
607,67	40,79
607,866	5,97
608,062	55,12
608,257	28,5
608,453	-51,37
608,649	46,93
608,845	28,5
609,041	-28,84
609,236	42,84
609,432	-20,65
609,628	-4,27
609,824	1,88
610,019	-82,09
610,215	-10,41
610,411	55,12
610,606	20,31
610,802	12,12
610,998	20,31
611,193	-4,27
611,389	1,88
611,584	61,27
611,78	-32,94
611,976	5,97
612,171	20,31
612,367	-39,08
612,562	3,93
612,758	61,27
612,953	3,93
613,149	48,98
613,344	46,93
613,539	26,45
613,735	-10,41
613,93	-22,7
614,126	34,64
614,321	77,65
614,517	14,17
614,712	10,07
614,907	-45,23
615,103	28,5
615,298	-20,65
615,493	3,93
615,688	55,12
615,884	5,97
616,079	14,17
616,274	22,36
616,47	-69,8
616,665	-12,46
616,86	16,21
617,055	16,21
617,25	-14,51
617,445	3,93
617,641	3,93
617,836	-14,51
618,031	-16,55
618,226	-24,75
618,421	51,03
618,616	-16,55
618,811	-41,13
619,006	-8,36
619,201	26,45
619,396	-16,55
619,591	10,07
619,786	-90,28
619,981	8,02
620,176	28,5
620,371	59,22
620,566	18,26
620,761	44,88
620,956	24,4
621,151	5,97
621,346	24,4
621,541	8,02
621,735	51,03
621,93	46,93
622,125	-8,36
622,32	-20,65
622,515	-86,19
622,709	5,97
622,904	-16,55
623,099	51,03
623,294	-24,75
623,488	32,6
623,683	-0,17
623,878	10,07
624,072	-20,65
624,267	16,21
624,462	-22,7
624,656	-49,32
624,851	-65,71
625,046	73,56
625,24	12,12
625,435	-45,23
625,629	-73,9
625,824	44,88
626,018	8,02
626,213	-0,17
626,407	-0,17
626,602	-34,99
626,796	-45,23
626,991	77,65
627,185	10,07
627,38	-47,27
627,574	-4,27
627,768	-2,22
627,963	-26,79
628,157	48,98
628,352	14,17
628,546	-39,08
628,74	-92,33
628,935	-18,6
629,129	-4,27
629,323	94,04
629,517	-51,37
629,712	-20,65
629,906	-4,27
630,1	12,12
630,294	18,26
630,489	24,4
630,683	-16,55
630,877	3,93
631,071	-24,75
631,265	30,55
631,459	71,51
631,653	-39,08
631,848	5,97
632,042	-41,13
632,236	-41,13
632,43	22,36
632,624	-32,94
632,818	-20,65
633,012	30,55
633,206	12,12
633,4	-49,32
633,594	44,88
633,788	-6,31
633,982	51,03
634,176	48,98
634,369	69,46
634,563	-8,36
634,757	-22,7
634,951	8,02
635,145	-20,65
635,339	-32,94
635,533	53,08
635,726	5,97
635,92	-26,79
636,114	22,36
636,308	-6,31
636,501	-65,71
636,695	38,74
636,889	-30,89
637,083	73,56
637,276	-71,85
637,47	26,45
637,664	36,69
637,857	20,31
638,051	-65,71
638,244	38,74
638,438	1,88
638,632	-12,46
638,825	-10,41
639,019	94,04
639,212	-53,42
639,406	44,88
639,599	-18,6
639,793	44,88
639,986	-26,79
640,18	-2,22
640,373	8,02
640,567	20,31
640,76	65,36
640,954	34,64
641,147	1,88
641,34	-18,6
641,534	36,69
641,727	32,6
641,92	102,23
642,114	-28,84
642,307	44,88
642,5	14,17
642,694	20,31
642,887	30,55
643,08	24,4
643,273	51,03
643,467	-34,99
643,66	40,79
643,853	14,17
644,046	16,21
644,239	16,21
644,432	-24,75
644,626	-34,99
644,819	53,08
645,012	-6,31
645,205	32,6
645,398	83,8
645,591	57,17
645,784	-22,7
645,977	-61,61
646,17	-10,41
646,363	10,07
646,556	89,94
646,749	8,02
646,942	-30,89
647,135	40,79
647,328	22,36
647,521	63,32
647,714	102,23
647,907	-34,99
648,099	-22,7
648,292	-24,75
648,485	-18,6
648,678	-26,79
648,871	-98,47
649,064	-16,55
649,256	28,5
649,449	38,74
649,642	-45,23
649,835	16,21
650,027	-24,75
650,22	-28,84
650,413	-6,31
650,605	-4,27
650,798	75,6
650,991	40,79
651,183	20,31
651,376	-4,27
651,568	-16,55
651,761	16,21
651,954	-8,36
652,146	32,6
652,339	-8,36
652,531	46,93
652,724	-37,03
652,916	38,74
653,109	-39,08
653,301	10,07
653,494	32,6
653,686	-4,27
653,879	20,31
654,071	16,21
654,263	-12,46
654,456	34,64
654,648	-16,55
654,84	14,17
655,033	-2,22
655,225	34,64
655,417	-49,32
655,61	100,18
655,802	65,36
655,994	44,88
656,186	-125,1
656,379	53,08
656,571	-18,6
656,763	-39,08
656,955	-2,22
657,148	-20,65
657,34	-20,65
657,532	24,4
657,724	22,36
657,916	3,93
658,108	14,17
658,3	71,51
658,492	-16,55
658,684	-8,36
658,876	-12,46
659,068	-24,75
659,26	3,93
659,452	57,17
659,644	10,07
659,836	-22,7
660,028	-10,41
660,22	77,65
660,412	30,55
660,604	28,5
660,796	-28,84
660,988	85,84
661,18	48,98
661,372	53,08
661,563	94,04
661,755	18,26
661,947	-84,14
662,139	-22,7
662,331	67,41
662,522	14,17
662,714	61,27
662,906	-6,31
663,097	18,26
663,289	-2,22
663,481	5,97
663,673	44,88
663,864	-41,13
664,056	51,03
664,247	14,17
664,439	18,26
664,631	-34,99
664,822	-4,27
665,014	3,93
665,205	3,93
665,397	22,36
665,588	38,74
665,78	-22,7
665,971	81,75
666,163	-14,51
666,354	98,13
666,546	44,88
666,737	-26,79
666,929	44,88
667,12	30,55
667,311	14,17
667,503	42,84
667,694	-2,22
667,885	48,98
668,077	16,21
668,268	-32,94
668,459	3,93
668,651	-71,85
668,842	36,69
669,033	-22,7
669,224	-49,32
669,416	12,12
669,607	-12,46
669,798	61,27
669,989	77,65
670,18	14,17
670,371	5,97
670,563	20,31
670,754	87,89
670,945	55,12
671,136	10,07
671,327	28,5
671,518	12,12
671,709	118,61
671,9	30,55
672,091	46,93
672,282	-41,13
672,473	24,4
672,664	-77,99
672,855	-12,46
673,046	55,12
673,237	36,69
673,428	3,93
673,619	-12,46
673,809	12,12
674	44,88
674,191	18,26
674,382	85,84
674,573	-4,27
674,764	20,31
674,954	20,31
675,145	20,31
675,336	5,97
675,527	-24,75
675,717	24,4
675,908	30,55
676,099	-59,56
676,289	-12,46
676,48	5,97
676,671	-28,84
676,861	3,93
677,052	61,27
677,243	8,02
677,433	69,46
677,624	63,32
677,814	77,65
678,005	-39,08
678,195	73,56
678,386	28,5
678,576	34,64
678,767	20,31
678,957	22,36
679,148	-22,7
679,338	-28,84
679,529	36,69
679,719	57,17
679,909	77,65
680,1	3,93
680,29	-20,65
680,481	-37,03
680,671	-28,84
680,861	-4,27
681,052	44,88
681,242	28,5
681,432	28,5
681,622	28,5
681,813	-18,6
682,003	-28,84
682,193	18,26
682,383	24,4
682,573	20,31
682,764	51,03
682,954	46,93
683,144	61,27
683,334	53,08
683,524	-39,08
683,714	-8,36
683,904	3,93
684,094	28,5
684,284	-18,6
684,474	-4,27
684,664	12,12
684,854	69,46
685,044	55,12
685,234	24,4
685,424	3,93
685,614	32,6
685,804	22,36
685,994	-65,71
686,184	1,88
686,374	81,75
686,564	-41,13
686,753	30,55
686,943	-34,99
687,133	-14,51
687,323	28,5
687,513	-16,55
687,702	30,55
687,892	73,56
688,082	12,12
688,272	53,08
688,461	-37,03
688,651	-16,55
688,841	-28,84
689,03	-26,79
689,22	3,93
689,41	-43,18
689,599	53,08
689,789	30,55
689,979	-39,08
690,168	16,21
690,358	-2,22
690,547	-20,65
690,737	44,88
690,926	-49,32
691,116	18,26
691,305	10,07
691,495	-8,36
691,684	32,6
691,874	-20,65
692,063	-12,46
692,252	-0,17
692,442	-10,41
692,631	-73,9
692,82	-53,42
693,01	-20,65
693,199	-10,41
693,388	-34,99
693,578	-26,79
693,767	-59,56
693,956	26,45
694,146	55,12
694,335	-34,99
694,524	-4,27
694,713	8,02
694,902	-45,23
695,092	-28,84
695,281	20,31
695,47	-2,22
695,659	26,45
695,848	-12,46
696,037	1,88
696,226	32,6
696,415	8,02
696,604	65,36
696,793	-18,6
696,982	5,97
697,171	-12,46
697,36	42,84
697,549	-37,03
697,738	-10,41
697,927	44,88
698,116	-88,23
698,305	42,84
698,494	-14,51
698,683	28,5
698,872	5,97
699,061	75,6
699,25	-47,27
699,438	-45,23
699,627	14,17
699,816	40,79
700,005	16,21
700,193	69,46
700,382	-28,84
700,571	-43,18
700,76	28,5
700,948	34,64
701,137	51,03
701,326	87,89
701,514	61,27
701,703	-32,94
701,892	36,69
702,08	34,64
702,269	-34,99
702,457	104,28
702,646	44,88
702,834	-34,99
703,023	61,27
703,212	71,51
703,4	-39,08
703,589	-24,75
703,777	-20,65
703,965	-53,42
704,154	-12,46
704,342	-61,61
704,531	34,64
704,719	5,97
704,907	22,36
705,096	-10,41
705,284	-28,84
705,472	96,08
705,661	5,97
705,849	-6,31
706,037	135
706,226	-30,89
706,414	-4,27
706,602	-69,8
706,79	24,4
706,979	10,07
707,167	-18,6
707,355	-20,65
707,543	10,07
707,731	12,12
707,919	32,6
708,107	20,31
708,296	-12,46
708,484	16,21
708,672	46,93
708,86	1,88
709,048	26,45
709,236	-34,99
709,424	10,07
709,612	-37,03
709,8	28,5
709,988	-45,23
710,176	55,12
710,364	30,55
710,551	-34,99
710,739	44,88
710,927	-28,84
711,115	-8,36
711,303	28,5
711,491	71,51
711,679	75,6
711,866	36,69
712,054	14,17
712,242	-34,99
712,43	10,07
712,617	71,51
712,805	65,36
712,993	32,6
713,181	-4,27
713,368	-12,46
713,556	55,12
713,744	69,46
713,931	3,93
714,119	44,88
714,306	3,93
714,494	63,32
714,682	-34,99
714,869	-30,89
715,057	28,5
715,244	-2,22
715,432	-32,94
715,619	20,31
715,807	-32,94
715,994	-69,8
716,182	-26,79
716,369	67,41
716,556	32,6
716,744	57,17
716,931	10,07
717,119	83,8
717,306	24,4
717,493	-18,6
717,681	10,07
717,868	-18,6
718,055	28,5
718,242	32,6
718,43	-47,27
718,617	-30,89
718,804	53,08
718,991	40,79
719,179	44,88
719,366	-28,84
719,553	8,02
719,74	-12,46
719,927	24,4
720,114	-0,17
720,301	-18,6
720,488	-28,84
720,676	32,6
720,863	20,31
721,05	69,46
721,237	69,46
721,424	14,17
721,611	24,4
721,798	-112,81
721,985	30,55
722,172	14,17
722,358	-34,99
722,545	-22,7
722,732	36,69
722,919	53,08
723,106	24,4
723,293	-39,08
723,48	-2,22
723,667	-84,14
723,853	24,4
724,04	14,17
724,227	96,08
724,414	-53,42
724,6	3,93
724,787	55,12
724,974	-30,89
725,161	-14,51
725,347	8,02
725,534	28,5
725,72	-0,17
725,907	-57,51
726,094	48,98
726,28	-43,18
726,467	-37,03
726,653	-77,99
726,84	46,93
727,027	120,66
727,213	-37,03
727,4	-10,41
727,586	5,97
727,773	-45,23
727,959	-2,22
728,145	-6,31
728,332	36,69
728,518	28,5
728,705	-26,79
728,891	24,4
729,077	26,45
729,264	28,5
729,45	38,74
729,636	42,84
729,823	83,8
730,009	-8,36
730,195	-4,27
730,382	30,55
730,568	-16,55
730,754	34,64
730,94	-12,46
731,126	-14,51
731,313	-26,79
731,499	12,12
731,685	96,08
731,871	44,88
732,057	-10,41
732,243	36,69
732,429	34,64
732,615	32,6
732,801	12,12
732,987	-39,08
733,173	-0,17
733,359	-0,17
733,545	77,65
733,731	20,31
733,917	-45,23
734,103	20,31
734,289	32,6
734,475	-67,75
734,661	77,65
734,847	79,7
735,033	38,74
735,219	16,21
735,404	44,88
735,59	-4,27
735,776	-4,27
735,962	30,55
736,148	55,12
736,333	51,03
736,519	14,17
736,705	28,5
736,89	-22,7
737,076	48,98
737,262	77,65
737,447	-26,79
737,633	-12,46
737,819	73,56
738,004	-61,61
738,19	-108,71
738,375	1,88
738,561	-4,27
738,747	-4,27
738,932	-37,03
739,118	53,08
739,303	12,12
739,489	-8,36
739,674	-8,36
739,859	-0,17
740,045	-16,55
740,23	26,45
740,416	77,65
740,601	51,03
740,786	-57,51
740,972	5,97
741,157	-30,89
741,342	22,36
741,528	-39,08
741,713	24,4
741,898	36,69
742,084	-4,27
742,269	-12,46
742,454	59,22
742,639	94,04
742,824	8,02
743,01	22,36
743,195	38,74
743,38	-69,8
743,565	-28,84
743,75	44,88
743,935	65,36
744,12	28,5
744,305	-39,08
744,49	-37,03
744,675	-6,31
744,86	79,7
745,045	75,6
745,23	46,93
745,415	51,03
745,6	46,93
745,785	-34,99
745,97	63,32
746,155	26,45
746,34	71,51
746,525	-49,32
746,71	59,22
746,895	-57,51
747,079	-16,55
747,264	-4,27
747,449	55,12
747,634	55,12
747,819	3,93
748,003	8,02
748,188	8,02
748,373	69,46
748,557	16,21
748,742	-24,75
748,927	73,56
749,111	36,69
749,296	63,32
749,481	87,89
749,665	5,97
749,85	20,31
750,034	20,31
750,219	-16,55
750,404	28,5
750,588	34,64
750,773	-43,18
750,957	55,12
751,141	8,02
751,326	-16,55
751,51	-69,8
751,695	-6,31
751,879	-6,31
752,064	24,4
752,248	3,93
752,432	-37,03
752,617	-20,65
752,801	30,55
752,985	-43,18
753,17	40,79
753,354	-0,17
753,538	-2,22
753,722	-73,9
753,907	-49,32
754,091	46,93
754,275	-4,27
754,459	-20,65
754,643	-26,79
754,828	28,5
755,012	57,17
755,196	30,55
755,38	-41,13
755,564	-4,27
755,748	12,12
755,932	30,55
756,116	30,55
756,3	-37,03
756,484	-22,7
756,668	-28,84
756,852	-4,27
757,036	12,12
757,22	-8,36
757,404	3,93
757,588	-10,41
757,772	12,12
757,956	26,45
758,14	22,36
758,323	20,31
758,507	-26,79
758,691	-2,22
758,875	-57,51
759,059	-12,46
759,242	-32,94
759,426	20,31
759,61	-2,22
759,794	14,17
759,977	-45,23
760,161	145,24
760,345	-2,22
760,528	61,27
760,712	-16,55
760,895	38,74
761,079	-28,84
761,263	-28,84
761,446	30,55
761,63	40,79
761,813	-24,75
761,997	-34,99
762,18	-0,17
762,364	44,88
762,547	-34,99
762,731	-80,04
762,914	24,4
763,098	-47,27
763,281	-41,13
763,464	53,08
763,648	63,32
763,831	-22,7
764,015	36,69
764,198	-4,27
764,381	-12,46
764,564	-30,89
764,748	71,51
764,931	16,21
765,114	22,36
765,297	-41,13
765,481	-20,65
765,664	-69,8
765,847	-10,41
766,03	40,79
766,213	-12,46
766,397	28,5
766,58	32,6
766,763	-51,37
766,946	40,79
767,129	-24,75
767,312	-45,23
767,495	-34,99
767,678	38,74
767,861	8,02
768,044	3,93
768,227	24,4
768,41	-77,99
768,593	-53,42
768,776	24,4
768,959	12,12
769,142	-22,7
769,324	38,74
769,507	-75,95
769,69	22,36
769,873	-28,84
770,056	46,93
770,239	42,84
770,421	-26,79
770,604	67,41
770,787	12,12
770,97	-6,31
771,152	12,12
771,335	-45,23
771,518	-14,51
771,7	55,12
771,883	12,12
772,066	-18,6
772,248	-4,27
772,431	3,93
772,613	3,93
772,796	-37,03
772,978	-47,27
773,161	104,28
773,343	12,12
773,526	20,31
773,708	36,69
773,891	36,69
774,073	5,97
774,256	24,4
774,438	18,26
774,621	-49,32
774,803	-39,08
774,985	3,93
775,168	40,79
775,35	51,03
775,532	12,12
775,715	71,51
775,897	96,08
776,079	-12,46
776,261	40,79
776,444	16,21
776,626	79,7
776,808	12,12
776,99	-41,13
777,173	-43,18
777,355	-20,65
777,537	-77,99
777,719	63,32
777,901	-53,42
778,083	87,89
778,265	12,12
778,447	3,93
778,629	-32,94
778,811	5,97
778,993	55,12
779,175	55,12
779,357	26,45
779,539	20,31
779,721	85,84
779,903	42,84
780,085	28,5
780,267	44,88
780,449	18,26
780,631	81,75
780,812	-2,22
780,994	-45,23
781,176	28,5
781,358	-26,79
781,54	-14,51
781,721	-0,17
781,903	22,36
782,085	85,84
782,267	18,26
782,448	18,26
782,63	12,12
782,812	26,45
782,993	-22,7
783,175	-4,27
783,357	28,5
783,538	22,36
783,72	-41,13
783,901	-6,31
784,083	61,27
784,264	48,98
784,446	-18,6
784,627	65,36
784,809	-75,95
784,99	-45,23
785,172	12,12
785,353	46,93
785,535	-0,17
785,716	-41,13
785,897	-63,66
786,079	34,64
786,26	-26,79
786,441	-4,27
786,623	22,36
786,804	-20,65
786,985	24,4
787,167	77,65
787,348	30,55
787,529	-41,13
787,71	8,02
787,891	75,6
788,073	-53,42
788,254	-10,41
788,435	-10,41
788,616	-37,03
788,797	1,88
788,978	-53,42
789,159	22,36
789,34	38,74
789,522	10,07
789,703	5,97
789,884	18,26
790,065	8,02
790,246	22,36
790,427	-14,51
790,607	10,07
790,788	-41,13
790,969	-26,79
791,15	-4,27
791,331	73,56
791,512	3,93
791,693	-8,36
791,874	30,55
792,054	8,02
792,235	30,55
792,416	1,88
792,597	-8,36
792,778	-86,19
792,958	57,17
793,139	57,17
793,32	-32,94
793,5	-20,65
793,681	30,55
793,862	-10,41
794,042	1,88
794,223	-39,08
794,404	-10,41
794,584	16,21
794,765	-20,65
794,945	-41,13
795,126	20,31
795,306	112,47
795,487	28,5
795,667	79,7
795,848	-59,56
796,028	-37,03
796,209	-0,17
796,389	38,74
796,57	22,36
796,75	-53,42
796,93	-4,27
797,111	-77,99
797,291	28,5
797,471	22,36
797,652	-22,7
797,832	-39,08
798,012	53,08
798,192	-28,84
798,373	-77,99
798,553	-26,79
798,733	-26,79
798,913	-32,94
799,093	-2,22
799,274	-34,99
799,454	-34,99
799,634	38,74
799,814	46,93
799,994	16,21
800,174	55,12
800,354	10,07
800,534	-8,36
800,714	-47,27
800,894	-159,91
801,074	-61,61
801,254	32,6
801,434	-0,17
801,614	20,31
801,794	-22,7
801,974	440,14
802,154	30,55
802,334	-8,36
802,514	-18,6
802,693	30,55
802,873	-4,27
803,053	-12,46
803,233	30,55
803,413	5,97
803,592	26,45
803,772	-39,08
803,952	14,17
804,131	14,17
804,311	34,64
804,491	96,08
804,67	-20,65
804,85	-24,75
805,03	22,36
805,209	71,51
805,389	-69,8
805,568	-37,03
805,748	-30,89
805,928	26,45
806,107	18,26
806,287	-16,55
806,466	30,55
806,646	-10,41
806,825	-26,79
807,004	-51,37
807,184	-18,6
807,363	42,84
807,543	12,12
807,722	-20,65
807,901	28,5
808,081	24,4
808,26	-123,05
808,439	3,93
808,619	-53,42
808,798	-59,56
808,977	8,02
809,156	38,74
809,336	-20,65
809,515	-16,55
809,694	-4,27
809,873	-28,84
810,052	-12,46
810,231	-37,03
810,411	-94,38
810,59	24,4
810,769	-65,71
810,948	30,55
811,127	-98,47
811,306	-108,71
811,485	-0,17
811,664	-2,22
811,843	18,26
812,022	-12,46
812,201	-41,13
812,38	22,36
812,559	3,93
812,737	1,88
812,916	-49,32
813,095	-26,79
813,274	32,6
813,453	40,79
813,632	-16,55
813,811	-34,99
813,989	-41,13
814,168	-102,57
814,347	36,69
814,526	-20,65
814,704	48,98
814,883	-24,75
815,062	-22,7
815,24	114,52
815,419	-32,94
815,598	8,02
815,776	-30,89
815,955	-22,7
816,133	-53,42
816,312	8,02
816,49	-51,37
816,669	-2,22
816,847	-39,08
817,026	48,98
817,204	-53,42
817,383	22,36
817,561	-0,17
817,74	14,17
817,918	28,5
818,097	-55,47
818,275	-8,36
818,453	-75,95
818,632	-32,94
818,81	5,97
818,988	-12,46
819,167	-16,55
819,345	-18,6
819,523	8,02
819,701	12,12
819,879	-4,27
820,058	-86,19
820,236	-10,41
820,414	-39,08
820,592	18,26
820,77	-20,65
820,948	-34,99
821,127	14,17
821,305	1,88
821,483	36,69
821,661	3,93
821,839	87,89
822,017	-12,46
822,195	34,64
822,373	26,45
822,551	22,36
822,729	61,27
822,907	26,45
823,085	46,93
823,262	-16,55
823,44	-34,99
823,618	-16,55
823,796	-4,27
823,974	53,08
824,152	-10,41
824,329	12,12
824,507	-26,79
824,685	-4,27
824,863	-20,65
825,04	-61,61
825,218	-22,7
825,396	14,17
825,574	61,27
825,751	46,93
825,929	34,64
826,107	-121
826,284	20,31
826,462	-0,17
826,639	-0,17
826,817	-37,03
826,994	55,12
827,172	-16,55
827,349	-4,27
827,527	-94,38
827,704	-4,27
827,882	-10,41
828,059	36,69
828,237	-20,65
828,414	3,93
828,591	-18,6
828,769	3,93
828,946	-59,56
829,124	12,12
829,301	30,55
829,478	28,5
829,655	5,97
829,833	36,69
830,01	-53,42
830,187	-10,41
830,364	57,17
830,542	16,21
830,719	53,08
830,896	32,6
831,073	-10,41
831,25	-10,41
831,427	-49,32
831,604	34,64
831,782	-12,46
831,959	-6,31
832,136	16,21
832,313	-16,55
832,49	5,97
832,667	61,27
832,844	26,45
833,021	34,64
833,198	-39,08
833,374	51,03
833,551	20,31
833,728	44,88
833,905	-37,03
834,082	-28,84
834,259	-14,51
834,436	5,97
834,612	12,12
834,789	-49,32
834,966	44,88
835,143	-53,42
835,319	3,93
835,496	71,51
835,673	-20,65
835,85	108,37
836,026	77,65
836,203	32,6
836,38	14,17
836,556	-43,18
836,733	-14,51
836,909	67,41
837,086	-8,36
837,262	-41,13
837,439	-20,65
837,616	-12,46
837,792	30,55
837,968	-12,46
838,145	-86,19
838,321	-8,36
838,498	-59,56
838,674	94,04
838,851	-24,75
839,027	-45,23
839,203	73,56
839,38	32,6
839,556	-6,31
839,732	48,98
839,909	-69,8
840,085	-14,51
840,261	22,36
840,437	-12,46
840,614	40,79
840,79	-55,47
840,966	61,27
841,142	-69,8
841,318	38,74
841,494	53,08
841,671	38,74
841,847	69,46
842,023	-20,65
842,199	-28,84
842,375	-32,94
842,551	-6,31
842,727	-2,22
842,903	5,97
843,079	-75,95
843,255	14,17
843,431	-18,6
843,607	-69,8
843,783	-30,89
843,959	77,65
844,134	-20,65
844,31	55,12
844,486	10,07
844,662	-65,71
844,838	-4,27
845,013	53,08
845,189	-55,47
845,365	22,36
845,541	-28,84
845,716	30,55
845,892	-30,89
846,068	30,55
846,244	-57,51
846,419	28,5
846,595	-34,99
846,77	-49,32
846,946	-20,65
847,122	-8,36
847,297	-12,46
847,473	77,65
847,648	-90,28
847,824	36,69
847,999	22,36
848,175	-24,75
848,35	83,8
848,526	-14,51
848,701	20,31
848,876	-28,84
849,052	-24,75
849,227	42,84
849,403	18,26
849,578	26,45
849,753	53,08
849,929	-4,27
850,104	-112,81
850,279	-47,27
850,454	-53,42
850,63	26,45
850,805	12,12
850,98	36,69
851,155	-49,32
851,33	40,79
851,505	-26,79
851,681	28,5
851,856	-16,55
852,031	24,4
852,206	-39,08
852,381	20,31
852,556	3,93
852,731	53,08
852,906	-24,75
853,081	-65,71
853,256	16,21
853,431	-34,99
853,606	-45,23
853,781	-14,51
853,956	-39,08
854,131	-53,42
854,305	-10,41
854,48	-26,79
854,655	-20,65
854,83	3,93
855,005	3,93
855,18	-28,84
855,354	-37,03
855,529	5,97
855,704	-37,03
855,879	53,08
856,053	-43,18
856,228	-12,46
856,403	-6,31
856,577	-10,41
856,752	-45,23
856,926	48,98
857,101	51,03
857,276	12,12
857,45	28,5
857,625	-6,31
857,799	20,31
857,974	-14,51
858,148	-12,46
858,323	65,36
858,497	-26,79
858,672	-41,13
858,846	-32,94
859,02	3,93
859,195	-0,17
859,369	-69,8
859,543	-6,31
859,718	3,93
859,892	44,88
860,066	67,41
860,241	5,97
860,415	-67,75
860,589	-45,23
860,763	-2,22
860,938	-102,57
861,112	42,84
861,286	12,12
861,46	85,84
861,634	-8,36
861,808	18,26
861,982	1,88
862,157	-37,03
862,331	-26,79
862,505	32,6
862,679	-30,89
862,853	-14,51
863,027	-12,46
863,201	38,74
863,375	8,02
863,549	-20,65
863,722	1,88
863,896	44,88
864,07	-92,33
864,244	-69,8
864,418	-6,31
864,592	-30,89
864,766	-34,99
864,939	3,93
865,113	36,69
865,287	-30,89
865,461	-20,65
865,634	38,74
865,808	-2,22
865,982	-51,37
866,156	-24,75
866,329	-26,79
866,503	46,93
866,676	3,93
866,85	10,07
867,024	-63,66
867,197	3,93
867,371	18,26
867,544	40,79
867,718	-20,65
867,891	-49,32
868,065	-39,08
868,238	-4,27
868,412	69,46
868,585	-6,31
868,759	3,93
868,932	14,17
869,105	22,36
869,279	32,6
869,452	-39,08
869,625	-28,84
869,799	51,03
869,972	-61,61
870,145	-49,32
870,319	40,79
870,492	16,21
870,665	-77,99
870,838	-45,23
871,011	-8,36
871,185	-2,22
871,358	-63,66
871,531	-26,79
871,704	1,88
871,877	3,93
872,05	-57,51
872,223	-28,84
872,396	30,55
872,569	30,55
872,742	26,45
872,915	-37,03
873,088	-28,84
873,261	-49,32
873,434	38,74
873,607	30,55
873,78	81,75
873,953	-0,17
874,126	61,27
874,299	46,93
874,471	-45,23
874,644	-22,7
874,817	-14,51
874,99	20,31
875,163	53,08
875,335	-6,31
875,508	48,98
875,681	73,56
875,853	-4,27
876,026	-92,33
876,199	-20,65
876,371	-86,19
876,544	20,31
876,717	26,45
876,889	3,93
877,062	-10,41
877,234	-37,03
877,407	3,93
877,579	53,08
877,752	30,55
877,924	-53,42
878,097	16,21
878,269	-37,03
878,442	46,93
878,614	-6,31
878,786	38,74
878,959	24,4
879,131	53,08
879,303	-32,94
879,476	-16,55
879,648	-8,36
879,82	63,32
879,993	-37,03
880,165	-53,42
880,337	-92,33
880,509	102,23
880,681	-28,84
880,854	-37,03
881,026	-12,46
881,198	3,93
881,37	-57,51
881,542	-10,41
881,714	16,21
881,886	63,32
882,058	-10,41
882,23	3,93
882,402	-30,89
882,574	12,12
882,746	24,4
882,918	53,08
883,09	28,5
883,262	-55,47
883,434	12,12
883,606	-49,32
883,778	-37,03
883,95	94,04
884,122	12,12
884,293	8,02
884,465	-18,6
884,637	-32,94
884,809	32,6
884,98	-37,03
885,152	22,36
885,324	-86,19
885,496	-32,94
885,667	-24,75
885,839	-71,85
886,011	51,03
886,182	3,93
886,354	-14,51
886,525	-28,84
886,697	53,08
886,869	14,17
887,04	12,12
887,212	12,12
887,383	94,04
887,555	24,4
887,726	-53,42
887,897	28,5
888,069	-43,18
888,24	12,12
888,412	3,93
888,583	-37,03
888,754	-8,36
888,926	-30,89
889,097	3,93
889,268	-20,65
889,44	16,21
889,611	-61,61
889,782	-55,47
889,953	-18,6
890,125	77,65
890,296	-71,85
890,467	-57,51
890,638	-77,99
890,809	38,74
890,98	-51,37
891,151	-8,36
891,323	65,36
891,494	100,18
891,665	53,08
891,836	-30,89
892,007	-20,65
892,178	-41,13
892,349	-22,7
892,52	-61,61
892,691	44,88
892,862	-43,18
893,032	-39,08
893,203	40,79
893,374	38,74
893,545	-0,17
893,716	-59,56
893,887	40,79
894,057	-94,38
894,228	-61,61
894,399	8,02
894,57	48,98
894,74	8,02
894,911	-20,65
895,082	-10,41
895,253	-53,42
895,423	87,89
895,594	-4,27
895,764	-51,37
895,935	-65,71
896,106	-43,18
896,276	-55,47
896,447	-2,22
896,617	28,5
896,788	-32,94
896,958	24,4
897,129	-71,85
897,299	-32,94
897,47	44,88
897,64	-4,27
897,81	-0,17
897,981	57,17
898,151	-94,38
898,322	3,93
898,492	71,51
898,662	34,64
898,832	3,93
899,003	-80,04
899,173	48,98
899,343	-6,31
899,513	-39,08
