Data from filtre 450_USB4F104151__7__11-55-00-406.txt Node

Date: Wed Apr 15 11:55:00 EDT 2026
User: LaboPhy
Spectrometer: USB4F10415
Trigger mode: 4
Integration Time (sec): 2,100000E-2
Scans to average: 1
Electric dark correction enabled: true
Nonlinearity correction enabled: false
Boxcar width: 0
XAxis mode: Wavelengths
Number of Pixels in Spectrum: 3648
>>>>>Begin Spectral Data<<<<<
178,204	-104,62
178,424	-104,62
178,644	-104,62
178,864	-59,56
179,084	-77,99
179,304	-59,56
179,524	28,5
179,744	-67,75
179,964	81,75
180,184	26,45
180,404	30,55
180,624	18,26
180,844	-28,84
181,064	-37,03
181,283	14,17
181,503	-30,89
181,723	24,4
181,943	-96,43
182,163	-6,31
182,383	22,36
182,602	26,45
182,822	91,99
183,042	1,88
183,262	26,45
183,482	-43,18
183,701	12,12
183,921	20,31
184,141	10,07
184,361	73,56
184,58	22,36
184,8	-14,51
185,02	57,17
185,239	24,4
185,459	-22,7
185,679	34,64
185,898	-34,99
186,118	30,55
186,338	42,84
186,557	44,88
186,777	-14,51
186,997	32,6
187,216	42,84
187,436	55,12
187,655	5,97
187,875	-43,18
188,095	12,12
188,314	85,84
188,534	77,65
188,753	5,97
188,973	-34,99
189,192	102,23
189,412	55,12
189,631	-37,03
189,851	32,6
190,07	79,7
190,29	38,74
190,509	3,93
190,729	30,55
190,948	53,08
191,168	67,41
191,387	-10,41
191,607	18,26
191,826	53,08
192,045	26,45
192,265	-24,75
192,484	34,64
192,704	5,97
192,923	-10,41
193,142	10,07
193,362	-28,84
193,581	63,32
193,8	32,6
194,02	83,8
194,239	-39,08
194,458	-30,89
194,678	12,12
194,897	18,26
195,116	34,64
195,335	75,6
195,555	40,79
195,774	26,45
195,993	61,27
196,212	71,51
196,432	-55,47
196,651	-4,27
196,87	12,12
197,089	26,45
197,308	-80,04
197,528	-14,51
197,747	-39,08
197,966	12,12
198,185	38,74
198,404	14,17
198,623	34,64
198,842	71,51
199,062	-30,89
199,281	32,6
199,5	-12,46
199,719	-6,31
199,938	-20,65
200,157	18,26
200,376	18,26
200,595	-6,31
200,814	79,7
201,033	28,5
201,252	12,12
201,471	-39,08
201,69	67,41
201,909	67,41
202,128	24,4
202,347	-6,31
202,566	18,26
202,785	61,27
203,004	-14,51
203,223	51,03
203,442	8,02
203,661	-0,17
203,879	-34,99
204,098	75,6
204,317	-57,51
204,536	14,17
204,755	3,93
204,974	26,45
205,193	83,8
205,411	79,7
205,63	-4,27
205,849	34,64
206,068	14,17
206,287	-14,51
206,505	12,12
206,724	55,12
206,943	38,74
207,162	28,5
207,381	-0,17
207,599	28,5
207,818	28,5
208,037	3,93
208,255	-8,36
208,474	36,69
208,693	20,31
208,911	38,74
209,13	67,41
209,349	55,12
209,567	38,74
209,786	-0,17
210,005	38,74
210,223	26,45
210,442	-20,65
210,661	-80,04
210,879	20,31
211,098	-30,89
211,316	3,93
211,535	40,79
211,753	28,5
211,972	30,55
212,191	1,88
212,409	59,22
212,628	12,12
212,846	8,02
213,065	79,7
213,283	94,04
213,502	20,31
213,72	-16,55
213,938	-16,55
214,157	1,88
214,375	38,74
214,594	77,65
214,812	-26,79
215,031	16,21
215,249	30,55
215,467	5,97
215,686	-2,22
215,904	51,03
216,122	38,74
216,341	18,26
216,559	18,26
216,778	22,36
216,996	32,6
217,214	-41,13
217,432	-53,42
217,651	-30,89
217,869	24,4
218,087	-71,85
218,306	10,07
218,524	59,22
218,742	51,03
218,96	79,7
219,179	1,88
219,397	77,65
219,615	55,12
219,833	14,17
220,051	-39,08
220,27	20,31
220,488	67,41
220,706	59,22
220,924	-16,55
221,142	34,64
221,36	-53,42
221,578	83,8
221,796	18,26
222,015	-26,79
222,233	18,26
222,451	104,28
222,669	-28,84
222,887	36,69
223,105	-45,23
223,323	-61,61
223,541	-6,31
223,759	53,08
223,977	85,84
224,195	83,8
224,413	18,26
224,631	67,41
224,849	10,07
225,067	67,41
225,285	-47,27
225,503	-39,08
225,721	-14,51
225,939	3,93
226,157	-30,89
226,375	14,17
226,592	-32,94
226,81	-22,7
227,028	-22,7
227,246	91,99
227,464	-71,85
227,682	-14,51
227,9	126,8
228,117	-53,42
228,335	-43,18
228,553	1,88
228,771	5,97
228,989	61,27
229,206	-39,08
229,424	-22,7
229,642	-37,03
229,86	-4,27
230,077	98,13
230,295	18,26
230,513	75,6
230,731	48,98
230,948	-6,31
231,166	5,97
231,384	44,88
231,601	20,31
231,819	42,84
232,037	-30,89
232,254	34,64
232,472	44,88
232,689	-37,03
232,907	8,02
233,125	26,45
233,342	-30,89
233,56	-24,75
233,777	55,12
233,995	55,12
234,213	28,5
234,43	22,36
234,648	-43,18
234,865	-10,41
235,083	51,03
235,3	46,93
235,518	53,08
235,735	51,03
235,953	71,51
236,17	-39,08
236,388	-2,22
236,605	-30,89
236,822	91,99
237,04	20,31
237,257	34,64
237,475	5,97
237,692	-26,79
237,909	5,97
238,127	3,93
238,344	59,22
238,562	10,07
238,779	-26,79
238,996	8,02
239,214	-2,22
239,431	-22,7
239,648	-32,94
239,865	81,75
240,083	59,22
240,3	1,88
240,517	12,12
240,735	-34,99
240,952	55,12
241,169	-26,79
241,386	-28,84
241,603	1,88
241,821	-10,41
242,038	34,64
242,255	-16,55
242,472	-37,03
242,689	26,45
242,907	-4,27
243,124	34,64
243,341	10,07
243,558	-14,51
243,775	-39,08
243,992	-86,19
244,209	100,18
244,426	71,51
244,643	10,07
244,86	5,97
245,078	-10,41
245,295	38,74
245,512	-4,27
245,729	-22,7
245,946	94,04
246,163	12,12
246,38	51,03
246,597	67,41
246,814	3,93
247,031	-0,17
247,248	55,12
247,464	-2,22
247,681	26,45
247,898	34,64
248,115	34,64
248,332	-26,79
248,549	18,26
248,766	69,46
248,983	-43,18
249,2	14,17
249,417	38,74
249,633	18,26
249,85	18,26
250,067	-47,27
250,284	38,74
250,501	24,4
250,717	28,5
250,934	-63,66
251,151	-18,6
251,368	-57,51
251,585	-10,41
251,801	22,36
252,018	-47,27
252,235	18,26
252,451	-16,55
252,668	-39,08
252,885	18,26
253,102	8,02
253,318	67,41
253,535	14,17
253,752	44,88
253,968	36,69
254,185	-14,51
254,401	-73,9
254,618	-41,13
254,835	36,69
255,051	59,22
255,268	-4,27
255,484	91,99
255,701	18,26
255,917	14,17
256,134	-12,46
256,351	-14,51
256,567	42,84
256,784	16,21
257	20,31
257,217	32,6
257,433	-53,42
257,65	26,45
257,866	-18,6
258,082	16,21
258,299	-37,03
258,515	-37,03
258,732	48,98
258,948	48,98
259,165	91,99
259,381	26,45
259,597	-12,46
259,814	42,84
260,03	-51,37
260,246	-26,79
260,463	28,5
260,679	36,69
260,895	34,64
261,112	-37,03
261,328	-51,37
261,544	-22,7
261,761	46,93
261,977	12,12
262,193	-18,6
262,409	16,21
262,626	-4,27
262,842	-43,18
263,058	-55,47
263,274	26,45
263,49	-18,6
263,707	24,4
263,923	40,79
264,139	-37,03
264,355	-12,46
264,571	12,12
264,787	18,26
265,004	14,17
265,22	55,12
265,436	-24,75
265,652	55,12
265,868	26,45
266,084	3,93
266,3	28,5
266,516	-24,75
266,732	26,45
266,948	-34,99
267,164	26,45
267,38	69,46
267,596	12,12
267,812	75,6
268,028	12,12
268,244	38,74
268,46	-34,99
268,676	22,36
268,892	-34,99
269,108	-4,27
269,324	24,4
269,54	-39,08
269,756	44,88
269,972	-41,13
270,188	20,31
270,403	-24,75
270,619	28,5
270,835	10,07
271,051	55,12
271,267	1,88
271,483	-24,75
271,698	67,41
271,914	14,17
272,13	-4,27
272,346	61,27
272,562	-14,51
272,777	34,64
272,993	-6,31
273,209	-20,65
273,425	36,69
273,64	10,07
273,856	51,03
274,072	5,97
274,287	-32,94
274,503	-22,7
274,719	-8,36
274,934	34,64
275,15	-65,71
275,366	1,88
275,581	-22,7
275,797	30,55
276,012	20,31
276,228	18,26
276,444	-49,32
276,659	94,04
276,875	3,93
277,09	-18,6
277,306	3,93
277,521	42,84
277,737	-45,23
277,952	-24,75
278,168	10,07
278,383	-20,65
278,599	-14,51
278,814	-10,41
279,03	32,6
279,245	108,37
279,461	-4,27
279,676	30,55
279,892	-10,41
280,107	28,5
280,322	3,93
280,538	-28,84
280,753	44,88
280,969	3,93
281,184	26,45
281,399	36,69
281,615	22,36
281,83	59,22
282,045	32,6
282,26	-4,27
282,476	71,51
282,691	-34,99
282,906	38,74
283,122	46,93
283,337	30,55
283,552	-82,09
283,767	-39,08
283,983	51,03
284,198	-26,79
284,413	42,84
284,628	-32,94
284,843	-10,41
285,058	18,26
285,274	32,6
285,489	-20,65
285,704	67,41
285,919	1,88
286,134	32,6
286,349	-14,51
286,564	-22,7
286,779	-0,17
286,995	8,02
287,21	-0,17
287,425	-14,51
287,64	61,27
287,855	-0,17
288,07	-6,31
288,285	55,12
288,5	-14,51
288,715	20,31
288,93	38,74
289,145	22,36
289,36	38,74
289,575	10,07
289,79	5,97
290,004	18,26
290,219	-2,22
290,434	-32,94
290,649	30,55
290,864	51,03
291,079	-2,22
291,294	3,93
291,509	-4,27
291,724	-43,18
291,938	-10,41
292,153	71,51
292,368	57,17
292,583	42,84
292,798	57,17
293,012	-39,08
293,227	14,17
293,442	-26,79
293,657	69,46
293,871	-14,51
294,086	42,84
294,301	-8,36
294,516	5,97
294,73	128,85
294,945	-32,94
295,16	-14,51
295,374	1,88
295,589	-14,51
295,804	-30,89
296,018	100,18
296,233	20,31
296,447	24,4
296,662	-28,84
296,877	61,27
297,091	-4,27
297,306	24,4
297,52	5,97
297,735	67,41
297,949	18,26
298,164	12,12
298,378	-30,89
298,593	10,07
298,807	42,84
299,022	53,08
299,236	-30,89
299,451	26,45
299,665	-14,51
299,88	-67,75
300,094	51,03
300,309	38,74
300,523	24,4
300,737	-10,41
300,952	69,46
301,166	48,98
301,381	-4,27
301,595	-14,51
301,809	36,69
302,024	-16,55
302,238	-6,31
302,452	-8,36
302,667	1,88
302,881	-10,41
303,095	94,04
303,309	51,03
303,524	1,88
303,738	-32,94
303,952	-22,7
304,166	-20,65
304,381	1,88
304,595	3,93
304,809	-63,66
305,023	16,21
305,237	16,21
305,452	-8,36
305,666	-63,66
305,88	1,88
306,094	106,32
306,308	10,07
306,522	22,36
306,736	61,27
306,95	44,88
307,164	20,31
307,379	-28,84
307,593	1,88
307,807	20,31
308,021	61,27
308,235	36,69
308,449	-2,22
308,663	26,45
308,877	-22,7
309,091	51,03
309,305	42,84
309,519	-6,31
309,733	3,93
309,947	42,84
310,161	5,97
310,374	-22,7
310,588	14,17
310,802	-4,27
311,016	59,22
311,23	59,22
311,444	-39,08
311,658	-47,27
311,872	34,64
312,085	18,26
312,299	-22,7
312,513	85,84
312,727	44,88
312,941	-43,18
313,154	-61,61
313,368	-20,65
313,582	-94,38
313,796	-30,89
314,009	-55,47
314,223	44,88
314,437	-12,46
314,651	34,64
314,864	24,4
315,078	-34,99
315,292	3,93
315,505	-12,46
315,719	1,88
315,933	-4,27
316,146	-28,84
316,36	-43,18
316,573	-8,36
316,787	-4,27
317,001	42,84
317,214	20,31
317,428	51,03
317,641	-53,42
317,855	5,97
318,068	48,98
318,282	-69,8
318,495	40,79
318,709	91,99
318,922	-14,51
319,136	36,69
319,349	-16,55
319,563	-43,18
319,776	65,36
319,99	-2,22
320,203	1,88
320,417	1,88
320,63	-6,31
320,843	22,36
321,057	71,51
321,27	46,93
321,483	42,84
321,697	53,08
321,91	51,03
322,124	36,69
322,337	83,8
322,55	-14,51
322,763	-30,89
322,977	1,88
323,19	-53,42
323,403	-16,55
323,617	22,36
323,83	30,55
324,043	-8,36
324,256	-24,75
324,469	1,88
324,683	104,28
324,896	-32,94
325,109	12,12
325,322	57,17
325,535	77,65
325,748	63,32
325,962	28,5
326,175	24,4
326,388	26,45
326,601	18,26
326,814	42,84
327,027	-6,31
327,24	67,41
327,453	38,74
327,666	-67,75
327,879	16,21
328,092	108,37
328,305	20,31
328,518	51,03
328,731	51,03
328,944	34,64
329,157	51,03
329,37	-61,61
329,583	12,12
329,796	63,32
330,009	-12,46
330,222	42,84
330,435	5,97
330,648	16,21
330,861	-55,47
331,073	-12,46
331,286	48,98
331,499	10,07
331,712	-69,8
331,925	-6,31
332,138	-53,42
332,35	112,47
332,563	-22,7
332,776	1,88
332,989	-43,18
333,202	-51,37
333,414	-24,75
333,627	61,27
333,84	26,45
334,053	-2,22
334,265	42,84
334,478	-14,51
334,691	22,36
334,903	69,46
335,116	14,17
335,329	38,74
335,541	-26,79
335,754	30,55
335,966	10,07
336,179	-20,65
336,392	30,55
336,604	36,69
336,817	-61,61
337,029	24,4
337,242	8,02
337,454	26,45
337,667	-18,6
337,88	18,26
338,092	-4,27
338,305	12,12
338,517	12,12
338,729	20,31
338,942	75,6
339,154	-32,94
339,367	-22,7
339,579	-37,03
339,792	-57,51
340,004	-39,08
340,217	-2,22
340,429	-53,42
340,641	-57,51
340,854	-28,84
341,066	-32,94
341,278	53,08
341,491	59,22
341,703	57,17
341,915	42,84
342,128	-6,31
342,34	40,79
342,552	-37,03
342,764	-2,22
342,977	10,07
343,189	-41,13
343,401	-53,42
343,613	51,03
343,826	36,69
344,038	5,97
344,25	12,12
344,462	-63,66
344,674	69,46
344,886	26,45
345,099	44,88
345,311	83,8
345,523	-14,51
345,735	-30,89
345,947	38,74
346,159	55,12
346,371	22,36
346,583	63,32
346,795	110,42
347,007	-2,22
347,219	-18,6
347,431	-18,6
347,643	38,74
347,855	-6,31
348,067	3,93
348,279	18,26
348,491	53,08
348,703	-57,51
348,915	30,55
349,127	-10,41
349,339	-26,79
349,551	91,99
349,763	28,5
349,975	-37,03
350,187	-20,65
350,399	-43,18
350,61	-71,85
350,822	22,36
351,034	28,5
351,246	20,31
351,458	26,45
351,669	10,07
351,881	12,12
352,093	57,17
352,305	-2,22
352,517	53,08
352,728	67,41
352,94	-10,41
353,152	-0,17
353,363	-4,27
353,575	61,27
353,787	55,12
353,999	1,88
354,21	87,89
354,422	-4,27
354,633	1,88
354,845	-41,13
355,057	-63,66
355,268	-71,85
355,48	-4,27
355,692	12,12
355,903	-8,36
356,115	1,88
356,326	36,69
356,538	14,17
356,749	-2,22
356,961	108,37
357,172	34,64
357,384	-20,65
357,595	36,69
357,807	42,84
358,018	-10,41
358,23	-43,18
358,441	10,07
358,653	112,47
358,864	65,36
359,075	44,88
359,287	61,27
359,498	18,26
359,709	3,93
359,921	14,17
360,132	24,4
360,344	34,64
360,555	-28,84
360,766	3,93
360,977	85,84
361,189	57,17
361,4	67,41
361,611	18,26
361,823	77,65
362,034	26,45
362,245	18,26
362,456	20,31
362,667	102,23
362,879	34,64
363,09	-51,37
363,301	44,88
363,512	-4,27
363,723	-16,55
363,935	32,6
364,146	28,5
364,357	12,12
364,568	1,88
364,779	8,02
364,99	24,4
365,201	5,97
365,412	38,74
365,623	3,93
365,834	5,97
366,045	36,69
366,256	-6,31
366,467	1,88
366,678	-20,65
366,889	53,08
367,1	-20,65
367,311	-6,31
367,522	-22,7
367,733	-16,55
367,944	53,08
368,155	20,31
368,366	34,64
368,577	48,98
368,788	-2,22
368,999	-18,6
369,209	24,4
369,42	-2,22
369,631	20,31
369,842	75,6
370,053	-59,56
370,264	-14,51
370,474	-34,99
370,685	-6,31
370,896	75,6
371,107	100,18
371,317	100,18
371,528	-67,75
371,739	71,51
371,95	96,08
372,16	26,45
372,371	18,26
372,582	32,6
372,792	30,55
373,003	69,46
373,214	59,22
373,424	16,21
373,635	42,84
373,846	53,08
374,056	51,03
374,267	87,89
374,477	-8,36
374,688	34,64
374,898	-12,46
375,109	1,88
375,319	38,74
375,53	59,22
375,74	65,36
375,951	-34,99
376,161	16,21
376,372	-6,31
376,582	5,97
376,793	-4,27
377,003	-26,79
377,214	10,07
377,424	34,64
377,635	-20,65
377,845	59,22
378,055	69,46
378,266	-32,94
378,476	-12,46
378,686	61,27
378,897	-39,08
379,107	79,7
379,317	102,23
379,528	106,32
379,738	59,22
379,948	-14,51
380,158	61,27
380,369	65,36
380,579	38,74
380,789	10,07
380,999	5,97
381,21	75,6
381,42	18,26
381,63	30,55
381,84	32,6
382,05	-8,36
382,261	44,88
382,471	73,56
382,681	51,03
382,891	46,93
383,101	-10,41
383,311	-61,61
383,521	8,02
383,731	61,27
383,941	65,36
384,151	63,32
384,361	-14,51
384,571	5,97
384,781	12,12
384,991	18,26
385,201	83,8
385,411	-86,19
385,621	12,12
385,831	42,84
386,041	57,17
386,251	-2,22
386,461	28,5
386,671	-16,55
386,881	14,17
387,091	51,03
387,301	71,51
387,511	-0,17
387,72	53,08
387,93	-34,99
388,14	12,12
388,35	-30,89
388,56	36,69
388,769	1,88
388,979	48,98
389,189	55,12
389,399	-26,79
389,609	-26,79
389,818	96,08
390,028	1,88
390,238	100,18
390,447	-6,31
390,657	46,93
390,867	28,5
391,076	59,22
391,286	30,55
391,496	34,64
391,705	-14,51
391,915	94,04
392,125	5,97
392,334	-28,84
392,544	48,98
392,753	-22,7
392,963	-20,65
393,172	100,18
393,382	69,46
393,591	12,12
393,801	26,45
394,01	61,27
394,22	53,08
394,429	-10,41
394,639	-43,18
394,848	40,79
395,058	-14,51
395,267	14,17
395,477	-10,41
395,686	8,02
395,895	46,93
396,105	104,28
396,314	-86,19
396,524	30,55
396,733	30,55
396,942	1,88
397,152	1,88
397,361	40,79
397,57	34,64
397,78	55,12
397,989	75,6
398,198	26,45
398,407	-20,65
398,617	3,93
398,826	8,02
399,035	-16,55
399,244	12,12
399,453	94,04
399,663	-12,46
399,872	81,75
400,081	32,6
400,29	-14,51
400,499	65,36
400,708	-22,7
400,917	85,84
401,127	5,97
401,336	-10,41
401,545	10,07
401,754	-6,31
401,963	46,93
402,172	-12,46
402,381	34,64
402,59	-12,46
402,799	3,93
403,008	114,52
403,217	-28,84
403,426	-14,51
403,635	69,46
403,844	10,07
404,053	-18,6
404,262	-10,41
404,471	75,6
404,68	1,88
404,888	-6,31
405,097	-2,22
405,306	42,84
405,515	14,17
405,724	28,5
405,933	42,84
406,142	-18,6
406,35	51,03
406,559	46,93
406,768	59,22
406,977	91,99
407,185	20,31
407,394	-22,7
407,603	-73,9
407,812	116,56
408,02	85,84
408,229	34,64
408,438	40,79
408,646	18,26
408,855	10,07
409,064	3,93
409,272	-14,51
409,481	1,88
409,69	-80,04
409,898	26,45
410,107	30,55
410,315	-47,27
410,524	-30,89
410,733	34,64
410,941	12,12
411,15	5,97
411,358	16,21
411,567	26,45
411,775	28,5
411,984	-45,23
412,192	-34,99
412,401	14,17
412,609	75,6
412,818	59,22
413,026	51,03
413,234	-34,99
413,443	-34,99
413,651	-18,6
413,86	30,55
414,068	3,93
414,276	63,32
414,485	3,93
414,693	-2,22
414,901	71,51
415,11	18,26
415,318	36,69
415,526	26,45
415,734	18,26
415,943	44,88
416,151	34,64
416,359	12,12
416,567	34,64
416,776	14,17
416,984	30,55
417,192	104,28
417,4	-8,36
417,608	-6,31
417,817	8,02
418,025	51,03
418,233	69,46
418,441	-28,84
418,649	3,93
418,857	-10,41
419,065	69,46
419,273	-10,41
419,481	10,07
419,689	1,88
419,897	22,36
420,105	-10,41
420,313	22,36
420,521	51,03
420,729	100,18
420,937	38,74
421,145	22,36
421,353	24,4
421,561	67,41
421,769	30,55
421,977	5,97
422,185	34,64
422,393	-30,89
422,601	57,17
422,809	63,32
423,017	-57,51
423,224	8,02
423,432	-4,27
423,64	67,41
423,848	53,08
424,056	-39,08
424,263	10,07
424,471	-16,55
424,679	44,88
424,887	5,97
425,094	46,93
425,302	57,17
425,51	116,56
425,718	96,08
425,925	1,88
426,133	-2,22
426,341	77,65
426,548	20,31
426,756	12,12
426,964	16,21
427,171	32,6
427,379	-14,51
427,586	-26,79
427,794	46,93
428,001	59,22
428,209	51,03
428,417	32,6
428,624	34,64
428,832	48,98
429,039	3,93
429,247	5,97
429,454	55,12
429,662	-8,36
429,869	34,64
430,076	20,31
430,284	63,32
430,491	51,03
430,699	46,93
430,906	26,45
431,114	42,84
431,321	-14,51
431,528	71,51
431,736	44,88
431,943	-0,17
432,15	81,75
432,358	126,8
432,565	135
432,772	34,64
432,979	34,64
433,187	30,55
433,394	18,26
433,601	-84,14
433,808	63,32
434,016	87,89
434,223	75,6
434,43	28,5
434,637	100,18
434,844	102,23
435,052	100,18
435,259	112,47
435,466	79,7
435,673	-4,27
435,88	91,99
436,087	26,45
436,294	26,45
436,501	53,08
436,708	87,89
436,915	69,46
437,122	-30,89
437,329	77,65
437,537	10,07
437,743	3,93
437,95	141,14
438,157	96,08
438,364	104,28
438,571	63,32
438,778	71,51
438,985	75,6
439,192	79,7
439,399	79,7
439,606	12,12
439,813	75,6
440,02	118,61
440,227	89,94
440,433	102,23
440,64	53,08
440,847	42,84
441,054	132,95
441,261	128,85
441,467	157,52
441,674	124,76
441,881	157,52
442,088	118,61
442,294	184,15
442,501	276,31
442,708	249,68
442,914	298,83
443,121	239,44
443,328	241,49
443,534	284,5
443,741	264,02
443,948	339,79
444,154	382,8
444,361	350,03
444,568	462,67
444,774	429,9
444,981	409,42
445,187	587,6
445,394	649,04
445,6	755,53
445,807	837,45
446,013	894,79
446,22	890,7
446,426	1201,99
446,633	1206,08
446,839	1476,41
447,046	1509,18
447,252	1820,47
447,459	2015,03
447,665	2281,27
447,871	2842,41
448,078	3297,06
448,284	3346,21
448,491	3974,94
448,697	4677,39
448,903	5453,57
449,11	6078,2
449,316	7046,89
449,522	8275,67
449,728	9684,67
449,935	10983,09
450,141	12818,07
450,347	14562,94
450,553	16068,19
450,76	18310,72
450,966	21249,55
451,172	23281,14
451,378	25802,19
451,584	28589,47
451,791	30969,21
451,997	33355,1
452,203	36590,89
452,409	39353,6
452,615	40344,81
452,821	42079,44
453,027	42560,72
453,233	46648,46
453,44	45634,72
453,646	47658,11
453,852	49407,08
454,058	51020,87
454,264	50465,88
454,47	51541,06
454,676	51502,15
454,882	55092,24
455,088	50713,68
455,294	51858,49
455,5	54443,03
455,705	54735,89
455,911	53642,27
456,117	53392,42
456,323	53634,08
456,529	52042,81
456,735	54850,58
456,941	55090,19
457,147	55145,48
457,352	54238,23
457,558	53398,57
457,764	55540,74
457,97	55815,17
458,176	54891,54
458,381	55966,72
458,587	54215,71
458,793	55510,02
458,999	53070,89
459,204	57930,72
459,41	57320,43
459,616	54023,2
459,821	54090,78
460,027	54131,74
460,233	53224,49
460,438	50121,82
460,644	50340,95
460,85	47144,07
461,055	44762,28
461,261	42867,91
461,466	38208,78
461,672	35790,13
461,878	36332,84
462,083	31788,4
462,289	29095,32
462,494	26287,56
462,7	23033,33
462,905	20489,76
463,111	19455,53
463,316	17757,77
463,522	15595,11
463,727	14544,5
463,932	12641,94
464,138	11609,76
464,343	10206,91
464,549	8926,93
464,754	8148,7
464,959	7597,79
465,165	6606,58
465,37	5648,13
465,575	4962,06
465,781	4656,91
465,986	4282,13
466,191	3804,96
466,397	3282,72
466,602	2869,03
466,807	2797,35
467,012	2533,17
467,218	2256,69
467,423	1953,59
467,628	1924,92
467,833	1650,49
468,038	1511,23
468,244	1482,56
468,449	1279,81
468,654	1177,41
468,859	1068,87
469,064	1025,86
469,269	915,27
469,474	870,22
469,679	849,74
469,885	683,85
470,09	753,48
470,295	653,13
470,5	583,5
470,705	585,55
470,91	626,51
471,115	558,92
471,32	487,25
471,525	485,2
471,73	493,39
471,935	421,71
472,139	352,08
472,344	362,32
472,549	380,75
472,754	352,08
472,959	313,17
473,164	257,87
473,369	376,66
473,574	397,14
473,778	274,26
473,983	313,17
474,188	276,31
474,393	235,35
474,598	243,54
474,802	264,02
475,007	161,62
475,212	268,11
475,417	161,62
475,621	315,22
475,826	87,89
476,031	290,64
476,235	147,28
476,44	184,15
476,645	98,13
476,849	67,41
477,054	110,42
477,259	124,76
477,463	151,38
477,668	141,14
477,872	186,19
478,077	71,51
478,282	83,8
478,486	182,1
478,691	61,27
478,895	218,96
479,1	69,46
479,304	132,95
479,509	73,56
479,713	104,28
479,918	194,39
480,122	69,46
480,326	108,37
480,531	96,08
480,735	102,23
480,94	137,04
481,144	100,18
481,348	59,22
481,553	100,18
481,757	102,23
481,961	61,27
482,166	16,21
482,37	102,23
482,574	94,04
482,778	108,37
482,983	96,08
483,187	71,51
483,391	55,12
483,595	87,89
483,8	94,04
484,004	55,12
484,208	34,64
484,412	61,27
484,616	85,84
484,821	96,08
485,025	73,56
485,229	75,6
485,433	91,99
485,637	46,93
485,841	110,42
486,045	42,84
486,249	149,33
486,453	26,45
486,657	59,22
486,861	-2,22
487,065	69,46
487,269	46,93
487,473	96,08
487,677	63,32
487,881	175,95
488,085	67,41
488,289	85,84
488,493	3,93
488,697	77,65
488,901	24,4
489,105	-32,94
489,309	-0,17
489,512	83,8
489,716	57,17
489,92	46,93
490,124	81,75
490,328	116,56
490,531	-14,51
490,735	46,93
490,939	-10,41
491,143	85,84
491,346	5,97
491,55	96,08
491,754	12,12
491,958	91,99
492,161	100,18
492,365	108,37
492,569	42,84
492,772	42,84
492,976	14,17
493,18	98,13
493,383	14,17
493,587	42,84
493,79	26,45
493,994	-55,47
494,197	59,22
494,401	22,36
494,605	61,27
494,808	34,64
495,012	26,45
495,215	135
495,419	89,94
495,622	-8,36
495,825	-0,17
496,029	87,89
496,232	85,84
496,436	28,5
496,639	-6,31
496,843	-8,36
497,046	28,5
497,249	65,36
497,453	-12,46
497,656	8,02
497,859	1,88
498,063	67,41
498,266	38,74
498,469	67,41
498,673	38,74
498,876	36,69
499,079	61,27
499,282	28,5
499,485	65,36
499,689	42,84
499,892	24,4
500,095	-6,31
500,298	18,26
500,501	26,45
500,705	42,84
500,908	8,02
501,111	51,03
501,314	12,12
501,517	83,8
501,72	10,07
501,923	-10,41
502,126	-16,55
502,329	38,74
502,532	-14,51
502,735	26,45
502,938	8,02
503,141	36,69
503,344	-26,79
503,547	-12,46
503,75	18,26
503,953	-10,41
504,156	85,84
504,359	53,08
504,562	22,36
504,765	12,12
504,968	14,17
505,17	51,03
505,373	-10,41
505,576	36,69
505,779	44,88
505,982	-24,75
506,185	-4,27
506,387	55,12
506,59	67,41
506,793	28,5
506,996	30,55
507,198	63,32
507,401	79,7
507,604	-6,31
507,807	-10,41
508,009	20,31
508,212	-28,84
508,415	-20,65
508,617	55,12
508,82	-45,23
509,022	3,93
509,225	18,26
509,428	26,45
509,63	53,08
509,833	5,97
510,035	34,64
510,238	71,51
510,44	-59,56
510,643	77,65
510,845	40,79
511,048	126,8
511,25	-8,36
511,453	59,22
511,655	-43,18
511,858	42,84
512,06	77,65
512,262	40,79
512,465	38,74
512,667	-34,99
512,87	-20,65
513,072	-22,7
513,274	57,17
513,477	22,36
513,679	-20,65
513,881	46,93
514,084	-34,99
514,286	67,41
514,488	10,07
514,69	-22,7
514,893	67,41
515,095	36,69
515,297	30,55
515,499	5,97
515,701	32,6
515,904	12,12
516,106	75,6
516,308	16,21
516,51	-0,17
516,712	79,7
516,914	-12,46
517,116	28,5
517,318	-6,31
517,52	30,55
517,722	-2,22
517,925	-18,6
518,127	73,56
518,329	55,12
518,531	5,97
518,733	-37,03
518,935	81,75
519,136	44,88
519,338	10,07
519,54	-22,7
519,742	30,55
519,944	96,08
520,146	59,22
520,348	1,88
520,55	44,88
520,752	36,69
520,954	1,88
521,155	63,32
521,357	34,64
521,559	36,69
521,761	67,41
521,963	51,03
522,164	46,93
522,366	96,08
522,568	18,26
522,77	69,46
522,971	38,74
523,173	96,08
523,375	51,03
523,576	-6,31
523,778	-4,27
523,98	69,46
524,181	67,41
524,383	-14,51
524,584	-20,65
524,786	26,45
524,988	-4,27
525,189	-43,18
525,391	42,84
525,592	18,26
525,794	79,7
525,995	-37,03
526,197	-30,89
526,398	83,8
526,6	3,93
526,801	18,26
527,003	28,5
527,204	48,98
527,406	-16,55
527,607	-32,94
527,808	5,97
528,01	-34,99
528,211	5,97
528,412	10,07
528,614	61,27
528,815	1,88
529,016	-51,37
529,218	28,5
529,419	20,31
529,62	26,45
529,822	22,36
530,023	-39,08
530,224	26,45
530,425	73,56
530,626	53,08
530,828	34,64
531,029	42,84
531,23	61,27
531,431	-69,8
531,632	44,88
531,833	14,17
532,035	65,36
532,236	12,12
532,437	51,03
532,638	-57,51
532,839	18,26
533,04	5,97
533,241	71,51
533,442	-20,65
533,643	10,07
533,844	59,22
534,045	-4,27
534,246	-6,31
534,447	-32,94
534,648	-14,51
534,849	18,26
535,05	-26,79
535,251	-75,95
535,451	83,8
535,652	73,56
535,853	20,31
536,054	1,88
536,255	-43,18
536,456	-10,41
536,657	5,97
536,857	-18,6
537,058	-14,51
537,259	-39,08
537,46	-4,27
537,66	24,4
537,861	-41,13
538,062	12,12
538,263	-39,08
538,463	-4,27
538,664	42,84
538,865	81,75
539,065	48,98
539,266	28,5
539,466	-75,95
539,667	22,36
539,868	-77,99
540,068	-18,6
540,269	30,55
540,469	98,13
540,67	63,32
540,87	5,97
541,071	-24,75
541,271	94,04
541,472	53,08
541,672	28,5
541,873	57,17
542,073	-37,03
542,274	26,45
542,474	30,55
542,675	-26,79
542,875	-4,27
543,075	-69,8
543,276	-6,31
543,476	-6,31
543,676	1,88
543,877	-10,41
544,077	55,12
544,277	3,93
544,478	40,79
544,678	20,31
544,878	1,88
545,078	-59,56
545,279	-39,08
545,479	-22,7
545,679	12,12
545,879	12,12
546,079	40,79
546,28	-26,79
546,48	67,41
546,68	3,93
546,88	14,17
547,08	-32,94
547,28	18,26
547,48	1,88
547,68	42,84
547,88	-14,51
548,081	-28,84
548,281	-14,51
548,481	-39,08
548,681	-6,31
548,881	-34,99
549,081	-18,6
549,28	-53,42
549,48	22,36
549,68	-18,6
549,88	51,03
550,08	-6,31
550,28	-12,46
550,48	-4,27
550,68	42,84
550,88	-34,99
551,08	42,84
551,279	42,84
551,479	-4,27
551,679	38,74
551,879	63,32
552,079	16,21
552,278	-45,23
552,478	59,22
552,678	28,5
552,878	26,45
553,077	-4,27
553,277	-41,13
553,477	-26,79
553,676	67,41
553,876	3,93
554,076	20,31
554,275	-34,99
554,475	-22,7
554,674	22,36
554,874	-53,42
555,074	38,74
555,273	42,84
555,473	-20,65
555,672	65,36
555,872	14,17
556,071	12,12
556,271	89,94
556,47	42,84
556,67	-6,31
556,869	100,18
557,068	5,97
557,268	59,22
557,467	1,88
557,667	-6,31
557,866	-26,79
558,065	-34,99
558,265	44,88
558,464	1,88
558,663	26,45
558,863	40,79
559,062	-57,51
559,261	-53,42
559,461	44,88
559,66	71,51
559,859	-10,41
560,058	28,5
560,258	-26,79
560,457	16,21
560,656	87,89
560,855	-20,65
561,054	10,07
561,253	-37,03
561,453	51,03
561,652	-20,65
561,851	20,31
562,05	-47,27
562,249	-133,29
562,448	34,64
562,647	24,4
562,846	75,6
563,045	30,55
563,244	8,02
563,443	34,64
563,642	44,88
563,841	14,17
564,04	42,84
564,239	36,69
564,438	34,64
564,637	10,07
564,836	-45,23
565,035	-14,51
565,234	-20,65
565,432	42,84
565,631	61,27
565,83	8,02
566,029	44,88
566,228	-71,85
566,427	30,55
566,625	-22,7
566,824	22,36
567,023	12,12
567,222	44,88
567,42	-14,51
567,619	59,22
567,818	-2,22
568,016	1,88
568,215	61,27
568,414	38,74
568,612	1,88
568,811	59,22
569,01	20,31
569,208	40,79
569,407	26,45
569,605	-47,27
569,804	-67,75
570,002	12,12
570,201	-10,41
570,4	14,17
570,598	57,17
570,797	34,64
570,995	10,07
571,193	34,64
571,392	-41,13
571,59	57,17
571,789	-24,75
571,987	10,07
572,186	-14,51
572,384	75,6
572,582	30,55
572,781	36,69
572,979	-67,75
573,177	-4,27
573,376	48,98
573,574	46,93
573,772	59,22
573,971	3,93
574,169	-8,36
574,367	-8,36
574,565	20,31
574,763	-37,03
574,962	1,88
575,16	96,08
575,358	5,97
575,556	42,84
575,754	-6,31
575,952	8,02
576,151	1,88
576,349	-8,36
576,547	-39,08
576,745	89,94
576,943	12,12
577,141	32,6
577,339	-14,51
577,537	22,36
577,735	-45,23
577,933	34,64
578,131	-2,22
578,329	42,84
578,527	-12,46
578,725	1,88
578,923	30,55
579,121	3,93
579,319	67,41
579,516	22,36
579,714	53,08
579,912	-53,42
580,11	-22,7
580,308	24,4
580,506	-14,51
580,704	-0,17
580,901	-20,65
581,099	-0,17
581,297	8,02
581,495	3,93
581,692	-30,89
581,89	20,31
582,088	-26,79
582,285	34,64
582,483	-32,94
582,681	-14,51
582,878	22,36
583,076	-6,31
583,274	-24,75
583,471	36,69
583,669	-26,79
583,866	24,4
584,064	20,31
584,262	-73,9
584,459	-22,7
584,657	-18,6
584,854	91,99
585,052	-6,31
585,249	57,17
585,447	83,8
585,644	-59,56
585,841	28,5
586,039	-14,51
586,236	36,69
586,434	1,88
586,631	46,93
586,828	10,07
587,026	40,79
587,223	-47,27
587,42	-6,31
587,618	3,93
587,815	42,84
588,012	18,26
588,21	61,27
588,407	-51,37
588,604	-16,55
588,801	-96,43
588,999	-49,32
589,196	-45,23
589,393	77,65
589,59	-8,36
589,787	79,7
589,984	30,55
590,182	61,27
590,379	-22,7
590,576	-4,27
590,773	20,31
590,97	-39,08
591,167	42,84
591,364	-12,46
591,561	26,45
591,758	42,84
591,955	36,69
592,152	3,93
592,349	-6,31
592,546	18,26
592,743	38,74
592,94	34,64
593,137	22,36
593,334	55,12
593,531	18,26
593,727	38,74
593,924	30,55
594,121	30,55
594,318	69,46
594,515	69,46
594,712	-30,89
594,908	40,79
595,105	1,88
595,302	16,21
595,499	-20,65
595,696	65,36
595,892	5,97
596,089	67,41
596,286	-4,27
596,482	59,22
596,679	-14,51
596,876	-10,41
597,072	1,88
597,269	-14,51
597,466	55,12
597,662	-6,31
597,859	-47,27
598,055	75,6
598,252	-2,22
598,448	18,26
598,645	16,21
598,841	85,84
599,038	-14,51
599,234	112,47
599,431	16,21
599,627	42,84
599,824	-30,89
600,02	12,12
600,217	-16,55
600,413	36,69
600,609	-71,85
600,806	69,46
601,002	-45,23
601,198	-14,51
601,395	-16,55
601,591	18,26
601,787	-30,89
601,984	8,02
602,18	-14,51
602,376	5,97
602,572	-4,27
602,769	-28,84
602,965	28,5
603,161	-22,7
603,357	28,5
603,553	26,45
603,75	-18,6
603,946	-45,23
604,142	-0,17
604,338	40,79
604,534	-39,08
604,73	-69,8
604,926	12,12
605,122	75,6
605,318	26,45
605,514	-22,7
605,71	1,88
605,906	18,26
606,102	-28,84
606,298	20,31
606,494	28,5
606,69	46,93
606,886	-43,18
607,082	-71,85
607,278	24,4
607,474	-6,31
607,67	-39,08
607,866	-12,46
608,062	51,03
608,257	-2,22
608,453	-37,03
608,649	-28,84
608,845	10,07
609,041	-24,75
609,236	-18,6
609,432	94,04
609,628	26,45
609,824	26,45
610,019	-2,22
610,215	-26,79
610,411	83,8
610,606	18,26
610,802	-47,27
610,998	20,31
611,193	46,93
611,389	-30,89
611,584	-16,55
611,78	10,07
611,976	46,93
612,171	44,88
612,367	30,55
612,562	75,6
612,758	48,98
612,953	104,28
613,149	-63,66
613,344	12,12
613,539	8,02
613,735	-4,27
613,93	18,26
614,126	-41,13
614,321	-82,09
614,517	-32,94
614,712	128,85
614,907	-14,51
615,103	-55,47
615,298	-39,08
615,493	-12,46
615,688	-4,27
615,884	75,6
616,079	16,21
616,274	-86,19
616,47	61,27
616,665	-14,51
616,86	42,84
617,055	16,21
617,25	-88,23
617,445	81,75
617,641	10,07
617,836	5,97
618,031	16,21
618,226	-55,47
618,421	-18,6
618,616	14,17
618,811	34,64
619,006	-14,51
619,201	108,37
619,396	-12,46
619,591	-24,75
619,786	51,03
619,981	42,84
620,176	-14,51
620,371	-8,36
620,566	18,26
620,761	48,98
620,956	53,08
621,151	-65,71
621,346	10,07
621,541	-30,89
621,735	20,31
621,93	28,5
622,125	-22,7
622,32	-24,75
622,515	-61,61
622,709	-30,89
622,904	-41,13
623,099	-45,23
623,294	-20,65
623,488	30,55
623,683	-26,79
623,878	-30,89
624,072	20,31
624,267	-53,42
624,462	-16,55
624,656	-14,51
624,851	18,26
625,046	-22,7
625,24	-16,55
625,435	1,88
625,629	-71,85
625,824	-37,03
626,018	42,84
626,213	36,69
626,407	40,79
626,602	-4,27
626,796	-14,51
626,991	12,12
627,185	-32,94
627,38	24,4
627,574	-0,17
627,768	-20,65
627,963	14,17
628,157	-59,56
628,352	-12,46
628,546	-55,47
628,74	1,88
628,935	-4,27
629,129	77,65
629,323	20,31
629,517	-18,6
629,712	36,69
629,906	-10,41
630,1	46,93
630,294	5,97
630,489	12,12
630,683	-8,36
630,877	53,08
631,071	77,65
631,265	-71,85
631,459	67,41
631,653	108,37
631,848	-30,89
632,042	10,07
632,236	-26,79
632,43	65,36
632,624	-53,42
632,818	-63,66
633,012	-22,7
633,206	-55,47
633,4	-0,17
633,594	132,95
633,788	30,55
633,982	71,51
634,176	-26,79
634,369	18,26
634,563	38,74
634,757	-14,51
634,951	24,4
635,145	46,93
635,339	24,4
635,533	5,97
635,726	-61,61
635,92	-28,84
636,114	-14,51
636,308	-0,17
636,501	-14,51
636,695	-41,13
636,889	-2,22
637,083	53,08
637,276	-45,23
637,47	-30,89
637,664	-2,22
637,857	10,07
638,051	-51,37
638,244	40,79
638,438	10,07
638,632	-37,03
638,825	-30,89
639,019	8,02
639,212	36,69
639,406	26,45
639,599	-6,31
639,793	14,17
639,986	28,5
640,18	83,8
640,373	-39,08
640,567	-55,47
640,76	-20,65
640,954	61,27
641,147	-18,6
641,34	-16,55
641,534	5,97
641,727	83,8
641,92	-18,6
642,114	51,03
642,307	22,36
642,5	1,88
642,694	20,31
642,887	61,27
643,08	85,84
643,273	-4,27
643,467	20,31
643,66	53,08
643,853	-86,19
644,046	-10,41
644,239	8,02
644,432	-37,03
644,626	-75,95
644,819	-10,41
645,012	14,17
645,205	40,79
645,398	-28,84
645,591	8,02
645,784	-112,81
645,977	-6,31
646,17	5,97
646,363	-49,32
646,556	-82,09
646,749	10,07
646,942	44,88
647,135	-12,46
647,328	-4,27
647,521	-67,75
647,714	-10,41
647,907	51,03
648,099	-12,46
648,292	-4,27
648,485	63,32
648,678	1,88
648,871	20,31
649,064	-0,17
649,256	-20,65
649,449	-53,42
649,642	-20,65
649,835	-14,51
650,027	-8,36
650,22	3,93
650,413	18,26
650,605	-55,47
650,798	-20,65
650,991	57,17
651,183	38,74
651,376	73,56
651,568	8,02
651,761	42,84
651,954	38,74
652,146	12,12
652,339	73,56
652,531	-0,17
652,724	-69,8
652,916	-37,03
653,109	-18,6
653,301	22,36
653,494	-8,36
653,686	28,5
653,879	3,93
654,071	77,65
654,263	-20,65
654,456	79,7
654,648	-37,03
654,84	132,95
655,033	-22,7
655,225	1,88
655,417	-37,03
655,61	10,07
655,802	18,26
655,994	55,12
656,186	-2,22
656,379	16,21
656,571	-18,6
656,763	-47,27
656,955	53,08
657,148	1,88
657,34	32,6
657,532	44,88
657,724	44,88
657,916	91,99
658,108	79,7
658,3	69,46
658,492	10,07
658,684	12,12
658,876	-6,31
659,068	30,55
659,26	-49,32
659,452	1,88
659,644	8,02
659,836	42,84
660,028	12,12
660,22	1,88
660,412	-2,22
660,604	-2,22
660,796	-34,99
660,988	94,04
661,18	-10,41
661,372	83,8
661,563	-47,27
661,755	65,36
661,947	3,93
662,139	22,36
662,331	44,88
662,522	34,64
662,714	1,88
662,906	-4,27
663,097	22,36
663,289	26,45
663,481	10,07
663,673	48,98
663,864	46,93
664,056	28,5
664,247	-6,31
664,439	18,26
664,631	53,08
664,822	26,45
665,014	-22,7
665,205	28,5
665,397	-14,51
665,588	14,17
665,78	-22,7
665,971	79,7
666,163	8,02
666,354	40,79
666,546	10,07
666,737	75,6
666,929	-73,9
667,12	-14,51
667,311	75,6
667,503	51,03
667,694	-28,84
667,885	46,93
668,077	12,12
668,268	38,74
668,459	-59,56
668,651	57,17
668,842	24,4
669,033	-18,6
669,224	26,45
669,416	71,51
669,607	26,45
669,798	53,08
669,989	34,64
670,18	32,6
670,371	-73,9
670,563	53,08
670,754	69,46
670,945	-43,18
671,136	8,02
671,327	30,55
671,518	30,55
671,709	71,51
671,9	30,55
672,091	-22,7
672,282	91,99
672,473	18,26
672,664	-14,51
672,855	36,69
673,046	69,46
673,237	85,84
673,428	-47,27
673,619	124,76
673,809	85,84
674	59,22
674,191	51,03
674,382	3,93
674,573	-69,8
674,764	5,97
674,954	36,69
675,145	-2,22
675,336	18,26
675,527	-28,84
675,717	-61,61
675,908	63,32
676,099	-47,27
676,289	-28,84
676,48	-4,27
676,671	-10,41
676,861	3,93
677,052	85,84
677,243	3,93
677,433	-22,7
677,624	8,02
677,814	-12,46
678,005	-63,66
678,195	28,5
678,386	10,07
678,576	10,07
678,767	-18,6
678,957	100,18
679,148	-2,22
679,338	83,8
679,529	5,97
679,719	-12,46
679,909	51,03
680,1	12,12
680,29	-57,51
680,481	-55,47
680,671	34,64
680,861	3,93
681,052	-20,65
681,242	34,64
681,432	46,93
681,622	28,5
681,813	1,88
682,003	-47,27
682,193	-4,27
682,383	-12,46
682,573	-34,99
682,764	-24,75
682,954	-18,6
683,144	67,41
683,334	110,42
683,524	-8,36
683,714	36,69
683,904	1,88
684,094	30,55
684,284	83,8
684,474	34,64
684,664	44,88
684,854	55,12
685,044	10,07
685,234	-30,89
685,424	-14,51
685,614	3,93
685,804	79,7
685,994	75,6
686,184	65,36
686,374	-24,75
686,564	-20,65
686,753	-63,66
686,943	3,93
687,133	-6,31
687,323	-0,17
687,513	42,84
687,702	16,21
687,892	-65,71
688,082	12,12
688,272	48,98
688,461	-10,41
688,651	63,32
688,841	-22,7
689,03	22,36
689,22	-47,27
689,41	-10,41
689,599	-12,46
689,789	34,64
689,979	40,79
690,168	-20,65
690,358	-12,46
690,547	42,84
690,737	42,84
690,926	10,07
691,116	-32,94
691,305	-6,31
691,495	-18,6
691,684	-41,13
691,874	12,12
692,063	34,64
692,252	96,08
692,442	14,17
692,631	20,31
692,82	-12,46
693,01	5,97
693,199	-55,47
693,388	10,07
693,578	-14,51
693,767	85,84
693,956	61,27
694,146	8,02
694,335	-18,6
694,524	-2,22
694,713	10,07
694,902	-2,22
695,092	-47,27
695,281	-22,7
695,47	-6,31
695,659	5,97
695,848	-63,66
696,037	-69,8
696,226	34,64
696,415	-0,17
696,604	57,17
696,793	8,02
696,982	51,03
697,171	1,88
697,36	8,02
697,549	-30,89
697,738	-63,66
697,927	59,22
698,116	-26,79
698,305	38,74
698,494	-16,55
698,683	110,42
698,872	143,19
699,061	67,41
699,25	-34,99
699,438	-20,65
699,627	-26,79
699,816	46,93
700,005	-6,31
700,193	-53,42
700,382	-16,55
700,571	24,4
700,76	22,36
700,948	5,97
701,137	20,31
701,326	36,69
701,514	-2,22
701,703	12,12
701,892	-10,41
702,08	63,32
702,269	85,84
702,457	18,26
702,646	-49,32
702,834	24,4
703,023	-41,13
703,212	77,65
703,4	-53,42
703,589	-22,7
703,777	-41,13
703,965	20,31
704,154	-63,66
704,342	-63,66
704,531	-53,42
704,719	-20,65
704,907	-2,22
705,096	-51,37
705,284	-22,7
705,472	28,5
705,661	1,88
705,849	30,55
706,037	-6,31
706,226	57,17
706,414	-47,27
706,602	44,88
706,79	46,93
706,979	3,93
707,167	-39,08
707,355	-10,41
707,543	1,88
707,731	59,22
707,919	28,5
708,107	-53,42
708,296	-26,79
708,484	5,97
708,672	71,51
708,86	-67,75
709,048	36,69
709,236	-30,89
709,424	26,45
709,612	-12,46
709,8	24,4
709,988	36,69
710,176	-55,47
710,364	69,46
710,551	20,31
710,739	10,07
710,927	-6,31
711,115	51,03
711,303	12,12
711,491	18,26
711,679	-14,51
711,866	65,36
712,054	-28,84
712,242	67,41
712,43	-45,23
712,617	-6,31
712,805	-14,51
712,993	36,69
713,181	16,21
713,368	36,69
713,556	34,64
713,744	-63,66
713,931	116,56
714,119	57,17
714,306	20,31
714,494	32,6
714,682	-55,47
714,869	-71,85
715,057	28,5
715,244	-57,51
715,432	-4,27
715,619	3,93
715,807	-57,51
715,994	-28,84
716,182	5,97
716,369	42,84
716,556	20,31
716,744	-0,17
716,931	-92,33
717,119	26,45
717,306	34,64
717,493	-24,75
717,681	-16,55
717,868	20,31
718,055	-26,79
718,242	28,5
718,43	28,5
718,617	3,93
718,804	-16,55
718,991	34,64
719,179	8,02
719,366	28,5
719,553	-34,99
719,74	53,08
719,927	42,84
720,114	18,26
720,301	10,07
720,488	-63,66
720,676	-39,08
720,863	-4,27
721,05	20,31
721,237	5,97
721,424	-18,6
721,611	51,03
721,798	-63,66
721,985	34,64
722,172	-18,6
722,358	-4,27
722,545	55,12
722,732	51,03
722,919	-22,7
723,106	20,31
723,293	18,26
723,48	3,93
723,667	18,26
723,853	-39,08
724,04	34,64
724,227	26,45
724,414	-37,03
724,6	18,26
724,787	20,31
724,974	34,64
725,161	-49,32
725,347	-22,7
725,534	79,7
725,72	28,5
725,907	67,41
726,094	34,64
726,28	-10,41
726,467	-6,31
726,653	5,97
726,84	36,69
727,027	85,84
727,213	22,36
727,4	-4,27
727,586	16,21
727,773	5,97
727,959	16,21
728,145	18,26
728,332	3,93
728,518	3,93
728,705	-34,99
728,891	51,03
729,077	69,46
729,264	-55,47
729,45	-6,31
729,636	8,02
729,823	-14,51
730,009	8,02
730,195	5,97
730,382	63,32
730,568	-57,51
730,754	-37,03
730,94	-6,31
731,126	-22,7
731,313	-30,89
731,499	-22,7
731,685	34,64
731,871	53,08
732,057	8,02
732,243	-24,75
732,429	-4,27
732,615	53,08
732,801	-6,31
732,987	-41,13
733,173	55,12
733,359	10,07
733,545	1,88
733,731	32,6
733,917	-12,46
734,103	28,5
734,289	-26,79
734,475	-104,62
734,661	61,27
734,847	-6,31
735,033	61,27
735,219	20,31
735,404	59,22
735,59	-14,51
735,776	61,27
735,962	40,79
736,148	-14,51
736,333	16,21
736,519	-14,51
736,705	34,64
736,89	38,74
737,076	-10,41
737,262	-22,7
737,447	34,64
737,633	38,74
737,819	-0,17
738,004	-20,65
738,19	30,55
738,375	22,36
738,561	-12,46
738,747	87,89
738,932	18,26
739,118	22,36
739,303	20,31
739,489	30,55
739,674	20,31
739,859	-51,37
740,045	14,17
740,23	46,93
740,416	-20,65
740,601	-8,36
740,786	38,74
740,972	-18,6
741,157	-14,51
741,342	-6,31
741,528	-34,99
741,713	59,22
741,898	-43,18
742,084	-65,71
742,269	-69,8
742,454	28,5
742,639	18,26
742,824	36,69
743,01	24,4
743,195	-14,51
743,38	-32,94
743,565	30,55
743,75	48,98
743,935	57,17
744,12	-14,51
744,305	61,27
744,49	-18,6
744,675	-53,42
744,86	-43,18
745,045	16,21
745,23	28,5
745,415	-6,31
745,6	-14,51
745,785	-49,32
745,97	-12,46
746,155	-6,31
746,34	-57,51
746,525	38,74
746,71	44,88
746,895	-41,13
747,079	3,93
747,264	-34,99
747,449	-16,55
747,634	91,99
747,819	10,07
748,003	-16,55
748,188	-59,56
748,373	-14,51
748,557	1,88
748,742	69,46
748,927	61,27
749,111	-16,55
749,296	36,69
749,481	-2,22
749,665	-18,6
749,85	-30,89
750,034	65,36
750,219	1,88
750,404	16,21
750,588	1,88
750,773	-30,89
750,957	20,31
751,141	26,45
751,326	-65,71
751,51	-53,42
751,695	5,97
751,879	-14,51
752,064	67,41
752,248	18,26
752,432	-6,31
752,617	14,17
752,801	-6,31
752,985	10,07
753,17	-30,89
753,354	28,5
753,538	51,03
753,722	-47,27
753,907	18,26
754,091	-63,66
754,275	-6,31
754,459	-84,14
754,643	28,5
754,828	5,97
755,012	14,17
755,196	-86,19
755,38	-20,65
755,564	10,07
755,748	-12,46
755,932	100,18
756,116	-4,27
756,3	16,21
756,484	-43,18
756,668	-6,31
756,852	-39,08
757,036	-22,7
757,22	-63,66
757,404	-47,27
757,588	69,46
757,772	1,88
757,956	-12,46
758,14	83,8
758,323	-18,6
758,507	20,31
758,691	-45,23
758,875	30,55
759,059	-18,6
759,242	-18,6
759,426	46,93
759,61	-4,27
759,794	-16,55
759,977	24,4
760,161	87,89
760,345	38,74
760,528	57,17
760,712	51,03
760,895	44,88
761,079	18,26
761,263	24,4
761,446	26,45
761,63	22,36
761,813	51,03
761,997	-10,41
762,18	38,74
762,364	38,74
762,547	20,31
762,731	10,07
762,914	-18,6
763,098	-6,31
763,281	1,88
763,464	-53,42
763,648	-34,99
763,831	-41,13
764,015	-47,27
764,198	-98,47
764,381	1,88
764,564	12,12
764,748	38,74
764,931	-14,51
765,114	-26,79
765,297	-61,61
765,481	-34,99
765,664	28,5
765,847	30,55
766,03	98,13
766,213	-69,8
766,397	36,69
766,58	-37,03
766,763	1,88
766,946	-39,08
767,129	-37,03
767,312	12,12
767,495	-37,03
767,678	1,88
767,861	3,93
768,044	1,88
768,227	5,97
768,41	22,36
768,593	-102,57
768,776	85,84
768,959	-71,85
769,142	26,45
769,324	-0,17
769,507	26,45
769,69	-43,18
769,873	16,21
770,056	10,07
770,239	-26,79
770,421	-0,17
770,604	79,7
770,787	-22,7
770,97	-61,61
771,152	10,07
771,335	34,64
771,518	-8,36
771,7	55,12
771,883	46,93
772,066	-26,79
772,248	18,26
772,431	-71,85
772,613	10,07
772,796	-73,9
772,978	12,12
773,161	-18,6
773,343	-24,75
773,526	-39,08
773,708	-30,89
773,891	-14,51
774,073	32,6
774,256	-30,89
774,438	-30,89
774,621	40,79
774,803	14,17
774,985	10,07
775,168	36,69
775,35	-8,36
775,532	42,84
775,715	10,07
775,897	28,5
776,079	-20,65
776,261	40,79
776,444	-34,99
776,626	3,93
776,808	-8,36
776,99	-80,04
777,173	-41,13
777,355	18,26
777,537	10,07
777,719	36,69
777,901	-22,7
778,083	-84,14
778,265	1,88
778,447	42,84
778,629	-20,65
778,811	12,12
778,993	-22,7
779,175	18,26
779,357	-24,75
779,539	-30,89
779,721	20,31
779,903	-26,79
780,085	14,17
780,267	-37,03
780,449	12,12
780,631	-4,27
780,812	-18,6
780,994	40,79
781,176	-84,14
781,358	-2,22
781,54	57,17
781,721	24,4
781,903	1,88
782,085	-28,84
782,267	-28,84
782,448	-49,32
782,63	-30,89
782,812	20,31
782,993	-20,65
783,175	-47,27
783,357	73,56
783,538	-37,03
783,72	20,31
783,901	-45,23
784,083	10,07
784,264	55,12
784,446	-28,84
784,627	-14,51
784,809	48,98
784,99	-43,18
785,172	3,93
785,353	75,6
785,535	-51,37
785,716	3,93
785,897	-45,23
786,079	5,97
786,26	14,17
786,441	3,93
786,623	28,5
786,804	10,07
786,985	48,98
787,167	61,27
787,348	-55,47
787,529	-47,27
787,71	28,5
787,891	-18,6
788,073	16,21
788,254	-22,7
788,435	65,36
788,616	5,97
788,797	-41,13
788,978	-26,79
789,159	-53,42
789,34	-14,51
789,522	69,46
789,703	-26,79
789,884	-28,84
790,065	-18,6
790,246	38,74
790,427	-20,65
790,607	22,36
790,788	65,36
790,969	-39,08
791,15	-14,51
791,331	-30,89
791,512	28,5
791,693	12,12
791,874	-22,7
792,054	22,36
792,235	34,64
792,416	1,88
792,597	-69,8
792,778	51,03
792,958	42,84
793,139	-4,27
793,32	22,36
793,5	-39,08
793,681	51,03
793,862	67,41
794,042	18,26
794,223	-137,38
794,404	-14,51
794,584	-43,18
794,765	-28,84
794,945	-39,08
795,126	55,12
795,306	20,31
795,487	-86,19
795,667	18,26
795,848	32,6
796,028	-71,85
796,209	5,97
796,389	46,93
796,57	8,02
796,75	1,88
796,93	-49,32
797,111	-34,99
797,291	-53,42
797,471	10,07
797,652	10,07
797,832	-12,46
798,012	-20,65
798,192	-14,51
798,373	-6,31
798,553	-6,31
798,733	75,6
798,913	-43,18
799,093	28,5
799,274	-2,22
799,454	1,88
799,634	20,31
799,814	42,84
799,994	-4,27
800,174	-10,41
800,354	18,26
800,534	-77,99
800,714	-55,47
800,894	-4,27
801,074	-67,75
801,254	14,17
801,434	20,31
801,614	-61,61
801,794	-22,7
801,974	405,33
802,154	-39,08
802,334	42,84
802,514	-73,9
802,693	-20,65
802,873	20,31
803,053	28,5
803,233	57,17
803,413	-2,22
803,592	3,93
803,772	-24,75
803,952	-94,38
804,131	20,31
804,311	-59,56
804,491	28,5
804,67	-4,27
804,85	-45,23
805,03	26,45
805,209	34,64
805,389	-6,31
805,568	-37,03
805,748	16,21
805,928	-10,41
806,107	36,69
806,287	44,88
806,466	48,98
806,646	-14,51
806,825	24,4
807,004	36,69
807,184	55,12
807,363	22,36
807,543	18,26
807,722	-26,79
807,901	51,03
808,081	5,97
808,26	-24,75
808,439	69,46
808,619	-51,37
808,798	91,99
808,977	-18,6
809,156	75,6
809,336	-39,08
809,515	34,64
809,694	48,98
809,873	8,02
810,052	59,22
810,231	18,26
810,411	3,93
810,59	91,99
810,769	44,88
810,948	20,31
811,127	-26,79
811,306	28,5
811,485	28,5
811,664	-22,7
811,843	38,74
812,022	26,45
812,201	1,88
812,38	-14,51
812,559	26,45
812,737	65,36
812,916	-67,75
813,095	-55,47
813,274	-12,46
813,453	1,88
813,632	71,51
813,811	10,07
813,989	-51,37
814,168	-63,66
814,347	-96,43
814,526	34,64
814,704	-28,84
814,883	42,84
815,062	-73,9
815,24	18,26
815,419	-55,47
815,598	5,97
815,776	-59,56
815,955	-14,51
816,133	-20,65
816,312	28,5
816,49	-22,7
816,669	-32,94
816,847	55,12
817,026	-53,42
817,204	26,45
817,383	46,93
817,561	3,93
817,74	20,31
817,918	28,5
818,097	10,07
818,275	65,36
818,453	24,4
818,632	104,28
818,81	-22,7
818,988	10,07
819,167	-20,65
819,345	48,98
819,523	36,69
819,701	-10,41
819,879	63,32
820,058	-22,7
820,236	-43,18
820,414	-16,55
820,592	-59,56
820,77	10,07
820,948	-37,03
821,127	-47,27
821,305	-14,51
821,483	36,69
821,661	-4,27
821,839	8,02
822,017	-22,7
822,195	18,26
822,373	28,5
822,551	26,45
822,729	91,99
822,907	28,5
823,085	-22,7
823,262	-34,99
823,44	-26,79
823,618	10,07
823,796	-61,61
823,974	-39,08
824,152	1,88
824,329	-26,79
824,507	5,97
824,685	-47,27
824,863	-16,55
825,04	-39,08
825,218	28,5
825,396	-2,22
825,574	-39,08
825,751	28,5
825,929	28,5
826,107	34,64
826,284	51,03
826,462	8,02
826,639	48,98
826,817	10,07
826,994	18,26
827,172	-53,42
827,349	96,08
827,527	83,8
827,704	26,45
827,882	12,12
828,059	34,64
828,237	3,93
828,414	-18,6
828,591	51,03
828,769	-14,51
828,946	-14,51
829,124	14,17
829,301	18,26
829,478	18,26
829,655	-14,51
829,833	24,4
830,01	-18,6
830,187	61,27
830,364	8,02
830,542	5,97
830,719	-37,03
830,896	1,88
831,073	20,31
831,25	69,46
831,427	-2,22
831,604	-47,27
831,782	-12,46
831,959	22,36
832,136	18,26
832,313	8,02
832,49	-47,27
832,667	16,21
832,844	48,98
833,021	55,12
833,198	-18,6
833,374	-59,56
833,551	89,94
833,728	16,21
833,905	22,36
834,082	-30,89
834,259	38,74
834,436	10,07
834,612	16,21
834,789	30,55
834,966	-61,61
835,143	34,64
835,319	-55,47
835,496	40,79
835,673	-53,42
835,85	-2,22
836,026	-30,89
836,203	67,41
836,38	57,17
836,556	22,36
836,733	-16,55
836,909	-20,65
837,086	22,36
837,262	12,12
837,439	30,55
837,616	-77,99
837,792	-2,22
837,968	-4,27
838,145	24,4
838,321	-28,84
838,498	38,74
838,674	22,36
838,851	34,64
839,027	-30,89
839,203	30,55
839,38	65,36
839,556	36,69
839,732	-41,13
839,909	-22,7
840,085	69,46
840,261	-16,55
840,437	71,51
840,614	-47,27
840,79	59,22
840,966	36,69
841,142	34,64
841,318	-20,65
841,494	8,02
841,671	-24,75
841,847	-30,89
842,023	-24,75
842,199	42,84
842,375	-45,23
842,551	-10,41
842,727	-55,47
842,903	26,45
843,079	3,93
843,255	44,88
843,431	-59,56
843,607	-6,31
843,783	-43,18
843,959	1,88
844,134	12,12
844,31	20,31
844,486	-4,27
844,662	10,07
844,838	-0,17
845,013	44,88
845,189	24,4
845,365	-22,7
845,541	-28,84
845,716	65,36
845,892	1,88
846,068	-28,84
846,244	-12,46
846,419	-20,65
846,595	-30,89
846,77	-43,18
846,946	10,07
847,122	-28,84
847,297	-4,27
847,473	143,19
847,648	-43,18
847,824	-22,7
847,999	-28,84
848,175	36,69
848,35	-18,6
848,526	-14,51
848,701	20,31
848,876	26,45
849,052	-41,13
849,227	-71,85
849,403	-75,95
849,578	-18,6
849,753	14,17
849,929	26,45
850,104	-20,65
850,279	26,45
850,454	5,97
850,63	26,45
850,805	-41,13
850,98	-8,36
851,155	-26,79
851,33	18,26
851,505	30,55
851,681	59,22
851,856	-39,08
852,031	34,64
852,206	-14,51
852,381	24,4
852,556	-2,22
852,731	-2,22
852,906	18,26
853,081	-53,42
853,256	30,55
853,431	-37,03
853,606	-4,27
853,781	-20,65
853,956	-20,65
854,131	-30,89
854,305	-6,31
854,48	-24,75
854,655	-26,79
854,83	61,27
855,005	61,27
855,18	-45,23
855,354	3,93
855,529	-53,42
855,704	10,07
855,879	-2,22
856,053	30,55
856,228	-28,84
856,403	-10,41
856,577	-47,27
856,752	18,26
856,926	20,31
857,101	-41,13
857,276	12,12
857,45	-6,31
857,625	3,93
857,799	-32,94
857,974	-30,89
858,148	-45,23
858,323	5,97
858,497	-2,22
858,672	-14,51
858,846	-65,71
859,02	5,97
859,195	-10,41
859,369	-22,7
859,543	1,88
859,718	-67,75
859,892	-0,17
860,066	1,88
860,241	34,64
860,415	-47,27
860,589	-67,75
860,763	-14,51
860,938	-32,94
861,112	26,45
861,286	-37,03
861,46	-2,22
861,634	5,97
861,808	-20,65
861,982	-12,46
862,157	-45,23
862,331	-2,22
862,505	5,97
862,679	-98,47
862,853	-73,9
863,027	-47,27
863,201	-6,31
863,375	-61,61
863,549	-53,42
863,722	-104,62
863,896	48,98
864,07	-47,27
864,244	30,55
864,418	28,5
864,592	-22,7
864,766	-55,47
864,939	12,12
865,113	-30,89
865,287	14,17
865,461	-0,17
865,634	-71,85
865,808	-10,41
865,982	1,88
866,156	-39,08
866,329	-61,61
866,503	55,12
866,676	8,02
866,85	-34,99
867,024	-94,38
867,197	-14,51
867,371	59,22
867,544	-18,6
867,718	10,07
867,891	-18,6
868,065	1,88
868,238	12,12
868,412	94,04
868,585	38,74
868,759	-10,41
868,932	-24,75
869,105	18,26
869,279	42,84
869,452	-18,6
869,625	-28,84
869,799	67,41
869,972	-14,51
870,145	10,07
870,319	-59,56
870,492	-77,99
870,665	-43,18
870,838	46,93
871,011	-86,19
871,185	34,64
871,358	-20,65
871,531	-12,46
871,704	57,17
871,877	-30,89
872,05	55,12
872,223	-149,67
872,396	26,45
872,569	-37,03
872,742	-14,51
872,915	18,26
873,088	-14,51
873,261	-0,17
873,434	30,55
873,607	34,64
873,78	-22,7
873,953	-67,75
874,126	14,17
874,299	30,55
874,471	-37,03
874,644	-14,51
874,817	-10,41
874,99	-71,85
875,163	10,07
875,335	38,74
875,508	-110,76
875,681	22,36
875,853	-20,65
876,026	-30,89
876,199	38,74
876,371	36,69
876,544	32,6
876,717	20,31
876,889	-18,6
877,062	-30,89
877,234	-4,27
877,407	67,41
877,579	10,07
877,752	-6,31
877,924	1,88
878,097	42,84
878,269	-4,27
878,442	20,31
878,614	22,36
878,786	34,64
878,959	18,26
879,131	-12,46
879,303	-32,94
879,476	-28,84
879,648	-20,65
879,82	28,5
879,993	-8,36
880,165	48,98
880,337	38,74
880,509	34,64
880,681	-14,51
880,854	-41,13
881,026	-10,41
881,198	12,12
881,37	-53,42
881,542	-41,13
881,714	-22,7
881,886	-22,7
882,058	-30,89
882,23	20,31
882,402	24,4
882,574	-14,51
882,746	73,56
882,918	38,74
883,09	-67,75
883,262	-30,89
883,434	20,31
883,606	67,41
883,778	-0,17
883,95	-2,22
884,122	-10,41
884,293	-55,47
884,465	-2,22
884,637	-0,17
884,809	-0,17
884,98	67,41
885,152	-43,18
885,324	28,5
885,496	-51,37
885,667	-16,55
885,839	-20,65
886,011	32,6
886,182	40,79
886,354	14,17
886,525	-39,08
886,697	-30,89
886,869	-6,31
887,04	12,12
887,212	-4,27
887,383	-0,17
887,555	-67,75
887,726	-14,51
887,897	20,31
888,069	-6,31
888,24	34,64
888,412	20,31
888,583	53,08
888,754	-37,03
888,926	-14,51
889,097	10,07
889,268	-28,84
889,44	-26,79
889,611	-45,23
889,782	12,12
889,953	-47,27
890,125	63,32
890,296	-61,61
890,467	-12,46
890,638	-16,55
890,809	12,12
890,98	-14,51
891,151	-37,03
891,323	22,36
891,494	8,02
891,665	-53,42
891,836	-28,84
892,007	1,88
892,178	-6,31
892,349	-4,27
892,52	-12,46
892,691	-4,27
892,862	-6,31
893,032	-26,79
893,203	1,88
893,374	-123,05
893,545	75,6
893,716	-34,99
893,887	-18,6
894,057	61,27
894,228	20,31
894,399	-6,31
894,57	-14,51
894,74	-16,55
894,911	-28,84
895,082	-39,08
895,253	46,93
895,423	5,97
895,594	53,08
895,764	-37,03
895,935	-10,41
896,106	14,17
896,276	-0,17
896,447	-12,46
896,617	30,55
896,788	-39,08
896,958	-65,71
897,129	75,6
897,299	10,07
897,47	73,56
897,64	-26,79
897,81	-20,65
897,981	-6,31
898,151	-63,66
898,322	28,5
898,492	-75,95
898,662	1,88
898,832	-55,47
899,003	-12,46
899,173	1,88
899,343	8,02
899,513	5,97
