Data from filtre 450_USB4F104151__2__11-55-00-304.txt Node

Date: Wed Apr 15 11:55:00 EDT 2026
User: LaboPhy
Spectrometer: USB4F10415
Trigger mode: 4
Integration Time (sec): 2,100000E-2
Scans to average: 1
Electric dark correction enabled: true
Nonlinearity correction enabled: false
Boxcar width: 0
XAxis mode: Wavelengths
Number of Pixels in Spectrum: 3648
>>>>>Begin Spectral Data<<<<<
178,204	-145,58
178,424	-145,58
178,644	-145,58
178,864	-131,24
179,084	-96,43
179,304	65,36
179,524	22,36
179,744	-47,27
179,964	67,41
180,184	-24,75
180,404	20,31
180,624	20,31
180,844	-67,75
181,064	-20,65
181,283	-47,27
181,503	-32,94
181,723	44,88
181,943	1,88
182,163	-10,41
182,383	71,51
182,602	28,5
182,822	16,21
183,042	-22,7
183,262	34,64
183,482	5,97
183,701	3,93
183,921	-55,47
184,141	-69,8
184,361	34,64
184,58	12,12
184,8	30,55
185,02	1,88
185,239	-47,27
185,459	-26,79
185,679	61,27
185,898	-55,47
186,118	53,08
186,338	-26,79
186,557	51,03
186,777	36,69
186,997	24,4
187,216	-22,7
187,436	59,22
187,655	46,93
187,875	38,74
188,095	-59,56
188,314	46,93
188,534	137,04
188,753	1,88
188,973	18,26
189,192	83,8
189,412	42,84
189,631	1,88
189,851	3,93
190,07	-20,65
190,29	48,98
190,509	-4,27
190,729	-4,27
190,948	-39,08
191,168	122,71
191,387	44,88
191,607	28,5
191,826	-2,22
192,045	28,5
192,265	-26,79
192,484	-37,03
192,704	83,8
192,923	1,88
193,142	38,74
193,362	34,64
193,581	10,07
193,8	-12,46
194,02	75,6
194,239	-2,22
194,458	46,93
194,678	10,07
194,897	20,31
195,116	-84,14
195,335	20,31
195,555	83,8
195,774	-49,32
195,993	65,36
196,212	26,45
196,432	96,08
196,651	55,12
196,87	22,36
197,089	-6,31
197,308	-6,31
197,528	51,03
197,747	-73,9
197,966	3,93
198,185	91,99
198,404	38,74
198,623	32,6
198,842	18,26
199,062	-8,36
199,281	18,26
199,5	46,93
199,719	53,08
199,938	34,64
200,157	-16,55
200,376	-20,65
200,595	126,8
200,814	-43,18
201,033	-6,31
201,252	1,88
201,471	38,74
201,69	28,5
201,909	48,98
202,128	59,22
202,347	-57,51
202,566	59,22
202,785	-24,75
203,004	-22,7
203,223	10,07
203,442	-30,89
203,661	-10,41
203,879	-10,41
204,098	-4,27
204,317	65,36
204,536	34,64
204,755	-34,99
204,974	42,84
205,193	75,6
205,411	-34,99
205,63	14,17
205,849	-80,04
206,068	48,98
206,287	26,45
206,505	69,46
206,724	-20,65
206,943	42,84
207,162	-63,66
207,381	14,17
207,599	-28,84
207,818	69,46
208,037	3,93
208,255	69,46
208,474	59,22
208,693	34,64
208,911	22,36
209,13	-0,17
209,349	22,36
209,567	22,36
209,786	3,93
210,005	77,65
210,223	42,84
210,442	-43,18
210,661	16,21
210,879	-32,94
211,098	-0,17
211,316	28,5
211,535	36,69
211,753	53,08
211,972	36,69
212,191	-12,46
212,409	79,7
212,628	-67,75
212,846	-6,31
213,065	61,27
213,283	-8,36
213,502	8,02
213,72	-28,84
213,938	75,6
214,157	42,84
214,375	-24,75
214,594	51,03
214,812	-37,03
215,031	-6,31
215,249	-41,13
215,467	32,6
215,686	-34,99
215,904	42,84
216,122	1,88
216,341	55,12
216,559	10,07
216,778	12,12
216,996	34,64
217,214	34,64
217,432	51,03
217,651	-12,46
217,869	10,07
218,087	40,79
218,306	51,03
218,524	-61,61
218,742	-12,46
218,96	20,31
219,179	-6,31
219,397	36,69
219,615	48,98
219,833	75,6
220,051	63,32
220,27	-22,7
220,488	42,84
220,706	85,84
220,924	-39,08
221,142	-14,51
221,36	38,74
221,578	10,07
221,796	98,13
222,015	34,64
222,233	34,64
222,451	-22,7
222,669	-61,61
222,887	10,07
223,105	10,07
223,323	-4,27
223,541	-61,61
223,759	18,26
223,977	-14,51
224,195	87,89
224,413	14,17
224,631	51,03
224,849	28,5
225,067	89,94
225,285	-4,27
225,503	1,88
225,721	-28,84
225,939	-75,95
226,157	-6,31
226,375	61,27
226,592	-10,41
226,81	100,18
227,028	28,5
227,246	5,97
227,464	-41,13
227,682	75,6
227,9	-10,41
228,117	42,84
228,335	69,46
228,553	-24,75
228,771	14,17
228,989	110,42
229,206	46,93
229,424	-14,51
229,642	-53,42
229,86	-6,31
230,077	14,17
230,295	59,22
230,513	44,88
230,731	77,65
230,948	12,12
231,166	42,84
231,384	22,36
231,601	-65,71
231,819	51,03
232,037	3,93
232,254	51,03
232,472	-10,41
232,689	-39,08
232,907	-6,31
233,125	55,12
233,342	59,22
233,56	-16,55
233,777	132,95
233,995	-14,51
234,213	51,03
234,43	-8,36
234,648	18,26
234,865	-39,08
235,083	-34,99
235,3	26,45
235,518	44,88
235,735	34,64
235,953	53,08
236,17	-14,51
236,388	-10,41
236,605	-10,41
236,822	122,71
237,04	-34,99
237,257	12,12
237,475	-26,79
237,692	-6,31
237,909	-30,89
238,127	77,65
238,344	46,93
238,562	1,88
238,779	-0,17
238,996	-6,31
239,214	55,12
239,431	73,56
239,648	1,88
239,865	-14,51
240,083	18,26
240,3	-30,89
240,517	48,98
240,735	91,99
240,952	59,22
241,169	77,65
241,386	-43,18
241,603	51,03
241,821	16,21
242,038	22,36
242,255	-39,08
242,472	28,5
242,689	-34,99
242,907	14,17
243,124	-28,84
243,341	42,84
243,558	-49,32
243,775	-14,51
243,992	16,21
244,209	-2,22
244,426	42,84
244,643	22,36
244,86	-86,19
245,078	26,45
245,295	3,93
245,512	-47,27
245,729	28,5
245,946	120,66
246,163	40,79
246,38	38,74
246,597	-28,84
246,814	10,07
247,031	-4,27
247,248	8,02
247,464	-12,46
247,681	12,12
247,898	-0,17
248,115	38,74
248,332	-49,32
248,549	77,65
248,766	26,45
248,983	32,6
249,2	3,93
249,417	26,45
249,633	30,55
249,85	71,51
250,067	10,07
250,284	-34,99
250,501	83,8
250,717	12,12
250,934	-10,41
251,151	77,65
251,368	-20,65
251,585	59,22
251,801	-26,79
252,018	-6,31
252,235	38,74
252,451	38,74
252,668	-2,22
252,885	-10,41
253,102	1,88
253,318	1,88
253,535	-20,65
253,752	-51,37
253,968	-22,7
254,185	-20,65
254,401	38,74
254,618	-30,89
254,835	28,5
255,051	-14,51
255,268	34,64
255,484	-14,51
255,701	-47,27
255,917	36,69
256,134	-47,27
256,351	-14,51
256,567	-34,99
256,784	40,79
257	-80,04
257,217	36,69
257,433	-0,17
257,65	14,17
257,866	55,12
258,082	-12,46
258,299	10,07
258,515	-22,7
258,732	59,22
258,948	-10,41
259,165	132,95
259,381	-6,31
259,597	-12,46
259,814	5,97
260,03	-34,99
260,246	30,55
260,463	69,46
260,679	46,93
260,895	38,74
261,112	-10,41
261,328	40,79
261,544	3,93
261,761	91,99
261,977	-14,51
262,193	-10,41
262,409	3,93
262,626	-14,51
262,842	-4,27
263,058	12,12
263,274	36,69
263,49	44,88
263,707	-14,51
263,923	1,88
264,139	-86,19
264,355	20,31
264,571	61,27
264,787	-22,7
265,004	34,64
265,22	-26,79
265,436	30,55
265,652	18,26
265,868	18,26
266,084	59,22
266,3	36,69
266,516	-20,65
266,732	10,07
266,948	-14,51
267,164	-18,6
267,38	12,12
267,596	67,41
267,812	85,84
268,028	34,64
268,244	-26,79
268,46	-16,55
268,676	-32,94
268,892	63,32
269,108	-18,6
269,324	-14,51
269,54	20,31
269,756	-14,51
269,972	-53,42
270,188	5,97
270,403	3,93
270,619	26,45
270,835	61,27
271,051	51,03
271,267	-51,37
271,483	26,45
271,698	18,26
271,914	34,64
272,13	10,07
272,346	-80,04
272,562	32,6
272,777	85,84
272,993	5,97
273,209	46,93
273,425	30,55
273,64	26,45
273,856	5,97
274,072	69,46
274,287	44,88
274,503	-14,51
274,719	12,12
274,934	5,97
275,15	26,45
275,366	-20,65
275,581	-6,31
275,797	-37,03
276,012	-55,47
276,228	-30,89
276,444	71,51
276,659	81,75
276,875	1,88
277,09	-12,46
277,306	-26,79
277,521	18,26
277,737	3,93
277,952	1,88
278,168	14,17
278,383	46,93
278,599	-80,04
278,814	71,51
279,03	-75,95
279,245	24,4
279,461	-10,41
279,676	-16,55
279,892	-59,56
280,107	5,97
280,322	-14,51
280,538	42,84
280,753	24,4
280,969	87,89
281,184	-34,99
281,399	51,03
281,615	14,17
281,83	38,74
282,045	-18,6
282,26	32,6
282,476	69,46
282,691	-6,31
282,906	12,12
283,122	10,07
283,337	14,17
283,552	28,5
283,767	-4,27
283,983	1,88
284,198	-6,31
284,413	61,27
284,628	10,07
284,843	100,18
285,058	-0,17
285,274	67,41
285,489	55,12
285,704	-34,99
285,919	38,74
286,134	-18,6
286,349	5,97
286,564	-6,31
286,779	24,4
286,995	18,26
287,21	-20,65
287,425	46,93
287,64	-63,66
287,855	71,51
288,07	-24,75
288,285	59,22
288,5	-2,22
288,715	46,93
288,93	1,88
289,145	-6,31
289,36	18,26
289,575	38,74
289,79	42,84
290,004	-67,75
290,219	-6,31
290,434	42,84
290,649	36,69
290,864	-24,75
291,079	-69,8
291,294	1,88
291,509	20,31
291,724	26,45
291,938	38,74
292,153	-43,18
292,368	18,26
292,583	65,36
292,798	-14,51
293,012	40,79
293,227	22,36
293,442	28,5
293,657	34,64
293,871	42,84
294,086	-6,31
294,301	22,36
294,516	3,93
294,73	24,4
294,945	3,93
295,16	55,12
295,374	-2,22
295,589	3,93
295,804	22,36
296,018	26,45
296,233	36,69
296,447	10,07
296,662	26,45
296,877	-18,6
297,091	8,02
297,306	12,12
297,52	-67,75
297,735	44,88
297,949	-47,27
298,164	-16,55
298,378	-12,46
298,593	-14,51
298,807	51,03
299,022	16,21
299,236	51,03
299,451	-12,46
299,665	-18,6
299,88	-22,7
300,094	18,26
300,309	3,93
300,523	-24,75
300,737	-14,51
300,952	-22,7
301,166	61,27
301,381	-112,81
301,595	26,45
301,809	26,45
302,024	28,5
302,238	-20,65
302,452	-51,37
302,667	69,46
302,881	26,45
303,095	85,84
303,309	55,12
303,524	18,26
303,738	-0,17
303,952	-16,55
304,166	46,93
304,381	-57,51
304,595	18,26
304,809	-45,23
305,023	-6,31
305,237	12,12
305,452	59,22
305,666	71,51
305,88	-34,99
306,094	-63,66
306,308	81,75
306,522	-37,03
306,736	-39,08
306,95	34,64
307,164	-55,47
307,379	18,26
307,593	20,31
307,807	100,18
308,021	71,51
308,235	18,26
308,449	1,88
308,663	-45,23
308,877	46,93
309,091	14,17
309,305	28,5
309,519	28,5
309,733	53,08
309,947	-4,27
310,161	114,52
310,374	48,98
310,588	-2,22
310,802	-24,75
311,016	69,46
311,23	-20,65
311,444	-2,22
311,658	59,22
311,872	5,97
312,085	114,52
312,299	108,37
312,513	63,32
312,727	-14,51
312,941	-96,43
313,154	71,51
313,368	-22,7
313,582	-18,6
313,796	1,88
314,009	-2,22
314,223	-14,51
314,437	-6,31
314,651	32,6
314,864	57,17
315,078	-24,75
315,292	-14,51
315,505	1,88
315,719	55,12
315,933	-53,42
316,146	10,07
316,36	-26,79
316,573	106,32
316,787	18,26
317,001	81,75
317,214	10,07
317,428	-4,27
317,641	-67,75
317,855	-4,27
318,068	16,21
318,282	10,07
318,495	79,7
318,709	16,21
318,922	30,55
319,136	28,5
319,349	12,12
319,563	34,64
319,776	-20,65
319,99	-30,89
320,203	34,64
320,417	-8,36
320,63	-34,99
320,843	51,03
321,057	79,7
321,27	-10,41
321,483	10,07
321,697	22,36
321,91	-22,7
322,124	42,84
322,337	-20,65
322,55	40,79
322,763	-12,46
322,977	42,84
323,19	-34,99
323,403	10,07
323,617	12,12
323,83	71,51
324,043	28,5
324,256	8,02
324,469	-26,79
324,683	38,74
324,896	-10,41
325,109	24,4
325,322	26,45
325,535	110,42
325,748	-6,31
325,962	18,26
326,175	-20,65
326,388	-37,03
326,601	-20,65
326,814	34,64
327,027	-80,04
327,24	61,27
327,453	-20,65
327,666	71,51
327,879	-39,08
328,092	36,69
328,305	22,36
328,518	51,03
328,731	-108,71
328,944	57,17
329,157	20,31
329,37	18,26
329,583	79,7
329,796	100,18
330,009	5,97
330,222	-4,27
330,435	30,55
330,648	-4,27
330,861	-0,17
331,073	3,93
331,286	10,07
331,499	-2,22
331,712	-6,31
331,925	91,99
332,138	28,5
332,35	61,27
332,563	55,12
332,776	22,36
332,989	10,07
333,202	-2,22
333,414	-6,31
333,627	14,17
333,84	69,46
334,053	-45,23
334,265	-67,75
334,478	-37,03
334,691	18,26
334,903	38,74
335,116	-34,99
335,329	-30,89
335,541	1,88
335,754	26,45
335,966	-18,6
336,179	-12,46
336,392	-8,36
336,604	-51,37
336,817	-8,36
337,029	22,36
337,242	-12,46
337,454	71,51
337,667	20,31
337,88	28,5
338,092	42,84
338,305	-22,7
338,517	-14,51
338,729	36,69
338,942	51,03
339,154	36,69
339,367	-51,37
339,579	73,56
339,792	-37,03
340,004	100,18
340,217	-14,51
340,429	34,64
340,641	-8,36
340,854	42,84
341,066	1,88
341,278	20,31
341,491	16,21
341,703	46,93
341,915	-69,8
342,128	-22,7
342,34	42,84
342,552	-16,55
342,764	79,7
342,977	34,64
343,189	42,84
343,401	61,27
343,613	-6,31
343,826	34,64
344,038	28,5
344,25	28,5
344,462	5,97
344,674	-10,41
344,886	12,12
345,099	26,45
345,311	5,97
345,523	51,03
345,735	3,93
345,947	106,32
346,159	53,08
346,371	-39,08
346,583	-8,36
346,795	-18,6
347,007	65,36
347,219	40,79
347,431	-14,51
347,643	57,17
347,855	-82,09
348,067	46,93
348,279	14,17
348,491	22,36
348,703	14,17
348,915	26,45
349,127	5,97
349,339	61,27
349,551	-30,89
349,763	67,41
349,975	-0,17
350,187	8,02
350,399	53,08
350,61	3,93
350,822	-39,08
351,034	83,8
351,246	-10,41
351,458	20,31
351,669	40,79
351,881	18,26
352,093	32,6
352,305	26,45
352,517	91,99
352,728	79,7
352,94	12,12
353,152	108,37
353,363	-71,85
353,575	83,8
353,787	46,93
353,999	-37,03
354,21	-0,17
354,422	1,88
354,633	-6,31
354,845	-39,08
355,057	-2,22
355,268	-69,8
355,48	53,08
355,692	-47,27
355,903	42,84
356,115	42,84
356,326	-39,08
356,538	44,88
356,749	12,12
356,961	40,79
357,172	-14,51
357,384	32,6
357,595	69,46
357,807	38,74
358,018	-24,75
358,23	-16,55
358,441	32,6
358,653	28,5
358,864	-4,27
359,075	-61,61
359,287	46,93
359,498	18,26
359,709	14,17
359,921	81,75
360,132	48,98
360,344	20,31
360,555	-18,6
360,766	34,64
360,977	-41,13
361,189	-20,65
361,4	-71,85
361,611	61,27
361,823	32,6
362,034	36,69
362,245	-12,46
362,456	-4,27
362,667	34,64
362,879	79,7
363,09	26,45
363,301	67,41
363,512	-37,03
363,723	-26,79
363,935	-86,19
364,146	26,45
364,357	10,07
364,568	22,36
364,779	-55,47
364,99	5,97
365,201	-14,51
365,412	22,36
365,623	44,88
365,834	91,99
366,045	55,12
366,256	-51,37
366,467	12,12
366,678	3,93
366,889	-4,27
367,1	-43,18
367,311	24,4
367,522	44,88
367,733	-6,31
367,944	-8,36
368,155	-34,99
368,366	22,36
368,577	51,03
368,788	63,32
368,999	-0,17
369,209	30,55
369,42	67,41
369,631	18,26
369,842	44,88
370,053	-6,31
370,264	46,93
370,474	81,75
370,685	1,88
370,896	16,21
371,107	83,8
371,317	-4,27
371,528	-20,65
371,739	126,8
371,95	69,46
372,16	26,45
372,371	8,02
372,582	-26,79
372,792	112,47
373,003	-20,65
373,214	-6,31
373,424	-24,75
373,635	-10,41
373,846	26,45
374,056	-2,22
374,267	-0,17
374,477	91,99
374,688	102,23
374,898	-12,46
375,109	-6,31
375,319	20,31
375,53	30,55
375,74	30,55
375,951	-43,18
376,161	67,41
376,372	-37,03
376,582	-18,6
376,793	36,69
377,003	36,69
377,214	42,84
377,424	-67,75
377,635	42,84
377,845	-51,37
378,055	57,17
378,266	8,02
378,476	57,17
378,686	-4,27
378,897	-0,17
379,107	-0,17
379,317	18,26
379,528	18,26
379,738	36,69
379,948	-20,65
380,158	-47,27
380,369	57,17
380,579	87,89
380,789	-0,17
380,999	42,84
381,21	30,55
381,42	61,27
381,63	57,17
381,84	5,97
382,05	59,22
382,261	34,64
382,471	-37,03
382,681	36,69
382,891	12,12
383,101	-45,23
383,311	63,32
383,521	12,12
383,731	-61,61
383,941	-4,27
384,151	102,23
384,361	-4,27
384,571	-28,84
384,781	51,03
384,991	102,23
385,201	5,97
385,411	87,89
385,621	51,03
385,831	18,26
386,041	10,07
386,251	22,36
386,461	126,8
386,671	5,97
386,881	42,84
387,091	-8,36
387,301	18,26
387,511	34,64
387,72	-53,42
387,93	36,69
388,14	-30,89
388,35	-28,84
388,56	73,56
388,769	-20,65
388,979	38,74
389,189	-22,7
389,399	36,69
389,609	61,27
389,818	36,69
390,028	-2,22
390,238	-75,95
390,447	-53,42
390,657	79,7
390,867	38,74
391,076	-39,08
391,286	46,93
391,496	16,21
391,705	-2,22
391,915	20,31
392,125	65,36
392,334	34,64
392,544	61,27
392,753	12,12
392,963	-73,9
393,172	20,31
393,382	67,41
393,591	48,98
393,801	-14,51
394,01	65,36
394,22	22,36
394,429	83,8
394,639	61,27
394,848	1,88
395,058	18,26
395,267	1,88
395,477	38,74
395,686	51,03
395,895	-43,18
396,105	75,6
396,314	28,5
396,524	26,45
396,733	48,98
396,942	63,32
397,152	-14,51
397,361	71,51
397,57	8,02
397,78	18,26
397,989	38,74
398,198	96,08
398,407	-53,42
398,617	-16,55
398,826	3,93
399,035	55,12
399,244	57,17
399,453	10,07
399,663	-67,75
399,872	85,84
400,081	-4,27
400,29	87,89
400,499	-22,7
400,708	14,17
400,917	14,17
401,127	53,08
401,336	-53,42
401,545	30,55
401,754	1,88
401,963	44,88
402,172	30,55
402,381	-43,18
402,59	-41,13
402,799	-14,51
403,008	100,18
403,217	-28,84
403,426	44,88
403,635	28,5
403,844	24,4
404,053	5,97
404,262	-16,55
404,471	51,03
404,68	40,79
404,888	63,32
405,097	-14,51
405,306	18,26
405,515	94,04
405,724	51,03
405,933	44,88
406,142	22,36
406,35	53,08
406,559	-22,7
406,768	-12,46
406,977	87,89
407,185	57,17
407,394	114,52
407,603	-14,51
407,812	53,08
408,02	42,84
408,229	77,65
408,438	-18,6
408,646	-39,08
408,855	28,5
409,064	-8,36
409,272	-47,27
409,481	-4,27
409,69	46,93
409,898	-69,8
410,107	16,21
410,315	75,6
410,524	-49,32
410,733	59,22
410,941	-10,41
411,15	-51,37
411,358	38,74
411,567	83,8
411,775	-53,42
411,984	38,74
412,192	-14,51
412,401	-0,17
412,609	30,55
412,818	14,17
413,026	34,64
413,234	-4,27
413,443	48,98
413,651	44,88
413,86	63,32
414,068	77,65
414,276	-0,17
414,485	-90,28
414,693	24,4
414,901	26,45
415,11	63,32
415,318	18,26
415,526	-6,31
415,734	65,36
415,943	77,65
416,151	91,99
416,359	5,97
416,567	46,93
416,776	-30,89
416,984	-20,65
417,192	143,19
417,4	-20,65
417,608	30,55
417,817	-10,41
418,025	73,56
418,233	-2,22
418,441	-12,46
418,649	10,07
418,857	1,88
419,065	10,07
419,273	24,4
419,481	77,65
419,689	-8,36
419,897	-24,75
420,105	-34,99
420,313	51,03
420,521	38,74
420,729	108,37
420,937	22,36
421,145	65,36
421,353	5,97
421,561	34,64
421,769	22,36
421,977	73,56
422,185	34,64
422,393	36,69
422,601	3,93
422,809	-18,6
423,017	32,6
423,224	-6,31
423,432	77,65
423,64	18,26
423,848	-39,08
424,056	-12,46
424,263	12,12
424,471	-2,22
424,679	32,6
424,887	-84,14
425,094	85,84
425,302	10,07
425,51	44,88
425,718	-14,51
425,925	26,45
426,133	16,21
426,341	26,45
426,548	20,31
426,756	-14,51
426,964	87,89
427,171	22,36
427,379	5,97
427,586	73,56
427,794	-61,61
428,001	91,99
428,209	18,26
428,417	18,26
428,624	-2,22
428,832	-10,41
429,039	1,88
429,247	-10,41
429,454	10,07
429,662	94,04
429,869	91,99
430,076	22,36
430,284	94,04
430,491	44,88
430,699	28,5
430,906	24,4
431,114	34,64
431,321	30,55
431,528	38,74
431,736	-32,94
431,943	42,84
432,15	57,17
432,358	106,32
432,565	24,4
432,772	-26,79
432,979	30,55
433,187	-14,51
433,394	44,88
433,601	67,41
433,808	22,36
434,016	79,7
434,223	34,64
434,43	16,21
434,637	104,28
434,844	42,84
435,052	44,88
435,259	100,18
435,466	75,6
435,673	116,56
435,88	1,88
436,087	46,93
436,294	100,18
436,501	5,97
436,708	10,07
436,915	28,5
437,122	38,74
437,329	51,03
437,537	26,45
437,743	94,04
437,95	104,28
438,157	71,51
438,364	143,19
438,571	38,74
438,778	24,4
438,985	149,33
439,192	40,79
439,399	102,23
439,606	26,45
439,813	85,84
440,02	102,23
440,227	128,85
440,433	206,67
440,64	116,56
440,847	44,88
441,054	118,61
441,261	153,43
441,467	65,36
441,674	147,28
441,881	223,06
442,088	159,57
442,294	225,11
442,501	135
442,708	272,21
442,914	264,02
443,121	266,07
443,328	208,72
443,534	253,78
443,741	309,07
443,948	329,55
444,154	335,7
444,361	415,57
444,568	419,66
444,774	489,29
444,981	550,73
445,187	546,64
445,394	608,08
445,6	704,33
445,807	857,93
446,013	917,32
446,22	989
446,426	1204,03
446,633	1312,58
446,839	1376,06
447,046	1578,81
447,252	1752,89
447,459	1969,98
447,665	2148,15
447,871	2606,89
448,078	3077,93
448,284	3487,52
448,491	4003,61
448,697	4636,43
448,903	5437,19
449,11	6342,39
449,316	7108,33
449,522	8195,8
449,728	9660,1
449,935	10933,93
450,141	12607,12
450,347	14855,79
450,553	15963,75
450,76	18054,72
450,966	21327,38
451,172	23172,6
451,378	25990,6
451,584	28376,48
451,791	31167,87
451,997	33490,26
452,203	36838,69
452,409	39001,35
452,615	40531,18
452,821	41946,33
453,027	42570,96
453,233	46083,22
453,44	46159
453,646	47658,11
453,852	49196,13
454,058	50662,48
454,264	50322,52
454,47	52071,48
454,676	51905,6
454,882	54946,83
455,088	50869,33
455,294	52298,81
455,5	54156,31
455,705	54504,47
455,911	53607,46
456,117	53322,79
456,323	53386,28
456,529	52143,16
456,735	54856,72
456,941	54606,87
457,147	55192,59
457,352	54311,96
457,558	53853,22
457,764	55391,24
457,97	55704,58
458,176	55235,59
458,381	55735,3
458,587	54494,23
458,793	55387,14
458,999	53150,76
459,204	57576,42
459,41	57644,01
459,616	53992,48
459,821	53892,13
460,027	54174,75
460,233	53261,35
460,438	50072,67
460,644	50664,53
460,85	47111,3
461,055	45020,33
461,261	43680,95
461,466	38350,09
461,672	35783,99
461,878	36193,58
462,083	31606,13
462,289	28622,24
462,494	26222,02
462,7	22996,47
462,905	20452,89
463,111	19543,6
463,316	17798,73
463,522	15703,65
463,727	14382,71
463,932	12652,18
464,138	11560,61
464,343	10397,37
464,549	8994,51
464,754	8398,55
464,959	7530,21
465,165	6522,61
465,37	5687,04
465,575	4910,86
465,781	4718,35
465,986	4263,7
466,191	3565,34
466,397	3155,75
466,602	2817,83
466,807	2692,91
467,012	2479,92
467,218	2322,23
467,423	2041,65
467,628	1886,01
467,833	1845,05
468,038	1603,39
468,244	1388,35
468,449	1447,74
468,654	1220,42
468,859	1062,73
469,064	1060,68
469,269	964,42
469,474	907,08
469,679	853,83
469,885	655,18
470,09	763,72
470,295	671,56
470,5	620,36
470,705	706,38
470,91	558,92
471,115	544,59
471,32	468,81
471,525	499,53
471,73	444,24
471,935	431,95
472,139	423,76
472,344	343,89
472,549	304,98
472,754	403,28
472,959	411,47
473,164	356,18
473,369	227,15
473,574	345,94
473,778	247,63
473,983	233,3
474,188	347,98
474,393	186,19
474,598	251,73
474,802	223,06
475,007	153,43
475,212	272,21
475,417	159,57
475,621	202,58
475,826	171,86
476,031	200,53
476,235	149,33
476,44	264,02
476,645	132,95
476,849	87,89
477,054	106,32
477,259	83,8
477,463	153,43
477,668	200,53
477,872	151,38
478,077	96,08
478,282	110,42
478,486	85,84
478,691	137,04
478,895	114,52
479,1	87,89
479,304	137,04
479,509	53,08
479,713	75,6
479,918	100,18
480,122	96,08
480,326	96,08
480,531	110,42
480,735	-12,46
480,94	28,5
481,144	96,08
481,348	94,04
481,553	63,32
481,757	73,56
481,961	96,08
482,166	83,8
482,37	81,75
482,574	77,65
482,778	8,02
482,983	94,04
483,187	106,32
483,391	114,52
483,595	77,65
483,8	116,56
484,004	61,27
484,208	96,08
484,412	69,46
484,616	77,65
484,821	34,64
485,025	24,4
485,229	48,98
485,433	44,88
485,637	85,84
485,841	63,32
486,045	69,46
486,249	85,84
486,453	61,27
486,657	141,14
486,861	67,41
487,065	14,17
487,269	36,69
487,473	91,99
487,677	100,18
487,881	124,76
488,085	65,36
488,289	59,22
488,493	91,99
488,697	91,99
488,901	75,6
489,105	32,6
489,309	-18,6
489,512	69,46
489,716	30,55
489,92	42,84
490,124	-30,89
490,328	67,41
490,531	79,7
490,735	34,64
490,939	-55,47
491,143	10,07
491,346	14,17
491,55	42,84
491,754	44,88
491,958	46,93
492,161	42,84
492,365	32,6
492,569	26,45
492,772	73,56
492,976	46,93
493,18	-22,7
493,383	18,26
493,587	106,32
493,79	59,22
493,994	-6,31
494,197	55,12
494,401	36,69
494,605	-18,6
494,808	12,12
495,012	75,6
495,215	94,04
495,419	51,03
495,622	-22,7
495,825	20,31
496,029	22,36
496,232	91,99
496,436	59,22
496,639	-26,79
496,843	57,17
497,046	71,51
497,249	59,22
497,453	57,17
497,656	38,74
497,859	30,55
498,063	-24,75
498,266	30,55
498,469	-12,46
498,673	53,08
498,876	5,97
499,079	-12,46
499,282	75,6
499,485	116,56
499,689	85,84
499,892	-20,65
500,095	-14,51
500,298	18,26
500,501	-18,6
500,705	32,6
500,908	42,84
501,111	-26,79
501,314	96,08
501,517	42,84
501,72	79,7
501,923	-22,7
502,126	55,12
502,329	-26,79
502,532	12,12
502,735	55,12
502,938	24,4
503,141	75,6
503,344	10,07
503,547	114,52
503,75	71,51
503,953	75,6
504,156	22,36
504,359	18,26
504,562	34,64
504,765	36,69
504,968	-59,56
505,17	16,21
505,373	69,46
505,576	71,51
505,779	71,51
505,982	24,4
506,185	-16,55
506,387	12,12
506,59	-8,36
506,793	-24,75
506,996	34,64
507,198	53,08
507,401	10,07
507,604	63,32
507,807	65,36
508,009	34,64
508,212	69,46
508,415	-18,6
508,617	-12,46
508,82	-77,99
509,022	20,31
509,225	20,31
509,428	-8,36
509,63	100,18
509,833	34,64
510,035	91,99
510,238	34,64
510,44	-69,8
510,643	5,97
510,845	14,17
511,048	120,66
511,25	5,97
511,453	38,74
511,655	26,45
511,858	14,17
512,06	79,7
512,262	44,88
512,465	30,55
512,667	85,84
512,87	-6,31
513,072	10,07
513,274	18,26
513,477	38,74
513,679	-63,66
513,881	-69,8
514,084	-2,22
514,286	57,17
514,488	12,12
514,69	85,84
514,893	-69,8
515,095	18,26
515,297	-20,65
515,499	16,21
515,701	1,88
515,904	12,12
516,106	83,8
516,308	34,64
516,51	63,32
516,712	59,22
516,914	26,45
517,116	57,17
517,318	83,8
517,52	71,51
517,722	-10,41
517,925	67,41
518,127	-0,17
518,329	42,84
518,531	42,84
518,733	10,07
518,935	-28,84
519,136	69,46
519,338	28,5
519,54	18,26
519,742	-2,22
519,944	-39,08
520,146	-37,03
520,348	96,08
520,55	-37,03
520,752	-30,89
520,954	44,88
521,155	-57,51
521,357	-6,31
521,559	14,17
521,761	18,26
521,963	48,98
522,164	-22,7
522,366	10,07
522,568	20,31
522,77	5,97
522,971	69,46
523,173	5,97
523,375	3,93
523,576	83,8
523,778	32,6
523,98	44,88
524,181	16,21
524,383	30,55
524,584	26,45
524,786	40,79
524,988	-10,41
525,189	-18,6
525,391	3,93
525,592	30,55
525,794	-20,65
525,995	69,46
526,197	75,6
526,398	75,6
526,6	-8,36
526,801	-20,65
527,003	-10,41
527,204	8,02
527,406	26,45
527,607	30,55
527,808	18,26
528,01	38,74
528,211	-8,36
528,412	3,93
528,614	-2,22
528,815	3,93
529,016	61,27
529,218	22,36
529,419	42,84
529,62	79,7
529,822	28,5
530,023	20,31
530,224	3,93
530,425	36,69
530,626	18,26
530,828	28,5
531,029	-45,23
531,23	-47,27
531,431	-6,31
531,632	-20,65
531,833	-8,36
532,035	53,08
532,236	-88,23
532,437	22,36
532,638	-2,22
532,839	-0,17
533,04	75,6
533,241	28,5
533,442	53,08
533,643	5,97
533,844	-22,7
534,045	-6,31
534,246	12,12
534,447	32,6
534,648	-0,17
534,849	91,99
535,05	83,8
535,251	16,21
535,451	-20,65
535,652	-28,84
535,853	42,84
536,054	51,03
536,255	57,17
536,456	61,27
536,657	-0,17
536,857	40,79
537,058	5,97
537,259	-18,6
537,46	16,21
537,66	73,56
537,861	-41,13
538,062	5,97
538,263	-6,31
538,463	10,07
538,664	-20,65
538,865	-18,6
539,065	-16,55
539,266	-10,41
539,466	-6,31
539,667	-45,23
539,868	55,12
540,068	46,93
540,269	16,21
540,469	83,8
540,67	-20,65
540,87	40,79
541,071	-63,66
541,271	65,36
541,472	87,89
541,672	-6,31
541,873	26,45
542,073	-20,65
542,274	-2,22
542,474	5,97
542,675	14,17
542,875	-65,71
543,075	-30,89
543,276	-0,17
543,476	-28,84
543,676	-53,42
543,877	94,04
544,077	24,4
544,277	57,17
544,478	12,12
544,678	-16,55
544,878	-6,31
545,078	-2,22
545,279	-10,41
545,479	42,84
545,679	-6,31
545,879	5,97
546,079	26,45
546,28	-73,9
546,48	10,07
546,68	30,55
546,88	38,74
547,08	-4,27
547,28	36,69
547,48	44,88
547,68	48,98
547,88	1,88
548,081	3,93
548,281	-26,79
548,481	-22,7
548,681	-34,99
548,881	-2,22
549,081	8,02
549,28	3,93
549,48	-55,47
549,68	100,18
549,88	-26,79
550,08	-0,17
550,28	44,88
550,48	75,6
550,68	53,08
550,88	46,93
551,08	5,97
551,279	34,64
551,479	5,97
551,679	26,45
551,879	20,31
552,079	36,69
552,278	-94,38
552,478	-37,03
552,678	-8,36
552,878	-14,51
553,077	-20,65
553,277	67,41
553,477	-20,65
553,676	22,36
553,876	-20,65
554,076	-55,47
554,275	26,45
554,475	53,08
554,674	38,74
554,874	79,7
555,074	-104,62
555,273	46,93
555,473	-4,27
555,672	8,02
555,872	16,21
556,071	38,74
556,271	63,32
556,47	3,93
556,67	44,88
556,869	32,6
557,068	16,21
557,268	-12,46
557,467	-8,36
557,667	12,12
557,866	-45,23
558,065	22,36
558,265	1,88
558,464	-8,36
558,663	14,17
558,863	57,17
559,062	-22,7
559,261	34,64
559,461	8,02
559,66	3,93
559,859	10,07
560,058	10,07
560,258	-51,37
560,457	42,84
560,656	38,74
560,855	59,22
561,054	20,31
561,253	42,84
561,453	26,45
561,652	-22,7
561,851	26,45
562,05	59,22
562,249	-10,41
562,448	-14,51
562,647	-12,46
562,846	108,37
563,045	22,36
563,244	71,51
563,443	-4,27
563,642	-51,37
563,841	1,88
564,04	59,22
564,239	71,51
564,438	26,45
564,637	-28,84
564,836	44,88
565,035	-41,13
565,234	40,79
565,432	63,32
565,631	14,17
565,83	-2,22
566,029	69,46
566,228	-8,36
566,427	-41,13
566,625	71,51
566,824	85,84
567,023	1,88
567,222	-6,31
567,42	14,17
567,619	59,22
567,818	-30,89
568,016	120,66
568,215	28,5
568,414	46,93
568,612	-2,22
568,811	-71,85
569,01	-28,84
569,208	51,03
569,407	26,45
569,605	145,24
569,804	18,26
570,002	-18,6
570,201	-59,56
570,4	24,4
570,598	40,79
570,797	30,55
570,995	-80,04
571,193	42,84
571,392	-39,08
571,59	14,17
571,789	46,93
571,987	28,5
572,186	-10,41
572,384	-32,94
572,582	-53,42
572,781	30,55
572,979	12,12
573,177	-24,75
573,376	8,02
573,574	8,02
573,772	-20,65
573,971	40,79
574,169	-92,33
574,367	-16,55
574,565	-4,27
574,763	1,88
574,962	38,74
575,16	-51,37
575,358	8,02
575,556	61,27
575,754	-0,17
575,952	-34,99
576,151	-49,32
576,349	59,22
576,547	1,88
576,745	22,36
576,943	1,88
577,141	53,08
577,339	-53,42
577,537	32,6
577,735	40,79
577,933	38,74
578,131	-26,79
578,329	-12,46
578,527	-63,66
578,725	-69,8
578,923	-10,41
579,121	51,03
579,319	-10,41
579,516	-32,94
579,714	126,8
579,912	46,93
580,11	-10,41
580,308	-28,84
580,506	10,07
580,704	18,26
580,901	-55,47
581,099	71,51
581,297	-80,04
581,495	67,41
581,692	-10,41
581,89	51,03
582,088	26,45
582,285	-14,51
582,483	87,89
582,681	42,84
582,878	-12,46
583,076	-2,22
583,274	-10,41
583,471	63,32
583,669	-2,22
583,866	20,31
584,064	-41,13
584,262	-51,37
584,459	-57,51
584,657	-39,08
584,854	-45,23
585,052	83,8
585,249	1,88
585,447	28,5
585,644	-34,99
585,841	100,18
586,039	36,69
586,236	79,7
586,434	-18,6
586,631	-43,18
586,828	-63,66
587,026	-6,31
587,223	-59,56
587,42	-22,7
587,618	42,84
587,815	-10,41
588,012	61,27
588,21	-22,7
588,407	69,46
588,604	28,5
588,801	18,26
588,999	-8,36
589,196	-10,41
589,393	-14,51
589,59	55,12
589,787	-4,27
589,984	5,97
590,182	30,55
590,379	-8,36
590,576	-77,99
590,773	-22,7
590,97	-14,51
591,167	26,45
591,364	28,5
591,561	48,98
591,758	77,65
591,955	-6,31
592,152	10,07
592,349	18,26
592,546	55,12
592,743	24,4
592,94	14,17
593,137	-49,32
593,334	-6,31
593,531	-26,79
593,727	26,45
593,924	28,5
594,121	-24,75
594,318	26,45
594,515	20,31
594,712	30,55
594,908	96,08
595,105	-75,95
595,302	-51,37
595,499	3,93
595,696	16,21
595,892	22,36
596,089	18,26
596,286	48,98
596,482	46,93
596,679	5,97
596,876	12,12
597,072	53,08
597,269	12,12
597,466	-53,42
597,662	38,74
597,859	73,56
598,055	-18,6
598,252	-26,79
598,448	55,12
598,645	89,94
598,841	89,94
599,038	34,64
599,234	3,93
599,431	-34,99
599,627	10,07
599,824	8,02
600,02	18,26
600,217	-0,17
600,413	26,45
600,609	28,5
600,806	75,6
601,002	-34,99
601,198	-8,36
601,395	79,7
601,591	36,69
601,787	30,55
601,984	77,65
602,18	-6,31
602,376	18,26
602,572	3,93
602,769	38,74
602,965	36,69
603,161	20,31
603,357	-24,75
603,553	42,84
603,75	-63,66
603,946	-39,08
604,142	-16,55
604,338	100,18
604,534	10,07
604,73	-2,22
604,926	10,07
605,122	-12,46
605,318	-49,32
605,514	59,22
605,71	-14,51
605,906	-22,7
606,102	-51,37
606,298	53,08
606,494	26,45
606,69	-16,55
606,886	-30,89
607,082	14,17
607,278	-53,42
607,474	-20,65
607,67	-4,27
607,866	10,07
608,062	18,26
608,257	-75,95
608,453	-75,95
608,649	14,17
608,845	10,07
609,041	-18,6
609,236	5,97
609,432	-32,94
609,628	-20,65
609,824	-34,99
610,019	-67,75
610,215	3,93
610,411	42,84
610,606	26,45
610,802	5,97
610,998	28,5
611,193	-26,79
611,389	-49,32
611,584	12,12
611,78	-77,99
611,976	-12,46
612,171	81,75
612,367	-14,51
612,562	-53,42
612,758	20,31
612,953	-20,65
613,149	34,64
613,344	67,41
613,539	-22,7
613,735	20,31
613,93	8,02
614,126	-14,51
614,321	26,45
614,517	-20,65
614,712	18,26
614,907	122,71
615,103	-43,18
615,298	96,08
615,493	-84,14
615,688	-10,41
615,884	-37,03
616,079	-12,46
616,274	3,93
616,47	-37,03
616,665	26,45
616,86	-4,27
617,055	10,07
617,25	-61,61
617,445	-116,9
617,641	-10,41
617,836	67,41
618,031	5,97
618,226	-53,42
618,421	26,45
618,616	46,93
618,811	-20,65
619,006	14,17
619,201	61,27
619,396	-30,89
619,591	51,03
619,786	20,31
619,981	59,22
620,176	59,22
620,371	-12,46
620,566	-2,22
620,761	44,88
620,956	10,07
621,151	5,97
621,346	1,88
621,541	-41,13
621,735	40,79
621,93	18,26
622,125	-14,51
622,32	-6,31
622,515	-49,32
622,709	8,02
622,904	16,21
623,099	-6,31
623,294	16,21
623,488	-2,22
623,683	5,97
623,878	42,84
624,072	1,88
624,267	-30,89
624,462	-28,84
624,656	10,07
624,851	-6,31
625,046	-6,31
625,24	16,21
625,435	48,98
625,629	-2,22
625,824	124,76
626,018	-4,27
626,213	34,64
626,407	-4,27
626,602	-26,79
626,796	-4,27
626,991	42,84
627,185	69,46
627,38	42,84
627,574	-34,99
627,768	-12,46
627,963	-51,37
628,157	-55,47
628,352	-55,47
628,546	10,07
628,74	-30,89
628,935	-14,51
629,129	30,55
629,323	-18,6
629,517	-18,6
629,712	5,97
629,906	-20,65
630,1	91,99
630,294	51,03
630,489	22,36
630,683	-37,03
630,877	24,4
631,071	10,07
631,265	-18,6
631,459	30,55
631,653	-0,17
631,848	-16,55
632,042	-14,51
632,236	-67,75
632,43	18,26
632,624	-77,99
632,818	83,8
633,012	14,17
633,206	-71,85
633,4	26,45
633,594	12,12
633,788	3,93
633,982	55,12
634,176	40,79
634,369	34,64
634,563	-8,36
634,757	-123,05
634,951	-71,85
635,145	77,65
635,339	-55,47
635,533	12,12
635,726	22,36
635,92	36,69
636,114	-14,51
636,308	-43,18
636,501	10,07
636,695	-24,75
636,889	1,88
637,083	42,84
637,276	-43,18
637,47	-59,56
637,664	-47,27
637,857	-10,41
638,051	-45,23
638,244	1,88
638,438	3,93
638,632	-18,6
638,825	-16,55
639,019	26,45
639,212	18,26
639,406	48,98
639,599	-63,66
639,793	61,27
639,986	-59,56
640,18	-28,84
640,373	63,32
640,567	46,93
640,76	42,84
640,954	32,6
641,147	34,64
641,34	75,6
641,534	44,88
641,727	38,74
641,92	36,69
642,114	8,02
642,307	-8,36
642,5	10,07
642,694	-39,08
642,887	-2,22
643,08	36,69
643,273	75,6
643,467	8,02
643,66	-30,89
643,853	38,74
644,046	46,93
644,239	-6,31
644,432	-43,18
644,626	5,97
644,819	-73,9
645,012	12,12
645,205	83,8
645,398	-37,03
645,591	18,26
645,784	26,45
645,977	-39,08
646,17	-71,85
646,363	-12,46
646,556	10,07
646,749	-6,31
646,942	22,36
647,135	-32,94
647,328	1,88
647,521	30,55
647,714	-39,08
647,907	5,97
648,099	51,03
648,292	26,45
648,485	18,26
648,678	10,07
648,871	83,8
649,064	22,36
649,256	16,21
649,449	-41,13
649,642	-45,23
649,835	3,93
650,027	10,07
650,22	12,12
650,413	20,31
650,605	-6,31
650,798	18,26
650,991	42,84
651,183	-34,99
651,376	77,65
651,568	-61,61
651,761	-18,6
651,954	-49,32
652,146	34,64
652,339	-39,08
652,531	5,97
652,724	34,64
652,916	-61,61
653,109	1,88
653,301	53,08
653,494	5,97
653,686	-4,27
653,879	77,65
654,071	1,88
654,263	26,45
654,456	-2,22
654,648	-4,27
654,84	-73,9
655,033	-55,47
655,225	-26,79
655,417	-57,51
655,61	51,03
655,802	-10,41
655,994	36,69
656,186	-34,99
656,379	63,32
656,571	40,79
656,763	-8,36
656,955	-4,27
657,148	-6,31
657,34	100,18
657,532	22,36
657,724	1,88
657,916	83,8
658,108	-8,36
658,3	55,12
658,492	51,03
658,684	1,88
658,876	-14,51
659,068	-116,9
659,26	5,97
659,452	51,03
659,644	-18,6
659,836	22,36
660,028	3,93
660,22	20,31
660,412	-47,27
660,604	5,97
660,796	12,12
660,988	38,74
661,18	-22,7
661,372	-34,99
661,563	12,12
661,755	89,94
661,947	-22,7
662,139	-28,84
662,331	20,31
662,522	26,45
662,714	-18,6
662,906	57,17
663,097	-65,71
663,289	-22,7
663,481	16,21
663,673	10,07
663,864	-10,41
664,056	-26,79
664,247	-22,7
664,439	71,51
664,631	-59,56
664,822	10,07
665,014	55,12
665,205	1,88
665,397	-39,08
665,588	87,89
665,78	28,5
665,971	28,5
666,163	-22,7
666,354	24,4
666,546	34,64
666,737	32,6
666,929	-28,84
667,12	36,69
667,311	10,07
667,503	42,84
667,694	34,64
667,885	73,56
668,077	53,08
668,268	14,17
668,459	36,69
668,651	69,46
668,842	-37,03
669,033	28,5
669,224	-30,89
669,416	83,8
669,607	-82,09
669,798	-30,89
669,989	42,84
670,18	3,93
670,371	32,6
670,563	51,03
670,754	51,03
670,945	26,45
671,136	65,36
671,327	8,02
671,518	36,69
671,709	87,89
671,9	1,88
672,091	51,03
672,282	-2,22
672,473	38,74
672,664	-26,79
672,855	46,93
673,046	8,02
673,237	73,56
673,428	1,88
673,619	5,97
673,809	40,79
674	26,45
674,191	34,64
674,382	-45,23
674,573	-34,99
674,764	55,12
674,954	-47,27
675,145	-77,99
675,336	24,4
675,527	30,55
675,717	24,4
675,908	55,12
676,099	-39,08
676,289	-16,55
676,48	-6,31
676,671	26,45
676,861	12,12
677,052	87,89
677,243	57,17
677,433	-4,27
677,624	-12,46
677,814	69,46
678,005	-6,31
678,195	96,08
678,386	40,79
678,576	-14,51
678,767	-57,51
678,957	-6,31
679,148	-8,36
679,338	-22,7
679,529	36,69
679,719	20,31
679,909	46,93
680,1	30,55
680,29	-12,46
680,481	-24,75
680,671	73,56
680,861	20,31
681,052	22,36
681,242	30,55
681,432	-24,75
681,622	-30,89
681,813	-32,94
682,003	51,03
682,193	5,97
682,383	-8,36
682,573	-12,46
682,764	46,93
682,954	26,45
683,144	-61,61
683,334	26,45
683,524	-10,41
683,714	8,02
683,904	10,07
684,094	-49,32
684,284	-53,42
684,474	-30,89
684,664	5,97
684,854	30,55
685,044	18,26
685,234	38,74
685,424	44,88
685,614	75,6
685,804	-2,22
685,994	44,88
686,184	-12,46
686,374	67,41
686,564	5,97
686,753	-22,7
686,943	-55,47
687,133	-22,7
687,323	44,88
687,513	30,55
687,702	26,45
687,892	-67,75
688,082	61,27
688,272	75,6
688,461	22,36
688,651	61,27
688,841	10,07
689,03	-12,46
689,22	20,31
689,41	-45,23
689,599	69,46
689,789	-18,6
689,979	1,88
690,168	30,55
690,358	44,88
690,547	-4,27
690,737	12,12
690,926	36,69
691,116	5,97
691,305	-55,47
691,495	-39,08
691,684	8,02
691,874	30,55
692,063	-14,51
692,252	18,26
692,442	-47,27
692,631	40,79
692,82	30,55
693,01	-12,46
693,199	53,08
693,388	-10,41
693,578	-65,71
693,767	55,12
693,956	44,88
694,146	30,55
694,335	30,55
694,524	16,21
694,713	-26,79
694,902	-63,66
695,092	10,07
695,281	-57,51
695,47	-34,99
695,659	34,64
695,848	1,88
696,037	-37,03
696,226	24,4
696,415	30,55
696,604	116,56
696,793	26,45
696,982	-41,13
697,171	1,88
697,36	28,5
697,549	-47,27
697,738	-2,22
697,927	-10,41
698,116	-20,65
698,305	44,88
698,494	-28,84
698,683	-6,31
698,872	77,65
699,061	1,88
699,25	-10,41
699,438	-26,79
699,627	40,79
699,816	44,88
700,005	61,27
700,193	-10,41
700,382	14,17
700,571	42,84
700,76	81,75
700,948	-16,55
701,137	42,84
701,326	-18,6
701,514	36,69
701,703	26,45
701,892	3,93
702,08	59,22
702,269	-24,75
702,457	59,22
702,646	-12,46
702,834	12,12
703,023	40,79
703,212	48,98
703,4	14,17
703,589	53,08
703,777	-12,46
703,965	-37,03
704,154	3,93
704,342	-12,46
704,531	42,84
704,719	61,27
704,907	67,41
705,096	-2,22
705,284	-28,84
705,472	63,32
705,661	-20,65
705,849	-32,94
706,037	53,08
706,226	63,32
706,414	42,84
706,602	-57,51
706,79	46,93
706,979	-2,22
707,167	-16,55
707,355	42,84
707,543	-61,61
707,731	77,65
707,919	20,31
708,107	67,41
708,296	-45,23
708,484	-8,36
708,672	22,36
708,86	94,04
709,048	26,45
709,236	26,45
709,424	65,36
709,612	-16,55
709,8	-67,75
709,988	-12,46
710,176	30,55
710,364	-4,27
710,551	36,69
710,739	14,17
710,927	-10,41
711,115	44,88
711,303	1,88
711,491	34,64
711,679	34,64
711,866	137,04
712,054	51,03
712,242	26,45
712,43	-6,31
712,617	5,97
712,805	87,89
712,993	20,31
713,181	-57,51
713,368	34,64
713,556	-30,89
713,744	-32,94
713,931	28,5
714,119	34,64
714,306	-4,27
714,494	14,17
714,682	38,74
714,869	34,64
715,057	-51,37
715,244	-39,08
715,432	12,12
715,619	59,22
715,807	-55,47
715,994	-4,27
716,182	61,27
716,369	3,93
716,556	-37,03
716,744	26,45
716,931	-47,27
717,119	-22,7
717,306	22,36
717,493	10,07
717,681	12,12
717,868	-18,6
718,055	77,65
718,242	-37,03
718,43	-22,7
718,617	18,26
718,804	24,4
718,991	-28,84
719,179	-51,37
719,366	-8,36
719,553	-12,46
719,74	3,93
719,927	-43,18
720,114	57,17
720,301	-12,46
720,488	10,07
720,676	-59,56
720,863	53,08
721,05	1,88
721,237	77,65
721,424	-4,27
721,611	59,22
721,798	28,5
721,985	18,26
722,172	-10,41
722,358	-55,47
722,545	-28,84
722,732	26,45
722,919	53,08
723,106	24,4
723,293	8,02
723,48	-86,19
723,667	-94,38
723,853	-4,27
724,04	55,12
724,227	22,36
724,414	-8,36
724,6	28,5
724,787	63,32
724,974	-2,22
725,161	-14,51
725,347	-26,79
725,534	-45,23
725,72	10,07
725,907	-14,51
726,094	20,31
726,28	-4,27
726,467	-8,36
726,653	-86,19
726,84	-4,27
727,027	71,51
727,213	-55,47
727,4	83,8
727,586	-10,41
727,773	1,88
727,959	-14,51
728,145	16,21
728,332	108,37
728,518	14,17
728,705	-55,47
728,891	16,21
729,077	46,93
729,264	3,93
729,45	57,17
729,636	59,22
729,823	26,45
730,009	38,74
730,195	-34,99
730,382	46,93
730,568	-2,22
730,754	5,97
730,94	3,93
731,126	-30,89
731,313	-4,27
731,499	-4,27
731,685	83,8
731,871	10,07
732,057	-4,27
732,243	34,64
732,429	12,12
732,615	75,6
732,801	1,88
732,987	-24,75
733,173	28,5
733,359	42,84
733,545	-2,22
733,731	-14,51
733,917	51,03
734,103	-63,66
734,289	3,93
734,475	-22,7
734,661	61,27
734,847	-34,99
735,033	-30,89
735,219	8,02
735,404	-51,37
735,59	5,97
735,776	1,88
735,962	36,69
736,148	38,74
736,333	32,6
736,519	-47,27
736,705	34,64
736,89	34,64
737,076	38,74
737,262	67,41
737,447	42,84
737,633	-8,36
737,819	12,12
738,004	-6,31
738,19	-14,51
738,375	42,84
738,561	12,12
738,747	38,74
738,932	36,69
739,118	91,99
739,303	5,97
739,489	-55,47
739,674	42,84
739,859	-20,65
740,045	22,36
740,23	61,27
740,416	-65,71
740,601	-4,27
740,786	-37,03
740,972	20,31
741,157	-18,6
741,342	-10,41
741,528	-14,51
741,713	59,22
741,898	51,03
742,084	14,17
742,269	-45,23
742,454	-6,31
742,639	-18,6
742,824	-2,22
743,01	28,5
743,195	1,88
743,38	61,27
743,565	18,26
743,75	-59,56
743,935	-12,46
744,12	-14,51
744,305	-80,04
744,49	8,02
744,675	-2,22
744,86	-45,23
745,045	-32,94
745,23	38,74
745,415	14,17
745,6	28,5
745,785	-22,7
745,97	-18,6
746,155	-4,27
746,34	87,89
746,525	-6,31
746,71	98,13
746,895	-18,6
747,079	36,69
747,264	10,07
747,449	-24,75
747,634	-0,17
747,819	40,79
748,003	-16,55
748,188	-30,89
748,373	53,08
748,557	-55,47
748,742	30,55
748,927	-34,99
749,111	20,31
749,296	36,69
749,481	24,4
749,665	8,02
749,85	-41,13
750,034	-0,17
750,219	36,69
750,404	-30,89
750,588	71,51
750,773	-61,61
750,957	12,12
751,141	16,21
751,326	-39,08
751,51	-12,46
751,695	28,5
751,879	-2,22
752,064	79,7
752,248	18,26
752,432	81,75
752,617	16,21
752,801	10,07
752,985	20,31
753,17	-53,42
753,354	5,97
753,538	-8,36
753,722	-6,31
753,907	-2,22
754,091	-39,08
754,275	18,26
754,459	-41,13
754,643	-14,51
754,828	-37,03
755,012	-30,89
755,196	-10,41
755,38	30,55
755,564	-14,51
755,748	-22,7
755,932	5,97
756,116	34,64
756,3	30,55
756,484	10,07
756,668	-0,17
756,852	-41,13
757,036	14,17
757,22	30,55
757,404	55,12
757,588	26,45
757,772	-14,51
757,956	-43,18
758,14	59,22
758,323	40,79
758,507	22,36
758,691	3,93
758,875	-20,65
759,059	83,8
759,242	28,5
759,426	3,93
759,61	20,31
759,794	-22,7
759,977	42,84
760,161	91,99
760,345	46,93
760,528	51,03
760,712	-18,6
760,895	3,93
761,079	-22,7
761,263	-26,79
761,446	-22,7
761,63	12,12
761,813	10,07
761,997	-2,22
762,18	14,17
762,364	145,24
762,547	-34,99
762,731	-37,03
762,914	48,98
763,098	10,07
763,281	-65,71
763,464	-4,27
763,648	16,21
763,831	34,64
764,015	-34,99
764,198	22,36
764,381	10,07
764,564	-55,47
764,748	14,17
764,931	-26,79
765,114	12,12
765,297	-37,03
765,481	-34,99
765,664	-32,94
765,847	44,88
766,03	102,23
766,213	-16,55
766,397	8,02
766,58	-67,75
766,763	67,41
766,946	22,36
767,129	-4,27
767,312	3,93
767,495	55,12
767,678	-8,36
767,861	59,22
768,044	-28,84
768,227	10,07
768,41	26,45
768,593	59,22
768,776	1,88
768,959	57,17
769,142	59,22
769,324	-20,65
769,507	-47,27
769,69	-18,6
769,873	16,21
770,056	67,41
770,239	-53,42
770,421	28,5
770,604	-55,47
770,787	48,98
770,97	-63,66
771,152	-18,6
771,335	-6,31
771,518	-37,03
771,7	-20,65
771,883	100,18
772,066	-12,46
772,248	53,08
772,431	67,41
772,613	-22,7
772,796	-6,31
772,978	-51,37
773,161	22,36
773,343	-39,08
773,526	-22,7
773,708	-4,27
773,891	12,12
774,073	12,12
774,256	-30,89
774,438	26,45
774,621	18,26
774,803	-22,7
774,985	-47,27
775,168	61,27
775,35	-43,18
775,532	-18,6
775,715	-12,46
775,897	-10,41
776,079	-110,76
776,261	26,45
776,444	-20,65
776,626	18,26
776,808	-0,17
776,99	77,65
777,173	-6,31
777,355	5,97
777,537	-10,41
777,719	-45,23
777,901	51,03
778,083	26,45
778,265	-51,37
778,447	1,88
778,629	-37,03
778,811	-20,65
778,993	-12,46
779,175	-18,6
779,357	1,88
779,539	-4,27
779,721	-2,22
779,903	38,74
780,085	-22,7
780,267	32,6
780,449	-28,84
780,631	28,5
780,812	63,32
780,994	30,55
781,176	20,31
781,358	3,93
781,54	-75,95
781,721	98,13
781,903	16,21
782,085	-20,65
782,267	48,98
782,448	40,79
782,63	18,26
782,812	28,5
782,993	67,41
783,175	53,08
783,357	-41,13
783,538	-12,46
783,72	-57,51
783,901	-59,56
784,083	83,8
784,264	63,32
784,446	55,12
784,627	30,55
784,809	-6,31
784,99	55,12
785,172	3,93
785,353	36,69
785,535	20,31
785,716	-6,31
785,897	5,97
786,079	-8,36
786,26	-14,51
786,441	-14,51
786,623	-67,75
786,804	44,88
786,985	-10,41
787,167	36,69
787,348	28,5
787,529	-20,65
787,71	10,07
787,891	34,64
788,073	-57,51
788,254	-28,84
788,435	30,55
788,616	42,84
788,797	-26,79
788,978	-34,99
789,159	30,55
789,34	12,12
789,522	51,03
789,703	-4,27
789,884	-32,94
790,065	55,12
790,246	69,46
790,427	-28,84
790,607	-2,22
790,788	42,84
790,969	-47,27
791,15	-30,89
791,331	-51,37
791,512	26,45
791,693	-0,17
791,874	10,07
792,054	32,6
792,235	26,45
792,416	-4,27
792,597	51,03
792,778	16,21
792,958	26,45
793,139	-121
793,32	30,55
793,5	-51,37
793,681	67,41
793,862	3,93
794,042	5,97
794,223	-34,99
794,404	-14,51
794,584	-4,27
794,765	-28,84
794,945	69,46
795,126	3,93
795,306	38,74
795,487	32,6
795,667	-37,03
795,848	36,69
796,028	26,45
796,209	8,02
796,389	46,93
796,57	10,07
796,75	20,31
796,93	10,07
797,111	-6,31
797,291	28,5
797,471	120,66
797,652	-67,75
797,832	-12,46
798,012	-20,65
798,192	-49,32
798,373	-14,51
798,553	48,98
798,733	-14,51
798,913	-4,27
799,093	34,64
799,274	-55,47
799,454	87,89
799,634	61,27
799,814	-8,36
799,994	-2,22
800,174	-55,47
800,354	-22,7
800,534	26,45
800,714	91,99
800,894	-41,13
801,074	-30,89
801,254	44,88
801,434	59,22
801,614	-92,33
801,794	-0,17
801,974	390,99
802,154	-24,75
802,334	100,18
802,514	-20,65
802,693	8,02
802,873	-2,22
803,053	-6,31
803,233	26,45
803,413	10,07
803,592	18,26
803,772	28,5
803,952	28,5
804,131	-53,42
804,311	-22,7
804,491	46,93
804,67	22,36
804,85	-47,27
805,03	22,36
805,209	20,31
805,389	-4,27
805,568	24,4
805,748	38,74
805,928	-28,84
806,107	-8,36
806,287	1,88
806,466	3,93
806,646	12,12
806,825	-22,7
807,004	42,84
807,184	22,36
807,363	38,74
807,543	-30,89
807,722	46,93
807,901	18,26
808,081	20,31
808,26	-61,61
808,439	-4,27
808,619	32,6
808,798	-88,23
808,977	5,97
809,156	-10,41
809,336	-28,84
809,515	-63,66
809,694	-8,36
809,873	-14,51
810,052	1,88
810,231	63,32
810,411	-86,19
810,59	-45,23
810,769	-28,84
810,948	10,07
811,127	-69,8
811,306	-16,55
811,485	51,03
811,664	53,08
811,843	-0,17
812,022	-30,89
812,201	-12,46
812,38	8,02
812,559	-16,55
812,737	38,74
812,916	-26,79
813,095	42,84
813,274	-20,65
813,453	38,74
813,632	5,97
813,811	96,08
813,989	12,12
814,168	-22,7
814,347	-12,46
814,526	-77,99
814,704	-26,79
814,883	55,12
815,062	12,12
815,24	-10,41
815,419	-14,51
815,598	30,55
815,776	-57,51
815,955	-20,65
816,133	-16,55
816,312	18,26
816,49	16,21
816,669	-4,27
816,847	14,17
817,026	-0,17
817,204	14,17
817,383	18,26
817,561	5,97
817,74	-34,99
817,918	-69,8
818,097	5,97
818,275	26,45
818,453	53,08
818,632	53,08
818,81	-47,27
818,988	-2,22
819,167	26,45
819,345	-22,7
819,523	-8,36
819,701	24,4
819,879	3,93
820,058	42,84
820,236	-6,31
820,414	59,22
820,592	36,69
820,77	3,93
820,948	1,88
821,127	42,84
821,305	59,22
821,483	20,31
821,661	36,69
821,839	-32,94
822,017	42,84
822,195	-0,17
822,373	34,64
822,551	1,88
822,729	8,02
822,907	10,07
823,085	28,5
823,262	20,31
823,44	-20,65
823,618	-20,65
823,796	85,84
823,974	-14,51
824,152	30,55
824,329	51,03
824,507	20,31
824,685	-28,84
824,863	-22,7
825,04	34,64
825,218	-22,7
825,396	24,4
825,574	10,07
825,751	-88,23
825,929	28,5
826,107	-30,89
826,284	-14,51
826,462	-14,51
826,639	75,6
826,817	-55,47
826,994	36,69
827,172	12,12
827,349	32,6
827,527	12,12
827,704	-37,03
827,882	46,93
828,059	-30,89
828,237	40,79
828,414	16,21
828,591	-0,17
828,769	104,28
828,946	-2,22
829,124	3,93
829,301	100,18
829,478	-4,27
829,655	-18,6
829,833	-28,84
830,01	8,02
830,187	3,93
830,364	-6,31
830,542	-45,23
830,719	-14,51
830,896	81,75
831,073	3,93
831,25	77,65
831,427	-16,55
831,604	14,17
831,782	-51,37
831,959	-28,84
832,136	-22,7
832,313	-77,99
832,49	14,17
832,667	12,12
832,844	3,93
833,021	38,74
833,198	110,42
833,374	18,26
833,551	-22,7
833,728	-20,65
833,905	75,6
834,082	3,93
834,259	-37,03
834,436	-39,08
834,612	-30,89
834,789	-22,7
834,966	22,36
835,143	-4,27
835,319	-8,36
835,496	55,12
835,673	-6,31
835,85	-22,7
836,026	-28,84
836,203	10,07
836,38	-47,27
836,556	10,07
836,733	55,12
836,909	106,32
837,086	-6,31
837,262	-34,99
837,439	42,84
837,616	-30,89
837,792	-18,6
837,968	20,31
838,145	-125,1
838,321	38,74
838,498	-28,84
838,674	-6,31
838,851	-47,27
839,027	26,45
839,203	-12,46
839,38	12,12
839,556	-12,46
839,732	3,93
839,909	36,69
840,085	67,41
840,261	-108,71
840,437	75,6
840,614	12,12
840,79	48,98
840,966	-28,84
841,142	-14,51
841,318	-14,51
841,494	22,36
841,671	42,84
841,847	-14,51
842,023	-59,56
842,199	55,12
842,375	100,18
842,551	-18,6
842,727	-20,65
842,903	26,45
843,079	-14,51
843,255	22,36
843,431	-77,99
843,607	-18,6
843,783	-34,99
843,959	1,88
844,134	-26,79
844,31	46,93
844,486	-14,51
844,662	-26,79
844,838	1,88
845,013	59,22
845,189	28,5
845,365	77,65
845,541	22,36
845,716	48,98
845,892	96,08
846,068	-22,7
846,244	-28,84
846,419	10,07
846,595	-51,37
846,77	-18,6
846,946	-43,18
847,122	-8,36
847,297	44,88
847,473	77,65
847,648	-43,18
847,824	3,93
847,999	-14,51
848,175	67,41
848,35	18,26
848,526	14,17
848,701	42,84
848,876	24,4
849,052	8,02
849,227	-34,99
849,403	-84,14
849,578	38,74
849,753	22,36
849,929	-22,7
850,104	-65,71
850,279	20,31
850,454	24,4
850,63	18,26
850,805	-43,18
850,98	38,74
851,155	8,02
851,33	59,22
851,505	-69,8
851,681	10,07
851,856	73,56
852,031	22,36
852,206	48,98
852,381	36,69
852,556	-41,13
852,731	-30,89
852,906	28,5
853,081	42,84
853,256	42,84
853,431	42,84
853,606	22,36
853,781	-39,08
853,956	-47,27
854,131	1,88
854,305	-12,46
854,48	44,88
854,655	-30,89
854,83	-10,41
855,005	24,4
855,18	10,07
855,354	-16,55
855,529	-55,47
855,704	-30,89
855,879	38,74
856,053	-51,37
856,228	-47,27
856,403	10,07
856,577	-12,46
856,752	8,02
856,926	-26,79
857,101	-41,13
857,276	38,74
857,45	36,69
857,625	1,88
857,799	-20,65
857,974	14,17
858,148	-14,51
858,323	98,13
858,497	-12,46
858,672	-10,41
858,846	-24,75
859,02	1,88
859,195	-22,7
859,369	-10,41
859,543	-0,17
859,718	22,36
859,892	3,93
860,066	28,5
860,241	-4,27
860,415	-37,03
860,589	3,93
860,763	-6,31
860,938	10,07
861,112	10,07
861,286	-41,13
861,46	-18,6
861,634	-51,37
861,808	-10,41
861,982	-43,18
862,157	-47,27
862,331	57,17
862,505	79,7
862,679	-22,7
862,853	-20,65
863,027	-22,7
863,201	137,04
863,375	-30,89
863,549	-12,46
863,722	30,55
863,896	-14,51
864,07	-77,99
864,244	28,5
864,418	-45,23
864,592	34,64
864,766	-0,17
864,939	-47,27
865,113	-67,75
865,287	44,88
865,461	-12,46
865,634	48,98
865,808	34,64
865,982	16,21
866,156	-32,94
866,329	-30,89
866,503	-16,55
866,676	85,84
866,85	1,88
867,024	18,26
867,197	-30,89
867,371	18,26
867,544	-45,23
867,718	10,07
867,891	-32,94
868,065	3,93
868,238	-8,36
868,412	12,12
868,585	-18,6
868,759	-49,32
868,932	-26,79
869,105	10,07
869,279	-26,79
869,452	-26,79
869,625	18,26
869,799	-6,31
869,972	-18,6
870,145	28,5
870,319	16,21
870,492	38,74
870,665	8,02
870,838	42,84
871,011	-37,03
871,185	-59,56
871,358	-28,84
871,531	44,88
871,704	-26,79
871,877	1,88
872,05	26,45
872,223	-55,47
872,396	10,07
872,569	-12,46
872,742	5,97
872,915	-16,55
873,088	-47,27
873,261	-18,6
873,434	22,36
873,607	-30,89
873,78	-6,31
873,953	-43,18
874,126	-2,22
874,299	12,12
874,471	1,88
874,644	65,36
874,817	24,4
874,99	77,65
875,163	-18,6
875,335	38,74
875,508	36,69
875,681	-4,27
875,853	-8,36
876,026	-10,41
876,199	102,23
876,371	-20,65
876,544	-114,86
876,717	83,8
876,889	63,32
877,062	57,17
877,234	-94,38
877,407	26,45
877,579	-51,37
877,752	42,84
877,924	-20,65
878,097	20,31
878,269	44,88
878,442	-18,6
878,614	-14,51
878,786	-10,41
878,959	-45,23
879,131	18,26
879,303	-71,85
879,476	38,74
879,648	20,31
879,82	-2,22
879,993	-34,99
880,165	-55,47
880,337	-45,23
880,509	-43,18
880,681	-67,75
880,854	-32,94
881,026	-6,31
881,198	16,21
881,37	-67,75
881,542	22,36
881,714	-2,22
881,886	12,12
882,058	-41,13
882,23	42,84
882,402	8,02
882,574	14,17
882,746	-69,8
882,918	51,03
883,09	71,51
883,262	1,88
883,434	46,93
883,606	-47,27
883,778	12,12
883,95	-22,7
884,122	-71,85
884,293	34,64
884,465	42,84
884,637	10,07
884,809	-53,42
884,98	-37,03
885,152	-24,75
885,324	1,88
885,496	-18,6
885,667	18,26
885,839	-12,46
886,011	36,69
886,182	-6,31
886,354	1,88
886,525	12,12
886,697	-55,47
886,869	10,07
887,04	-14,51
887,212	-26,79
887,383	12,12
887,555	12,12
887,726	-26,79
887,897	-88,23
888,069	-2,22
888,24	10,07
888,412	14,17
888,583	30,55
888,754	42,84
888,926	-22,7
889,097	-37,03
889,268	-34,99
889,44	-73,9
889,611	-49,32
889,782	-88,23
889,953	28,5
890,125	-16,55
890,296	14,17
890,467	-6,31
890,638	-16,55
890,809	32,6
890,98	67,41
891,151	1,88
891,323	-53,42
891,494	-59,56
891,665	8,02
891,836	116,56
892,007	34,64
892,178	26,45
892,349	26,45
892,52	1,88
892,691	-20,65
892,862	-20,65
893,032	-22,7
893,203	10,07
893,374	-6,31
893,545	71,51
893,716	-53,42
893,887	1,88
894,057	59,22
894,228	-18,6
894,399	22,36
894,57	3,93
894,74	-55,47
894,911	12,12
895,082	28,5
895,253	-34,99
895,423	-80,04
895,594	-12,46
895,764	-28,84
895,935	3,93
896,106	59,22
896,276	30,55
896,447	-2,22
896,617	3,93
896,788	20,31
896,958	-20,65
897,129	-39,08
897,299	-55,47
897,47	120,66
897,64	3,93
897,81	-39,08
897,981	20,31
898,151	3,93
898,322	-8,36
898,492	38,74
898,662	22,36
898,832	-30,89
899,003	-2,22
899,173	12,12
899,343	-75,95
899,513	20,31
