Data from filtre 450_USB4F104151__9__11-55-00-448.txt Node

Date: Wed Apr 15 11:55:00 EDT 2026
User: LaboPhy
Spectrometer: USB4F10415
Trigger mode: 4
Integration Time (sec): 2,100000E-2
Scans to average: 1
Electric dark correction enabled: true
Nonlinearity correction enabled: false
Boxcar width: 0
XAxis mode: Wavelengths
Number of Pixels in Spectrum: 3648
>>>>>Begin Spectral Data<<<<<
178,204	-70,48
178,424	-70,48
178,644	-70,48
178,864	-133,97
179,084	-41,81
179,304	-54,1
179,524	11,43
179,744	-13,14
179,964	-21,33
180,184	72,87
180,404	23,72
180,624	27,82
180,844	29,87
181,064	-13,14
181,283	-4,95
181,503	-41,81
181,723	-17,24
181,943	-47,96
182,163	62,63
182,383	-13,14
182,602	101,55
182,822	40,11
183,042	21,67
183,262	-23,38
183,482	-27,48
183,701	7,34
183,921	3,24
184,141	-0,85
184,361	36,01
184,58	-7
184,8	-99,16
185,02	42,15
185,239	5,29
185,459	-37,72
185,679	42,15
185,898	-78,68
186,118	-21,33
186,338	-58,2
186,557	29,87
186,777	-41,81
186,997	1,19
187,216	-25,43
187,436	31,91
187,655	44,2
187,875	-27,48
188,095	-31,57
188,314	-4,95
188,534	-9,05
188,753	-33,62
188,973	44,2
189,192	15,53
189,412	52,39
189,631	46,25
189,851	-0,85
190,07	-15,19
190,29	-62,29
190,509	40,11
190,729	-56,15
190,948	36,01
191,168	68,78
191,387	31,91
191,607	-52,05
191,826	58,54
192,045	-43,86
192,265	-43,86
192,484	-2,9
192,704	-54,1
192,923	-60,24
193,142	-7
193,362	29,87
193,581	27,82
193,8	-56,15
194,02	107,69
194,239	27,82
194,458	-13,14
194,678	-35,67
194,897	27,82
195,116	33,96
195,335	-31,57
195,555	44,2
195,774	36,01
195,993	-19,29
196,212	17,58
196,432	-13,14
196,651	38,06
196,87	-19,29
197,089	124,07
197,308	3,24
197,528	50,35
197,747	-45,91
197,966	19,63
198,185	-4,95
198,404	5,29
198,623	3,24
198,842	17,58
199,062	-0,85
199,281	15,53
199,5	-11,09
199,719	19,63
199,938	-31,57
200,157	29,87
200,376	-13,14
200,595	1,19
200,814	-4,95
201,033	-37,72
201,252	5,29
201,471	-45,91
201,69	-17,24
201,909	5,29
202,128	68,78
202,347	23,72
202,566	66,73
202,785	-95,06
203,004	3,24
203,223	5,29
203,442	-4,95
203,661	3,24
203,879	29,87
204,098	52,39
204,317	-29,52
204,536	44,2
204,755	19,63
204,974	27,82
205,193	54,44
205,411	56,49
205,63	36,01
205,849	31,91
206,068	-39,76
206,287	-82,77
206,505	-7
206,724	5,29
206,943	-13,14
207,162	-52,05
207,381	7,34
207,599	33,96
207,818	48,3
208,037	7,34
208,255	-29,52
208,474	-19,29
208,693	52,39
208,911	-52,05
209,13	-19,29
209,349	38,06
209,567	7,34
209,786	19,63
210,005	-25,43
210,223	7,34
210,442	-60,24
210,661	-15,19
210,879	-13,14
211,098	-0,85
211,316	-0,85
211,535	21,67
211,753	-27,48
211,972	-70,48
212,191	17,58
212,409	-2,9
212,628	-4,95
212,846	-54,1
213,065	46,25
213,283	33,96
213,502	-107,35
213,72	-47,96
213,938	-35,67
214,157	-43,86
214,375	-33,62
214,594	-4,95
214,812	21,67
215,031	-4,95
215,249	-23,38
215,467	-27,48
215,686	5,29
215,904	46,25
216,122	-41,81
216,341	-0,85
216,559	46,25
216,778	-15,19
216,996	-0,85
217,214	-37,72
217,432	-35,67
217,651	11,43
217,869	17,58
218,087	1,19
218,306	1,19
218,524	11,43
218,742	19,63
218,96	68,78
219,179	-52,05
219,397	40,11
219,615	5,29
219,833	29,87
220,051	13,48
220,27	87,21
220,488	-9,05
220,706	-4,95
220,924	33,96
221,142	-19,29
221,36	11,43
221,578	-13,14
221,796	-9,05
222,015	38,06
222,233	66,73
222,451	48,3
222,669	23,72
222,887	-37,72
223,105	-33,62
223,323	-62,29
223,541	-9,05
223,759	103,59
223,977	-25,43
224,195	60,59
224,413	38,06
224,631	40,11
224,849	-19,29
225,067	122,02
225,285	-47,96
225,503	-11,09
225,721	-9,05
225,939	-21,33
226,157	-50
226,375	21,67
226,592	-35,67
226,81	-37,72
227,028	-41,81
227,246	40,11
227,464	-15,19
227,682	-47,96
227,9	31,91
228,117	-21,33
228,335	-15,19
228,553	31,91
228,771	-29,52
228,989	9,39
229,206	23,72
229,424	29,87
229,642	-29,52
229,86	-146,26
230,077	-9,05
230,295	19,63
230,513	-29,52
230,731	11,43
230,948	52,39
231,166	11,43
231,384	-19,29
231,601	-25,43
231,819	44,2
232,037	-4,95
232,254	-45,91
232,472	46,25
232,689	-27,48
232,907	-60,24
233,125	3,24
233,342	46,25
233,56	-29,52
233,777	17,58
233,995	-19,29
234,213	7,34
234,43	-15,19
234,648	11,43
234,865	19,63
235,083	21,67
235,3	-4,95
235,518	70,83
235,735	29,87
235,953	3,24
236,17	15,53
236,388	3,24
236,605	-84,82
236,822	42,15
237,04	38,06
237,257	66,73
237,475	-41,81
237,692	29,87
237,909	11,43
238,127	-62,29
238,344	-58,2
238,562	-17,24
238,779	-35,67
238,996	-82,77
239,214	-21,33
239,431	27,82
239,648	-27,48
239,865	19,63
240,083	27,82
240,3	3,24
240,517	-13,14
240,735	11,43
240,952	3,24
241,169	15,53
241,386	13,48
241,603	31,91
241,821	-58,2
242,038	-23,38
242,255	-62,29
242,472	-62,29
242,689	-31,57
242,907	27,82
243,124	-13,14
243,341	-74,58
243,558	-4,95
243,775	3,24
243,992	23,72
244,209	3,24
244,426	21,67
244,643	3,24
244,86	5,29
245,078	-21,33
245,295	-33,62
245,512	-7
245,729	-2,9
245,946	1,19
246,163	17,58
246,38	-35,67
246,597	-27,48
246,814	1,19
247,031	3,24
247,248	36,01
247,464	60,59
247,681	-45,91
247,898	13,48
248,115	27,82
248,332	40,11
248,549	27,82
248,766	-2,9
248,983	-13,14
249,2	1,19
249,417	11,43
249,633	11,43
249,85	46,25
250,067	-47,96
250,284	52,39
250,501	1,19
250,717	85,16
250,934	-4,95
251,151	-50
251,368	52,39
251,585	72,87
251,801	-29,52
252,018	-7
252,235	-29,52
252,451	13,48
252,668	-4,95
252,885	-43,86
253,102	11,43
253,318	23,72
253,535	-19,29
253,752	31,91
253,968	19,63
254,185	-115,54
254,401	-7
254,618	-31,57
254,835	1,19
255,051	3,24
255,268	46,25
255,484	31,91
255,701	-37,72
255,917	7,34
256,134	-105,3
256,351	52,39
256,567	-19,29
256,784	-31,57
257	29,87
257,217	-7
257,433	29,87
257,65	-62,29
257,866	-4,95
258,082	-33,62
258,299	7,34
258,515	7,34
258,732	76,97
258,948	-29,52
259,165	17,58
259,381	-35,67
259,597	42,15
259,814	-37,72
260,03	-52,05
260,246	-25,43
260,463	-15,19
260,679	44,2
260,895	-78,68
261,112	93,35
261,328	5,29
261,544	5,29
261,761	3,24
261,977	-19,29
262,193	-23,38
262,409	7,34
262,626	50,35
262,842	11,43
263,058	-4,95
263,274	60,59
263,49	11,43
263,707	46,25
263,923	-35,67
264,139	19,63
264,355	-9,05
264,571	-21,33
264,787	-31,57
265,004	21,67
265,22	9,39
265,436	-27,48
265,652	-35,67
265,868	-93,01
266,084	-29,52
266,3	-13,14
266,516	-13,14
266,732	-31,57
266,948	-78,68
267,164	27,82
267,38	7,34
267,596	19,63
267,812	29,87
268,028	31,91
268,244	-54,1
268,46	11,43
268,676	-54,1
268,892	-70,48
269,108	-33,62
269,324	7,34
269,54	-58,2
269,756	27,82
269,972	-37,72
270,188	-13,14
270,403	-35,67
270,619	-7
270,835	7,34
271,051	-4,95
271,267	3,24
271,483	9,39
271,698	-11,09
271,914	70,83
272,13	-19,29
272,346	-17,24
272,562	97,45
272,777	3,24
272,993	-4,95
273,209	-9,05
273,425	-11,09
273,64	58,54
273,856	44,2
274,072	5,29
274,287	29,87
274,503	-21,33
274,719	36,01
274,934	3,24
275,15	29,87
275,366	19,63
275,581	-29,52
275,797	7,34
276,012	36,01
276,228	-21,33
276,444	-25,43
276,659	97,45
276,875	-45,91
277,09	-29,52
277,306	-54,1
277,521	-29,52
277,737	36,01
277,952	17,58
278,168	-11,09
278,383	-27,48
278,599	-25,43
278,814	-17,24
279,03	38,06
279,245	-0,85
279,461	5,29
279,676	60,59
279,892	25,77
280,107	-56,15
280,322	27,82
280,538	17,58
280,753	21,67
280,969	60,59
281,184	-58,2
281,399	7,34
281,615	-37,72
281,83	-78,68
282,045	-29,52
282,26	3,24
282,476	-39,76
282,691	11,43
282,906	-13,14
283,122	40,11
283,337	15,53
283,552	46,25
283,767	-9,05
283,983	-50
284,198	29,87
284,413	44,2
284,628	-23,38
284,843	19,63
285,058	-11,09
285,274	-0,85
285,489	-0,85
285,704	70,83
285,919	-68,44
286,134	9,39
286,349	11,43
286,564	-37,72
286,779	27,82
286,995	11,43
287,21	-7
287,425	-56,15
287,64	13,48
287,855	-4,95
288,07	-35,67
288,285	36,01
288,5	23,72
288,715	3,24
288,93	44,2
289,145	-13,14
289,36	-15,19
289,575	54,44
289,79	9,39
290,004	46,25
290,219	-56,15
290,434	1,19
290,649	-47,96
290,864	7,34
291,079	21,67
291,294	-43,86
291,509	-37,72
291,724	-13,14
291,938	-66,39
292,153	-23,38
292,368	-9,05
292,583	17,58
292,798	15,53
293,012	-19,29
293,227	-13,14
293,442	56,49
293,657	70,83
293,871	126,12
294,086	-60,24
294,301	62,63
294,516	103,59
294,73	-4,95
294,945	7,34
295,16	-13,14
295,374	-11,09
295,589	23,72
295,804	-45,91
296,018	-37,72
296,233	-70,48
296,447	-41,81
296,662	-2,9
296,877	36,01
297,091	-31,57
297,306	-27,48
297,52	-15,19
297,735	19,63
297,949	-11,09
298,164	-9,05
298,378	-33,62
298,593	-17,24
298,807	-2,9
299,022	9,39
299,236	-25,43
299,451	-27,48
299,665	60,59
299,88	27,82
300,094	-29,52
300,309	29,87
300,523	52,39
300,737	-31,57
300,952	-4,95
301,166	-37,72
301,381	-25,43
301,595	-9,05
301,809	-31,57
302,024	5,29
302,238	-47,96
302,452	-15,19
302,667	15,53
302,881	3,24
303,095	13,48
303,309	-52,05
303,524	-21,33
303,738	17,58
303,952	-33,62
304,166	-19,29
304,381	-54,1
304,595	44,2
304,809	42,15
305,023	27,82
305,237	-52,05
305,452	5,29
305,666	5,29
305,88	44,2
306,094	3,24
306,308	-13,14
306,522	13,48
306,736	-4,95
306,95	33,96
307,164	-25,43
307,379	-27,48
307,593	23,72
307,807	-17,24
308,021	1,19
308,235	-66,39
308,449	-17,24
308,663	-25,43
308,877	46,25
309,091	44,2
309,305	33,96
309,519	-4,95
309,733	-35,67
309,947	-37,72
310,161	-31,57
310,374	-11,09
310,588	40,11
310,802	-25,43
311,016	68,78
311,23	19,63
311,444	-25,43
311,658	21,67
311,872	68,78
312,085	36,01
312,299	79,02
312,513	87,21
312,727	5,29
312,941	-52,05
313,154	-2,9
313,368	17,58
313,582	-68,44
313,796	-25,43
314,009	25,77
314,223	27,82
314,437	-19,29
314,651	-15,19
314,864	-11,09
315,078	-58,2
315,292	-62,29
315,505	-70,48
315,719	-11,09
315,933	27,82
316,146	-37,72
316,36	-54,1
316,573	-4,95
316,787	44,2
317,001	13,48
317,214	7,34
317,428	-21,33
317,641	-23,38
317,855	-15,19
318,068	-7
318,282	-21,33
318,495	-7
318,709	21,67
318,922	5,29
319,136	79,02
319,349	-50
319,563	-13,14
319,776	19,63
319,99	-21,33
320,203	29,87
320,417	11,43
320,63	-13,14
320,843	17,58
321,057	5,29
321,27	15,53
321,483	-19,29
321,697	70,83
321,91	-17,24
322,124	23,72
322,337	5,29
322,55	-39,76
322,763	1,19
322,977	-11,09
323,19	15,53
323,403	60,59
323,617	7,34
323,83	103,59
324,043	27,82
324,256	-15,19
324,469	-31,57
324,683	38,06
324,896	9,39
325,109	15,53
325,322	-58,2
325,535	46,25
325,748	19,63
325,962	-47,96
326,175	1,19
326,388	15,53
326,601	11,43
326,814	-68,44
327,027	-31,57
327,24	38,06
327,453	-90,96
327,666	52,39
327,879	38,06
328,092	-4,95
328,305	19,63
328,518	27,82
328,731	29,87
328,944	-4,95
329,157	-23,38
329,37	-35,67
329,583	-13,14
329,796	60,59
330,009	-78,68
330,222	-33,62
330,435	40,11
330,648	23,72
330,861	13,48
331,073	13,48
331,286	38,06
331,499	3,24
331,712	-127,83
331,925	-23,38
332,138	17,58
332,35	58,54
332,563	-78,68
332,776	50,35
332,989	-9,05
333,202	-39,76
333,414	17,58
333,627	-58,2
333,84	-21,33
334,053	11,43
334,265	11,43
334,478	-64,34
334,691	-29,52
334,903	-35,67
335,116	-35,67
335,329	-45,91
335,541	13,48
335,754	9,39
335,966	54,44
336,179	105,64
336,392	44,2
336,604	-37,72
336,817	-93,01
337,029	-11,09
337,242	-4,95
337,454	-31,57
337,667	-31,57
337,88	-13,14
338,092	36,01
338,305	19,63
338,517	-11,09
338,729	-4,95
338,942	-4,95
339,154	-13,14
339,367	-74,58
339,579	54,44
339,792	-64,34
340,004	-0,85
340,217	-0,85
340,429	-62,29
340,641	-37,72
340,854	54,44
341,066	-21,33
341,278	27,82
341,491	-35,67
341,703	46,25
341,915	19,63
342,128	3,24
342,34	-0,85
342,552	-21,33
342,764	-27,48
342,977	70,83
343,189	52,39
343,401	64,68
343,613	31,91
343,826	-62,29
344,038	-0,85
344,25	23,72
344,462	-33,62
344,674	17,58
344,886	-50
345,099	-72,53
345,311	-37,72
345,523	5,29
345,735	-13,14
345,947	-70,48
346,159	-7
346,371	-4,95
346,583	31,91
346,795	40,11
347,007	-4,95
347,219	46,25
347,431	1,19
347,643	25,77
347,855	31,91
348,067	27,82
348,279	-43,86
348,491	-62,29
348,703	38,06
348,915	-29,52
349,127	-72,53
349,339	-25,43
349,551	-64,34
349,763	3,24
349,975	-0,85
350,187	58,54
350,399	29,87
350,61	-70,48
350,822	60,59
351,034	-50
351,246	-33,62
351,458	9,39
351,669	9,39
351,881	54,44
352,093	29,87
352,305	56,49
352,517	-9,05
352,728	42,15
352,94	31,91
353,152	-21,33
353,363	36,01
353,575	5,29
353,787	-13,14
353,999	7,34
354,21	58,54
354,422	-9,05
354,633	-33,62
354,845	-2,9
355,057	-21,33
355,268	-19,29
355,48	5,29
355,692	21,67
355,903	-13,14
356,115	-50
356,326	-84,82
356,538	13,48
356,749	3,24
356,961	1,19
357,172	36,01
357,384	52,39
357,595	36,01
357,807	44,2
358,018	-54,1
358,23	52,39
358,441	76,97
358,653	-25,43
358,864	-11,09
359,075	-23,38
359,287	9,39
359,498	52,39
359,709	15,53
359,921	-13,14
360,132	-45,91
360,344	-35,67
360,555	-19,29
360,766	-41,81
360,977	-33,62
361,189	-37,72
361,4	11,43
361,611	68,78
361,823	60,59
362,034	-7
362,245	-9,05
362,456	42,15
362,667	85,16
362,879	-19,29
363,09	-7
363,301	-47,96
363,512	-50
363,723	-2,9
363,935	15,53
364,146	-4,95
364,357	-0,85
364,568	7,34
364,779	-101,2
364,99	79,02
365,201	-35,67
365,412	-13,14
365,623	46,25
365,834	27,82
366,045	21,67
366,256	19,63
366,467	64,68
366,678	-33,62
366,889	-11,09
367,1	-4,95
367,311	15,53
367,522	19,63
367,733	-7
367,944	11,43
368,155	81,07
368,366	19,63
368,577	91,31
368,788	19,63
368,999	-41,81
369,209	21,67
369,42	52,39
369,631	40,11
369,842	-39,76
370,053	17,58
370,264	-0,85
370,474	27,82
370,685	-4,95
370,896	-13,14
371,107	54,44
371,317	-70,48
371,528	1,19
371,739	-4,95
371,95	5,29
372,16	38,06
372,371	-11,09
372,582	23,72
372,792	17,58
373,003	50,35
373,214	15,53
373,424	33,96
373,635	3,24
373,846	21,67
374,056	-7
374,267	62,63
374,477	29,87
374,688	9,39
374,898	38,06
375,109	7,34
375,319	-21,33
375,53	60,59
375,74	23,72
375,951	23,72
376,161	-39,76
376,372	3,24
376,582	-21,33
376,793	33,96
377,003	70,83
377,214	23,72
377,424	-21,33
377,635	21,67
377,845	1,19
378,055	11,43
378,266	5,29
378,476	33,96
378,686	-39,76
378,897	27,82
379,107	56,49
379,317	79,02
379,528	21,67
379,738	36,01
379,948	-68,44
380,158	42,15
380,369	-47,96
380,579	11,43
380,789	9,39
380,999	38,06
381,21	60,59
381,42	91,31
381,63	-21,33
381,84	3,24
382,05	23,72
382,261	19,63
382,471	42,15
382,681	-9,05
382,891	-54,1
383,101	-29,52
383,311	-74,58
383,521	-9,05
383,731	-37,72
383,941	-17,24
384,151	40,11
384,361	33,96
384,571	-9,05
384,781	-15,19
384,991	87,21
385,201	74,92
385,411	48,3
385,621	56,49
385,831	36,01
386,041	48,3
386,251	-54,1
386,461	25,77
386,671	62,63
386,881	11,43
387,091	29,87
387,301	93,35
387,511	-47,96
387,72	-25,43
387,93	3,24
388,14	-68,44
388,35	3,24
388,56	76,97
388,769	36,01
388,979	-13,14
389,189	-56,15
389,399	-23,38
389,609	-11,09
389,818	70,83
390,028	-29,52
390,238	19,63
390,447	23,72
390,657	21,67
390,867	-54,1
391,076	-74,58
391,286	1,19
391,496	52,39
391,705	-95,06
391,915	-19,29
392,125	-9,05
392,334	-4,95
392,544	-2,9
392,753	-27,48
392,963	-45,91
393,172	54,44
393,382	-37,72
393,591	40,11
393,801	-13,14
394,01	58,54
394,22	95,4
394,429	52,39
394,639	27,82
394,848	58,54
395,058	23,72
395,267	48,3
395,477	-43,86
395,686	44,2
395,895	76,97
396,105	48,3
396,314	97,45
396,524	50,35
396,733	7,34
396,942	-2,9
397,152	11,43
397,361	42,15
397,57	-35,67
397,78	23,72
397,989	-74,58
398,198	-29,52
398,407	-0,85
398,617	3,24
398,826	23,72
399,035	-29,52
399,244	-45,91
399,453	-27,48
399,663	13,48
399,872	50,35
400,081	-13,14
400,29	44,2
400,499	3,24
400,708	-7
400,917	13,48
401,127	-76,63
401,336	-23,38
401,545	85,16
401,754	13,48
401,963	27,82
402,172	-58,2
402,381	27,82
402,59	36,01
402,799	-15,19
403,008	95,4
403,217	27,82
403,426	31,91
403,635	15,53
403,844	-29,52
404,053	7,34
404,262	31,91
404,471	54,44
404,68	-4,95
404,888	15,53
405,097	19,63
405,306	17,58
405,515	7,34
405,724	46,25
405,933	91,31
406,142	-11,09
406,35	29,87
406,559	27,82
406,768	27,82
406,977	68,78
407,185	-74,58
407,394	27,82
407,603	-0,85
407,812	-13,14
408,02	7,34
408,229	-29,52
408,438	62,63
408,646	-2,9
408,855	13,48
409,064	3,24
409,272	-37,72
409,481	48,3
409,69	-62,29
409,898	31,91
410,107	27,82
410,315	-52,05
410,524	-29,52
410,733	44,2
410,941	11,43
411,15	68,78
411,358	11,43
411,567	29,87
411,775	56,49
411,984	48,3
412,192	3,24
412,401	19,63
412,609	29,87
412,818	-4,95
413,026	58,54
413,234	27,82
413,443	-70,48
413,651	-27,48
413,86	-17,24
414,068	44,2
414,276	81,07
414,485	-15,19
414,693	68,78
414,901	15,53
415,11	36,01
415,318	-33,62
415,526	13,48
415,734	25,77
415,943	23,72
416,151	62,63
416,359	-29,52
416,567	62,63
416,776	-35,67
416,984	-19,29
417,192	81,07
417,4	36,01
417,608	3,24
417,817	-17,24
418,025	-4,95
418,233	46,25
418,441	-23,38
418,649	74,92
418,857	-2,9
419,065	72,87
419,273	-43,86
419,481	-50
419,689	-27,48
419,897	-15,19
420,105	36,01
420,313	3,24
420,521	70,83
420,729	19,63
420,937	-19,29
421,145	62,63
421,353	29,87
421,561	38,06
421,769	44,2
421,977	-29,52
422,185	-4,95
422,393	91,31
422,601	42,15
422,809	44,2
423,017	-70,48
423,224	9,39
423,432	7,34
423,64	-4,95
423,848	89,26
424,056	-11,09
424,263	-4,95
424,471	-4,95
424,679	-4,95
424,887	-33,62
425,094	-0,85
425,302	-21,33
425,51	33,96
425,718	7,34
425,925	-9,05
426,133	13,48
426,341	60,59
426,548	17,58
426,756	-50
426,964	27,82
427,171	5,29
427,379	-31,57
427,586	-17,24
427,794	62,63
428,001	-23,38
428,209	52,39
428,417	85,16
428,624	21,67
428,832	23,72
429,039	36,01
429,247	52,39
429,454	29,87
429,662	76,97
429,869	44,2
430,076	52,39
430,284	17,58
430,491	15,53
430,699	64,68
430,906	-29,52
431,114	72,87
431,321	46,25
431,528	-52,05
431,736	38,06
431,943	115,88
432,15	79,02
432,358	101,55
432,565	-39,76
432,772	-4,95
432,979	29,87
433,187	87,21
433,394	97,45
433,601	3,24
433,808	44,2
434,016	-29,52
434,223	70,83
434,43	-4,95
434,637	117,93
434,844	-11,09
435,052	3,24
435,259	76,97
435,466	48,3
435,673	-9,05
435,88	72,87
436,087	25,77
436,294	148,65
436,501	54,44
436,708	60,59
436,915	76,97
437,122	11,43
437,329	9,39
437,537	66,73
437,743	11,43
437,95	60,59
438,157	11,43
438,364	50,35
438,571	23,72
438,778	60,59
438,985	62,63
439,192	76,97
439,399	85,16
439,606	60,59
439,813	156,84
440,02	76,97
440,227	87,21
440,433	130,22
440,64	66,73
440,847	111,78
441,054	70,83
441,261	201,9
441,467	150,7
441,674	95,4
441,881	181,42
442,088	187,56
442,294	228,52
442,501	234,66
442,708	167,08
442,914	224,42
443,121	183,46
443,328	169,13
443,534	214,18
443,741	240,81
443,948	265,38
444,154	298,15
444,361	433,32
444,568	527,52
444,774	457,89
444,981	474,28
445,187	609,44
445,394	638,11
445,6	652,45
445,807	826,53
446,013	789,66
446,22	982,17
446,426	1100,95
446,633	1365,14
446,839	1457,3
447,046	1553,55
447,252	1821,84
447,459	1957
447,665	2313,35
447,871	2667,65
448,078	3294,33
448,284	3406,97
448,491	3990,64
448,697	4711,52
448,903	5434,46
449,11	6317,13
449,316	6958,14
449,522	8313,9
449,728	9702,42
449,935	11045,89
450,141	12645,35
450,347	14611,4
450,553	16249,78
450,76	18066,33
450,966	21203,82
451,172	23296,84
451,378	26190,62
451,584	28439,29
451,791	31056,59
451,997	33598,12
452,203	37243,51
452,409	39526,99
452,615	40747,58
452,821	41972,27
453,027	42721,82
453,233	46453,22
453,44	45834,74
453,646	47645,14
453,852	49555,89
454,058	50903,46
454,264	50563,5
454,47	51949,97
454,676	51247,52
454,882	54919,52
455,088	50563,5
455,294	51974,55
455,5	54428,01
455,705	54622,57
455,911	53328,25
456,117	53172,61
456,323	53180,8
456,529	52240,78
456,735	54602,09
456,941	54827,37
457,147	55040,35
457,352	54102,39
457,558	54038,9
457,764	55718,23
457,97	55664,99
458,176	54733,16
458,381	55916,89
458,587	54423,92
458,793	55495
458,999	53221,76
459,204	58048,82
459,41	57436,48
459,616	53735,8
459,821	53991,79
460,027	53965,17
460,233	53145,98
460,438	50112,94
460,644	50520,49
460,85	47296,98
461,055	45154,81
461,261	43328,02
461,466	38437,47
461,672	35781,26
461,878	36115,08
462,083	31558,35
462,289	28672,76
462,494	26094,36
462,7	23339,85
462,905	20353,91
463,111	19567,49
463,316	17793,95
463,522	15799,23
463,727	14390,22
463,932	12688,36
464,138	11443,2
464,343	10337,29
464,549	8969,25
464,754	8377,39
464,959	7412,79
465,165	6601,8
465,37	5532,76
465,575	4856,93
465,781	4729,95
465,986	4150,38
466,191	3714,16
466,397	3355,77
466,602	2829,44
466,807	2739,33
467,012	2436,23
467,218	2229,38
467,423	2073,74
467,628	1870,99
467,833	1764,5
468,038	1625,23
468,244	1365,14
468,449	1356,95
468,654	1184,92
468,859	1029,27
469,064	1035,42
469,269	902,3
469,474	904,35
469,679	904,35
469,885	662,69
470,09	691,36
470,295	715,94
470,5	502,95
470,705	578,72
470,91	523,43
471,115	498,85
471,32	429,22
471,525	494,76
471,73	445,6
471,935	341,16
472,139	316,58
472,344	332,97
472,549	384,16
472,754	281,77
472,959	296,1
473,164	253,09
473,369	273,57
473,574	322,73
473,778	265,38
473,983	289,96
474,188	222,38
474,393	238,76
474,598	177,32
474,802	199,85
475,007	179,37
475,212	191,66
475,417	167,08
475,621	251,05
475,826	156,84
476,031	208,04
476,235	148,65
476,44	191,66
476,645	167,08
476,849	42,15
477,054	101,55
477,259	93,35
477,463	95,4
477,668	134,31
477,872	111,78
478,077	132,26
478,282	122,02
478,486	126,12
478,691	122,02
478,895	83,11
479,1	122,02
479,304	144,55
479,509	111,78
479,713	11,43
479,918	79,02
480,122	-7
480,326	58,54
480,531	119,98
480,735	91,31
480,94	7,34
481,144	76,97
481,348	95,4
481,553	21,67
481,757	-11,09
481,961	-13,14
482,166	13,48
482,37	-2,9
482,574	95,4
482,778	31,91
482,983	42,15
483,187	107,69
483,391	79,02
483,595	38,06
483,8	62,63
484,004	64,68
484,208	21,67
484,412	109,74
484,616	79,02
484,821	17,58
485,025	27,82
485,229	99,5
485,433	103,59
485,637	62,63
485,841	48,3
486,045	52,39
486,249	3,24
486,453	27,82
486,657	38,06
486,861	11,43
487,065	101,55
487,269	85,16
487,473	-2,9
487,677	64,68
487,881	11,43
488,085	62,63
488,289	93,35
488,493	-11,09
488,697	42,15
488,901	11,43
489,105	64,68
489,309	-4,95
489,512	72,87
489,716	85,16
489,92	122,02
490,124	64,68
490,328	-17,24
490,531	-45,91
490,735	54,44
490,939	-11,09
491,143	85,16
491,346	13,48
491,55	103,59
491,754	64,68
491,958	70,83
492,161	-7
492,365	23,72
492,569	-21,33
492,772	93,35
492,976	-9,05
493,18	-11,09
493,383	31,91
493,587	9,39
493,79	17,58
493,994	-54,1
494,197	70,83
494,401	-0,85
494,605	29,87
494,808	31,91
495,012	-50
495,215	21,67
495,419	95,4
495,622	11,43
495,825	-0,85
496,029	62,63
496,232	9,39
496,436	7,34
496,639	11,43
496,843	-2,9
497,046	23,72
497,249	33,96
497,453	1,19
497,656	9,39
497,859	40,11
498,063	38,06
498,266	27,82
498,469	-52,05
498,673	56,49
498,876	44,2
499,079	3,24
499,282	-13,14
499,485	70,83
499,689	107,69
499,892	-29,52
500,095	60,59
500,298	-13,14
500,501	27,82
500,705	36,01
500,908	-19,29
501,111	-4,95
501,314	-2,9
501,517	17,58
501,72	21,67
501,923	-47,96
502,126	-37,72
502,329	29,87
502,532	-4,95
502,735	60,59
502,938	23,72
503,141	3,24
503,344	-4,95
503,547	56,49
503,75	11,43
503,953	-9,05
504,156	74,92
504,359	-19,29
504,562	19,63
504,765	13,48
504,968	15,53
505,17	-29,52
505,373	5,29
505,576	48,3
505,779	-0,85
505,982	-113,49
506,185	62,63
506,387	-2,9
506,59	36,01
506,793	54,44
506,996	23,72
507,198	68,78
507,401	46,25
507,604	-41,81
507,807	-4,95
508,009	27,82
508,212	-21,33
508,415	66,73
508,617	-23,38
508,82	-21,33
509,022	7,34
509,225	-13,14
509,428	-7
509,63	36,01
509,833	7,34
510,035	7,34
510,238	-13,14
510,44	7,34
510,643	-21,33
510,845	46,25
511,048	13,48
511,25	-4,95
511,453	15,53
511,655	23,72
511,858	83,11
512,06	101,55
512,262	-21,33
512,465	15,53
512,667	58,54
512,87	-68,44
513,072	36,01
513,274	13,48
513,477	23,72
513,679	48,3
513,881	36,01
514,084	31,91
514,286	-17,24
514,488	81,07
514,69	-2,9
514,893	-29,52
515,095	21,67
515,297	-0,85
515,499	-39,76
515,701	-60,24
515,904	3,24
516,106	-27,48
516,308	21,67
516,51	15,53
516,712	-9,05
516,914	1,19
517,116	9,39
517,318	-54,1
517,52	-27,48
517,722	13,48
517,925	-31,57
518,127	-7
518,329	-9,05
518,531	-11,09
518,733	11,43
518,935	-31,57
519,136	3,24
519,338	56,49
519,54	19,63
519,742	46,25
519,944	-15,19
520,146	3,24
520,348	-9,05
520,55	-56,15
520,752	50,35
520,954	46,25
521,155	19,63
521,357	-31,57
521,559	-21,33
521,761	19,63
521,963	31,91
522,164	-43,86
522,366	-9,05
522,568	-31,57
522,77	-13,14
522,971	5,29
523,173	25,77
523,375	-9,05
523,576	1,19
523,778	-45,91
523,98	-13,14
524,181	5,29
524,383	-54,1
524,584	-25,43
524,786	48,3
524,988	-43,86
525,189	-13,14
525,391	-39,76
525,592	1,19
525,794	-13,14
525,995	52,39
526,197	21,67
526,398	44,2
526,6	3,24
526,801	29,87
527,003	-35,67
527,204	-4,95
527,406	-95,06
527,607	3,24
527,808	13,48
528,01	76,97
528,211	-9,05
528,412	-74,58
528,614	38,06
528,815	-54,1
529,016	13,48
529,218	-21,33
529,419	-2,9
529,62	-27,48
529,822	38,06
530,023	36,01
530,224	-15,19
530,425	54,44
530,626	-21,33
530,828	-19,29
531,029	-33,62
531,23	44,2
531,431	-21,33
531,632	25,77
531,833	-35,67
532,035	17,58
532,236	-23,38
532,437	-29,52
532,638	21,67
532,839	-45,91
533,04	-19,29
533,241	-11,09
533,442	-33,62
533,643	-58,2
533,844	-95,06
534,045	19,63
534,246	56,49
534,447	42,15
534,648	-109,4
534,849	70,83
535,05	48,3
535,251	11,43
535,451	-31,57
535,652	1,19
535,853	-2,9
536,054	-11,09
536,255	27,82
536,456	-62,29
536,657	29,87
536,857	-25,43
537,058	19,63
537,259	-19,29
537,46	44,2
537,66	68,78
537,861	-25,43
538,062	-2,9
538,263	3,24
538,463	1,19
538,664	76,97
538,865	-60,24
539,065	-25,43
539,266	-4,95
539,466	-4,95
539,667	99,5
539,868	-60,24
540,068	-27,48
540,269	40,11
540,469	44,2
540,67	-31,57
540,87	54,44
541,071	-0,85
541,271	44,2
541,472	1,19
541,672	-15,19
541,873	-23,38
542,073	38,06
542,274	38,06
542,474	11,43
542,675	44,2
542,875	-54,1
543,075	19,63
543,276	36,01
543,476	-11,09
543,676	-15,19
543,877	-33,62
544,077	31,91
544,277	11,43
544,478	-0,85
544,678	25,77
544,878	19,63
545,078	5,29
545,279	-97,11
545,479	-68,44
545,679	-50
545,879	-62,29
546,079	-43,86
546,28	-43,86
546,48	21,67
546,68	7,34
546,88	33,96
547,08	-29,52
547,28	-25,43
547,48	-70,48
547,68	-11,09
547,88	-0,85
548,081	31,91
548,281	13,48
548,481	46,25
548,681	40,11
548,881	95,4
549,081	48,3
549,28	-37,72
549,48	-27,48
549,68	25,77
549,88	7,34
550,08	-31,57
550,28	36,01
550,48	72,87
550,68	-13,14
550,88	-37,72
551,08	7,34
551,279	19,63
551,479	13,48
551,679	-4,95
551,879	11,43
552,079	7,34
552,278	-31,57
552,478	21,67
552,678	-21,33
552,878	-9,05
553,077	-11,09
553,277	40,11
553,477	-50
553,676	7,34
553,876	40,11
554,076	-19,29
554,275	-9,05
554,475	1,19
554,674	99,5
554,874	17,58
555,074	-0,85
555,273	7,34
555,473	23,72
555,672	-11,09
555,872	-2,9
556,071	40,11
556,271	66,73
556,47	-2,9
556,67	-50
556,869	-23,38
557,068	-4,95
557,268	54,44
557,467	-35,67
557,667	5,29
557,866	7,34
558,065	36,01
558,265	-37,72
558,464	-54,1
558,663	19,63
558,863	17,58
559,062	44,2
559,261	-2,9
559,461	64,68
559,66	21,67
559,859	27,82
560,058	11,43
560,258	-80,72
560,457	83,11
560,656	-9,05
560,855	-43,86
561,054	31,91
561,253	46,25
561,453	-47,96
561,652	-29,52
561,851	-29,52
562,05	-2,9
562,249	-29,52
562,448	11,43
562,647	-78,68
562,846	-13,14
563,045	-0,85
563,244	-66,39
563,443	13,48
563,642	-45,91
563,841	-9,05
564,04	-29,52
564,239	17,58
564,438	44,2
564,637	3,24
564,836	-54,1
565,035	-19,29
565,234	7,34
565,432	60,59
565,631	3,24
565,83	33,96
566,029	-2,9
566,228	-23,38
566,427	60,59
566,625	-82,77
566,824	-21,33
567,023	5,29
567,222	21,67
567,42	15,53
567,619	-4,95
567,818	-9,05
568,016	111,78
568,215	-9,05
568,414	38,06
568,612	19,63
568,811	-54,1
569,01	-33,62
569,208	54,44
569,407	27,82
569,605	13,48
569,804	-54,1
570,002	27,82
570,201	-35,67
570,4	-45,91
570,598	46,25
570,797	-33,62
570,995	-23,38
571,193	11,43
571,392	-35,67
571,59	-23,38
571,789	-35,67
571,987	9,39
572,186	-9,05
572,384	3,24
572,582	3,24
572,781	-33,62
572,979	-19,29
573,177	-4,95
573,376	-45,91
573,574	-58,2
573,772	15,53
573,971	-43,86
574,169	-33,62
574,367	-2,9
574,565	-88,92
574,763	9,39
574,962	1,19
575,16	-39,76
575,358	-78,68
575,556	31,91
575,754	-0,85
575,952	-17,24
576,151	-15,19
576,349	-35,67
576,547	15,53
576,745	23,72
576,943	-29,52
577,141	-82,77
577,339	-62,29
577,537	5,29
577,735	21,67
577,933	-13,14
578,131	11,43
578,329	-33,62
578,527	3,24
578,725	-27,48
578,923	-0,85
579,121	13,48
579,319	-45,91
579,516	-43,86
579,714	48,3
579,912	64,68
580,11	-29,52
580,308	-62,29
580,506	-25,43
580,704	-56,15
580,901	-21,33
581,099	9,39
581,297	-78,68
581,495	-23,38
581,692	-23,38
581,89	44,2
582,088	-9,05
582,285	-25,43
582,483	-35,67
582,681	31,91
582,878	42,15
583,076	3,24
583,274	21,67
583,471	36,01
583,669	44,2
583,866	-23,38
584,064	-58,2
584,262	31,91
584,459	-64,34
584,657	-25,43
584,854	19,63
585,052	1,19
585,249	52,39
585,447	-84,82
585,644	-58,2
585,841	-43,86
586,039	19,63
586,236	11,43
586,434	-64,34
586,631	-58,2
586,828	-41,81
587,026	-11,09
587,223	-13,14
587,42	-41,81
587,618	42,15
587,815	3,24
588,012	-45,91
588,21	60,59
588,407	31,91
588,604	33,96
588,801	-54,1
588,999	-2,9
589,196	52,39
589,393	-86,87
589,59	27,82
589,787	27,82
589,984	15,53
590,182	-70,48
590,379	-19,29
590,576	27,82
590,773	-31,57
590,97	21,67
591,167	-4,95
591,364	-37,72
591,561	23,72
591,758	1,19
591,955	60,59
592,152	-25,43
592,349	5,29
592,546	-43,86
592,743	-31,57
592,94	52,39
593,137	-27,48
593,334	-7
593,531	-52,05
593,727	-27,48
593,924	44,2
594,121	-11,09
594,318	17,58
594,515	19,63
594,712	-21,33
594,908	-37,72
595,105	-11,09
595,302	3,24
595,499	-27,48
595,696	-9,05
595,892	-54,1
596,089	-17,24
596,286	-41,81
596,482	23,72
596,679	-23,38
596,876	-21,33
597,072	-58,2
597,269	-27,48
597,466	-25,43
597,662	3,24
597,859	-56,15
598,055	52,39
598,252	-72,53
598,448	3,24
598,645	21,67
598,841	-31,57
599,038	11,43
599,234	-7
599,431	-78,68
599,627	-21,33
599,824	-31,57
600,02	-21,33
600,217	-29,52
600,413	-13,14
600,609	-41,81
600,806	72,87
601,002	-11,09
601,198	-0,85
601,395	-74,58
601,591	-41,81
601,787	-4,95
601,984	19,63
602,18	-7
602,376	23,72
602,572	25,77
602,769	70,83
602,965	-39,76
603,161	60,59
603,357	-25,43
603,553	11,43
603,75	-37,72
603,946	-58,2
604,142	-0,85
604,338	60,59
604,534	13,48
604,73	-9,05
604,926	-50
605,122	11,43
605,318	-33,62
605,514	-13,14
605,71	-2,9
605,906	23,72
606,102	-0,85
606,298	111,78
606,494	-31,57
606,69	13,48
606,886	-0,85
607,082	17,58
607,278	-52,05
607,474	15,53
607,67	3,24
607,866	11,43
608,062	-62,29
608,257	-17,24
608,453	-13,14
608,649	-54,1
608,845	-0,85
609,041	13,48
609,236	5,29
609,432	-37,72
609,628	52,39
609,824	60,59
610,019	-39,76
610,215	27,82
610,411	-62,29
610,606	19,63
610,802	11,43
610,998	-4,95
611,193	27,82
611,389	-27,48
611,584	52,39
611,78	-19,29
611,976	31,91
612,171	-2,9
612,367	-41,81
612,562	5,29
612,758	-37,72
612,953	11,43
613,149	25,77
613,344	76,97
613,539	-13,14
613,735	-11,09
613,93	-27,48
614,126	-37,72
614,321	-121,68
614,517	-4,95
614,712	-52,05
614,907	56,49
615,103	21,67
615,298	3,24
615,493	-86,87
615,688	-54,1
615,884	-52,05
616,079	-74,58
616,274	-37,72
616,47	-11,09
616,665	13,48
616,86	7,34
617,055	-13,14
617,25	56,49
617,445	-7
617,641	-25,43
617,836	-78,68
618,031	-31,57
618,226	9,39
618,421	-62,29
618,616	-37,72
618,811	15,53
619,006	-37,72
619,201	44,2
619,396	31,91
619,591	23,72
619,786	52,39
619,981	7,34
620,176	-9,05
620,371	-13,14
620,566	-13,14
620,761	13,48
620,956	33,96
621,151	9,39
621,346	3,24
621,541	-29,52
621,735	3,24
621,93	31,91
622,125	-47,96
622,32	-52,05
622,515	-21,33
622,709	7,34
622,904	27,82
623,099	-2,9
623,294	-25,43
623,488	-41,81
623,683	-41,81
623,878	-11,09
624,072	-15,19
624,267	-27,48
624,462	-13,14
624,656	-99,16
624,851	-60,24
625,046	-4,95
625,24	-64,34
625,435	-41,81
625,629	-4,95
625,824	85,16
626,018	3,24
626,213	11,43
626,407	-0,85
626,602	66,73
626,796	3,24
626,991	54,44
627,185	-13,14
627,38	-56,15
627,574	-2,9
627,768	-54,1
627,963	-45,91
628,157	7,34
628,352	23,72
628,546	1,19
628,74	-52,05
628,935	-41,81
629,129	-54,1
629,323	-15,19
629,517	-82,77
629,712	-21,33
629,906	-37,72
630,1	-21,33
630,294	-0,85
630,489	5,29
630,683	-97,11
630,877	-29,52
631,071	-2,9
631,265	-2,9
631,459	31,91
631,653	-11,09
631,848	11,43
632,042	5,29
632,236	-25,43
632,43	54,44
632,624	1,19
632,818	-39,76
633,012	-50
633,206	56,49
633,4	-2,9
633,594	1,19
633,788	-37,72
633,982	-21,33
634,176	-29,52
634,369	-11,09
634,563	-35,67
634,757	-52,05
634,951	-13,14
635,145	-0,85
635,339	-41,81
635,533	-35,67
635,726	3,24
635,92	-13,14
636,114	-17,24
636,308	-15,19
636,501	5,29
636,695	-4,95
636,889	-17,24
637,083	15,53
637,276	-68,44
637,47	-21,33
637,664	60,59
637,857	-35,67
638,051	23,72
638,244	11,43
638,438	5,29
638,632	21,67
638,825	-47,96
639,019	46,25
639,212	-31,57
639,406	-21,33
639,599	5,29
639,793	-23,38
639,986	-2,9
640,18	17,58
640,373	-19,29
640,567	-27,48
640,76	11,43
640,954	-39,76
641,147	-78,68
641,34	-37,72
641,534	-7
641,727	-21,33
641,92	-17,24
642,114	-9,05
642,307	17,58
642,5	-2,9
642,694	-31,57
642,887	11,43
643,08	-19,29
643,273	27,82
643,467	60,59
643,66	15,53
643,853	-70,48
644,046	46,25
644,239	-31,57
644,432	-0,85
644,626	-25,43
644,819	-7
645,012	-13,14
645,205	60,59
645,398	-45,91
645,591	-41,81
645,784	-52,05
645,977	-54,1
646,17	-39,76
646,363	-72,53
646,556	-35,67
646,749	-0,85
646,942	-2,9
647,135	-9,05
647,328	-15,19
647,521	-2,9
647,714	-27,48
647,907	-58,2
648,099	-33,62
648,292	21,67
648,485	-35,67
648,678	-64,34
648,871	-11,09
649,064	36,01
649,256	54,44
649,449	-19,29
649,642	-37,72
649,835	-37,72
650,027	-45,91
650,22	-43,86
650,413	-41,81
650,605	9,39
650,798	-41,81
650,991	5,29
651,183	5,29
651,376	-2,9
651,568	11,43
651,761	-37,72
651,954	-13,14
652,146	29,87
652,339	-27,48
652,531	-4,95
652,724	-64,34
652,916	3,24
653,109	11,43
653,301	-27,48
653,494	19,63
653,686	85,16
653,879	117,93
654,071	-7
654,263	-19,29
654,456	-17,24
654,648	27,82
654,84	-31,57
655,033	-54,1
655,225	-33,62
655,417	7,34
655,61	27,82
655,802	17,58
655,994	-68,44
656,186	-17,24
656,379	-0,85
656,571	-41,81
656,763	48,3
656,955	-45,91
657,148	9,39
657,34	-2,9
657,532	-90,96
657,724	-17,24
657,916	38,06
658,108	-45,91
658,3	-21,33
658,492	-21,33
658,684	-45,91
658,876	9,39
659,068	42,15
659,26	-0,85
659,452	13,48
659,644	-41,81
659,836	1,19
660,028	-15,19
660,22	-54,1
660,412	-64,34
660,604	-0,85
660,796	48,3
660,988	36,01
661,18	15,53
661,372	23,72
661,563	-43,86
661,755	3,24
661,947	-43,86
662,139	11,43
662,331	-74,58
662,522	52,39
662,714	36,01
662,906	-4,95
663,097	-39,76
663,289	11,43
663,481	-13,14
663,673	-17,24
663,864	-4,95
664,056	3,24
664,247	-13,14
664,439	62,63
664,631	5,29
664,822	27,82
665,014	29,87
665,205	-13,14
665,397	-21,33
665,588	52,39
665,78	-54,1
665,971	40,11
666,163	68,78
666,354	38,06
666,546	7,34
666,737	60,59
666,929	-76,63
667,12	64,68
667,311	48,3
667,503	85,16
667,694	-33,62
667,885	-4,95
668,077	21,67
668,268	-66,39
668,459	-4,95
668,651	-43,86
668,842	-9,05
669,033	-37,72
669,224	-72,53
669,416	89,26
669,607	-62,29
669,798	-66,39
669,989	91,31
670,18	7,34
670,371	23,72
670,563	-56,15
670,754	48,3
670,945	60,59
671,136	-13,14
671,327	-70,48
671,518	93,35
671,709	89,26
671,9	-0,85
672,091	52,39
672,282	56,49
672,473	3,24
672,664	-19,29
672,855	17,58
673,046	-7
673,237	23,72
673,428	-17,24
673,619	23,72
673,809	-33,62
674	72,87
674,191	54,44
674,382	23,72
674,573	-33,62
674,764	29,87
674,954	-33,62
675,145	3,24
675,336	-27,48
675,527	62,63
675,717	-62,29
675,908	-68,44
676,099	33,96
676,289	3,24
676,48	23,72
676,671	-45,91
676,861	-4,95
677,052	21,67
677,243	-7
677,433	-62,29
677,624	19,63
677,814	3,24
678,005	-7
678,195	-15,19
678,386	-25,43
678,576	-41,81
678,767	-54,1
678,957	-4,95
679,148	13,48
679,338	62,63
679,529	-27,48
679,719	-35,67
679,909	38,06
680,1	38,06
680,29	-60,24
680,481	-68,44
680,671	-13,14
680,861	-45,91
681,052	-78,68
681,242	56,49
681,432	17,58
681,622	-35,67
681,813	-27,48
682,003	-7
682,193	-35,67
682,383	-17,24
682,573	-25,43
682,764	-52,05
682,954	97,45
683,144	40,11
683,334	-45,91
683,524	66,73
683,714	-86,87
683,904	19,63
684,094	-45,91
684,284	-68,44
684,474	-13,14
684,664	46,25
684,854	36,01
685,044	-17,24
685,234	-2,9
685,424	1,19
685,614	23,72
685,804	-13,14
685,994	-29,52
686,184	7,34
686,374	36,01
686,564	36,01
686,753	36,01
686,943	-109,4
687,133	-45,91
687,323	25,77
687,513	-19,29
687,702	-13,14
687,892	-95,06
688,082	-21,33
688,272	1,19
688,461	54,44
688,651	31,91
688,841	42,15
689,03	-103,25
689,22	-35,67
689,41	-0,85
689,599	-58,2
689,789	-15,19
689,979	44,2
690,168	-64,34
690,358	-39,76
690,547	-19,29
690,737	-37,72
690,926	-43,86
691,116	5,29
691,305	-68,44
691,495	23,72
691,684	-11,09
691,874	29,87
692,063	-35,67
692,252	36,01
692,442	29,87
692,631	-66,39
692,82	-21,33
693,01	29,87
693,199	-2,9
693,388	-31,57
693,578	-76,63
693,767	-27,48
693,956	-0,85
694,146	-25,43
694,335	-37,72
694,524	19,63
694,713	27,82
694,902	-54,1
695,092	-13,14
695,281	13,48
695,47	-56,15
695,659	-50
695,848	21,67
696,037	-52,05
696,226	17,58
696,415	-86,87
696,604	72,87
696,793	13,48
696,982	15,53
697,171	36,01
697,36	-50
697,549	44,2
697,738	3,24
697,927	7,34
698,116	-0,85
698,305	27,82
698,494	-56,15
698,683	3,24
698,872	-4,95
699,061	-4,95
699,25	-62,29
699,438	-2,9
699,627	-39,76
699,816	52,39
700,005	-39,76
700,193	-60,24
700,382	-21,33
700,571	21,67
700,76	-35,67
700,948	-21,33
701,137	-43,86
701,326	44,2
701,514	17,58
701,703	-2,9
701,892	17,58
702,08	-9,05
702,269	-33,62
702,457	-27,48
702,646	-70,48
702,834	36,01
703,023	-90,96
703,212	-0,85
703,4	31,91
703,589	-25,43
703,777	68,78
703,965	-70,48
704,154	3,24
704,342	-27,48
704,531	-76,63
704,719	-13,14
704,907	-64,34
705,096	17,58
705,284	44,2
705,472	11,43
705,661	21,67
705,849	5,29
706,037	29,87
706,226	19,63
706,414	46,25
706,602	-15,19
706,79	13,48
706,979	17,58
707,167	11,43
707,355	-7
707,543	-9,05
707,731	52,39
707,919	-7
708,107	-84,82
708,296	-29,52
708,484	-84,82
708,672	3,24
708,86	15,53
709,048	-45,91
709,236	-21,33
709,424	62,63
709,612	46,25
709,8	13,48
709,988	11,43
710,176	-27,48
710,364	-13,14
710,551	-58,2
710,739	29,87
710,927	-29,52
711,115	-90,96
711,303	-45,91
711,491	19,63
711,679	-68,44
711,866	-4,95
712,054	-27,48
712,242	11,43
712,43	42,15
712,617	-54,1
712,805	-33,62
712,993	36,01
713,181	-47,96
713,368	-21,33
713,556	17,58
713,744	40,11
713,931	44,2
714,119	70,83
714,306	-54,1
714,494	-37,72
714,682	-47,96
714,869	19,63
715,057	-4,95
715,244	-72,53
715,432	27,82
715,619	36,01
715,807	-43,86
715,994	-23,38
716,182	19,63
716,369	79,02
716,556	-21,33
716,744	-13,14
716,931	-74,58
717,119	76,97
717,306	7,34
717,493	-41,81
717,681	11,43
717,868	-35,67
718,055	42,15
718,242	52,39
718,43	-29,52
718,617	19,63
718,804	-60,24
718,991	-29,52
719,179	19,63
719,366	27,82
719,553	11,43
719,74	-0,85
719,927	-19,29
720,114	-25,43
720,301	3,24
720,488	-13,14
720,676	-41,81
720,863	52,39
721,05	60,59
721,237	-11,09
721,424	3,24
721,611	11,43
721,798	-29,52
721,985	3,24
722,172	-7
722,358	-25,43
722,545	-19,29
722,732	-9,05
722,919	-31,57
723,106	-56,15
723,293	-86,87
723,48	-11,09
723,667	-54,1
723,853	11,43
724,04	11,43
724,227	5,29
724,414	-4,95
724,6	11,43
724,787	40,11
724,974	23,72
725,161	-9,05
725,347	33,96
725,534	-68,44
725,72	-19,29
725,907	-17,24
726,094	19,63
726,28	-54,1
726,467	-2,9
726,653	-41,81
726,84	52,39
727,027	-11,09
727,213	-43,86
727,4	-9,05
727,586	11,43
727,773	-27,48
727,959	-54,1
728,145	-37,72
728,332	-13,14
728,518	-2,9
728,705	-50
728,891	13,48
729,077	11,43
729,264	-9,05
729,45	-29,52
729,636	31,91
729,823	-4,95
730,009	-2,9
730,195	27,82
730,382	46,25
730,568	-17,24
730,754	-66,39
730,94	-0,85
731,126	-15,19
731,313	13,48
731,499	11,43
731,685	-70,48
731,871	38,06
732,057	1,19
732,243	-13,14
732,429	-4,95
732,615	40,11
732,801	33,96
732,987	7,34
733,173	-62,29
733,359	25,77
733,545	52,39
733,731	-33,62
733,917	9,39
734,103	-4,95
734,289	-54,1
734,475	50,35
734,661	74,92
734,847	21,67
735,033	9,39
735,219	-78,68
735,404	-56,15
735,59	-27,48
735,776	31,91
735,962	-58,2
736,148	7,34
736,333	-13,14
736,519	-72,53
736,705	36,01
736,89	46,25
737,076	-60,24
737,262	52,39
737,447	-39,76
737,633	-45,91
737,819	-29,52
738,004	19,63
738,19	5,29
738,375	-45,91
738,561	38,06
738,747	-25,43
738,932	-27,48
739,118	60,59
739,303	-25,43
739,489	44,2
739,674	27,82
739,859	27,82
740,045	36,01
740,23	-41,81
740,416	-74,58
740,601	-25,43
740,786	-19,29
740,972	-37,72
741,157	-23,38
741,342	-29,52
741,528	-50
741,713	79,02
741,898	-88,92
742,084	-70,48
742,269	44,2
742,454	-54,1
742,639	11,43
742,824	-56,15
743,01	-4,95
743,195	23,72
743,38	-9,05
743,565	19,63
743,75	48,3
743,935	19,63
744,12	-17,24
744,305	15,53
744,49	-82,77
744,675	72,87
744,86	-105,3
745,045	3,24
745,23	-50
745,415	-15,19
745,6	62,63
745,785	40,11
745,97	-58,2
746,155	-27,48
746,34	36,01
746,525	-4,95
746,71	40,11
746,895	-11,09
747,079	-2,9
747,264	-7
747,449	-70,48
747,634	-13,14
747,819	-13,14
748,003	-58,2
748,188	-58,2
748,373	-70,48
748,557	-9,05
748,742	-13,14
748,927	-66,39
749,111	44,2
749,296	-41,81
749,481	-21,33
749,665	-27,48
749,85	-25,43
750,034	27,82
750,219	-37,72
750,404	-35,67
750,588	-11,09
750,773	-31,57
750,957	46,25
751,141	31,91
751,326	64,68
751,51	-21,33
751,695	5,29
751,879	-37,72
752,064	27,82
752,248	-31,57
752,432	-41,81
752,617	13,48
752,801	19,63
752,985	-19,29
753,17	-2,9
753,354	-45,91
753,538	3,24
753,722	-13,14
753,907	5,29
754,091	-11,09
754,275	-66,39
754,459	-90,96
754,643	-2,9
754,828	-47,96
755,012	-37,72
755,196	29,87
755,38	-0,85
755,564	-86,87
755,748	21,67
755,932	-45,91
756,116	46,25
756,3	-41,81
756,484	19,63
756,668	-47,96
756,852	-15,19
757,036	-64,34
757,22	36,01
757,404	-43,86
757,588	3,24
757,772	-4,95
757,956	-62,29
758,14	42,15
758,323	25,77
758,507	-74,58
758,691	-58,2
758,875	-25,43
759,059	-52,05
759,242	29,87
759,426	-50
759,61	-23,38
759,794	-41,81
759,977	38,06
760,161	40,11
760,345	-27,48
760,528	44,2
760,712	23,72
760,895	-70,48
761,079	11,43
761,263	-52,05
761,446	-7
761,63	-4,95
761,813	19,63
761,997	-15,19
762,18	85,16
762,364	36,01
762,547	-54,1
762,731	-78,68
762,914	29,87
763,098	-78,68
763,281	-7
763,464	-58,2
763,648	56,49
763,831	11,43
764,015	29,87
764,198	-21,33
764,381	40,11
764,564	23,72
764,748	40,11
764,931	-0,85
765,114	-86,87
765,297	44,2
765,481	-47,96
765,664	-13,14
765,847	-29,52
766,03	15,53
766,213	-4,95
766,397	-43,86
766,58	-93,01
766,763	-21,33
766,946	-15,19
767,129	13,48
767,312	-11,09
767,495	-4,95
767,678	-37,72
767,861	1,19
768,044	11,43
768,227	5,29
768,41	-70,48
768,593	-13,14
768,776	-25,43
768,959	-72,53
769,142	19,63
769,324	9,39
769,507	-45,91
769,69	-35,67
769,873	-0,85
770,056	-93,01
770,239	11,43
770,421	29,87
770,604	5,29
770,787	-45,91
770,97	-19,29
771,152	-56,15
771,335	-19,29
771,518	-82,77
771,7	-78,68
771,883	52,39
772,066	46,25
772,248	-15,19
772,431	56,49
772,613	27,82
772,796	-72,53
772,978	-43,86
773,161	-0,85
773,343	31,91
773,526	-50
773,708	-2,9
773,891	-74,58
774,073	-0,85
774,256	27,82
774,438	-54,1
774,621	76,97
774,803	-2,9
774,985	-35,67
775,168	-52,05
775,35	-62,29
775,532	-19,29
775,715	36,01
775,897	-56,15
776,079	-68,44
776,261	-37,72
776,444	-39,76
776,626	13,48
776,808	-15,19
776,99	-43,86
777,173	11,43
777,355	21,67
777,537	-127,83
777,719	40,11
777,901	33,96
778,083	-7
778,265	-90,96
778,447	13,48
778,629	-47,96
778,811	44,2
778,993	-0,85
779,175	-29,52
779,357	42,15
779,539	33,96
779,721	-35,67
779,903	38,06
780,085	-0,85
780,267	23,72
780,449	-37,72
780,631	60,59
780,812	7,34
780,994	13,48
781,176	11,43
781,358	-39,76
781,54	17,58
781,721	-35,67
781,903	-21,33
782,085	3,24
782,267	29,87
782,448	-84,82
782,63	-13,14
782,812	19,63
782,993	-19,29
783,175	36,01
783,357	-54,1
783,538	-54,1
783,72	-60,24
783,901	3,24
784,083	-50
784,264	19,63
784,446	-4,95
784,627	-84,82
784,809	-37,72
784,99	27,82
785,172	-13,14
785,353	11,43
785,535	3,24
785,716	1,19
785,897	-27,48
786,079	-37,72
786,26	9,39
786,441	-62,29
786,623	-27,48
786,804	-29,52
786,985	13,48
787,167	-27,48
787,348	-17,24
787,529	3,24
787,71	-35,67
787,891	-68,44
788,073	-74,58
788,254	-107,35
788,435	29,87
788,616	-37,72
788,797	-66,39
788,978	-35,67
789,159	-97,11
789,34	40,11
789,522	-35,67
789,703	27,82
789,884	-60,24
790,065	-25,43
790,246	-13,14
790,427	27,82
790,607	-13,14
790,788	-29,52
790,969	-33,62
791,15	42,15
791,331	29,87
791,512	-68,44
791,693	-52,05
791,874	-21,33
792,054	-4,95
792,235	3,24
792,416	-19,29
792,597	-35,67
792,778	99,5
792,958	40,11
793,139	-56,15
793,32	-27,48
793,5	-45,91
793,681	93,35
793,862	-25,43
794,042	-25,43
794,223	-66,39
794,404	-2,9
794,584	-19,29
794,765	-19,29
794,945	-62,29
795,126	29,87
795,306	-82,77
795,487	9,39
795,667	19,63
795,848	-27,48
796,028	3,24
796,209	-39,76
796,389	38,06
796,57	-35,67
796,75	-13,14
796,93	-21,33
797,111	-50
797,291	9,39
797,471	-68,44
797,652	-54,1
797,832	29,87
798,012	5,29
798,192	-7
798,373	-60,24
798,553	-23,38
798,733	-37,72
798,913	-37,72
799,093	-4,95
799,274	60,59
799,454	-17,24
799,634	-27,48
799,814	-58,2
799,994	-52,05
800,174	3,24
800,354	-4,95
800,534	-43,86
800,714	-7
800,894	-2,9
801,074	13,48
801,254	-43,86
801,434	-29,52
801,614	-11,09
801,794	-19,29
801,974	425,12
802,154	-7
802,334	7,34
802,514	-62,29
802,693	-29,52
802,873	-56,15
803,053	46,25
803,233	-21,33
803,413	7,34
803,592	-33,62
803,772	-62,29
803,952	-39,76
804,131	-9,05
804,311	91,31
804,491	36,01
804,67	-35,67
804,85	11,43
805,03	-29,52
805,209	-35,67
805,389	-7
805,568	27,82
805,748	9,39
805,928	46,25
806,107	-93,01
806,287	-0,85
806,466	-19,29
806,646	31,91
806,825	-43,86
807,004	52,39
807,184	-19,29
807,363	42,15
807,543	-19,29
807,722	-29,52
807,901	40,11
808,081	56,49
808,26	-68,44
808,439	-29,52
808,619	-17,24
808,798	-4,95
808,977	-17,24
809,156	-15,19
809,336	56,49
809,515	-111,44
809,694	-21,33
809,873	-0,85
810,052	-60,24
810,231	1,19
810,411	58,54
810,59	27,82
810,769	-52,05
810,948	1,19
811,127	15,53
811,306	-43,86
811,485	-27,48
811,664	13,48
811,843	-70,48
812,022	27,82
812,201	-68,44
812,38	27,82
812,559	40,11
812,737	-2,9
812,916	-138,07
813,095	-54,1
813,274	-21,33
813,453	15,53
813,632	-11,09
813,811	-54,1
813,989	-80,72
814,168	-99,16
814,347	-64,34
814,526	-4,95
814,704	3,24
814,883	-64,34
815,062	-37,72
815,24	-21,33
815,419	-13,14
815,598	56,49
815,776	-72,53
815,955	-13,14
816,133	-43,86
816,312	1,19
816,49	-2,9
816,669	15,53
816,847	21,67
817,026	7,34
817,204	7,34
817,383	21,67
817,561	46,25
817,74	13,48
817,918	-41,81
818,097	-41,81
818,275	38,06
818,453	-54,1
818,632	-58,2
818,81	19,63
818,988	-19,29
819,167	-52,05
819,345	36,01
819,523	9,39
819,701	-58,2
819,879	60,59
820,058	5,29
820,236	15,53
820,414	81,07
820,592	-78,68
820,77	9,39
820,948	-72,53
821,127	9,39
821,305	-29,52
821,483	40,11
821,661	44,2
821,839	-84,82
822,017	21,67
822,195	-37,72
822,373	97,45
822,551	-19,29
822,729	-47,96
822,907	-31,57
823,085	-4,95
823,262	-23,38
823,44	1,19
823,618	11,43
823,796	-60,24
823,974	-29,52
824,152	-11,09
824,329	7,34
824,507	9,39
824,685	-78,68
824,863	3,24
825,04	-60,24
825,218	-43,86
825,396	27,82
825,574	23,72
825,751	-97,11
825,929	-11,09
826,107	-54,1
826,284	31,91
826,462	-29,52
826,639	-47,96
826,817	-0,85
826,994	23,72
827,172	-117,59
827,349	31,91
827,527	-11,09
827,704	-60,24
827,882	-2,9
828,059	-23,38
828,237	31,91
828,414	33,96
828,591	-95,06
828,769	-70,48
828,946	27,82
829,124	-2,9
829,301	-11,09
829,478	-45,91
829,655	-62,29
829,833	25,77
830,01	-93,01
830,187	-76,63
830,364	42,15
830,542	27,82
830,719	29,87
830,896	-52,05
831,073	-35,67
831,25	-29,52
831,427	40,11
831,604	-9,05
831,782	-0,85
831,959	66,73
832,136	36,01
832,313	7,34
832,49	-66,39
832,667	-0,85
832,844	23,72
833,021	64,68
833,198	-62,29
833,374	27,82
833,551	3,24
833,728	-47,96
833,905	7,34
834,082	-50
834,259	-29,52
834,436	36,01
834,612	5,29
834,789	66,73
834,966	27,82
835,143	-11,09
835,319	-47,96
835,496	-37,72
835,673	-52,05
835,85	-74,58
836,026	-33,62
836,203	-13,14
836,38	-33,62
836,556	3,24
836,733	5,29
836,909	64,68
837,086	-64,34
837,262	-33,62
837,439	21,67
837,616	7,34
837,792	-66,39
837,968	-33,62
838,145	-27,48
838,321	-13,14
838,498	-54,1
838,674	-54,1
838,851	-0,85
839,027	-39,76
839,203	-27,48
839,38	-29,52
839,556	-31,57
839,732	-4,95
839,909	19,63
840,085	-27,48
840,261	-0,85
840,437	-13,14
840,614	-86,87
840,79	-54,1
840,966	19,63
841,142	-4,95
841,318	36,01
841,494	21,67
841,671	70,83
841,847	-58,2
842,023	56,49
842,199	3,24
842,375	-33,62
842,551	-86,87
842,727	-21,33
842,903	36,01
843,079	5,29
843,255	-19,29
843,431	-11,09
843,607	-58,2
843,783	-23,38
843,959	-93,01
844,134	-43,86
844,31	-11,09
844,486	-47,96
844,662	-31,57
844,838	-37,72
845,013	-54,1
845,189	25,77
845,365	-50
845,541	-17,24
845,716	33,96
845,892	21,67
846,068	-37,72
846,244	-4,95
846,419	19,63
846,595	-45,91
846,77	-45,91
846,946	-13,14
847,122	31,91
847,297	36,01
847,473	13,48
847,648	23,72
847,824	21,67
847,999	-86,87
848,175	-25,43
848,35	15,53
848,526	36,01
848,701	-64,34
848,876	62,63
849,052	-74,58
849,227	23,72
849,403	1,19
849,578	-17,24
849,753	-74,58
849,929	5,29
850,104	-29,52
850,279	-54,1
850,454	-33,62
850,63	52,39
850,805	27,82
850,98	-19,29
851,155	-70,48
851,33	-66,39
851,505	-78,68
851,681	15,53
851,856	7,34
852,031	-37,72
852,206	-29,52
852,381	7,34
852,556	-72,53
852,731	-19,29
852,906	-39,76
853,081	-58,2
853,256	-31,57
853,431	23,72
853,606	21,67
853,781	23,72
853,956	-43,86
854,131	19,63
854,305	-66,39
854,48	-0,85
854,655	-90,96
854,83	-72,53
855,005	-66,39
855,18	11,43
855,354	-80,72
855,529	-52,05
855,704	-66,39
855,879	-58,2
856,053	-29,52
856,228	-45,91
856,403	-47,96
856,577	50,35
856,752	-70,48
856,926	19,63
857,101	-25,43
857,276	-17,24
857,45	-29,52
857,625	27,82
857,799	-62,29
857,974	-23,38
858,148	-21,33
858,323	-101,2
858,497	-13,14
858,672	-29,52
858,846	-19,29
859,02	1,19
859,195	-50
859,369	36,01
859,543	-35,67
859,718	-15,19
859,892	-56,15
860,066	-45,91
860,241	-84,82
860,415	-64,34
860,589	-97,11
860,763	-19,29
860,938	-56,15
861,112	-13,14
861,286	42,15
861,46	-11,09
861,634	-37,72
861,808	31,91
861,982	-33,62
862,157	-45,91
862,331	-41,81
862,505	-78,68
862,679	-50
862,853	-43,86
863,027	-37,72
863,201	19,63
863,375	13,48
863,549	23,72
863,722	56,49
863,896	-62,29
864,07	11,43
864,244	11,43
864,418	-0,85
864,592	-50
864,766	-62,29
864,939	3,24
865,113	-52,05
865,287	-29,52
865,461	-41,81
865,634	-43,86
865,808	-54,1
865,982	-54,1
866,156	-62,29
866,329	-90,96
866,503	-7
866,676	7,34
866,85	-58,2
867,024	3,24
867,197	-25,43
867,371	-52,05
867,544	42,15
867,718	-68,44
867,891	7,34
868,065	7,34
868,238	-9,05
868,412	-11,09
868,585	-33,62
868,759	-90,96
868,932	-76,63
869,105	-13,14
869,279	-52,05
869,452	-41,81
869,625	-4,95
869,799	9,39
869,972	-35,67
870,145	-29,52
870,319	25,77
870,492	36,01
870,665	-37,72
870,838	13,48
871,011	-70,48
871,185	11,43
871,358	-68,44
871,531	-35,67
871,704	-4,95
871,877	15,53
872,05	3,24
872,223	-17,24
872,396	7,34
872,569	-29,52
872,742	-47,96
872,915	-58,2
873,088	-13,14
873,261	-58,2
873,434	-70,48
873,607	-13,14
873,78	29,87
873,953	-41,81
874,126	23,72
874,299	-15,19
874,471	5,29
874,644	-25,43
874,817	-43,86
874,99	-13,14
875,163	29,87
875,335	-29,52
875,508	-17,24
875,681	5,29
875,853	-68,44
876,026	25,77
876,199	-62,29
876,371	15,53
876,544	-88,92
876,717	11,43
876,889	-33,62
877,062	13,48
877,234	-35,67
877,407	-58,2
877,579	-25,43
877,752	-4,95
877,924	-58,2
878,097	9,39
878,269	-45,91
878,442	-54,1
878,614	-41,81
878,786	-11,09
878,959	-21,33
879,131	19,63
879,303	-82,77
879,476	3,24
879,648	-4,95
879,82	-45,91
879,993	27,82
880,165	-33,62
880,337	-31,57
880,509	23,72
880,681	31,91
880,854	-19,29
881,026	48,3
881,198	7,34
881,37	-9,05
881,542	-54,1
881,714	-39,76
881,886	-13,14
882,058	56,49
882,23	19,63
882,402	-66,39
882,574	-15,19
882,746	27,82
882,918	36,01
883,09	52,39
883,262	42,15
883,434	-60,24
883,606	-76,63
883,778	-17,24
883,95	7,34
884,122	-50
884,293	15,53
884,465	-17,24
884,637	5,29
884,809	-41,81
884,98	11,43
885,152	-21,33
885,324	-2,9
885,496	3,24
885,667	-74,58
885,839	-70,48
886,011	38,06
886,182	-2,9
886,354	-13,14
886,525	-37,72
886,697	38,06
886,869	-39,76
887,04	-21,33
887,212	-70,48
887,383	52,39
887,555	-35,67
887,726	44,2
887,897	-84,82
888,069	27,82
888,24	85,16
888,412	-9,05
888,583	-56,15
888,754	-93,01
888,926	-86,87
889,097	-37,72
889,268	-39,76
889,44	-19,29
889,611	-21,33
889,782	-2,9
889,953	17,58
890,125	7,34
890,296	-9,05
890,467	-0,85
890,638	-37,72
890,809	-52,05
890,98	-39,76
891,151	11,43
891,323	15,53
891,494	-37,72
891,665	60,59
891,836	-21,33
892,007	-80,72
892,178	7,34
892,349	-9,05
892,52	-66,39
892,691	36,01
892,862	19,63
893,032	-35,67
893,203	-19,29
893,374	-45,91
893,545	7,34
893,716	-17,24
893,887	11,43
894,057	-19,29
894,228	-64,34
894,399	19,63
894,57	-35,67
894,74	-47,96
894,911	-0,85
895,082	-86,87
895,253	-35,67
895,423	-60,24
895,594	-19,29
895,764	19,63
895,935	-76,63
896,106	-86,87
896,276	-33,62
896,447	13,48
896,617	31,91
896,788	-95,06
896,958	7,34
897,129	-11,09
897,299	-21,33
897,47	42,15
897,64	-29,52
897,81	-76,63
897,981	-0,85
898,151	-50
898,322	-23,38
898,492	-25,43
898,662	-13,14
898,832	-21,33
899,003	-93,01
899,173	-21,33
899,343	-29,52
899,513	-31,57
