Data from filtre 450_USB4F104151__1__11-55-00-296.txt Node

Date: Wed Apr 15 11:55:00 EDT 2026
User: LaboPhy
Spectrometer: USB4F10415
Trigger mode: 4
Integration Time (sec): 2,100000E-2
Scans to average: 1
Electric dark correction enabled: true
Nonlinearity correction enabled: false
Boxcar width: 0
XAxis mode: Wavelengths
Number of Pixels in Spectrum: 3648
>>>>>Begin Spectral Data<<<<<
178,204	-152,06
178,424	-152,06
178,644	-152,06
178,864	-141,82
179,084	-98,81
179,304	-27,14
179,524	-31,23
179,744	-14,85
179,964	36,35
180,184	-64
180,404	22,02
180,624	-14,85
180,844	40,45
181,064	15,87
181,283	19,97
181,503	36,35
181,723	-18,94
181,943	-35,33
182,163	-2,56
182,383	-29,18
182,602	44,54
182,822	11,78
183,042	22,02
183,262	-47,62
183,482	9,73
183,701	36,35
183,921	-55,81
184,141	46,59
184,361	69,12
184,58	-39,42
184,8	9,73
185,02	38,4
185,239	77,31
185,459	-20,99
185,679	9,73
185,898	-143,87
186,118	75,26
186,338	42,5
186,557	28,16
186,777	-6,66
186,997	-14,85
187,216	11,78
187,436	26,11
187,655	-14,85
187,875	52,74
188,095	-51,71
188,314	-10,75
188,534	7,68
188,753	-4,61
188,973	30,21
189,192	75,26
189,412	22,02
189,631	-55,81
189,851	58,88
190,07	-6,66
190,29	-84,48
190,509	1,54
190,729	-14,85
190,948	26,11
191,168	46,59
191,387	-10,75
191,607	13,82
191,826	38,4
192,045	-29,18
192,265	11,78
192,484	-41,47
192,704	9,73
192,923	-27,14
193,142	44,54
193,362	28,16
193,581	28,16
193,8	26,11
194,02	50,69
194,239	26,11
194,458	-47,62
194,678	30,21
194,897	34,3
195,116	-18,94
195,335	17,92
195,555	-18,94
195,774	-10,75
195,993	52,74
196,212	54,78
196,432	-14,85
196,651	42,5
196,87	9,73
197,089	54,78
197,308	-6,66
197,528	-4,61
197,747	-39,42
197,966	-35,33
198,185	46,59
198,404	36,35
198,623	-10,75
198,842	101,89
199,062	65,02
199,281	128,51
199,5	-45,57
199,719	-6,66
199,938	17,92
200,157	50,69
200,376	13,82
200,595	42,5
200,814	19,97
201,033	56,83
201,252	-14,85
201,471	34,3
201,69	58,88
201,909	-12,8
202,128	34,3
202,347	93,69
202,566	-2,56
202,785	-0,51
203,004	-20,99
203,223	71,17
203,442	7,68
203,661	54,78
203,879	1,54
204,098	-10,75
204,317	-23,04
204,536	1,54
204,755	-2,56
204,974	5,63
205,193	-23,04
205,411	3,58
205,63	56,83
205,849	-33,28
206,068	-35,33
206,287	46,59
206,505	69,12
206,724	-39,42
206,943	-20,99
207,162	13,82
207,381	5,63
207,599	-16,9
207,818	3,58
208,037	17,92
208,255	-33,28
208,474	28,16
208,693	99,84
208,911	-20,99
209,13	17,92
209,349	-39,42
209,567	50,69
209,786	30,21
210,005	93,69
210,223	1,54
210,442	-27,14
210,661	50,69
210,879	-18,94
211,098	36,35
211,316	50,69
211,535	-39,42
211,753	-96,77
211,972	95,74
212,191	-61,95
212,409	-14,85
212,628	-49,66
212,846	-47,62
213,065	-45,57
213,283	89,6
213,502	3,58
213,72	44,54
213,938	46,59
214,157	58,88
214,375	28,16
214,594	-53,76
214,812	-23,04
215,031	67,07
215,249	-2,56
215,467	60,93
215,686	5,63
215,904	-31,23
216,122	-20,99
216,341	7,68
216,559	-4,61
216,778	-51,71
216,996	34,3
217,214	3,58
217,432	-12,8
217,651	-20,99
217,869	-29,18
218,087	22,02
218,306	48,64
218,524	15,87
218,742	17,92
218,96	50,69
219,179	-20,99
219,397	5,63
219,615	34,3
219,833	95,74
220,051	3,58
220,27	28,16
220,488	-53,76
220,706	-29,18
220,924	-72,19
221,142	17,92
221,36	26,11
221,578	-4,61
221,796	-68,09
222,015	-29,18
222,233	13,82
222,451	28,16
222,669	-23,04
222,887	38,4
223,105	-76,29
223,323	36,35
223,541	9,73
223,759	75,26
223,977	-4,61
224,195	-33,28
224,413	1,54
224,631	75,26
224,849	34,3
225,067	22,02
225,285	-27,14
225,503	22,02
225,721	34,3
225,939	3,58
226,157	-20,99
226,375	85,5
226,592	-6,66
226,81	-0,51
227,028	30,21
227,246	71,17
227,464	-25,09
227,682	48,64
227,9	32,26
228,117	1,54
228,335	-53,76
228,553	11,78
228,771	-6,66
228,989	38,4
229,206	-23,04
229,424	-2,56
229,642	-102,91
229,86	67,07
230,077	103,93
230,295	-20,99
230,513	3,58
230,731	60,93
230,948	-0,51
231,166	75,26
231,384	-37,38
231,601	-10,75
231,819	95,74
232,037	36,35
232,254	15,87
232,472	17,92
232,689	-4,61
232,907	11,78
233,125	-23,04
233,342	54,78
233,56	54,78
233,777	1,54
233,995	-27,14
234,213	40,45
234,43	34,3
234,648	15,87
234,865	52,74
235,083	73,21
235,3	22,02
235,518	-61,95
235,735	91,65
235,953	114,17
236,17	-55,81
236,388	26,11
236,605	-4,61
236,822	3,58
237,04	13,82
237,257	60,93
237,475	22,02
237,692	40,45
237,909	-86,53
238,127	108,03
238,344	50,69
238,562	-4,61
238,779	-14,85
238,996	17,92
239,214	38,4
239,431	54,78
239,648	50,69
239,865	9,73
240,083	36,35
240,3	19,97
240,517	19,97
240,735	-23,04
240,952	30,21
241,169	-2,56
241,386	34,3
241,603	-20,99
241,821	-20,99
242,038	44,54
242,255	3,58
242,472	-41,47
242,689	19,97
242,907	15,87
243,124	42,5
243,341	-14,85
243,558	-27,14
243,775	-25,09
243,992	-55,81
244,209	67,07
244,426	11,78
244,643	15,87
244,86	-29,18
245,078	-12,8
245,295	-4,61
245,512	22,02
245,729	1,54
245,946	69,12
246,163	-64
246,38	105,98
246,597	28,16
246,814	7,68
247,031	-14,85
247,248	3,58
247,464	44,54
247,681	-16,9
247,898	60,93
248,115	9,73
248,332	44,54
248,549	-12,8
248,766	99,84
248,983	52,74
249,2	-53,76
249,417	83,45
249,633	30,21
249,85	15,87
250,067	-29,18
250,284	-2,56
250,501	11,78
250,717	67,07
250,934	-6,66
251,151	-23,04
251,368	-70,14
251,585	-39,42
251,801	-16,9
252,018	17,92
252,235	38,4
252,451	9,73
252,668	28,16
252,885	-23,04
253,102	34,3
253,318	17,92
253,535	-10,75
253,752	62,98
253,968	19,97
254,185	17,92
254,401	13,82
254,618	60,93
254,835	-18,94
255,051	26,11
255,268	5,63
255,484	-23,04
255,701	-6,66
255,917	17,92
256,134	-10,75
256,351	1,54
256,567	-59,9
256,784	-47,62
257	42,5
257,217	34,3
257,433	58,88
257,65	-20,99
257,866	17,92
258,082	-2,56
258,299	-43,52
258,515	91,65
258,732	-16,9
258,948	-16,9
259,165	83,45
259,381	-45,57
259,597	7,68
259,814	-31,23
260,03	69,12
260,246	-18,94
260,463	9,73
260,679	46,59
260,895	-10,75
261,112	50,69
261,328	-39,42
261,544	54,78
261,761	11,78
261,977	42,5
262,193	-66,05
262,409	38,4
262,626	3,58
262,842	1,54
263,058	22,02
263,274	44,54
263,49	32,26
263,707	36,35
263,923	22,02
264,139	1,54
264,355	17,92
264,571	99,84
264,787	-43,52
265,004	-23,04
265,22	58,88
265,436	-76,29
265,652	36,35
265,868	79,36
266,084	-49,66
266,3	73,21
266,516	-35,33
266,732	75,26
266,948	-43,52
267,164	3,58
267,38	95,74
267,596	91,65
267,812	-18,94
268,028	77,31
268,244	-35,33
268,46	22,02
268,676	17,92
268,892	-27,14
269,108	7,68
269,324	5,63
269,54	-23,04
269,756	48,64
269,972	-27,14
270,188	-39,42
270,403	-4,61
270,619	26,11
270,835	-12,8
271,051	60,93
271,267	-61,95
271,483	9,73
271,698	28,16
271,914	42,5
272,13	-0,51
272,346	44,54
272,562	15,87
272,777	-14,85
272,993	36,35
273,209	-47,62
273,425	-14,85
273,64	5,63
273,856	112,13
274,072	-23,04
274,287	-0,51
274,503	24,06
274,719	22,02
274,934	-0,51
275,15	34,3
275,366	54,78
275,581	52,74
275,797	15,87
276,012	9,73
276,228	56,83
276,444	-23,04
276,659	108,03
276,875	26,11
277,09	-27,14
277,306	-4,61
277,521	30,21
277,737	40,45
277,952	-6,66
278,168	-23,04
278,383	44,54
278,599	-31,23
278,814	81,41
279,03	19,97
279,245	42,5
279,461	1,54
279,676	44,54
279,892	-100,86
280,107	-18,94
280,322	54,78
280,538	-20,99
280,753	-53,76
280,969	60,93
281,184	30,21
281,399	77,31
281,615	-33,28
281,83	9,73
282,045	46,59
282,26	-6,66
282,476	58,88
282,691	-2,56
282,906	26,11
283,122	-14,85
283,337	28,16
283,552	-14,85
283,767	-16,9
283,983	46,59
284,198	77,31
284,413	26,11
284,628	-57,86
284,843	-6,66
285,058	7,68
285,274	9,73
285,489	26,11
285,704	46,59
285,919	26,11
286,134	-14,85
286,349	-12,8
286,564	60,93
286,779	65,02
286,995	15,87
287,21	-33,28
287,425	-4,61
287,64	60,93
287,855	-8,7
288,07	44,54
288,285	54,78
288,5	-47,62
288,715	-31,23
288,93	-43,52
289,145	-25,09
289,36	-51,71
289,575	-6,66
289,79	3,58
290,004	-31,23
290,219	-35,33
290,434	50,69
290,649	46,59
290,864	42,5
291,079	19,97
291,294	44,54
291,509	28,16
291,724	13,82
291,938	-25,09
292,153	87,55
292,368	-2,56
292,583	42,5
292,798	-12,8
293,012	-27,14
293,227	-31,23
293,442	19,97
293,657	13,82
293,871	-23,04
294,086	44,54
294,301	83,45
294,516	15,87
294,73	13,82
294,945	-20,99
295,16	-8,7
295,374	7,68
295,589	-0,51
295,804	-51,71
296,018	3,58
296,233	26,11
296,447	30,21
296,662	65,02
296,877	-39,42
297,091	17,92
297,306	17,92
297,52	-33,28
297,735	11,78
297,949	1,54
298,164	-16,9
298,378	-31,23
298,593	-70,14
298,807	-4,61
299,022	-80,38
299,236	-20,99
299,451	-0,51
299,665	-23,04
299,88	13,82
300,094	52,74
300,309	-39,42
300,523	46,59
300,737	19,97
300,952	24,06
301,166	-68,09
301,381	26,11
301,595	-66,05
301,809	-2,56
302,024	-16,9
302,238	9,73
302,452	118,27
302,667	-10,75
302,881	42,5
303,095	46,59
303,309	75,26
303,524	-35,33
303,738	11,78
303,952	11,78
304,166	22,02
304,381	-70,14
304,595	44,54
304,809	-2,56
305,023	17,92
305,237	-6,66
305,452	3,58
305,666	-35,33
305,88	46,59
306,094	50,69
306,308	44,54
306,522	54,78
306,736	42,5
306,95	56,83
307,164	58,88
307,379	-8,7
307,593	48,64
307,807	34,3
308,021	-4,61
308,235	38,4
308,449	-31,23
308,663	-80,38
308,877	-20,99
309,091	-35,33
309,305	11,78
309,519	-76,29
309,733	-4,61
309,947	-29,18
310,161	7,68
310,374	67,07
310,588	75,26
310,802	-51,71
311,016	22,02
311,23	-4,61
311,444	1,54
311,658	-8,7
311,872	108,03
312,085	17,92
312,299	28,16
312,513	26,11
312,727	-6,66
312,941	38,4
313,154	-86,53
313,368	3,58
313,582	-100,86
313,796	-25,09
314,009	50,69
314,223	-14,85
314,437	-70,14
314,651	26,11
314,864	15,87
315,078	1,54
315,292	-66,05
315,505	54,78
315,719	38,4
315,933	30,21
316,146	-14,85
316,36	9,73
316,573	93,69
316,787	50,69
317,001	85,5
317,214	-14,85
317,428	-29,18
317,641	9,73
317,855	19,97
318,068	54,78
318,282	13,82
318,495	-37,38
318,709	17,92
318,922	34,3
319,136	56,83
319,349	17,92
319,563	50,69
319,776	91,65
319,99	-37,38
320,203	54,78
320,417	-47,62
320,63	-39,42
320,843	73,21
321,057	-27,14
321,27	28,16
321,483	9,73
321,697	116,22
321,91	-20,99
322,124	-6,66
322,337	15,87
322,55	38,4
322,763	-8,7
322,977	32,26
323,19	-55,81
323,403	-8,7
323,617	11,78
323,83	22,02
324,043	50,69
324,256	1,54
324,469	-10,75
324,683	44,54
324,896	67,07
325,109	-39,42
325,322	38,4
325,535	50,69
325,748	9,73
325,962	13,82
326,175	-16,9
326,388	95,74
326,601	71,17
326,814	-8,7
327,027	32,26
327,24	-14,85
327,453	-61,95
327,666	95,74
327,879	-10,75
328,092	26,11
328,305	-2,56
328,518	-72,19
328,731	11,78
328,944	22,02
329,157	65,02
329,37	101,89
329,583	26,11
329,796	71,17
330,009	-4,61
330,222	22,02
330,435	28,16
330,648	-6,66
330,861	-25,09
331,073	34,3
331,286	-31,23
331,499	1,54
331,712	28,16
331,925	-45,57
332,138	38,4
332,35	52,74
332,563	-2,56
332,776	67,07
332,989	30,21
333,202	17,92
333,414	71,17
333,627	-27,14
333,84	44,54
334,053	19,97
334,265	34,3
334,478	-18,94
334,691	9,73
334,903	11,78
335,116	-23,04
335,329	34,3
335,541	26,11
335,754	26,11
335,966	-12,8
336,179	60,93
336,392	38,4
336,604	54,78
336,817	17,92
337,029	79,36
337,242	-29,18
337,454	-23,04
337,667	58,88
337,88	58,88
338,092	19,97
338,305	62,98
338,517	-27,14
338,729	56,83
338,942	13,82
339,154	-27,14
339,367	7,68
339,579	-35,33
339,792	-0,51
340,004	67,07
340,217	52,74
340,429	-29,18
340,641	13,82
340,854	52,74
341,066	58,88
341,278	-6,66
341,491	22,02
341,703	-6,66
341,915	42,5
342,128	108,03
342,34	1,54
342,552	1,54
342,764	26,11
342,977	-20,99
343,189	13,82
343,401	-16,9
343,613	11,78
343,826	-18,94
344,038	-2,56
344,25	34,3
344,462	7,68
344,674	17,92
344,886	-14,85
345,099	50,69
345,311	1,54
345,523	9,73
345,735	-127,49
345,947	28,16
346,159	77,31
346,371	-27,14
346,583	-0,51
346,795	95,74
347,007	67,07
347,219	13,82
347,431	19,97
347,643	89,6
347,855	-31,23
348,067	50,69
348,279	7,68
348,491	-61,95
348,703	46,59
348,915	-31,23
349,127	-6,66
349,339	-35,33
349,551	-23,04
349,763	48,64
349,975	11,78
350,187	15,87
350,399	42,5
350,61	42,5
350,822	-31,23
351,034	-10,75
351,246	7,68
351,458	-2,56
351,669	30,21
351,881	11,78
352,093	22,02
352,305	1,54
352,517	13,82
352,728	46,59
352,94	1,54
353,152	15,87
353,363	1,54
353,575	71,17
353,787	91,65
353,999	17,92
354,21	-25,09
354,422	17,92
354,633	-12,8
354,845	-39,42
355,057	-10,75
355,268	19,97
355,48	54,78
355,692	-70,14
355,903	-2,56
356,115	-27,14
356,326	-20,99
356,538	58,88
356,749	71,17
356,961	89,6
357,172	5,63
357,384	54,78
357,595	3,58
357,807	1,54
358,018	9,73
358,23	60,93
358,441	11,78
358,653	15,87
358,864	-12,8
359,075	-18,94
359,287	11,78
359,498	83,45
359,709	-18,94
359,921	38,4
360,132	-23,04
360,344	79,36
360,555	3,58
360,766	60,93
360,977	22,02
361,189	36,35
361,4	44,54
361,611	44,54
361,823	58,88
362,034	34,3
362,245	-20,99
362,456	50,69
362,667	-8,7
362,879	-6,66
363,09	-12,8
363,301	91,65
363,512	28,16
363,723	1,54
363,935	-18,94
364,146	42,5
364,357	48,64
364,568	15,87
364,779	-27,14
364,99	42,5
365,201	-2,56
365,412	-10,75
365,623	40,45
365,834	32,26
366,045	-8,7
366,256	54,78
366,467	-27,14
366,678	36,35
366,889	5,63
367,1	-37,38
367,311	7,68
367,522	26,11
367,733	-27,14
367,944	60,93
368,155	30,21
368,366	75,26
368,577	40,45
368,788	24,06
368,999	65,02
369,209	-20,99
369,42	99,84
369,631	60,93
369,842	-47,62
370,053	-78,33
370,264	1,54
370,474	1,54
370,685	77,31
370,896	17,92
371,107	52,74
371,317	9,73
371,528	19,97
371,739	1,54
371,95	46,59
372,16	54,78
372,371	-31,23
372,582	5,63
372,792	-14,85
373,003	79,36
373,214	30,21
373,424	36,35
373,635	-37,38
373,846	-55,81
374,056	26,11
374,267	75,26
374,477	28,16
374,688	13,82
374,898	3,58
375,109	54,78
375,319	44,54
375,53	17,92
375,74	26,11
375,951	30,21
376,161	-10,75
376,372	54,78
376,582	-53,76
376,793	58,88
377,003	-29,18
377,214	32,26
377,424	26,11
377,635	42,5
377,845	-12,8
378,055	142,85
378,266	26,11
378,476	22,02
378,686	44,54
378,897	11,78
379,107	34,3
379,317	99,84
379,528	52,74
379,738	22,02
379,948	-6,66
380,158	73,21
380,369	17,92
380,579	50,69
380,789	34,3
380,999	91,65
381,21	-6,66
381,42	24,06
381,63	28,16
381,84	-35,33
382,05	28,16
382,261	17,92
382,471	13,82
382,681	42,5
382,891	56,83
383,101	11,78
383,311	-45,57
383,521	3,58
383,731	-0,51
383,941	3,58
384,151	44,54
384,361	42,5
384,571	-39,42
384,781	30,21
384,991	85,5
385,201	79,36
385,411	71,17
385,621	9,73
385,831	60,93
386,041	-31,23
386,251	9,73
386,461	22,02
386,671	28,16
386,881	-0,51
387,091	11,78
387,301	83,45
387,511	50,69
387,72	9,73
387,93	122,37
388,14	1,54
388,35	22,02
388,56	15,87
388,769	-33,28
388,979	-23,04
389,189	3,58
389,399	13,82
389,609	30,21
389,818	-27,14
390,028	91,65
390,238	3,58
390,447	-2,56
390,657	75,26
390,867	-25,09
391,076	-45,57
391,286	-23,04
391,496	71,17
391,705	15,87
391,915	38,4
392,125	34,3
392,334	19,97
392,544	75,26
392,753	69,12
392,963	32,26
393,172	13,82
393,382	-4,61
393,591	116,22
393,801	-33,28
394,01	67,07
394,22	-12,8
394,429	9,73
394,639	-43,52
394,848	-12,8
395,058	58,88
395,267	-55,81
395,477	52,74
395,686	56,83
395,895	-2,56
396,105	77,31
396,314	-33,28
396,524	-10,75
396,733	-47,62
396,942	19,97
397,152	67,07
397,361	38,4
397,57	-12,8
397,78	38,4
397,989	-72,19
398,198	26,11
398,407	26,11
398,617	-76,29
398,826	9,73
399,035	22,02
399,244	36,35
399,453	32,26
399,663	54,78
399,872	44,54
400,081	75,26
400,29	62,98
400,499	30,21
400,708	34,3
400,917	11,78
401,127	44,54
401,336	-29,18
401,545	75,26
401,754	58,88
401,963	-4,61
402,172	-94,72
402,381	26,11
402,59	-51,71
402,799	17,92
403,008	71,17
403,217	-14,85
403,426	13,82
403,635	5,63
403,844	-23,04
404,053	-2,56
404,262	44,54
404,471	34,3
404,68	5,63
404,888	-31,23
405,097	99,84
405,306	19,97
405,515	58,88
405,724	-18,94
405,933	-6,66
406,142	17,92
406,35	-25,09
406,559	-12,8
406,768	67,07
406,977	116,22
407,185	15,87
407,394	-104,96
407,603	-2,56
407,812	26,11
408,02	34,3
408,229	28,16
408,438	-4,61
408,646	42,5
408,855	-25,09
409,064	67,07
409,272	-68,09
409,481	1,54
409,69	3,58
409,898	7,68
410,107	81,41
410,315	34,3
410,524	-16,9
410,733	46,59
410,941	-14,85
411,15	26,11
411,358	67,07
411,567	-25,09
411,775	15,87
411,984	13,82
412,192	38,4
412,401	58,88
412,609	15,87
412,818	-12,8
413,026	56,83
413,234	65,02
413,443	105,98
413,651	5,63
413,86	-47,62
414,068	48,64
414,276	40,45
414,485	26,11
414,693	24,06
414,901	83,45
415,11	71,17
415,318	48,64
415,526	1,54
415,734	58,88
415,943	9,73
416,151	-2,56
416,359	-33,28
416,567	30,21
416,776	13,82
416,984	13,82
417,192	60,93
417,4	-6,66
417,608	3,58
417,817	65,02
418,025	-4,61
418,233	83,45
418,441	75,26
418,649	-10,75
418,857	19,97
419,065	58,88
419,273	-8,7
419,481	69,12
419,689	69,12
419,897	-61,95
420,105	3,58
420,313	-18,94
420,521	77,31
420,729	77,31
420,937	-4,61
421,145	-29,18
421,353	83,45
421,561	11,78
421,769	19,97
421,977	42,5
422,185	85,5
422,393	69,12
422,601	1,54
422,809	5,63
423,017	-20,99
423,224	9,73
423,432	15,87
423,64	11,78
423,848	44,54
424,056	52,74
424,263	89,6
424,471	-14,85
424,679	-18,94
424,887	-45,57
425,094	69,12
425,302	9,73
425,51	91,65
425,718	17,92
425,925	-6,66
426,133	-14,85
426,341	5,63
426,548	11,78
426,756	32,26
426,964	-33,28
427,171	-23,04
427,379	42,5
427,586	85,5
427,794	-0,51
428,001	38,4
428,209	5,63
428,417	75,26
428,624	50,69
428,832	44,54
429,039	-8,7
429,247	15,87
429,454	58,88
429,662	50,69
429,869	-12,8
430,076	28,16
430,284	-18,94
430,491	89,6
430,699	7,68
430,906	26,11
431,114	67,07
431,321	44,54
431,528	-4,61
431,736	7,68
431,943	-51,71
432,15	60,93
432,358	81,41
432,565	99,84
432,772	-14,85
432,979	7,68
433,187	-16,9
433,394	28,16
433,601	13,82
433,808	89,6
434,016	50,69
434,223	11,78
434,43	28,16
434,637	-14,85
434,844	34,3
435,052	69,12
435,259	75,26
435,466	173,57
435,673	71,17
435,88	28,16
436,087	67,07
436,294	134,65
436,501	52,74
436,708	17,92
436,915	22,02
437,122	79,36
437,329	24,06
437,537	52,74
437,743	71,17
437,95	91,65
438,157	71,17
438,364	48,64
438,571	81,41
438,778	128,51
438,985	67,07
439,192	75,26
439,399	54,78
439,606	142,85
439,813	69,12
440,02	91,65
440,227	126,46
440,433	85,5
440,64	60,93
440,847	93,69
441,054	126,46
441,261	194,05
441,467	142,85
441,674	163,33
441,881	163,33
442,088	101,89
442,294	177,66
442,501	140,8
442,708	200,19
442,914	208,38
443,121	261,63
443,328	249,34
443,534	353,79
443,741	304,64
443,948	288,25
444,154	263,68
444,361	394,75
444,568	499,19
444,774	470,52
444,981	480,76
445,187	599,54
445,394	591,35
445,6	710,13
445,807	783,86
446,013	939,51
446,22	865,78
446,426	1115,63
446,633	1236,46
446,839	1541,61
447,046	1508,84
447,252	1832,42
447,459	2117,09
447,665	2227,68
447,871	2692,57
448,078	3302,86
448,284	3417,55
448,491	3861,96
448,697	4707,77
448,903	5410,22
449,11	6290,85
449,316	7050,64
449,522	8342,91
449,728	9624,94
449,935	11001,18
450,141	12746,05
450,347	14884,12
450,553	15920,4
450,76	18291,94
450,966	21130,43
451,172	23299,23
451,378	26184,82
451,584	28781,64
451,791	31306,79
451,997	33575,94
452,203	36633,55
452,409	39490,47
452,615	40205,21
452,821	42032
453,027	42402,68
453,233	46484,28
453,44	45738,82
453,646	47594,28
453,852	49214,23
454,058	50752,25
454,264	50328,32
454,47	51849,96
454,676	51747,56
454,882	55030,46
455,088	50735,87
455,294	52142,82
455,5	54618,81
455,705	54643,39
455,911	53455,57
456,117	53476,05
456,323	53709,52
456,529	52165,35
456,735	54676,16
456,941	55007,93
457,147	55198,39
457,352	54293,19
457,558	53852,87
457,764	55642,8
457,97	55466,67
458,176	55071,42
458,381	55868,08
458,587	54395,59
458,793	55526,06
458,999	52548,32
459,204	57793,17
459,41	57768,59
459,616	53727,95
459,821	54285
460,027	54170,31
460,233	53297,87
460,438	50430,72
460,644	50832,12
460,85	47491,88
461,055	45189,97
461,261	43719,52
461,466	38204,35
461,672	35386,34
461,878	36303,83
462,083	31740,96
462,289	28824,65
462,494	26172,53
462,7	22846,63
462,905	20399,3
463,111	19496,15
463,316	17749,23
463,522	15826,19
463,727	14478,63
463,932	12707,13
464,138	11595,09
464,343	10179,94
464,549	8899,96
464,754	8349,06
464,959	7478,67
465,165	6530,46
465,37	5692,84
465,575	5023,16
465,781	4668,86
465,986	4294,08
466,191	3712,46
466,397	3302,86
466,602	2940,37
466,807	2672,09
467,012	2455
467,218	2186,72
467,423	2018,79
467,628	1852,9
467,833	1914,34
468,038	1623,53
468,244	1402,35
468,449	1449,45
468,654	1248,75
468,859	1179,12
469,064	1043,95
469,269	982,51
469,474	908,79
469,679	828,92
469,885	714,23
470,09	732,66
470,295	646,65
470,5	671,22
470,705	636,41
470,91	642,55
471,115	544,25
471,32	536,06
471,525	556,54
471,73	445,95
471,935	427,51
472,139	335,35
472,344	318,97
472,549	394,75
472,754	394,75
472,959	296,44
473,164	347,64
473,369	263,68
473,574	278,01
473,778	290,3
473,983	255,48
474,188	239,1
474,393	235
474,598	189,95
474,802	196,09
475,007	177,66
475,212	194,05
475,417	198,14
475,621	159,23
475,826	167,42
476,031	173,57
476,235	144,89
476,44	157,18
476,645	157,18
476,849	136,7
477,054	114,17
477,259	83,45
477,463	148,99
477,668	214,52
477,872	99,84
478,077	116,22
478,282	138,75
478,486	146,94
478,691	15,87
478,895	118,27
479,1	140,8
479,304	32,26
479,509	60,93
479,713	148,99
479,918	103,93
480,122	110,08
480,326	103,93
480,531	71,17
480,735	136,7
480,94	38,4
481,144	151,04
481,348	122,37
481,553	77,31
481,757	60,93
481,961	30,21
482,166	67,07
482,37	62,98
482,574	83,45
482,778	81,41
482,983	69,12
483,187	46,59
483,391	58,88
483,595	99,84
483,8	3,58
484,004	91,65
484,208	67,07
484,412	189,95
484,616	71,17
484,821	56,83
485,025	99,84
485,229	54,78
485,433	116,22
485,637	-4,61
485,841	54,78
486,045	26,11
486,249	46,59
486,453	38,4
486,657	-25,09
486,861	-8,7
487,065	15,87
487,269	50,69
487,473	91,65
487,677	44,54
487,881	99,84
488,085	62,98
488,289	36,35
488,493	-27,14
488,697	62,98
488,901	-37,38
489,105	83,45
489,309	42,5
489,512	22,02
489,716	83,45
489,92	15,87
490,124	89,6
490,328	130,56
490,531	19,97
490,735	50,69
490,939	22,02
491,143	22,02
491,346	24,06
491,55	75,26
491,754	44,54
491,958	38,4
492,161	73,21
492,365	46,59
492,569	-2,56
492,772	50,69
492,976	103,93
493,18	50,69
493,383	67,07
493,587	34,3
493,79	99,84
493,994	38,4
494,197	36,35
494,401	67,07
494,605	38,4
494,808	91,65
495,012	1,54
495,215	44,54
495,419	75,26
495,622	85,5
495,825	11,78
496,029	26,11
496,232	52,74
496,436	52,74
496,639	52,74
496,843	11,78
497,046	38,4
497,249	52,74
497,453	-4,61
497,656	1,54
497,859	58,88
498,063	93,69
498,266	26,11
498,469	81,41
498,673	-47,62
498,876	17,92
499,079	22,02
499,282	58,88
499,485	105,98
499,689	-2,56
499,892	-10,75
500,095	75,26
500,298	17,92
500,501	-27,14
500,705	1,54
500,908	101,89
501,111	30,21
501,314	48,64
501,517	-18,94
501,72	-4,61
501,923	-6,66
502,126	26,11
502,329	58,88
502,532	42,5
502,735	71,17
502,938	95,74
503,141	54,78
503,344	9,73
503,547	130,56
503,75	36,35
503,953	-4,61
504,156	38,4
504,359	9,73
504,562	-4,61
504,765	17,92
504,968	-23,04
505,17	17,92
505,373	-6,66
505,576	62,98
505,779	-27,14
505,982	-55,81
506,185	60,93
506,387	17,92
506,59	91,65
506,793	26,11
506,996	54,78
507,198	13,82
507,401	56,83
507,604	42,5
507,807	36,35
508,009	44,54
508,212	58,88
508,415	30,21
508,617	-4,61
508,82	30,21
509,022	79,36
509,225	36,35
509,428	75,26
509,63	7,68
509,833	116,22
510,035	42,5
510,238	58,88
510,44	30,21
510,643	34,3
510,845	58,88
511,048	67,07
511,25	28,16
511,453	54,78
511,655	-39,42
511,858	30,21
512,06	22,02
512,262	-27,14
512,465	-6,66
512,667	3,58
512,87	32,26
513,072	58,88
513,274	9,73
513,477	-8,7
513,679	-18,94
513,881	5,63
514,084	32,26
514,286	-25,09
514,488	124,41
514,69	38,4
514,893	93,69
515,095	-0,51
515,297	1,54
515,499	26,11
515,701	26,11
515,904	17,92
516,106	-43,52
516,308	42,5
516,51	-27,14
516,712	30,21
516,914	-4,61
517,116	9,73
517,318	69,12
517,52	60,93
517,722	38,4
517,925	-35,33
518,127	50,69
518,329	11,78
518,531	-27,14
518,733	1,54
518,935	17,92
519,136	9,73
519,338	26,11
519,54	-29,18
519,742	62,98
519,944	9,73
520,146	-37,38
520,348	46,59
520,55	15,87
520,752	34,3
520,954	-23,04
521,155	-8,7
521,357	-37,38
521,559	71,17
521,761	58,88
521,963	26,11
522,164	30,21
522,366	13,82
522,568	19,97
522,77	42,5
522,971	75,26
523,173	58,88
523,375	69,12
523,576	-6,66
523,778	-6,66
523,98	79,36
524,181	-14,85
524,383	75,26
524,584	44,54
524,786	112,13
524,988	-43,52
525,189	11,78
525,391	-31,23
525,592	1,54
525,794	-43,52
525,995	36,35
526,197	50,69
526,398	62,98
526,6	52,74
526,801	58,88
527,003	24,06
527,204	22,02
527,406	-16,9
527,607	110,08
527,808	7,68
528,01	22,02
528,211	42,5
528,412	-4,61
528,614	42,5
528,815	1,54
529,016	-4,61
529,218	-29,18
529,419	-23,04
529,62	-12,8
529,822	1,54
530,023	-31,23
530,224	-49,66
530,425	50,69
530,626	69,12
530,828	28,16
531,029	15,87
531,23	34,3
531,431	-35,33
531,632	40,45
531,833	34,3
532,035	56,83
532,236	91,65
532,437	97,79
532,638	-76,29
532,839	87,55
533,04	-74,24
533,241	38,4
533,442	-18,94
533,643	-6,66
533,844	-39,42
534,045	36,35
534,246	-25,09
534,447	28,16
534,648	38,4
534,849	15,87
535,05	-45,57
535,251	-47,62
535,451	-39,42
535,652	24,06
535,853	-35,33
536,054	44,54
536,255	52,74
536,456	50,69
536,657	3,58
536,857	3,58
537,058	9,73
537,259	-16,9
537,46	-70,14
537,66	-74,24
537,861	-39,42
538,062	11,78
538,263	5,63
538,463	-39,42
538,664	13,82
538,865	50,69
539,065	40,45
539,266	-53,76
539,466	-20,99
539,667	38,4
539,868	-12,8
540,068	52,74
540,269	58,88
540,469	26,11
540,67	42,5
540,87	95,74
541,071	19,97
541,271	83,45
541,472	54,78
541,672	-6,66
541,873	56,83
542,073	40,45
542,274	15,87
542,474	60,93
542,675	32,26
542,875	32,26
543,075	-18,94
543,276	38,4
543,476	1,54
543,676	15,87
543,877	42,5
544,077	30,21
544,277	-51,71
544,478	46,59
544,678	13,82
544,878	34,3
545,078	7,68
545,279	5,63
545,479	7,68
545,679	22,02
545,879	97,79
546,079	-39,42
546,28	-55,81
546,48	13,82
546,68	42,5
546,88	108,03
547,08	30,21
547,28	24,06
547,48	-39,42
547,68	5,63
547,88	5,63
548,081	58,88
548,281	-72,19
548,481	81,41
548,681	-53,76
548,881	83,45
549,081	-6,66
549,28	1,54
549,48	38,4
549,68	-23,04
549,88	-14,85
550,08	36,35
550,28	-27,14
550,48	62,98
550,68	11,78
550,88	-25,09
551,08	9,73
551,279	3,58
551,479	32,26
551,679	32,26
551,879	-23,04
552,079	67,07
552,278	26,11
552,478	93,69
552,678	19,97
552,878	11,78
553,077	-27,14
553,277	-6,66
553,477	-37,38
553,676	46,59
553,876	3,58
554,076	26,11
554,275	69,12
554,475	42,5
554,674	50,69
554,874	3,58
555,074	-14,85
555,273	-6,66
555,473	1,54
555,672	26,11
555,872	-88,57
556,071	3,58
556,271	30,21
556,47	11,78
556,67	-68,09
556,869	9,73
557,068	34,3
557,268	26,11
557,467	-10,75
557,667	114,17
557,866	58,88
558,065	62,98
558,265	-33,28
558,464	42,5
558,663	26,11
558,863	11,78
559,062	38,4
559,261	-6,66
559,461	75,26
559,66	62,98
559,859	42,5
560,058	-33,28
560,258	-2,56
560,457	-49,66
560,656	-6,66
560,855	32,26
561,054	-2,56
561,253	11,78
561,453	56,83
561,652	-12,8
561,851	32,26
562,05	83,45
562,249	-8,7
562,448	9,73
562,647	-14,85
562,846	1,54
563,045	3,58
563,244	36,35
563,443	-66,05
563,642	-6,66
563,841	77,31
564,04	-4,61
564,239	42,5
564,438	77,31
564,637	-64
564,836	-76,29
565,035	11,78
565,234	7,68
565,432	19,97
565,631	-2,56
565,83	62,98
566,029	19,97
566,228	-18,94
566,427	85,5
566,625	-31,23
566,824	-6,66
567,023	9,73
567,222	-100,86
567,42	-6,66
567,619	26,11
567,818	24,06
568,016	38,4
568,215	24,06
568,414	3,58
568,612	-18,94
568,811	62,98
569,01	-16,9
569,208	9,73
569,407	-18,94
569,605	67,07
569,804	-16,9
570,002	-6,66
570,201	7,68
570,4	5,63
570,598	13,82
570,797	-4,61
570,995	91,65
571,193	-37,38
571,392	67,07
571,59	-6,66
571,789	42,5
571,987	3,58
572,186	52,74
572,384	-4,61
572,582	26,11
572,781	71,17
572,979	-12,8
573,177	-16,9
573,376	-51,71
573,574	48,64
573,772	-49,66
573,971	-37,38
574,169	-27,14
574,367	58,88
574,565	-18,94
574,763	9,73
574,962	85,5
575,16	46,59
575,358	-31,23
575,556	75,26
575,754	-8,7
575,952	1,54
576,151	32,26
576,349	28,16
576,547	26,11
576,745	-39,42
576,943	17,92
577,141	17,92
577,339	1,54
577,537	38,4
577,735	34,3
577,933	-18,94
578,131	22,02
578,329	50,69
578,527	17,92
578,725	-8,7
578,923	-86,53
579,121	-31,23
579,319	-49,66
579,516	-31,23
579,714	44,54
579,912	-6,66
580,11	-70,14
580,308	-10,75
580,506	22,02
580,704	-20,99
580,901	-64
581,099	9,73
581,297	-18,94
581,495	-64
581,692	7,68
581,89	46,59
582,088	83,45
582,285	42,5
582,483	9,73
582,681	30,21
582,878	7,68
583,076	60,93
583,274	-37,38
583,471	60,93
583,669	-61,95
583,866	-4,61
584,064	13,82
584,262	-90,62
584,459	-43,52
584,657	22,02
584,854	-23,04
585,052	42,5
585,249	58,88
585,447	-61,95
585,644	36,35
585,841	44,54
586,039	24,06
586,236	-2,56
586,434	30,21
586,631	-41,47
586,828	-45,57
587,026	40,45
587,223	-51,71
587,42	-10,75
587,618	-41,47
587,815	34,3
588,012	75,26
588,21	-2,56
588,407	19,97
588,604	5,63
588,801	-39,42
588,999	-45,57
589,196	28,16
589,393	28,16
589,59	36,35
589,787	32,26
589,984	-6,66
590,182	1,54
590,379	26,11
590,576	22,02
590,773	-29,18
590,97	87,55
591,167	19,97
591,364	60,93
591,561	-59,9
591,758	32,26
591,955	54,78
592,152	1,54
592,349	28,16
592,546	-4,61
592,743	-66,05
592,94	-39,42
593,137	9,73
593,334	93,69
593,531	-27,14
593,727	54,78
593,924	-10,75
594,121	5,63
594,318	-20,99
594,515	26,11
594,712	22,02
594,908	30,21
595,105	-31,23
595,302	97,79
595,499	9,73
595,696	22,02
595,892	-39,42
596,089	40,45
596,286	9,73
596,482	54,78
596,679	58,88
596,876	-14,85
597,072	42,5
597,269	-10,75
597,466	42,5
597,662	-0,51
597,859	-27,14
598,055	-0,51
598,252	13,82
598,448	91,65
598,645	5,63
598,841	58,88
599,038	28,16
599,234	30,21
599,431	-10,75
599,627	-16,9
599,824	30,21
600,02	34,3
600,217	40,45
600,413	67,07
600,609	3,58
600,806	54,78
601,002	-23,04
601,198	-55,81
601,395	1,54
601,591	-35,33
601,787	-47,62
601,984	7,68
602,18	-25,09
602,376	-6,66
602,572	26,11
602,769	7,68
602,965	-55,81
603,161	13,82
603,357	-51,71
603,553	-47,62
603,75	-14,85
603,946	11,78
604,142	9,73
604,338	-20,99
604,534	1,54
604,73	3,58
604,926	9,73
605,122	52,74
605,318	-35,33
605,514	-35,33
605,71	-10,75
605,906	9,73
606,102	-80,38
606,298	-4,61
606,494	44,54
606,69	36,35
606,886	-12,8
607,082	-23,04
607,278	-29,18
607,474	17,92
607,67	58,88
607,866	9,73
608,062	69,12
608,257	79,36
608,453	-84,48
608,649	-6,66
608,845	-16,9
609,041	-2,56
609,236	-51,71
609,432	44,54
609,628	65,02
609,824	7,68
610,019	-2,56
610,215	-18,94
610,411	-43,52
610,606	11,78
610,802	-14,85
610,998	-55,81
611,193	75,26
611,389	-29,18
611,584	52,74
611,78	3,58
611,976	-51,71
612,171	34,3
612,367	44,54
612,562	48,64
612,758	-18,94
612,953	56,83
613,149	3,58
613,344	26,11
613,539	-107,01
613,735	11,78
613,93	-16,9
614,126	-72,19
614,321	-35,33
614,517	-2,56
614,712	26,11
614,907	-23,04
615,103	-55,81
615,298	11,78
615,493	-14,85
615,688	-12,8
615,884	26,11
616,079	-72,19
616,274	11,78
616,47	-31,23
616,665	-70,14
616,86	56,83
617,055	28,16
617,25	32,26
617,445	-10,75
617,641	-55,81
617,836	3,58
618,031	-16,9
618,226	103,93
618,421	-6,66
618,616	-57,86
618,811	17,92
619,006	-2,56
619,201	-6,66
619,396	1,54
619,591	-82,43
619,786	-0,51
619,981	58,88
620,176	-35,33
620,371	38,4
620,566	-39,42
620,761	79,36
620,956	-20,99
621,151	-18,94
621,346	28,16
621,541	1,54
621,735	-27,14
621,93	-8,7
622,125	36,35
622,32	3,58
622,515	13,82
622,709	3,58
622,904	1,54
623,099	32,26
623,294	-23,04
623,488	62,98
623,683	-76,29
623,878	-27,14
624,072	-10,75
624,267	1,54
624,462	-47,62
624,656	-6,66
624,851	42,5
625,046	-25,09
625,24	-55,81
625,435	26,11
625,629	1,54
625,824	75,26
626,018	46,59
626,213	13,82
626,407	-18,94
626,602	9,73
626,796	13,82
626,991	28,16
627,185	-31,23
627,38	17,92
627,574	-33,28
627,768	91,65
627,963	13,82
628,157	34,3
628,352	34,3
628,546	-23,04
628,74	-10,75
628,935	-39,42
629,129	-8,7
629,323	-4,61
629,517	1,54
629,712	11,78
629,906	38,4
630,1	85,5
630,294	54,78
630,489	124,41
630,683	5,63
630,877	40,45
631,071	17,92
631,265	30,21
631,459	65,02
631,653	-4,61
631,848	40,45
632,042	42,5
632,236	-39,42
632,43	38,4
632,624	-20,99
632,818	-23,04
633,012	50,69
633,206	-31,23
633,4	19,97
633,594	28,16
633,788	-29,18
633,982	-37,38
634,176	1,54
634,369	-45,57
634,563	36,35
634,757	-29,18
634,951	7,68
635,145	36,35
635,339	-14,85
635,533	99,84
635,726	-20,99
635,92	-45,57
636,114	-39,42
636,308	48,64
636,501	32,26
636,695	48,64
636,889	-43,52
637,083	50,69
637,276	-4,61
637,47	13,82
637,664	5,63
637,857	-2,56
638,051	-72,19
638,244	67,07
638,438	5,63
638,632	52,74
638,825	-53,76
639,019	124,41
639,212	42,5
639,406	-39,42
639,599	-109,05
639,793	9,73
639,986	28,16
640,18	26,11
640,373	-6,66
640,567	22,02
640,76	79,36
640,954	-25,09
641,147	87,55
641,34	15,87
641,534	-23,04
641,727	32,26
641,92	42,5
642,114	95,74
642,307	-31,23
642,5	3,58
642,694	-45,57
642,887	17,92
643,08	71,17
643,273	32,26
643,467	9,73
643,66	-61,95
643,853	26,11
644,046	-23,04
644,239	9,73
644,432	1,54
644,626	-53,76
644,819	-37,38
645,012	-31,23
645,205	-27,14
645,398	-25,09
645,591	22,02
645,784	-37,38
645,977	42,5
646,17	-2,56
646,363	7,68
646,556	28,16
646,749	-64
646,942	5,63
647,135	67,07
647,328	17,92
647,521	22,02
647,714	-14,85
647,907	54,78
648,099	-29,18
648,292	42,5
648,485	7,68
648,678	17,92
648,871	-45,57
649,064	24,06
649,256	24,06
649,449	30,21
649,642	-6,66
649,835	-29,18
650,027	-23,04
650,22	67,07
650,413	15,87
650,605	-20,99
650,798	1,54
650,991	36,35
651,183	52,74
651,376	56,83
651,568	44,54
651,761	-10,75
651,954	15,87
652,146	17,92
652,339	28,16
652,531	38,4
652,724	-2,56
652,916	17,92
653,109	-31,23
653,301	69,12
653,494	69,12
653,686	-27,14
653,879	3,58
654,071	54,78
654,263	11,78
654,456	83,45
654,648	5,63
654,84	26,11
655,033	17,92
655,225	69,12
655,417	-20,99
655,61	42,5
655,802	-4,61
655,994	105,98
656,186	38,4
656,379	48,64
656,571	-23,04
656,763	34,3
656,955	5,63
657,148	34,3
657,34	7,68
657,532	1,54
657,724	-31,23
657,916	1,54
658,108	19,97
658,3	7,68
658,492	28,16
658,684	17,92
658,876	-39,42
659,068	-4,61
659,26	-43,52
659,452	13,82
659,644	19,97
659,836	34,3
660,028	-39,42
660,22	-14,85
660,412	-20,99
660,604	26,11
660,796	-4,61
660,988	30,21
661,18	77,31
661,372	-14,85
661,563	42,5
661,755	-10,75
661,947	-20,99
662,139	108,03
662,331	3,58
662,522	-0,51
662,714	-43,52
662,906	9,73
663,097	-10,75
663,289	-53,76
663,481	11,78
663,673	-8,7
663,864	38,4
664,056	28,16
664,247	-20,99
664,439	42,5
664,631	30,21
664,822	52,74
665,014	11,78
665,205	32,26
665,397	-37,38
665,588	36,35
665,78	26,11
665,971	11,78
666,163	-10,75
666,354	50,69
666,546	-39,42
666,737	22,02
666,929	7,68
667,12	-18,94
667,311	58,88
667,503	-2,56
667,694	17,92
667,885	-14,85
668,077	-41,47
668,268	42,5
668,459	44,54
668,651	56,83
668,842	60,93
669,033	-14,85
669,224	-14,85
669,416	112,13
669,607	-35,33
669,798	13,82
669,989	56,83
670,18	1,54
670,371	-14,85
670,563	34,3
670,754	11,78
670,945	77,31
671,136	24,06
671,327	-20,99
671,518	85,5
671,709	75,26
671,9	5,63
672,091	69,12
672,282	77,31
672,473	28,16
672,664	42,5
672,855	65,02
673,046	-53,76
673,237	73,21
673,428	-12,8
673,619	-20,99
673,809	-27,14
674	48,64
674,191	24,06
674,382	26,11
674,573	95,74
674,764	52,74
674,954	52,74
675,145	65,02
675,336	-14,85
675,527	-55,81
675,717	-4,61
675,908	-45,57
676,099	11,78
676,289	50,69
676,48	28,16
676,671	1,54
676,861	17,92
677,052	-6,66
677,243	22,02
677,433	-70,14
677,624	36,35
677,814	-23,04
678,005	-4,61
678,195	-6,66
678,386	-16,9
678,576	60,93
678,767	46,59
678,957	58,88
679,148	-88,57
679,338	44,54
679,529	79,36
679,719	-55,81
679,909	5,63
680,1	22,02
680,29	7,68
680,481	-12,8
680,671	-18,94
680,861	1,54
681,052	-29,18
681,242	44,54
681,432	-61,95
681,622	54,78
681,813	-43,52
682,003	-61,95
682,193	5,63
682,383	-16,9
682,573	-41,47
682,764	-6,66
682,954	46,59
683,144	48,64
683,334	52,74
683,524	-14,85
683,714	3,58
683,904	11,78
684,094	-31,23
684,284	22,02
684,474	77,31
684,664	-20,99
684,854	-25,09
685,044	7,68
685,234	1,54
685,424	-27,14
685,614	36,35
685,804	24,06
685,994	-4,61
686,184	-2,56
686,374	-4,61
686,564	-2,56
686,753	69,12
686,943	3,58
687,133	42,5
687,323	-6,66
687,513	5,63
687,702	17,92
687,892	60,93
688,082	-4,61
688,272	-37,38
688,461	11,78
688,651	7,68
688,841	79,36
689,03	-39,42
689,22	52,74
689,41	28,16
689,599	75,26
689,789	-72,19
689,979	83,45
690,168	9,73
690,358	9,73
690,547	26,11
690,737	67,07
690,926	-0,51
691,116	17,92
691,305	46,59
691,495	46,59
691,684	11,78
691,874	28,16
692,063	13,82
692,252	36,35
692,442	11,78
692,631	73,21
692,82	34,3
693,01	-31,23
693,199	-57,86
693,388	3,58
693,578	17,92
693,767	17,92
693,956	-33,28
694,146	60,93
694,335	-6,66
694,524	-23,04
694,713	-41,47
694,902	-31,23
695,092	-23,04
695,281	26,11
695,47	1,54
695,659	7,68
695,848	58,88
696,037	11,78
696,226	-37,38
696,415	30,21
696,604	22,02
696,793	50,69
696,982	-8,7
697,171	34,3
697,36	-6,66
697,549	26,11
697,738	-96,77
697,927	30,21
698,116	44,54
698,305	-14,85
698,494	-31,23
698,683	-12,8
698,872	22,02
699,061	-49,66
699,25	-16,9
699,438	7,68
699,627	-47,62
699,816	181,76
700,005	-23,04
700,193	19,97
700,382	105,98
700,571	-47,62
700,76	38,4
700,948	-6,66
701,137	-27,14
701,326	11,78
701,514	7,68
701,703	99,84
701,892	-2,56
702,08	32,26
702,269	26,11
702,457	17,92
702,646	26,11
702,834	42,5
703,023	85,5
703,212	-14,85
703,4	13,82
703,589	67,07
703,777	5,63
703,965	-53,76
704,154	-53,76
704,342	-23,04
704,531	9,73
704,719	54,78
704,907	28,16
705,096	9,73
705,284	-47,62
705,472	-39,42
705,661	-41,47
705,849	52,74
706,037	58,88
706,226	-6,66
706,414	1,54
706,602	-23,04
706,79	-14,85
706,979	-2,56
707,167	15,87
707,355	-35,33
707,543	-2,56
707,731	19,97
707,919	-45,57
708,107	-43,52
708,296	-33,28
708,484	-12,8
708,672	5,63
708,86	24,06
709,048	-14,85
709,236	-55,81
709,424	-27,14
709,612	11,78
709,8	-23,04
709,988	77,31
710,176	52,74
710,364	-6,66
710,551	11,78
710,739	-37,38
710,927	13,82
711,115	5,63
711,303	-20,99
711,491	75,26
711,679	-59,9
711,866	3,58
712,054	-78,33
712,242	-29,18
712,43	9,73
712,617	95,74
712,805	-12,8
712,993	38,4
713,181	-43,52
713,368	67,07
713,556	-88,57
713,744	5,63
713,931	28,16
714,119	26,11
714,306	48,64
714,494	-16,9
714,682	48,64
714,869	-55,81
715,057	-0,51
715,244	-0,51
715,432	-14,85
715,619	-6,66
715,807	-12,8
715,994	-2,56
716,182	30,21
716,369	-6,66
716,556	50,69
716,744	-12,8
716,931	-20,99
717,119	-45,57
717,306	-55,81
717,493	42,5
717,681	-2,56
717,868	1,54
718,055	26,11
718,242	-18,94
718,43	22,02
718,617	58,88
718,804	-23,04
718,991	28,16
719,179	-20,99
719,366	24,06
719,553	-12,8
719,74	32,26
719,927	-4,61
720,114	-10,75
720,301	-23,04
720,488	-14,85
720,676	11,78
720,863	26,11
721,05	46,59
721,237	24,06
721,424	65,02
721,611	1,54
721,798	-23,04
721,985	-29,18
722,172	15,87
722,358	-35,33
722,545	17,92
722,732	-27,14
722,919	-27,14
723,106	-6,66
723,293	-37,38
723,48	30,21
723,667	-29,18
723,853	38,4
724,04	9,73
724,227	62,98
724,414	-45,57
724,6	38,4
724,787	30,21
724,974	91,65
725,161	-31,23
725,347	-55,81
725,534	22,02
725,72	1,54
725,907	-20,99
726,094	17,92
726,28	9,73
726,467	1,54
726,653	-14,85
726,84	46,59
727,027	-27,14
727,213	-39,42
727,4	114,17
727,586	17,92
727,773	-43,52
727,959	-43,52
728,145	54,78
728,332	75,26
728,518	-6,66
728,705	-10,75
728,891	-10,75
729,077	62,98
729,264	-6,66
729,45	28,16
729,636	11,78
729,823	-8,7
730,009	-27,14
730,195	-35,33
730,382	9,73
730,568	5,63
730,754	17,92
730,94	19,97
731,126	-8,7
731,313	-6,66
731,499	34,3
731,685	69,12
731,871	60,93
732,057	3,58
732,243	40,45
732,429	28,16
732,615	-18,94
732,801	-4,61
732,987	-47,62
733,173	-14,85
733,359	-23,04
733,545	-45,57
733,731	-4,61
733,917	30,21
734,103	-10,75
734,289	-14,85
734,475	-10,75
734,661	22,02
734,847	-0,51
735,033	-10,75
735,219	-12,8
735,404	22,02
735,59	-39,42
735,776	-66,05
735,962	-10,75
736,148	62,98
736,333	9,73
736,519	50,69
736,705	-12,8
736,89	19,97
737,076	-18,94
737,262	1,54
737,447	-6,66
737,633	-4,61
737,819	42,5
738,004	28,16
738,19	50,69
738,375	7,68
738,561	22,02
738,747	50,69
738,932	-4,61
739,118	50,69
739,303	-0,51
739,489	93,69
739,674	7,68
739,859	1,54
740,045	-6,66
740,23	-14,85
740,416	-14,85
740,601	-27,14
740,786	11,78
740,972	-64
741,157	15,87
741,342	60,93
741,528	-78,33
741,713	-14,85
741,898	1,54
742,084	-27,14
742,269	11,78
742,454	28,16
742,639	-41,47
742,824	1,54
743,01	58,88
743,195	101,89
743,38	5,63
743,565	1,54
743,75	-47,62
743,935	-4,61
744,12	13,82
744,305	-51,71
744,49	65,02
744,675	71,17
744,86	9,73
745,045	-14,85
745,23	62,98
745,415	-16,9
745,6	-51,71
745,785	28,16
745,97	44,54
746,155	-61,95
746,34	9,73
746,525	-31,23
746,71	71,17
746,895	67,07
747,079	-10,75
747,264	-31,23
747,449	44,54
747,634	83,45
747,819	1,54
748,003	-51,71
748,188	28,16
748,373	-14,85
748,557	-4,61
748,742	13,82
748,927	42,5
749,111	-10,75
749,296	-49,66
749,481	19,97
749,665	32,26
749,85	-10,75
750,034	-33,28
750,219	-2,56
750,404	-59,9
750,588	30,21
750,773	-86,53
750,957	42,5
751,141	-8,7
751,326	-12,8
751,51	-76,29
751,695	26,11
751,879	-41,47
752,064	42,5
752,248	15,87
752,432	67,07
752,617	9,73
752,801	67,07
752,985	1,54
753,17	13,82
753,354	60,93
753,538	-23,04
753,722	58,88
753,907	13,82
754,091	1,54
754,275	50,69
754,459	-27,14
754,643	34,3
754,828	58,88
755,012	46,59
755,196	5,63
755,38	-20,99
755,564	3,58
755,748	5,63
755,932	19,97
756,116	-37,38
756,3	79,36
756,484	9,73
756,668	34,3
756,852	-37,38
757,036	26,11
757,22	-16,9
757,404	-29,18
757,588	77,31
757,772	-68,09
757,956	52,74
758,14	-6,66
758,323	-25,09
758,507	-10,75
758,691	46,59
758,875	-51,71
759,059	17,92
759,242	-12,8
759,426	67,07
759,61	7,68
759,794	-12,8
759,977	19,97
760,161	108,03
760,345	-35,33
760,528	95,74
760,712	52,74
760,895	58,88
761,079	-29,18
761,263	-6,66
761,446	24,06
761,63	-20,99
761,813	-49,66
761,997	9,73
762,18	-27,14
762,364	-18,94
762,547	-29,18
762,731	-6,66
762,914	3,58
763,098	1,54
763,281	28,16
763,464	9,73
763,648	83,45
763,831	-31,23
764,015	-2,56
764,198	-6,66
764,381	-31,23
764,564	5,63
764,748	22,02
764,931	-12,8
765,114	3,58
765,297	73,21
765,481	-31,23
765,664	36,35
765,847	28,16
766,03	-37,38
766,213	-100,86
766,397	-27,14
766,58	-27,14
766,763	38,4
766,946	-14,85
767,129	-16,9
767,312	-68,09
767,495	-4,61
767,678	-31,23
767,861	-2,56
768,044	-55,81
768,227	-47,62
768,41	36,35
768,593	3,58
768,776	-27,14
768,959	50,69
769,142	34,3
769,324	-16,9
769,507	-35,33
769,69	9,73
769,873	42,5
770,056	28,16
770,239	-53,76
770,421	34,3
770,604	-14,85
770,787	3,58
770,97	17,92
771,152	-27,14
771,335	17,92
771,518	11,78
771,7	-4,61
771,883	-14,85
772,066	-27,14
772,248	71,17
772,431	9,73
772,613	-10,75
772,796	-6,66
772,978	-25,09
773,161	52,74
773,343	126,46
773,526	24,06
773,708	-27,14
773,891	19,97
774,073	-53,76
774,256	-18,94
774,438	-20,99
774,621	34,3
774,803	-27,14
774,985	-18,94
775,168	50,69
775,35	3,58
775,532	28,16
775,715	-68,09
775,897	-61,95
776,079	9,73
776,261	34,3
776,444	-31,23
776,626	62,98
776,808	-35,33
776,99	15,87
777,173	-51,71
777,355	-2,56
777,537	77,31
777,719	-41,47
777,901	-4,61
778,083	81,41
778,265	-23,04
778,447	26,11
778,629	5,63
778,811	-55,81
778,993	-98,81
779,175	67,07
779,357	62,98
779,539	-23,04
779,721	5,63
779,903	22,02
780,085	32,26
780,267	36,35
780,449	9,73
780,631	11,78
780,812	-29,18
780,994	36,35
781,176	19,97
781,358	7,68
781,54	5,63
781,721	34,3
781,903	26,11
782,085	-47,62
782,267	1,54
782,448	22,02
782,63	50,69
782,812	34,3
782,993	50,69
783,175	-6,66
783,357	22,02
783,538	36,35
783,72	1,54
783,901	81,41
784,083	-16,9
784,264	62,98
784,446	-94,72
784,627	54,78
784,809	15,87
784,99	7,68
785,172	24,06
785,353	-68,09
785,535	50,69
785,716	-12,8
785,897	-55,81
786,079	-80,38
786,26	44,54
786,441	19,97
786,623	-92,67
786,804	5,63
786,985	83,45
787,167	-6,66
787,348	5,63
787,529	-4,61
787,71	-2,56
787,891	-6,66
788,073	-6,66
788,254	26,11
788,435	83,45
788,616	71,17
788,797	-80,38
788,978	-14,85
789,159	-6,66
789,34	46,59
789,522	-27,14
789,703	3,58
789,884	-29,18
790,065	1,54
790,246	93,69
790,427	-55,81
790,607	110,08
790,788	71,17
790,969	11,78
791,15	-14,85
791,331	-10,75
791,512	-10,75
791,693	-35,33
791,874	-23,04
792,054	19,97
792,235	48,64
792,416	-51,71
792,597	-6,66
792,778	-27,14
792,958	19,97
793,139	46,59
793,32	1,54
793,5	50,69
793,681	9,73
793,862	28,16
794,042	3,58
794,223	5,63
794,404	30,21
794,584	30,21
794,765	56,83
794,945	17,92
795,126	-6,66
795,306	-18,94
795,487	44,54
795,667	-2,56
795,848	-39,42
796,028	1,54
796,209	24,06
796,389	17,92
796,57	36,35
796,75	-2,56
796,93	-27,14
797,111	-82,43
797,291	-31,23
797,471	-6,66
797,652	-43,52
797,832	17,92
798,012	-39,42
798,192	-51,71
798,373	5,63
798,553	-12,8
798,733	5,63
798,913	-10,75
799,093	11,78
799,274	-4,61
799,454	42,5
799,634	26,11
799,814	28,16
799,994	-78,33
800,174	36,35
800,354	-12,8
800,534	-109,05
800,714	7,68
800,894	38,4
801,074	-14,85
801,254	13,82
801,434	26,11
801,614	-39,42
801,794	-119,29
801,974	447,99
802,154	-14,85
802,334	1,54
802,514	-12,8
802,693	30,21
802,873	-78,33
803,053	52,74
803,233	-6,66
803,413	-72,19
803,592	52,74
803,772	9,73
803,952	-20,99
804,131	-51,71
804,311	67,07
804,491	83,45
804,67	34,3
804,85	3,58
805,03	-35,33
805,209	34,3
805,389	-12,8
805,568	-23,04
805,748	-61,95
805,928	19,97
806,107	-8,7
806,287	26,11
806,466	-18,94
806,646	3,58
806,825	-10,75
807,004	5,63
807,184	7,68
807,363	-4,61
807,543	-49,66
807,722	-43,52
807,901	-10,75
808,081	7,68
808,26	-41,47
808,439	-2,56
808,619	-4,61
808,798	19,97
808,977	-51,71
809,156	-6,66
809,336	-23,04
809,515	28,16
809,694	-37,38
809,873	1,54
810,052	19,97
810,231	15,87
810,411	19,97
810,59	71,17
810,769	-49,66
810,948	-6,66
811,127	-0,51
811,306	-12,8
811,485	-2,56
811,664	58,88
811,843	34,3
812,022	5,63
812,201	-14,85
812,38	-31,23
812,559	36,35
812,737	22,02
812,916	-29,18
813,095	-20,99
813,274	-23,04
813,453	11,78
813,632	-55,81
813,811	114,17
813,989	-35,33
814,168	-47,62
814,347	30,21
814,526	-25,09
814,704	-70,14
814,883	-4,61
815,062	-12,8
815,24	30,21
815,419	34,3
815,598	-14,85
815,776	-14,85
815,955	-31,23
816,133	-35,33
816,312	1,54
816,49	-84,48
816,669	34,3
816,847	-57,86
817,026	22,02
817,204	-4,61
817,383	-16,9
817,561	1,54
817,74	42,5
817,918	-47,62
818,097	-45,57
818,275	22,02
818,453	-12,8
818,632	19,97
818,81	58,88
818,988	-29,18
819,167	-6,66
819,345	60,93
819,523	28,16
819,701	-16,9
819,879	-2,56
820,058	28,16
820,236	-14,85
820,414	44,54
820,592	-23,04
820,77	-4,61
820,948	19,97
821,127	22,02
821,305	-70,14
821,483	-10,75
821,661	40,45
821,839	13,82
822,017	-2,56
822,195	9,73
822,373	38,4
822,551	30,21
822,729	85,5
822,907	-41,47
823,085	40,45
823,262	-80,38
823,44	-39,42
823,618	-20,99
823,796	-6,66
823,974	-98,81
824,152	3,58
824,329	-16,9
824,507	22,02
824,685	83,45
824,863	24,06
825,04	-4,61
825,218	-53,76
825,396	-66,05
825,574	-27,14
825,751	13,82
825,929	93,69
826,107	-4,61
826,284	22,02
826,462	-31,23
826,639	-86,53
826,817	50,69
826,994	26,11
827,172	-53,76
827,349	77,31
827,527	67,07
827,704	-23,04
827,882	-31,23
828,059	5,63
828,237	-14,85
828,414	58,88
828,591	-45,57
828,769	-37,38
828,946	-14,85
829,124	58,88
829,301	67,07
829,478	34,3
829,655	-2,56
829,833	24,06
830,01	-88,57
830,187	19,97
830,364	30,21
830,542	5,63
830,719	22,02
830,896	28,16
831,073	-8,7
831,25	-49,66
831,427	-16,9
831,604	11,78
831,782	30,21
831,959	-4,61
832,136	15,87
832,313	28,16
832,49	-72,19
832,667	1,54
832,844	-72,19
833,021	-6,66
833,198	-41,47
833,374	-14,85
833,551	69,12
833,728	-98,81
833,905	9,73
834,082	-35,33
834,259	-12,8
834,436	26,11
834,612	-0,51
834,789	-86,53
834,966	56,83
835,143	5,63
835,319	-96,77
835,496	-25,09
835,673	-31,23
835,85	50,69
836,026	5,63
836,203	-29,18
836,38	-25,09
836,556	-20,99
836,733	-51,71
836,909	5,63
837,086	-27,14
837,262	1,54
837,439	22,02
837,616	-45,57
837,792	1,54
837,968	34,3
838,145	-23,04
838,321	13,82
838,498	103,93
838,674	3,58
838,851	-6,66
839,027	1,54
839,203	-8,7
839,38	30,21
839,556	-2,56
839,732	30,21
839,909	-47,62
840,085	-6,66
840,261	1,54
840,437	-59,9
840,614	56,83
840,79	32,26
840,966	-12,8
841,142	-10,75
841,318	-16,9
841,494	36,35
841,671	3,58
841,847	3,58
842,023	-31,23
842,199	-12,8
842,375	-18,94
842,551	-4,61
842,727	-37,38
842,903	56,83
843,079	-16,9
843,255	46,59
843,431	-23,04
843,607	17,92
843,783	24,06
843,959	-8,7
844,134	38,4
844,31	1,54
844,486	-10,75
844,662	-53,76
844,838	-53,76
845,013	1,54
845,189	30,21
845,365	-14,85
845,541	71,17
845,716	28,16
845,892	3,58
846,068	56,83
846,244	-49,66
846,419	-25,09
846,595	-8,7
846,77	48,64
846,946	11,78
847,122	-18,94
847,297	-39,42
847,473	62,98
847,648	-16,9
847,824	19,97
847,999	52,74
848,175	3,58
848,35	-33,28
848,526	-12,8
848,701	17,92
848,876	7,68
849,052	44,54
849,227	22,02
849,403	-74,24
849,578	-12,8
849,753	-47,62
849,929	-55,81
850,104	-47,62
850,279	-12,8
850,454	40,45
850,63	-6,66
850,805	-4,61
850,98	13,82
851,155	-23,04
851,33	-70,14
851,505	-23,04
851,681	42,5
851,856	-39,42
852,031	11,78
852,206	36,35
852,381	-33,28
852,556	-16,9
852,731	-41,47
852,906	19,97
853,081	26,11
853,256	-27,14
853,431	-10,75
853,606	-14,85
853,781	7,68
853,956	13,82
854,131	-55,81
854,305	-72,19
854,48	-10,75
854,655	-20,99
854,83	42,5
855,005	11,78
855,18	-14,85
855,354	9,73
855,529	22,02
855,704	-20,99
855,879	26,11
856,053	-31,23
856,228	-8,7
856,403	-135,68
856,577	52,74
856,752	36,35
856,926	38,4
857,101	-43,52
857,276	-123,39
857,45	26,11
857,625	5,63
857,799	-74,24
857,974	-35,33
858,148	-33,28
858,323	85,5
858,497	-45,57
858,672	-59,9
858,846	7,68
859,02	26,11
859,195	-14,85
859,369	-29,18
859,543	77,31
859,718	42,5
859,892	-14,85
860,066	-55,81
860,241	-27,14
860,415	-4,61
860,589	-41,47
860,763	-27,14
860,938	-23,04
861,112	9,73
861,286	1,54
861,46	5,63
861,634	52,74
861,808	138,75
861,982	-12,8
862,157	40,45
862,331	28,16
862,505	-68,09
862,679	-59,9
862,853	-64
863,027	-20,99
863,201	-35,33
863,375	1,54
863,549	-80,38
863,722	54,78
863,896	77,31
864,07	-64
864,244	-43,52
864,418	54,78
864,592	28,16
864,766	-27,14
864,939	34,3
865,113	-6,66
865,287	67,07
865,461	17,92
865,634	34,3
865,808	3,58
865,982	-47,62
866,156	-64
866,329	-8,7
866,503	-6,66
866,676	13,82
866,85	42,5
867,024	-20,99
867,197	44,54
867,371	75,26
867,544	9,73
867,718	-37,38
867,891	13,82
868,065	-45,57
868,238	15,87
868,412	-6,66
868,585	34,3
868,759	46,59
868,932	-53,76
869,105	26,11
869,279	-47,62
869,452	-20,99
869,625	-6,66
869,799	-53,76
869,972	-27,14
870,145	-59,9
870,319	36,35
870,492	1,54
870,665	34,3
870,838	26,11
871,011	3,58
871,185	-16,9
871,358	9,73
871,531	-23,04
871,704	-31,23
871,877	26,11
872,05	-43,52
872,223	85,5
872,396	-29,18
872,569	44,54
872,742	-14,85
872,915	-55,81
873,088	24,06
873,261	34,3
873,434	-18,94
873,607	-14,85
873,78	52,74
873,953	58,88
874,126	-10,75
874,299	-27,14
874,471	-49,66
874,644	-53,76
874,817	-4,61
874,99	85,5
875,163	-23,04
875,335	-59,9
875,508	17,92
875,681	77,31
875,853	-39,42
876,026	-4,61
876,199	-4,61
876,371	24,06
876,544	-33,28
876,717	38,4
876,889	-6,66
877,062	5,63
877,234	-31,23
877,407	-27,14
877,579	22,02
877,752	-0,51
877,924	7,68
878,097	26,11
878,269	30,21
878,442	36,35
878,614	3,58
878,786	50,69
878,959	42,5
879,131	-0,51
879,303	-20,99
879,476	-59,9
879,648	-25,09
879,82	-47,62
879,993	44,54
880,165	-29,18
880,337	-39,42
880,509	1,54
880,681	-55,81
880,854	17,92
881,026	11,78
881,198	-39,42
881,37	-43,52
881,542	-33,28
881,714	-59,9
881,886	-10,75
882,058	46,59
882,23	58,88
882,402	-8,7
882,574	-49,66
882,746	26,11
882,918	-35,33
883,09	40,45
883,262	9,73
883,434	30,21
883,606	-20,99
883,778	-2,56
883,95	34,3
884,122	-10,75
884,293	-12,8
884,465	-31,23
884,637	30,21
884,809	-88,57
884,98	30,21
885,152	24,06
885,324	44,54
885,496	-55,81
885,667	-29,18
885,839	24,06
886,011	75,26
886,182	-31,23
886,354	-53,76
886,525	-2,56
886,697	36,35
886,869	-4,61
887,04	-47,62
887,212	34,3
887,383	65,02
887,555	5,63
887,726	17,92
887,897	-2,56
888,069	22,02
888,24	-29,18
888,412	3,58
888,583	65,02
888,754	5,63
888,926	34,3
889,097	30,21
889,268	-35,33
889,44	30,21
889,611	-20,99
889,782	30,21
889,953	-25,09
890,125	-41,47
890,296	-31,23
890,467	-43,52
890,638	-37,38
890,809	-39,42
890,98	-0,51
891,151	-27,14
891,323	-0,51
891,494	34,3
891,665	-2,56
891,836	-27,14
892,007	-20,99
892,178	87,55
892,349	36,35
892,52	-14,85
892,691	17,92
892,862	9,73
893,032	-123,39
893,203	-64
893,374	-51,71
893,545	9,73
893,716	36,35
893,887	-23,04
894,057	44,54
894,228	1,54
894,399	-76,29
894,57	103,93
894,74	-64
894,911	50,69
895,082	3,58
895,253	24,06
895,423	-55,81
895,594	-33,28
895,764	38,4
895,935	-64
896,106	28,16
896,276	7,68
896,447	-20,99
896,617	11,78
896,788	-66,05
896,958	30,21
897,129	-45,57
897,299	-29,18
897,47	38,4
897,64	34,3
897,81	-100,86
897,981	-20,99
898,151	-2,56
898,322	-33,28
898,492	-66,05
898,662	-20,99
898,832	-55,81
899,003	-35,33
899,173	13,82
899,343	97,79
899,513	1,54
