Data from filtre 450_USB4F104151__3__11-55-00-321.txt Node

Date: Wed Apr 15 11:55:00 EDT 2026
User: LaboPhy
Spectrometer: USB4F10415
Trigger mode: 4
Integration Time (sec): 2,100000E-2
Scans to average: 1
Electric dark correction enabled: true
Nonlinearity correction enabled: false
Boxcar width: 0
XAxis mode: Wavelengths
Number of Pixels in Spectrum: 3648
>>>>>Begin Spectral Data<<<<<
178,204	-51,88
178,424	-51,88
178,644	-51,88
178,864	-109,22
179,084	-127,66
179,304	68,95
179,524	60,76
179,744	-19,11
179,964	-2,73
180,184	-29,35
180,404	13,65
180,624	-2,73
180,844	-21,16
181,064	-2,73
181,283	3,41
181,503	-72,36
181,723	3,41
181,943	-60,07
182,163	38,23
182,383	101,72
182,602	9,56
182,822	36,18
183,042	1,37
183,262	19,8
183,482	-37,55
183,701	27,99
183,921	46,42
184,141	19,8
184,361	54,61
184,58	40,28
184,8	3,41
185,02	-55,98
185,239	3,41
185,459	38,23
185,679	38,23
185,898	-51,88
186,118	97,62
186,338	71
186,557	-19,11
186,777	-10,92
186,997	-0,68
187,216	36,18
187,436	32,08
187,655	27,99
187,875	17,75
188,095	-37,55
188,314	48,47
188,534	62,8
188,753	-17,07
188,973	42,32
189,192	27,99
189,412	21,85
189,631	-45,74
189,851	48,47
190,07	38,23
190,29	15,7
190,509	38,23
190,729	21,85
190,948	23,89
191,168	111,96
191,387	60,76
191,607	-0,68
191,826	68,95
192,045	5,46
192,265	9,56
192,484	-35,5
192,704	-37,55
192,923	-33,45
193,142	77,14
193,362	-8,87
193,581	-35,5
193,8	38,23
194,02	91,48
194,239	15,7
194,458	21,85
194,678	-6,83
194,897	-21,16
195,116	-53,93
195,335	17,75
195,555	48,47
195,774	27,99
195,993	60,76
196,212	-15,02
196,432	7,51
196,651	40,28
196,87	71
197,089	81,24
197,308	-2,73
197,528	-37,55
197,747	77,14
197,966	30,04
198,185	46,42
198,404	-39,59
198,623	-4,78
198,842	-2,73
199,062	-15,02
199,281	60,76
199,5	-4,78
199,719	52,56
199,938	30,04
200,157	13,65
200,376	54,61
200,595	54,61
200,814	52,56
201,033	-25,26
201,252	-8,87
201,471	11,61
201,69	56,66
201,909	19,8
202,128	56,66
202,347	-39,59
202,566	36,18
202,785	-27,31
203,004	21,85
203,223	64,85
203,442	25,94
203,661	-4,78
203,879	-60,07
204,098	64,85
204,317	13,65
204,536	7,51
204,755	71
204,974	68,95
205,193	50,52
205,411	52,56
205,63	42,32
205,849	-45,74
206,068	-78,51
206,287	-0,68
206,505	109,91
206,724	44,37
206,943	-37,55
207,162	9,56
207,381	-60,07
207,599	5,46
207,818	44,37
208,037	77,14
208,255	68,95
208,474	-21,16
208,693	11,61
208,911	15,7
209,13	91,48
209,349	-0,68
209,567	1,37
209,786	30,04
210,005	93,52
210,223	-29,35
210,442	34,13
210,661	3,41
210,879	34,13
211,098	23,89
211,316	36,18
211,535	11,61
211,753	-12,97
211,972	36,18
212,191	19,8
212,409	27,99
212,628	68,95
212,846	3,41
213,065	52,56
213,283	40,28
213,502	-49,83
213,72	-21,16
213,938	36,18
214,157	-35,5
214,375	1,37
214,594	21,85
214,812	-37,55
215,031	-8,87
215,249	62,8
215,467	21,85
215,686	-53,93
215,904	17,75
216,122	30,04
216,341	34,13
216,559	19,8
216,778	27,99
216,996	19,8
217,214	21,85
217,432	-15,02
217,651	-92,84
217,869	11,61
218,087	-27,31
218,306	34,13
218,524	30,04
218,742	-4,78
218,96	11,61
219,179	-49,83
219,397	58,71
219,615	23,89
219,833	21,85
220,051	-8,87
220,27	71
220,488	7,51
220,706	15,7
220,924	-55,98
221,142	17,75
221,36	-23,21
221,578	73,04
221,796	-27,31
222,015	36,18
222,233	11,61
222,451	68,95
222,669	-39,59
222,887	44,37
223,105	-2,73
223,323	23,89
223,541	3,41
223,759	19,8
223,977	44,37
224,195	23,89
224,413	7,51
224,631	91,48
224,849	46,42
225,067	-29,35
225,285	15,7
225,503	54,61
225,721	-51,88
225,939	54,61
226,157	9,56
226,375	62,8
226,592	-76,46
226,81	-78,51
227,028	44,37
227,246	89,43
227,464	1,37
227,682	-25,26
227,9	5,46
228,117	-41,64
228,335	83,28
228,553	44,37
228,771	-49,83
228,989	11,61
229,206	30,04
229,424	21,85
229,642	32,08
229,86	48,47
230,077	-2,73
230,295	7,51
230,513	56,66
230,731	-10,92
230,948	62,8
231,166	1,37
231,384	-25,26
231,601	32,08
231,819	-29,35
232,037	23,89
232,254	-45,74
232,472	-8,87
232,689	-37,55
232,907	62,8
233,125	36,18
233,342	42,32
233,56	-43,69
233,777	17,75
233,995	64,85
234,213	-4,78
234,43	23,89
234,648	19,8
234,865	38,23
235,083	-0,68
235,3	-41,64
235,518	36,18
235,735	34,13
235,953	21,85
236,17	15,7
236,388	1,37
236,605	3,41
236,822	32,08
237,04	7,51
237,257	44,37
237,475	93,52
237,692	19,8
237,909	60,76
238,127	-17,07
238,344	3,41
238,562	21,85
238,779	-12,97
238,996	13,65
239,214	-60,07
239,431	5,46
239,648	17,75
239,865	-2,73
240,083	48,47
240,3	25,94
240,517	38,23
240,735	13,65
240,952	11,61
241,169	-17,07
241,386	30,04
241,603	7,51
241,821	-17,07
242,038	54,61
242,255	21,85
242,472	79,19
242,689	15,7
242,907	81,24
243,124	-51,88
243,341	62,8
243,558	-4,78
243,775	21,85
243,992	3,41
244,209	-2,73
244,426	19,8
244,643	73,04
244,86	15,7
245,078	52,56
245,295	-12,97
245,512	15,7
245,729	-12,97
245,946	-12,97
246,163	52,56
246,38	-21,16
246,597	-76,46
246,814	-12,97
247,031	-17,07
247,248	68,95
247,464	-109,22
247,681	-12,97
247,898	54,61
248,115	79,19
248,332	-4,78
248,549	44,37
248,766	44,37
248,983	81,24
249,2	3,41
249,417	9,56
249,633	-43,69
249,85	126,29
250,067	32,08
250,284	40,28
250,501	-23,21
250,717	-17,07
250,934	-21,16
251,151	32,08
251,368	-4,78
251,585	66,9
251,801	-43,69
252,018	38,23
252,235	27,99
252,451	-4,78
252,668	13,65
252,885	-2,73
253,102	56,66
253,318	13,65
253,535	58,71
253,752	38,23
253,968	13,65
254,185	-21,16
254,401	21,85
254,618	-31,4
254,835	9,56
255,051	-4,78
255,268	3,41
255,484	-8,87
255,701	-15,02
255,917	50,52
256,134	-72,36
256,351	46,42
256,567	-45,74
256,784	42,32
257	48,47
257,217	50,52
257,433	3,41
257,65	77,14
257,866	40,28
258,082	-27,31
258,299	-21,16
258,515	136,53
258,732	-8,87
258,948	64,85
259,165	5,46
259,381	-35,5
259,597	-43,69
259,814	-19,11
260,03	40,28
260,246	-0,68
260,463	32,08
260,679	52,56
260,895	7,51
261,112	-2,73
261,328	-25,26
261,544	11,61
261,761	52,56
261,977	-0,68
262,193	-43,69
262,409	64,85
262,626	32,08
262,842	56,66
263,058	11,61
263,274	50,52
263,49	50,52
263,707	-6,83
263,923	44,37
264,139	-2,73
264,355	27,99
264,571	109,91
264,787	-21,16
265,004	-4,78
265,22	9,56
265,436	-60,07
265,652	-12,97
265,868	-2,73
266,084	-15,02
266,3	44,37
266,516	-2,73
266,732	27,99
266,948	-10,92
267,164	-31,4
267,38	-27,31
267,596	-6,83
267,812	11,61
268,028	50,52
268,244	66,9
268,46	9,56
268,676	44,37
268,892	-10,92
269,108	5,46
269,324	-12,97
269,54	-4,78
269,756	52,56
269,972	-66,22
270,188	11,61
270,403	-109,22
270,619	-15,02
270,835	-17,07
271,051	-4,78
271,267	48,47
271,483	-23,21
271,698	36,18
271,914	89,43
272,13	44,37
272,346	44,37
272,562	87,38
272,777	-2,73
272,993	21,85
273,209	13,65
273,425	77,14
273,64	62,8
273,856	44,37
274,072	-10,92
274,287	56,66
274,503	32,08
274,719	15,7
274,934	38,23
275,15	34,13
275,366	54,61
275,581	5,46
275,797	-17,07
276,012	3,41
276,228	5,46
276,444	15,7
276,659	44,37
276,875	-4,78
277,09	-25,26
277,306	46,42
277,521	27,99
277,737	30,04
277,952	40,28
278,168	54,61
278,383	46,42
278,599	34,13
278,814	23,89
279,03	11,61
279,245	68,95
279,461	-0,68
279,676	-47,79
279,892	-23,21
280,107	-25,26
280,322	-31,4
280,538	93,52
280,753	13,65
280,969	-31,4
281,184	25,94
281,399	79,19
281,615	5,46
281,83	52,56
282,045	-66,22
282,26	-19,11
282,476	38,23
282,691	46,42
282,906	30,04
283,122	30,04
283,337	32,08
283,552	-47,79
283,767	-62,12
283,983	32,08
284,198	-29,35
284,413	-6,83
284,628	19,8
284,843	-10,92
285,058	48,47
285,274	-8,87
285,489	25,94
285,704	58,71
285,919	-4,78
286,134	9,56
286,349	46,42
286,564	25,94
286,779	93,52
286,995	11,61
287,21	-0,68
287,425	42,32
287,64	-17,07
287,855	23,89
288,07	25,94
288,285	62,8
288,5	1,37
288,715	5,46
288,93	-23,21
289,145	-15,02
289,36	-25,26
289,575	52,56
289,79	30,04
290,004	-21,16
290,219	-12,97
290,434	36,18
290,649	-19,11
290,864	27,99
291,079	7,51
291,294	60,76
291,509	13,65
291,724	15,7
291,938	-43,69
292,153	36,18
292,368	44,37
292,583	-29,35
292,798	3,41
293,012	77,14
293,227	5,46
293,442	11,61
293,657	32,08
293,871	-4,78
294,086	34,13
294,301	122,2
294,516	-4,78
294,73	-35,5
294,945	-15,02
295,16	56,66
295,374	85,33
295,589	48,47
295,804	-45,74
296,018	-62,12
296,233	11,61
296,447	52,56
296,662	3,41
296,877	81,24
297,091	60,76
297,306	-78,51
297,52	-64,17
297,735	15,7
297,949	-49,83
298,164	-23,21
298,378	-2,73
298,593	1,37
298,807	23,89
299,022	56,66
299,236	34,13
299,451	-33,45
299,665	-17,07
299,88	-6,83
300,094	-6,83
300,309	-25,26
300,523	-43,69
300,737	36,18
300,952	-17,07
301,166	-51,88
301,381	3,41
301,595	-25,26
301,809	23,89
302,024	5,46
302,238	-37,55
302,452	36,18
302,667	75,09
302,881	118,1
303,095	13,65
303,309	58,71
303,524	30,04
303,738	21,85
303,952	-4,78
304,166	27,99
304,381	-8,87
304,595	58,71
304,809	11,61
305,023	89,43
305,237	-27,31
305,452	36,18
305,666	3,41
305,88	71
306,094	58,71
306,308	62,8
306,522	52,56
306,736	32,08
306,95	48,47
307,164	1,37
307,379	50,52
307,593	27,99
307,807	-37,55
308,021	85,33
308,235	54,61
308,449	-60,07
308,663	13,65
308,877	77,14
309,091	77,14
309,305	-2,73
309,519	-15,02
309,733	19,8
309,947	-15,02
310,161	50,52
310,374	42,32
310,588	95,57
310,802	-29,35
311,016	-37,55
311,23	3,41
311,444	23,89
311,658	38,23
311,872	-27,31
312,085	-10,92
312,299	-10,92
312,513	103,76
312,727	19,8
312,941	-12,97
313,154	-21,16
313,368	-62,12
313,582	62,8
313,796	11,61
314,009	-2,73
314,223	126,29
314,437	44,37
314,651	19,8
314,864	36,18
315,078	-68,27
315,292	-10,92
315,505	21,85
315,719	56,66
315,933	32,08
316,146	-109,22
316,36	56,66
316,573	36,18
316,787	1,37
317,001	13,65
317,214	34,13
317,428	-12,97
317,641	25,94
317,855	-37,55
318,068	7,51
318,282	-19,11
318,495	64,85
318,709	21,85
318,922	-45,74
319,136	56,66
319,349	62,8
319,563	-25,26
319,776	1,37
319,99	-2,73
320,203	1,37
320,417	36,18
320,63	32,08
320,843	36,18
321,057	-0,68
321,27	-58,03
321,483	89,43
321,697	32,08
321,91	-2,73
322,124	7,51
322,337	5,46
322,55	-8,87
322,763	56,66
322,977	-8,87
323,19	-33,45
323,403	50,52
323,617	19,8
323,83	60,76
324,043	38,23
324,256	-45,74
324,469	-70,31
324,683	-0,68
324,896	60,76
325,109	-4,78
325,322	15,7
325,535	89,43
325,748	-45,74
325,962	7,51
326,175	58,71
326,388	-10,92
326,601	19,8
326,814	11,61
327,027	5,46
327,24	13,65
327,453	-58,03
327,666	9,56
327,879	-17,07
328,092	-2,73
328,305	77,14
328,518	54,61
328,731	-17,07
328,944	-4,78
329,157	-23,21
329,37	46,42
329,583	38,23
329,796	60,76
330,009	27,99
330,222	52,56
330,435	46,42
330,648	-35,5
330,861	-19,11
331,073	-47,79
331,286	-10,92
331,499	62,8
331,712	-80,55
331,925	32,08
332,138	11,61
332,35	-12,97
332,563	-23,21
332,776	15,7
332,989	-21,16
333,202	1,37
333,414	46,42
333,627	7,51
333,84	52,56
334,053	19,8
334,265	-8,87
334,478	-2,73
334,691	-33,45
334,903	-21,16
335,116	64,85
335,329	40,28
335,541	5,46
335,754	75,09
335,966	27,99
336,179	27,99
336,392	40,28
336,604	30,04
336,817	-21,16
337,029	58,71
337,242	36,18
337,454	44,37
337,667	-53,93
337,88	-8,87
338,092	11,61
338,305	-23,21
338,517	-10,92
338,729	21,85
338,942	79,19
339,154	-2,73
339,367	-45,74
339,579	17,75
339,792	-62,12
340,004	3,41
340,217	32,08
340,429	11,61
340,641	-21,16
340,854	81,24
341,066	-17,07
341,278	30,04
341,491	32,08
341,703	-68,27
341,915	-29,35
342,128	27,99
342,34	-19,11
342,552	-35,5
342,764	-103,08
342,977	-19,11
343,189	27,99
343,401	79,19
343,613	3,41
343,826	21,85
344,038	68,95
344,25	52,56
344,462	-53,93
344,674	36,18
344,886	-64,17
345,099	134,48
345,311	79,19
345,523	-15,02
345,735	-21,16
345,947	-53,93
346,159	64,85
346,371	11,61
346,583	-21,16
346,795	38,23
347,007	-19,11
347,219	56,66
347,431	-2,73
347,643	-19,11
347,855	85,33
348,067	23,89
348,279	23,89
348,491	62,8
348,703	3,41
348,915	25,94
349,127	34,13
349,339	17,75
349,551	23,89
349,763	-94,89
349,975	60,76
350,187	95,57
350,399	19,8
350,61	60,76
350,822	25,94
351,034	60,76
351,246	-66,22
351,458	36,18
351,669	-15,02
351,881	19,8
352,093	44,37
352,305	7,51
352,517	-8,87
352,728	101,72
352,94	62,8
353,152	54,61
353,363	11,61
353,575	38,23
353,787	5,46
353,999	-49,83
354,21	52,56
354,422	11,61
354,633	5,46
354,845	68,95
355,057	-53,93
355,268	34,13
355,48	50,52
355,692	34,13
355,903	-41,64
356,115	27,99
356,326	-35,5
356,538	56,66
356,749	32,08
356,961	32,08
357,172	-25,26
357,384	-68,27
357,595	42,32
357,807	-15,02
358,018	75,09
358,23	-4,78
358,441	-21,16
358,653	77,14
358,864	62,8
359,075	-12,97
359,287	15,7
359,498	44,37
359,709	13,65
359,921	-2,73
360,132	-6,83
360,344	13,65
360,555	-17,07
360,766	3,41
360,977	-8,87
361,189	-10,92
361,4	-25,26
361,611	5,46
361,823	58,71
362,034	5,46
362,245	-17,07
362,456	-4,78
362,667	-10,92
362,879	36,18
363,09	19,8
363,301	56,66
363,512	-19,11
363,723	-12,97
363,935	9,56
364,146	32,08
364,357	46,42
364,568	15,7
364,779	50,52
364,99	56,66
365,201	-10,92
365,412	-10,92
365,623	-21,16
365,834	11,61
366,045	-0,68
366,256	109,91
366,467	48,47
366,678	1,37
366,889	-15,02
367,1	-0,68
367,311	7,51
367,522	25,94
367,733	-8,87
367,944	11,61
368,155	-6,83
368,366	30,04
368,577	13,65
368,788	42,32
368,999	36,18
369,209	38,23
369,42	36,18
369,631	46,42
369,842	97,62
370,053	54,61
370,264	54,61
370,474	-4,78
370,685	-4,78
370,896	58,71
371,107	77,14
371,317	-0,68
371,528	40,28
371,739	83,28
371,95	19,8
372,16	52,56
372,371	56,66
372,582	-17,07
372,792	-2,73
373,003	30,04
373,214	27,99
373,424	25,94
373,635	-53,93
373,846	13,65
374,056	50,52
374,267	21,85
374,477	3,41
374,688	11,61
374,898	-2,73
375,109	19,8
375,319	25,94
375,53	19,8
375,74	-31,4
375,951	-41,64
376,161	5,46
376,372	19,8
376,582	1,37
376,793	-23,21
377,003	17,75
377,214	-39,59
377,424	-6,83
377,635	3,41
377,845	-19,11
378,055	38,23
378,266	-43,69
378,476	-2,73
378,686	15,7
378,897	19,8
379,107	25,94
379,317	27,99
379,528	-74,41
379,738	13,65
379,948	-8,87
380,158	7,51
380,369	3,41
380,579	15,7
380,789	13,65
380,999	52,56
381,21	-25,26
381,42	32,08
381,63	38,23
381,84	58,71
382,05	75,09
382,261	62,8
382,471	89,43
382,681	56,66
382,891	118,1
383,101	54,61
383,311	9,56
383,521	-35,5
383,731	44,37
383,941	71
384,151	36,18
384,361	19,8
384,571	62,8
384,781	-10,92
384,991	15,7
385,201	132,44
385,411	42,32
385,621	-19,11
385,831	-27,31
386,041	-0,68
386,251	-23,21
386,461	44,37
386,671	-10,92
386,881	-0,68
387,091	-37,55
387,301	58,71
387,511	-31,4
387,72	-41,64
387,93	-6,83
388,14	-6,83
388,35	5,46
388,56	93,52
388,769	11,61
388,979	34,13
389,189	-10,92
389,399	40,28
389,609	19,8
389,818	71
390,028	-37,55
390,238	21,85
390,447	122,2
390,657	60,76
390,867	-51,88
391,076	21,85
391,286	42,32
391,496	19,8
391,705	75,09
391,915	-0,68
392,125	38,23
392,334	54,61
392,544	-27,31
392,753	27,99
392,963	-10,92
393,172	23,89
393,382	-12,97
393,591	54,61
393,801	21,85
394,01	103,76
394,22	-6,83
394,429	5,46
394,639	48,47
394,848	-27,31
395,058	-21,16
395,267	60,76
395,477	-37,55
395,686	21,85
395,895	58,71
396,105	66,9
396,314	17,75
396,524	54,61
396,733	-19,11
396,942	-8,87
397,152	107,86
397,361	71
397,57	40,28
397,78	32,08
397,989	15,7
398,198	107,86
398,407	-45,74
398,617	46,42
398,826	13,65
399,035	19,8
399,244	46,42
399,453	40,28
399,663	75,09
399,872	15,7
400,081	17,75
400,29	-43,69
400,499	-19,11
400,708	48,47
400,917	9,56
401,127	19,8
401,336	-74,41
401,545	27,99
401,754	30,04
401,963	-29,35
402,172	19,8
402,381	-39,59
402,59	56,66
402,799	13,65
403,008	7,51
403,217	62,8
403,426	79,19
403,635	56,66
403,844	-12,97
404,053	-53,93
404,262	-2,73
404,471	46,42
404,68	66,9
404,888	-8,87
405,097	-15,02
405,306	13,65
405,515	-4,78
405,724	27,99
405,933	46,42
406,142	64,85
406,35	48,47
406,559	13,65
406,768	3,41
406,977	17,75
407,185	-8,87
407,394	46,42
407,603	-39,59
407,812	66,9
408,02	68,95
408,229	62,8
408,438	23,89
408,646	15,7
408,855	36,18
409,064	19,8
409,272	-49,83
409,481	71
409,69	-21,16
409,898	-6,83
410,107	38,23
410,315	27,99
410,524	54,61
410,733	9,56
410,941	3,41
411,15	87,38
411,358	73,04
411,567	13,65
411,775	-0,68
411,984	116,05
412,192	30,04
412,401	68,95
412,609	50,52
412,818	103,76
413,026	-4,78
413,234	-2,73
413,443	13,65
413,651	-4,78
413,86	-10,92
414,068	68,95
414,276	60,76
414,485	36,18
414,693	44,37
414,901	62,8
415,11	77,14
415,318	36,18
415,526	36,18
415,734	58,71
415,943	101,72
416,151	5,46
416,359	-0,68
416,567	60,76
416,776	15,7
416,984	1,37
417,192	5,46
417,4	23,89
417,608	-2,73
417,817	85,33
418,025	34,13
418,233	79,19
418,441	27,99
418,649	15,7
418,857	38,23
419,065	97,62
419,273	52,56
419,481	56,66
419,689	75,09
419,897	36,18
420,105	15,7
420,313	60,76
420,521	54,61
420,729	66,9
420,937	-17,07
421,145	11,61
421,353	75,09
421,561	15,7
421,769	-15,02
421,977	3,41
422,185	-17,07
422,393	-2,73
422,601	48,47
422,809	46,42
423,017	5,46
423,224	97,62
423,432	19,8
423,64	56,66
423,848	50,52
424,056	93,52
424,263	-10,92
424,471	-53,93
424,679	11,61
424,887	-4,78
425,094	32,08
425,302	13,65
425,51	3,41
425,718	11,61
425,925	44,37
426,133	52,56
426,341	11,61
426,548	11,61
426,756	40,28
426,964	17,75
427,171	120,15
427,379	5,46
427,586	44,37
427,794	15,7
428,001	-4,78
428,209	30,04
428,417	56,66
428,624	32,08
428,832	66,9
429,039	93,52
429,247	87,38
429,454	-27,31
429,662	5,46
429,869	19,8
430,076	40,28
430,284	36,18
430,491	36,18
430,699	38,23
430,906	120,15
431,114	81,24
431,321	3,41
431,528	48,47
431,736	93,52
431,943	99,67
432,15	13,65
432,358	40,28
432,565	91,48
432,772	-8,87
432,979	68,95
433,187	42,32
433,394	85,33
433,601	36,18
433,808	95,57
434,016	77,14
434,223	15,7
434,43	-4,78
434,637	60,76
434,844	-12,97
435,052	66,9
435,259	103,76
435,466	27,99
435,673	5,46
435,88	3,41
436,087	89,43
436,294	64,85
436,501	73,04
436,708	52,56
436,915	58,71
437,122	91,48
437,329	-27,31
437,537	89,43
437,743	146,77
437,95	58,71
438,157	87,38
438,364	52,56
438,571	87,38
438,778	81,24
438,985	111,96
439,192	144,72
439,399	111,96
439,606	85,33
439,813	193,87
440,02	167,25
440,227	152,92
440,433	101,72
440,64	79,19
440,847	118,1
441,054	85,33
441,261	138,58
441,467	187,73
441,674	105,81
441,881	177,49
442,088	-2,73
442,294	185,68
442,501	206,16
442,708	200,02
442,914	236,88
443,121	314,7
443,328	230,74
443,534	314,7
443,741	318,8
443,948	314,7
444,154	406,86
444,361	421,2
444,568	415,06
444,774	515,41
444,981	503,12
445,187	636,24
445,394	621,9
445,6	609,61
445,807	785,74
446,013	804,17
446,22	965,96
446,426	1178,95
446,633	1314,11
446,839	1430,85
447,046	1488,19
447,252	1889,59
447,459	2012,47
447,665	2276,66
447,871	2649,39
448,078	3298,6
448,284	3456,29
448,491	4003,1
448,697	4730,13
448,903	5344,52
449,11	6294,77
449,316	7040,23
449,522	8219,86
449,728	9739,46
449,935	11105,45
450,141	12457,11
450,347	14822,52
450,553	15856,74
450,76	18244,67
450,966	21443,6
451,172	23280,63
451,378	26262,47
451,584	28332,97
451,791	31024
451,997	33448,79
452,203	36836,13
452,409	39357,18
452,615	40721,13
452,821	42007,25
453,027	42810,06
453,233	46621,33
453,44	45382,3
453,646	47467,14
453,852	49363,56
454,058	50864,72
454,264	50313,81
454,47	51984,96
454,676	51690,05
454,882	54993,42
455,088	50461,27
455,294	52150,84
455,5	54125,08
455,705	54610,45
455,911	53312,04
456,117	53258,79
456,323	53787,17
456,529	51833,41
456,735	54565,4
456,941	55007,76
457,147	54958,61
457,352	54250,01
457,558	53778,98
457,764	54909,46
457,97	55261,71
458,176	55185,93
458,381	56052,22
458,587	54157,85
458,793	55638,53
458,999	53029,42
459,204	57666,02
459,41	57350,63
459,616	54139,42
459,821	54000,16
460,027	54327,83
460,233	52927,02
460,438	50086,49
460,644	50428,5
460,85	47245,96
461,055	45068,97
461,261	43453,12
461,466	38302,48
461,672	35334,97
461,878	36242,22
462,083	32052,08
462,289	28914,59
462,494	26340,29
462,7	23266,29
462,905	20409,37
463,111	19346,48
463,316	17878,08
463,522	15563,88
463,727	14173,31
463,932	12647,57
464,138	11371,69
464,343	10214,59
464,549	8938,7
464,754	8514,77
464,959	7408,87
465,165	6741,23
465,37	5729,53
465,575	4936,97
465,781	4662,54
465,986	4310,29
466,191	3718,43
466,397	3390,75
466,602	2805,03
466,807	2729,26
467,012	2444,59
467,218	2286,9
467,423	2035
467,628	1953,08
467,833	1752,38
468,038	1584,45
468,244	1436,99
468,449	1385,79
468,654	1193,28
468,859	1219,91
469,064	1037,64
469,269	968,01
469,474	910,66
469,679	888,14
469,885	681,29
470,09	744,78
470,295	734,54
470,5	677,2
470,705	634,19
470,91	544,08
471,115	560,46
471,32	521,55
471,525	443,73
471,73	431,44
471,935	380,24
472,139	372,05
472,344	343,38
472,549	281,94
472,754	355,66
472,959	324,94
473,164	341,33
473,369	298,32
473,574	314,7
473,778	261,46
473,983	267,6
474,188	230,74
474,393	204,11
474,598	238,93
474,802	193,87
475,007	253,27
475,212	150,87
475,417	267,6
475,621	249,17
475,826	161,11
476,031	193,87
476,235	111,96
476,44	210,26
476,645	236,88
476,849	197,97
477,054	177,49
477,259	126,29
477,463	122,2
477,668	167,25
477,872	79,19
478,077	89,43
478,282	138,58
478,486	175,44
478,691	124,24
478,895	134,48
479,1	95,57
479,304	183,63
479,509	163,15
479,713	169,3
479,918	36,18
480,122	177,49
480,326	19,8
480,531	95,57
480,735	71
480,94	124,24
481,144	126,29
481,348	40,28
481,553	85,33
481,757	68,95
481,961	109,91
482,166	93,52
482,37	75,09
482,574	66,9
482,778	23,89
482,983	62,8
483,187	85,33
483,391	107,86
483,595	7,51
483,8	89,43
484,004	138,58
484,208	52,56
484,412	109,91
484,616	91,48
484,821	1,37
485,025	116,05
485,229	83,28
485,433	71
485,637	44,37
485,841	-19,11
486,045	128,34
486,249	52,56
486,453	-2,73
486,657	44,37
486,861	23,89
487,065	7,51
487,269	11,61
487,473	138,58
487,677	73,04
487,881	107,86
488,085	68,95
488,289	9,56
488,493	71
488,697	91,48
488,901	9,56
489,105	13,65
489,309	58,71
489,512	73,04
489,716	97,62
489,92	-10,92
490,124	95,57
490,328	32,08
490,531	62,8
490,735	91,48
490,939	-8,87
491,143	48,47
491,346	23,89
491,55	87,38
491,754	99,67
491,958	99,67
492,161	40,28
492,365	68,95
492,569	81,24
492,772	73,04
492,976	56,66
493,18	36,18
493,383	1,37
493,587	11,61
493,79	7,51
493,994	11,61
494,197	-55,98
494,401	40,28
494,605	60,76
494,808	40,28
495,012	32,08
495,215	46,42
495,419	111,96
495,622	60,76
495,825	1,37
496,029	44,37
496,232	62,8
496,436	48,47
496,639	105,81
496,843	1,37
497,046	15,7
497,249	40,28
497,453	11,61
497,656	-10,92
497,859	-12,97
498,063	27,99
498,266	13,65
498,469	-12,97
498,673	1,37
498,876	54,61
499,079	-45,74
499,282	-51,88
499,485	111,96
499,689	93,52
499,892	-21,16
500,095	114
500,298	-21,16
500,501	11,61
500,705	50,52
500,908	23,89
501,111	5,46
501,314	21,85
501,517	-12,97
501,72	-0,68
501,923	-68,27
502,126	19,8
502,329	1,37
502,532	44,37
502,735	25,94
502,938	40,28
503,141	-23,21
503,344	66,9
503,547	62,8
503,75	-27,31
503,953	-19,11
504,156	-12,97
504,359	3,41
504,562	27,99
504,765	-4,78
504,968	-25,26
505,17	-19,11
505,373	64,85
505,576	79,19
505,779	38,23
505,982	-2,73
506,185	48,47
506,387	42,32
506,59	101,72
506,793	-43,69
506,996	23,89
507,198	68,95
507,401	52,56
507,604	71
507,807	56,66
508,009	27,99
508,212	73,04
508,415	7,51
508,617	23,89
508,82	-45,74
509,022	42,32
509,225	44,37
509,428	32,08
509,63	68,95
509,833	21,85
510,035	17,75
510,238	50,52
510,44	3,41
510,643	30,04
510,845	62,8
511,048	105,81
511,25	44,37
511,453	48,47
511,655	25,94
511,858	56,66
512,06	62,8
512,262	34,13
512,465	11,61
512,667	11,61
512,87	-4,78
513,072	93,52
513,274	68,95
513,477	101,72
513,679	-19,11
513,881	7,51
514,084	-25,26
514,286	3,41
514,488	-8,87
514,69	30,04
514,893	11,61
515,095	-25,26
515,297	27,99
515,499	-6,83
515,701	17,75
515,904	116,05
516,106	30,04
516,308	13,65
516,51	68,95
516,712	87,38
516,914	52,56
517,116	-2,73
517,318	32,08
517,52	30,04
517,722	3,41
517,925	32,08
518,127	9,56
518,329	30,04
518,531	-35,5
518,733	-4,78
518,935	-33,45
519,136	34,13
519,338	-2,73
519,54	13,65
519,742	5,46
519,944	25,94
520,146	1,37
520,348	52,56
520,55	-53,93
520,752	34,13
520,954	71
521,155	-12,97
521,357	9,56
521,559	-6,83
521,761	30,04
521,963	75,09
522,164	-12,97
522,366	-31,4
522,568	58,71
522,77	77,14
522,971	48,47
523,173	-25,26
523,375	56,66
523,576	15,7
523,778	1,37
523,98	62,8
524,181	13,65
524,383	36,18
524,584	-35,5
524,786	-51,88
524,988	17,75
525,189	-43,69
525,391	48,47
525,592	64,85
525,794	36,18
525,995	11,61
526,197	-19,11
526,398	48,47
526,6	58,71
526,801	44,37
527,003	27,99
527,204	30,04
527,406	-2,73
527,607	-12,97
527,808	3,41
528,01	40,28
528,211	7,51
528,412	13,65
528,614	19,8
528,815	91,48
529,016	126,29
529,218	40,28
529,419	30,04
529,62	44,37
529,822	48,47
530,023	23,89
530,224	25,94
530,425	56,66
530,626	-4,78
530,828	17,75
531,029	58,71
531,23	36,18
531,431	-21,16
531,632	60,76
531,833	-43,69
532,035	-6,83
532,236	15,7
532,437	-41,64
532,638	-41,64
532,839	-29,35
533,04	-53,93
533,241	56,66
533,442	3,41
533,643	21,85
533,844	32,08
534,045	-62,12
534,246	36,18
534,447	60,76
534,648	15,7
534,849	48,47
535,05	-0,68
535,251	44,37
535,451	46,42
535,652	-4,78
535,853	21,85
536,054	56,66
536,255	-0,68
536,456	48,47
536,657	-70,31
536,857	-12,97
537,058	54,61
537,259	-10,92
537,46	30,04
537,66	-43,69
537,861	11,61
538,062	52,56
538,263	-8,87
538,463	-8,87
538,664	13,65
538,865	13,65
539,065	-12,97
539,266	21,85
539,466	-76,46
539,667	79,19
539,868	19,8
540,068	71
540,269	21,85
540,469	118,1
540,67	27,99
540,87	62,8
541,071	32,08
541,271	73,04
541,472	21,85
541,672	36,18
541,873	-2,73
542,073	54,61
542,274	-4,78
542,474	-21,16
542,675	79,19
542,875	-35,5
543,075	-19,11
543,276	30,04
543,476	-19,11
543,676	30,04
543,877	19,8
544,077	-17,07
544,277	-37,55
544,478	-47,79
544,678	34,13
544,878	38,23
545,078	44,37
545,279	36,18
545,479	-10,92
545,679	42,32
545,879	-19,11
546,079	5,46
546,28	-6,83
546,48	1,37
546,68	56,66
546,88	-2,73
547,08	-62,12
547,28	54,61
547,48	19,8
547,68	19,8
547,88	11,61
548,081	-27,31
548,281	21,85
548,481	-0,68
548,681	48,47
548,881	21,85
549,081	52,56
549,28	36,18
549,48	-12,97
549,68	-66,22
549,88	-12,97
550,08	68,95
550,28	30,04
550,48	66,9
550,68	23,89
550,88	-0,68
551,08	-15,02
551,279	-0,68
551,479	-17,07
551,679	54,61
551,879	-17,07
552,079	42,32
552,278	21,85
552,478	114
552,678	52,56
552,878	15,7
553,077	3,41
553,277	-31,4
553,477	-8,87
553,676	-4,78
553,876	-12,97
554,076	25,94
554,275	-76,46
554,475	40,28
554,674	23,89
554,874	79,19
555,074	-19,11
555,273	54,61
555,473	-27,31
555,672	3,41
555,872	64,85
556,071	7,51
556,271	81,24
556,47	30,04
556,67	13,65
556,869	-0,68
557,068	36,18
557,268	64,85
557,467	-33,45
557,667	38,23
557,866	-10,92
558,065	19,8
558,265	32,08
558,464	-29,35
558,663	9,56
558,863	1,37
559,062	-12,97
559,261	71
559,461	81,24
559,66	32,08
559,859	-72,36
560,058	17,75
560,258	11,61
560,457	101,72
560,656	7,51
560,855	-74,41
561,054	-10,92
561,253	-2,73
561,453	56,66
561,652	52,56
561,851	60,76
562,05	27,99
562,249	40,28
562,448	32,08
562,647	60,76
562,846	-4,78
563,045	19,8
563,244	54,61
563,443	58,71
563,642	52,56
563,841	36,18
564,04	-10,92
564,239	11,61
564,438	-41,64
564,637	-72,36
564,836	38,23
565,035	-76,46
565,234	-55,98
565,432	-53,93
565,631	5,46
565,83	66,9
566,029	52,56
566,228	109,91
566,427	-4,78
566,625	-15,02
566,824	71
567,023	32,08
567,222	7,51
567,42	-10,92
567,619	-33,45
567,818	-31,4
568,016	93,52
568,215	-58,03
568,414	48,47
568,612	25,94
568,811	-12,97
569,01	-58,03
569,208	-27,31
569,407	3,41
569,605	60,76
569,804	-12,97
570,002	71
570,201	-33,45
570,4	-29,35
570,598	1,37
570,797	13,65
570,995	-15,02
571,193	-53,93
571,392	-10,92
571,59	-33,45
571,789	42,32
571,987	-4,78
572,186	71
572,384	71
572,582	-15,02
572,781	-25,26
572,979	-72,36
573,177	95,57
573,376	30,04
573,574	13,65
573,772	-12,97
573,971	3,41
574,169	13,65
574,367	62,8
574,565	7,51
574,763	-78,51
574,962	-21,16
575,16	83,28
575,358	25,94
575,556	103,76
575,754	-47,79
575,952	27,99
576,151	62,8
576,349	54,61
576,547	62,8
576,745	52,56
576,943	-43,69
577,141	48,47
577,339	-23,21
577,537	68,95
577,735	52,56
577,933	52,56
578,131	42,32
578,329	60,76
578,527	60,76
578,725	7,51
578,923	27,99
579,121	36,18
579,319	-98,99
579,516	-90,79
579,714	77,14
579,912	-35,5
580,11	-60,07
580,308	-17,07
580,506	13,65
580,704	-29,35
580,901	46,42
581,099	17,75
581,297	15,7
581,495	-10,92
581,692	-49,83
581,89	3,41
582,088	-10,92
582,285	87,38
582,483	-33,45
582,681	62,8
582,878	-4,78
583,076	-12,97
583,274	7,51
583,471	62,8
583,669	-47,79
583,866	40,28
584,064	-21,16
584,262	30,04
584,459	13,65
584,657	-21,16
584,854	-0,68
585,052	3,41
585,249	34,13
585,447	36,18
585,644	5,46
585,841	23,89
586,039	-2,73
586,236	27,99
586,434	19,8
586,631	11,61
586,828	-12,97
587,026	34,13
587,223	66,9
587,42	7,51
587,618	-19,11
587,815	32,08
588,012	19,8
588,21	-37,55
588,407	27,99
588,604	15,7
588,801	19,8
588,999	-0,68
589,196	81,24
589,393	-2,73
589,59	44,37
589,787	3,41
589,984	-21,16
590,182	58,71
590,379	3,41
590,576	19,8
590,773	-10,92
590,97	-25,26
591,167	13,65
591,364	-4,78
591,561	-37,55
591,758	64,85
591,955	9,56
592,152	-4,78
592,349	-23,21
592,546	-4,78
592,743	-62,12
592,94	13,65
593,137	-4,78
593,334	15,7
593,531	64,85
593,727	15,7
593,924	-17,07
594,121	-64,17
594,318	32,08
594,515	17,75
594,712	-41,64
594,908	-0,68
595,105	-19,11
595,302	-55,98
595,499	-2,73
595,696	-0,68
595,892	-27,31
596,089	36,18
596,286	15,7
596,482	-8,87
596,679	1,37
596,876	-53,93
597,072	44,37
597,269	48,47
597,466	-23,21
597,662	-39,59
597,859	-68,27
598,055	-12,97
598,252	-35,5
598,448	58,71
598,645	77,14
598,841	15,7
599,038	-12,97
599,234	-23,21
599,431	-10,92
599,627	19,8
599,824	-21,16
600,02	-62,12
600,217	-15,02
600,413	77,14
600,609	64,85
600,806	116,05
601,002	-17,07
601,198	-12,97
601,395	58,71
601,591	62,8
601,787	-68,27
601,984	11,61
602,18	-21,16
602,376	25,94
602,572	-21,16
602,769	62,8
602,965	-47,79
603,161	38,23
603,357	13,65
603,553	11,61
603,75	44,37
603,946	-17,07
604,142	34,13
604,338	25,94
604,534	50,52
604,73	36,18
604,926	-60,07
605,122	38,23
605,318	-12,97
605,514	40,28
605,71	-27,31
605,906	25,94
606,102	23,89
606,298	11,61
606,494	13,65
606,69	36,18
606,886	30,04
607,082	-8,87
607,278	-78,51
607,474	-17,07
607,67	-78,51
607,866	-23,21
608,062	36,18
608,257	-15,02
608,453	-70,31
608,649	-37,55
608,845	-41,64
609,041	-12,97
609,236	-66,22
609,432	52,56
609,628	9,56
609,824	11,61
610,019	27,99
610,215	-43,69
610,411	5,46
610,606	93,52
610,802	40,28
610,998	-66,22
611,193	-27,31
611,389	36,18
611,584	-53,93
611,78	-33,45
611,976	-8,87
612,171	111,96
612,367	21,85
612,562	19,8
612,758	-29,35
612,953	17,75
613,149	71
613,344	93,52
613,539	-53,93
613,735	-19,11
613,93	-41,64
614,126	-21,16
614,321	-4,78
614,517	3,41
614,712	3,41
614,907	36,18
615,103	-27,31
615,298	-68,27
615,493	-47,79
615,688	13,65
615,884	30,04
616,079	-78,51
616,274	-21,16
616,47	-58,03
616,665	-41,64
616,86	-29,35
617,055	-53,93
617,25	-19,11
617,445	-35,5
617,641	-6,83
617,836	32,08
618,031	-2,73
618,226	-8,87
618,421	30,04
618,616	30,04
618,811	-53,93
619,006	5,46
619,201	81,24
619,396	-37,55
619,591	19,8
619,786	34,13
619,981	-8,87
620,176	40,28
620,371	-53,93
620,566	54,61
620,761	48,47
620,956	73,04
621,151	5,46
621,346	-4,78
621,541	3,41
621,735	3,41
621,93	3,41
622,125	27,99
622,32	5,46
622,515	-12,97
622,709	91,48
622,904	44,37
623,099	-21,16
623,294	3,41
623,488	27,99
623,683	32,08
623,878	17,75
624,072	-45,74
624,267	-27,31
624,462	62,8
624,656	-94,89
624,851	3,41
625,046	-8,87
625,24	-39,59
625,435	-12,97
625,629	-8,87
625,824	64,85
626,018	-0,68
626,213	77,14
626,407	15,7
626,602	15,7
626,796	-0,68
626,991	9,56
627,185	-15,02
627,38	-29,35
627,574	-8,87
627,768	95,57
627,963	27,99
628,157	68,95
628,352	19,8
628,546	-10,92
628,74	-76,46
628,935	5,46
629,129	60,76
629,323	32,08
629,517	-80,55
629,712	-12,97
629,906	23,89
630,1	-49,83
630,294	62,8
630,489	7,51
630,683	-2,73
630,877	-6,83
631,071	-2,73
631,265	30,04
631,459	85,33
631,653	60,76
631,848	-31,4
632,042	-17,07
632,236	11,61
632,43	58,71
632,624	-45,74
632,818	-37,55
633,012	40,28
633,206	27,99
633,4	-43,69
633,594	-49,83
633,788	-37,55
633,982	50,52
634,176	21,85
634,369	-2,73
634,563	-55,98
634,757	-17,07
634,951	73,04
635,145	36,18
635,339	-23,21
635,533	9,56
635,726	54,61
635,92	-37,55
636,114	-53,93
636,308	46,42
636,501	23,89
636,695	-17,07
636,889	-41,64
637,083	-17,07
637,276	44,37
637,47	-4,78
637,664	-37,55
637,857	36,18
638,051	52,56
638,244	9,56
638,438	-4,78
638,632	71
638,825	-21,16
639,019	36,18
639,212	5,46
639,406	-21,16
639,599	19,8
639,793	27,99
639,986	-27,31
640,18	27,99
640,373	-103,08
640,567	111,96
640,76	40,28
640,954	-19,11
641,147	17,75
641,34	21,85
641,534	40,28
641,727	46,42
641,92	34,13
642,114	-12,97
642,307	-45,74
642,5	58,71
642,694	-41,64
642,887	-8,87
643,08	13,65
643,273	81,24
643,467	38,23
643,66	-53,93
643,853	27,99
644,046	-31,4
644,239	-8,87
644,432	-21,16
644,626	-12,97
644,819	23,89
645,012	48,47
645,205	-27,31
645,398	95,57
645,591	-35,5
645,784	77,14
645,977	46,42
646,17	30,04
646,363	19,8
646,556	7,51
646,749	46,42
646,942	36,18
647,135	-29,35
647,328	32,08
647,521	13,65
647,714	5,46
647,907	13,65
648,099	-29,35
648,292	48,47
648,485	32,08
648,678	30,04
648,871	-21,16
649,064	44,37
649,256	-31,4
649,449	-19,11
649,642	-12,97
649,835	-37,55
650,027	17,75
650,22	30,04
650,413	-12,97
650,605	56,66
650,798	5,46
650,991	40,28
651,183	-74,41
651,376	36,18
651,568	52,56
651,761	1,37
651,954	-17,07
652,146	3,41
652,339	-68,27
652,531	62,8
652,724	-2,73
652,916	1,37
653,109	9,56
653,301	44,37
653,494	-125,61
653,686	68,95
653,879	-12,97
654,071	15,7
654,263	5,46
654,456	-15,02
654,648	73,04
654,84	134,48
655,033	-60,07
655,225	-37,55
655,417	-31,4
655,61	27,99
655,802	52,56
655,994	-0,68
656,186	-68,27
656,379	48,47
656,571	7,51
656,763	-10,92
656,955	23,89
657,148	19,8
657,34	-23,21
657,532	36,18
657,724	11,61
657,916	19,8
658,108	-17,07
658,3	44,37
658,492	32,08
658,684	13,65
658,876	-43,69
659,068	3,41
659,26	-78,51
659,452	9,56
659,644	120,15
659,836	1,37
660,028	-37,55
660,22	19,8
660,412	-49,83
660,604	32,08
660,796	77,14
660,988	32,08
661,18	44,37
661,372	-25,26
661,563	-74,41
661,755	-0,68
661,947	27,99
662,139	52,56
662,331	44,37
662,522	23,89
662,714	13,65
662,906	-29,35
663,097	40,28
663,289	-15,02
663,481	-12,97
663,673	27,99
663,864	17,75
664,056	105,81
664,247	-4,78
664,439	60,76
664,631	-35,5
664,822	-0,68
665,014	-0,68
665,205	58,71
665,397	13,65
665,588	64,85
665,78	30,04
665,971	-27,31
666,163	-2,73
666,354	30,04
666,546	40,28
666,737	-12,97
666,929	21,85
667,12	46,42
667,311	27,99
667,503	71
667,694	-29,35
667,885	58,71
668,077	40,28
668,268	-60,07
668,459	-53,93
668,651	-2,73
668,842	48,47
669,033	46,42
669,224	-15,02
669,416	3,41
669,607	-2,73
669,798	-12,97
669,989	52,56
670,18	7,51
670,371	17,75
670,563	-21,16
670,754	64,85
670,945	19,8
671,136	5,46
671,327	32,08
671,518	13,65
671,709	134,48
671,9	56,66
672,091	50,52
672,282	25,94
672,473	23,89
672,664	-39,59
672,855	19,8
673,046	19,8
673,237	105,81
673,428	17,75
673,619	13,65
673,809	11,61
674	91,48
674,191	42,32
674,382	52,56
674,573	17,75
674,764	-21,16
674,954	19,8
675,145	5,46
675,336	-12,97
675,527	-29,35
675,717	-21,16
675,908	38,23
676,099	3,41
676,289	-2,73
676,48	-35,5
676,671	-103,08
676,861	-6,83
677,052	48,47
677,243	40,28
677,433	-45,74
677,624	1,37
677,814	17,75
678,005	-12,97
678,195	25,94
678,386	-2,73
678,576	-2,73
678,767	-80,55
678,957	-33,45
679,148	-31,4
679,338	71
679,529	-76,46
679,719	1,37
679,909	-25,26
680,1	38,23
680,29	7,51
680,481	11,61
680,671	118,1
680,861	42,32
681,052	89,43
681,242	-41,64
681,432	89,43
681,622	-12,97
681,813	-4,78
682,003	-2,73
682,193	-51,88
682,383	-4,78
682,573	-15,02
682,764	-15,02
682,954	-51,88
683,144	77,14
683,334	-27,31
683,524	9,56
683,714	-12,97
683,904	7,51
684,094	-17,07
684,284	89,43
684,474	-2,73
684,664	34,13
684,854	-53,93
685,044	5,46
685,234	-17,07
685,424	3,41
685,614	-53,93
685,804	64,85
685,994	5,46
686,184	56,66
686,374	50,52
686,564	21,85
686,753	40,28
686,943	-43,69
687,133	5,46
687,323	93,52
687,513	-45,74
687,702	15,7
687,892	-94,89
688,082	-27,31
688,272	3,41
688,461	-78,51
688,651	52,56
688,841	32,08
689,03	11,61
689,22	44,37
689,41	-82,6
689,599	3,41
689,789	-19,11
689,979	7,51
690,168	56,66
690,358	83,28
690,547	-53,93
690,737	68,95
690,926	-21,16
691,116	1,37
691,305	44,37
691,495	19,8
691,684	52,56
691,874	-12,97
692,063	-35,5
692,252	34,13
692,442	-8,87
692,631	13,65
692,82	-0,68
693,01	-47,79
693,199	25,94
693,388	21,85
693,578	-58,03
693,767	-37,55
693,956	-0,68
694,146	23,89
694,335	-19,11
694,524	-19,11
694,713	38,23
694,902	-39,59
695,092	36,18
695,281	3,41
695,47	-17,07
695,659	-31,4
695,848	-6,83
696,037	30,04
696,226	71
696,415	-27,31
696,604	19,8
696,793	77,14
696,982	-19,11
697,171	25,94
697,36	105,81
697,549	21,85
697,738	23,89
697,927	52,56
698,116	-35,5
698,305	71
698,494	-2,73
698,683	-45,74
698,872	56,66
699,061	-31,4
699,25	66,9
699,438	77,14
699,627	5,46
699,816	68,95
700,005	-84,65
700,193	-37,55
700,382	-8,87
700,571	-29,35
700,76	-41,64
700,948	68,95
701,137	42,32
701,326	-31,4
701,514	-37,55
701,703	-4,78
701,892	-29,35
702,08	105,81
702,269	-4,78
702,457	19,8
702,646	-33,45
702,834	52,56
703,023	3,41
703,212	44,37
703,4	75,09
703,589	3,41
703,777	3,41
703,965	15,7
704,154	68,95
704,342	-64,17
704,531	3,41
704,719	-0,68
704,907	17,75
705,096	5,46
705,284	-12,97
705,472	58,71
705,661	19,8
705,849	3,41
706,037	85,33
706,226	15,7
706,414	46,42
706,602	-10,92
706,79	-4,78
706,979	5,46
707,167	111,96
707,355	-49,83
707,543	-60,07
707,731	21,85
707,919	-41,64
708,107	-62,12
708,296	13,65
708,484	-43,69
708,672	60,76
708,86	32,08
709,048	-2,73
709,236	-19,11
709,424	-4,78
709,612	120,15
709,8	-10,92
709,988	64,85
710,176	64,85
710,364	87,38
710,551	7,51
710,739	44,37
710,927	-70,31
711,115	-17,07
711,303	73,04
711,491	30,04
711,679	1,37
711,866	97,62
712,054	3,41
712,242	50,52
712,43	-0,68
712,617	15,7
712,805	-4,78
712,993	34,13
713,181	-43,69
713,368	-21,16
713,556	-39,59
713,744	27,99
713,931	-25,26
714,119	-21,16
714,306	-19,11
714,494	1,37
714,682	-2,73
714,869	-35,5
715,057	7,51
715,244	9,56
715,432	3,41
715,619	38,23
715,807	3,41
715,994	50,52
716,182	-29,35
716,369	44,37
716,556	-19,11
716,744	3,41
716,931	36,18
717,119	11,61
717,306	85,33
717,493	7,51
717,681	23,89
717,868	44,37
718,055	71
718,242	23,89
718,43	50,52
718,617	38,23
718,804	-39,59
718,991	11,61
719,179	-15,02
719,366	-53,93
719,553	36,18
719,74	-4,78
719,927	-66,22
720,114	-51,88
720,301	-21,16
720,488	11,61
720,676	-19,11
720,863	27,99
721,05	36,18
721,237	5,46
721,424	27,99
721,611	13,65
721,798	-49,83
721,985	-51,88
722,172	-37,55
722,358	89,43
722,545	-29,35
722,732	56,66
722,919	-10,92
723,106	-19,11
723,293	44,37
723,48	-43,69
723,667	-41,64
723,853	-35,5
724,04	-12,97
724,227	128,34
724,414	-41,64
724,6	11,61
724,787	44,37
724,974	40,28
725,161	34,13
725,347	-8,87
725,534	21,85
725,72	7,51
725,907	11,61
726,094	44,37
726,28	56,66
726,467	-51,88
726,653	5,46
726,84	62,8
727,027	-17,07
727,213	-17,07
727,4	-23,21
727,586	48,47
727,773	30,04
727,959	-39,59
728,145	68,95
728,332	-19,11
728,518	-25,26
728,705	13,65
728,891	32,08
729,077	40,28
729,264	-23,21
729,45	15,7
729,636	-29,35
729,823	93,52
730,009	52,56
730,195	-17,07
730,382	-10,92
730,568	-72,36
730,754	21,85
730,94	11,61
731,126	60,76
731,313	60,76
731,499	32,08
731,685	32,08
731,871	73,04
732,057	-33,45
732,243	3,41
732,429	3,41
732,615	62,8
732,801	-6,83
732,987	71
733,173	13,65
733,359	36,18
733,545	52,56
733,731	-25,26
733,917	-19,11
734,103	-12,97
734,289	32,08
734,475	-80,55
734,661	38,23
734,847	-0,68
735,033	-64,17
735,219	27,99
735,404	36,18
735,59	-12,97
735,776	19,8
735,962	3,41
736,148	21,85
736,333	-37,55
736,519	-21,16
736,705	-17,07
736,89	7,51
737,076	42,32
737,262	-60,07
737,447	-29,35
737,633	-2,73
737,819	19,8
738,004	-29,35
738,19	11,61
738,375	-2,73
738,561	15,7
738,747	-0,68
738,932	9,56
739,118	-62,12
739,303	7,51
739,489	73,04
739,674	34,13
739,859	-53,93
740,045	3,41
740,23	13,65
740,416	-43,69
740,601	-6,83
740,786	11,61
740,972	36,18
741,157	-25,26
741,342	38,23
741,528	-12,97
741,713	83,28
741,898	56,66
742,084	-15,02
742,269	-21,16
742,454	-43,69
742,639	27,99
742,824	-72,36
743,01	-17,07
743,195	52,56
743,38	-27,31
743,565	62,8
743,75	3,41
743,935	23,89
744,12	5,46
744,305	3,41
744,49	13,65
744,675	-10,92
744,86	3,41
745,045	60,76
745,23	-2,73
745,415	-37,55
745,6	38,23
745,785	19,8
745,97	46,42
746,155	11,61
746,34	77,14
746,525	56,66
746,71	-27,31
746,895	25,94
747,079	-4,78
747,264	-37,55
747,449	-29,35
747,634	15,7
747,819	32,08
748,003	-6,83
748,188	-68,27
748,373	-29,35
748,557	25,94
748,742	27,99
748,927	17,75
749,111	19,8
749,296	38,23
749,481	15,7
749,665	-27,31
749,85	30,04
750,034	13,65
750,219	1,37
750,404	42,32
750,588	52,56
750,773	23,89
750,957	38,23
751,141	52,56
751,326	-35,5
751,51	-35,5
751,695	-4,78
751,879	-19,11
752,064	-41,64
752,248	-45,74
752,432	44,37
752,617	-6,83
752,801	27,99
752,985	5,46
753,17	48,47
753,354	-19,11
753,538	36,18
753,722	-8,87
753,907	-4,78
754,091	-10,92
754,275	-8,87
754,459	-10,92
754,643	-10,92
754,828	11,61
755,012	25,94
755,196	-19,11
755,38	-33,45
755,564	-74,41
755,748	5,46
755,932	99,67
756,116	30,04
756,3	1,37
756,484	34,13
756,668	27,99
756,852	-21,16
757,036	-4,78
757,22	-17,07
757,404	-31,4
757,588	54,61
757,772	58,71
757,956	60,76
758,14	-43,69
758,323	52,56
758,507	-58,03
758,691	-37,55
758,875	40,28
759,059	66,9
759,242	-12,97
759,426	38,23
759,61	34,13
759,794	46,42
759,977	27,99
760,161	89,43
760,345	36,18
760,528	-21,16
760,712	46,42
760,895	68,95
761,079	-21,16
761,263	21,85
761,446	48,47
761,63	60,76
761,813	9,56
761,997	21,85
762,18	25,94
762,364	52,56
762,547	-107,18
762,731	-29,35
762,914	11,61
763,098	27,99
763,281	-33,45
763,464	19,8
763,648	-0,68
763,831	21,85
764,015	-27,31
764,198	40,28
764,381	5,46
764,564	11,61
764,748	15,7
764,931	27,99
765,114	-29,35
765,297	40,28
765,481	-10,92
765,664	30,04
765,847	7,51
766,03	27,99
766,213	-37,55
766,397	-64,17
766,58	-39,59
766,763	-35,5
766,946	48,47
767,129	-17,07
767,312	25,94
767,495	-41,64
767,678	21,85
767,861	40,28
768,044	79,19
768,227	-29,35
768,41	9,56
768,593	32,08
768,776	40,28
768,959	-19,11
769,142	-6,83
769,324	-47,79
769,507	-15,02
769,69	-19,11
769,873	36,18
770,056	-2,73
770,239	60,76
770,421	79,19
770,604	-27,31
770,787	25,94
770,97	56,66
771,152	19,8
771,335	11,61
771,518	3,41
771,7	11,61
771,883	7,51
772,066	-4,78
772,248	27,99
772,431	60,76
772,613	38,23
772,796	13,65
772,978	25,94
773,161	-25,26
773,343	23,89
773,526	-76,46
773,708	15,7
773,891	-21,16
774,073	11,61
774,256	48,47
774,438	15,7
774,621	-49,83
774,803	64,85
774,985	-51,88
775,168	11,61
775,35	-6,83
775,532	54,61
775,715	-37,55
775,897	36,18
776,079	-37,55
776,261	15,7
776,444	-39,59
776,626	79,19
776,808	-45,74
776,99	13,65
777,173	-37,55
777,355	-37,55
777,537	40,28
777,719	-64,17
777,901	46,42
778,083	54,61
778,265	-84,65
778,447	-19,11
778,629	-19,11
778,811	23,89
778,993	11,61
779,175	56,66
779,357	-51,88
779,539	13,65
779,721	-58,03
779,903	44,37
780,085	-60,07
780,267	-35,5
780,449	-21,16
780,631	-41,64
780,812	85,33
780,994	13,65
781,176	-10,92
781,358	44,37
781,54	-2,73
781,721	46,42
781,903	44,37
782,085	62,8
782,267	25,94
782,448	-37,55
782,63	-41,64
782,812	60,76
782,993	-35,5
783,175	32,08
783,357	-60,07
783,538	50,52
783,72	7,51
783,901	21,85
784,083	-19,11
784,264	54,61
784,446	-17,07
784,627	-45,74
784,809	9,56
784,99	5,46
785,172	27,99
785,353	-29,35
785,535	-17,07
785,716	-21,16
785,897	-0,68
786,079	34,13
786,26	44,37
786,441	-35,5
786,623	-45,74
786,804	-53,93
786,985	-2,73
787,167	7,51
787,348	3,41
787,529	21,85
787,71	-4,78
787,891	-37,55
788,073	-68,27
788,254	27,99
788,435	79,19
788,616	-10,92
788,797	-25,26
788,978	77,14
789,159	-21,16
789,34	83,28
789,522	42,32
789,703	60,76
789,884	-19,11
790,065	40,28
790,246	-12,97
790,427	19,8
790,607	-19,11
790,788	-17,07
790,969	-17,07
791,15	11,61
791,331	-58,03
791,512	13,65
791,693	-41,64
791,874	7,51
792,054	-4,78
792,235	38,23
792,416	-4,78
792,597	-39,59
792,778	-2,73
792,958	56,66
793,139	32,08
793,32	46,42
793,5	7,51
793,681	3,41
793,862	-19,11
794,042	-2,73
794,223	-41,64
794,404	13,65
794,584	-58,03
794,765	-10,92
794,945	36,18
795,126	30,04
795,306	34,13
795,487	7,51
795,667	-4,78
795,848	-47,79
796,028	21,85
796,209	25,94
796,389	9,56
796,57	-8,87
796,75	9,56
796,93	9,56
797,111	60,76
797,291	-107,18
797,471	11,61
797,652	-4,78
797,832	19,8
798,012	3,41
798,192	-94,89
798,373	21,85
798,553	30,04
798,733	27,99
798,913	-12,97
799,093	11,61
799,274	-19,11
799,454	5,46
799,634	52,56
799,814	-2,73
799,994	-10,92
800,174	40,28
800,354	-35,5
800,534	54,61
800,714	-2,73
800,894	-12,97
801,074	-25,26
801,254	19,8
801,434	62,8
801,614	-49,83
801,794	13,65
801,974	374,1
802,154	27,99
802,334	3,41
802,514	-4,78
802,693	56,66
802,873	23,89
803,053	17,75
803,233	-19,11
803,413	38,23
803,592	-92,84
803,772	-17,07
803,952	15,7
804,131	-15,02
804,311	-41,64
804,491	44,37
804,67	66,9
804,85	23,89
805,03	-17,07
805,209	25,94
805,389	15,7
805,568	9,56
805,748	48,47
805,928	19,8
806,107	36,18
806,287	5,46
806,466	54,61
806,646	-27,31
806,825	42,32
807,004	-39,59
807,184	-19,11
807,363	34,13
807,543	-27,31
807,722	-51,88
807,901	-10,92
808,081	52,56
808,26	7,51
808,439	-4,78
808,619	30,04
808,798	-4,78
808,977	-12,97
809,156	-12,97
809,336	-29,35
809,515	30,04
809,694	-17,07
809,873	15,7
810,052	-29,35
810,231	21,85
810,411	77,14
810,59	54,61
810,769	17,75
810,948	-78,51
811,127	-49,83
811,306	-47,79
811,485	-45,74
811,664	-6,83
811,843	15,7
812,022	56,66
812,201	-74,41
812,38	-39,59
812,559	73,04
812,737	11,61
812,916	-49,83
813,095	-68,27
813,274	5,46
813,453	-12,97
813,632	-10,92
813,811	3,41
813,989	-10,92
814,168	-21,16
814,347	-78,51
814,526	-53,93
814,704	-41,64
814,883	27,99
815,062	-8,87
815,24	-8,87
815,419	30,04
815,598	11,61
815,776	-43,69
815,955	23,89
816,133	-39,59
816,312	50,52
816,49	-19,11
816,669	5,46
816,847	-80,55
817,026	71
817,204	3,41
817,383	-10,92
817,561	-17,07
817,74	23,89
817,918	-58,03
818,097	-37,55
818,275	30,04
818,453	-10,92
818,632	93,52
818,81	-37,55
818,988	-41,64
819,167	7,51
819,345	77,14
819,523	-21,16
819,701	-10,92
819,879	126,29
820,058	-19,11
820,236	52,56
820,414	-0,68
820,592	-2,73
820,77	-12,97
820,948	56,66
821,127	52,56
821,305	-21,16
821,483	-27,31
821,661	1,37
821,839	19,8
822,017	-12,97
822,195	-21,16
822,373	27,99
822,551	-12,97
822,729	-21,16
822,907	-29,35
823,085	73,04
823,262	13,65
823,44	40,28
823,618	-64,17
823,796	-31,4
823,974	-41,64
824,152	46,42
824,329	-23,21
824,507	-6,83
824,685	-43,69
824,863	-35,5
825,04	13,65
825,218	77,14
825,396	-2,73
825,574	-0,68
825,751	50,52
825,929	38,23
826,107	15,7
826,284	9,56
826,462	-10,92
826,639	32,08
826,817	-76,46
826,994	36,18
827,172	-62,12
827,349	87,38
827,527	-55,98
827,704	11,61
827,882	23,89
828,059	-70,31
828,237	-43,69
828,414	-17,07
828,591	-107,18
828,769	36,18
828,946	-0,68
829,124	13,65
829,301	52,56
829,478	3,41
829,655	1,37
829,833	-15,02
830,01	-35,5
830,187	25,94
830,364	32,08
830,542	62,8
830,719	73,04
830,896	-12,97
831,073	17,75
831,25	-62,12
831,427	3,41
831,604	5,46
831,782	13,65
831,959	-12,97
832,136	-8,87
832,313	5,46
832,49	48,47
832,667	25,94
832,844	-27,31
833,021	27,99
833,198	-35,5
833,374	-41,64
833,551	15,7
833,728	21,85
833,905	25,94
834,082	-19,11
834,259	38,23
834,436	5,46
834,612	-35,5
834,789	17,75
834,966	21,85
835,143	19,8
835,319	-23,21
835,496	-10,92
835,673	27,99
835,85	-0,68
836,026	54,61
836,203	-49,83
836,38	-33,45
836,556	105,81
836,733	5,46
836,909	27,99
837,086	50,52
837,262	-117,42
837,439	-8,87
837,616	-4,78
837,792	-15,02
837,968	-12,97
838,145	30,04
838,321	36,18
838,498	77,14
838,674	11,61
838,851	-49,83
839,027	46,42
839,203	-21,16
839,38	-15,02
839,556	-2,73
839,732	101,72
839,909	27,99
840,085	-29,35
840,261	30,04
840,437	77,14
840,614	-58,03
840,79	-29,35
840,966	-21,16
841,142	44,37
841,318	5,46
841,494	77,14
841,671	-8,87
841,847	-29,35
842,023	-37,55
842,199	-0,68
842,375	30,04
842,551	-88,75
842,727	-53,93
842,903	52,56
843,079	-49,83
843,255	-25,26
843,431	15,7
843,607	64,85
843,783	-12,97
843,959	13,65
844,134	-12,97
844,31	27,99
844,486	-23,21
844,662	-12,97
844,838	71
845,013	-76,46
845,189	27,99
845,365	17,75
845,541	-4,78
845,716	27,99
845,892	-47,79
846,068	1,37
846,244	-17,07
846,419	19,8
846,595	-4,78
846,77	-4,78
846,946	-45,74
847,122	-37,55
847,297	56,66
847,473	11,61
847,648	13,65
847,824	13,65
847,999	-66,22
848,175	-70,31
848,35	-21,16
848,526	-23,21
848,701	-49,83
848,876	44,37
849,052	-12,97
849,227	3,41
849,403	-47,79
849,578	-37,55
849,753	-21,16
849,929	62,8
850,104	-21,16
850,279	11,61
850,454	5,46
850,63	-2,73
850,805	54,61
850,98	-10,92
851,155	-29,35
851,33	40,28
851,505	-58,03
851,681	52,56
851,856	21,85
852,031	11,61
852,206	15,7
852,381	-15,02
852,556	-43,69
852,731	54,61
852,906	1,37
853,081	50,52
853,256	-12,97
853,431	-43,69
853,606	32,08
853,781	-21,16
853,956	-78,51
854,131	62,8
854,305	7,51
854,48	-94,89
854,655	-39,59
854,83	-12,97
855,005	-21,16
855,18	-35,5
855,354	-17,07
855,529	-0,68
855,704	11,61
855,879	-0,68
856,053	-86,7
856,228	-21,16
856,403	21,85
856,577	11,61
856,752	73,04
856,926	54,61
857,101	11,61
857,276	5,46
857,45	-29,35
857,625	36,18
857,799	-35,5
857,974	11,61
858,148	-17,07
858,323	30,04
858,497	11,61
858,672	17,75
858,846	-64,17
859,02	50,52
859,195	-8,87
859,369	-60,07
859,543	-2,73
859,718	54,61
859,892	1,37
860,066	44,37
860,241	38,23
860,415	3,41
860,589	42,32
860,763	11,61
860,938	-58,03
861,112	91,48
861,286	-58,03
861,46	3,41
861,634	32,08
861,808	5,46
861,982	-103,08
862,157	-60,07
862,331	-27,31
862,505	58,71
862,679	-10,92
862,853	11,61
863,027	5,46
863,201	17,75
863,375	3,41
863,549	-2,73
863,722	23,89
863,896	-15,02
864,07	3,41
864,244	-6,83
864,418	-25,26
864,592	-15,02
864,766	42,32
864,939	-76,46
865,113	-15,02
865,287	-2,73
865,461	-25,26
865,634	11,61
865,808	-49,83
865,982	-41,64
866,156	9,56
866,329	-29,35
866,503	38,23
866,676	21,85
866,85	23,89
867,024	27,99
867,197	23,89
867,371	-88,75
867,544	75,09
867,718	-68,27
867,891	-8,87
868,065	-12,97
868,238	-2,73
868,412	-25,26
868,585	-25,26
868,759	40,28
868,932	-12,97
869,105	-33,45
869,279	-10,92
869,452	-12,97
869,625	36,18
869,799	-8,87
869,972	-76,46
870,145	52,56
870,319	19,8
870,492	25,94
870,665	-12,97
870,838	-62,12
871,011	3,41
871,185	19,8
871,358	-23,21
871,531	101,72
871,704	5,46
871,877	23,89
872,05	-84,65
872,223	-10,92
872,396	-41,64
872,569	111,96
872,742	5,46
872,915	-25,26
873,088	11,61
873,261	-76,46
873,434	40,28
873,607	-10,92
873,78	-21,16
873,953	-37,55
874,126	-98,99
874,299	-33,45
874,471	-17,07
874,644	-21,16
874,817	150,87
874,99	-2,73
875,163	-74,41
875,335	-82,6
875,508	-2,73
875,681	-27,31
875,853	66,9
876,026	15,7
876,199	1,37
876,371	15,7
876,544	44,37
876,717	-33,45
876,889	-19,11
877,062	19,8
877,234	-33,45
877,407	3,41
877,579	-25,26
877,752	-37,55
877,924	52,56
878,097	-8,87
878,269	5,46
878,442	32,08
878,614	5,46
878,786	-10,92
878,959	62,8
879,131	-23,21
879,303	-8,87
879,476	-6,83
879,648	-31,4
879,82	36,18
879,993	-39,59
880,165	-31,4
880,337	27,99
880,509	-35,5
880,681	27,99
880,854	-8,87
881,026	-2,73
881,198	44,37
881,37	7,51
881,542	-0,68
881,714	-29,35
881,886	-80,55
882,058	-33,45
882,23	-51,88
882,402	-8,87
882,574	-21,16
882,746	9,56
882,918	11,61
883,09	32,08
883,262	-2,73
883,434	-60,07
883,606	3,41
883,778	21,85
883,95	13,65
884,122	-58,03
884,293	68,95
884,465	-25,26
884,637	21,85
884,809	-74,41
884,98	7,51
885,152	-2,73
885,324	-10,92
885,496	-6,83
885,667	15,7
885,839	-21,16
886,011	32,08
886,182	34,13
886,354	66,9
886,525	44,37
886,697	-10,92
886,869	-10,92
887,04	-47,79
887,212	1,37
887,383	48,47
887,555	11,61
887,726	3,41
887,897	-6,83
888,069	-29,35
888,24	-33,45
888,412	-4,78
888,583	-37,55
888,754	-21,16
888,926	-41,64
889,097	30,04
889,268	-62,12
889,44	25,94
889,611	-76,46
889,782	44,37
889,953	19,8
890,125	7,51
890,296	-17,07
890,467	-119,46
890,638	-45,74
890,809	-8,87
890,98	25,94
891,151	11,61
891,323	-19,11
891,494	36,18
891,665	-29,35
891,836	75,09
892,007	19,8
892,178	-19,11
892,349	-4,78
892,52	-60,07
892,691	36,18
892,862	3,41
893,032	-43,69
893,203	71
893,374	93,52
893,545	-35,5
893,716	1,37
893,887	19,8
894,057	-8,87
894,228	-15,02
894,399	1,37
894,57	-12,97
894,74	7,51
894,911	-45,74
895,082	27,99
895,253	27,99
895,423	-2,73
895,594	5,46
895,764	-25,26
895,935	-90,79
896,106	-25,26
896,276	11,61
896,447	-92,84
896,617	-8,87
896,788	-23,21
896,958	-68,27
897,129	23,89
897,299	11,61
897,47	15,7
897,64	27,99
897,81	-55,98
897,981	27,99
898,151	-35,5
898,322	64,85
898,492	11,61
898,662	-103,08
898,832	-86,7
899,003	-45,74
899,173	38,23
899,343	-8,87
899,513	-35,5
