Data from filtre 450_USB4F104151__5__11-55-00-363.txt Node

Date: Wed Apr 15 11:55:00 EDT 2026
User: LaboPhy
Spectrometer: USB4F10415
Trigger mode: 4
Integration Time (sec): 2,100000E-2
Scans to average: 1
Electric dark correction enabled: true
Nonlinearity correction enabled: false
Boxcar width: 0
XAxis mode: Wavelengths
Number of Pixels in Spectrum: 3648
>>>>>Begin Spectral Data<<<<<
178,204	-122,02
178,424	-122,02
178,644	-122,02
178,864	-132,26
179,084	-85,16
179,304	-27,82
179,524	-44,2
179,744	-3,24
179,964	-44,2
180,184	-48,3
180,404	-3,24
180,624	-31,91
180,844	9,05
181,064	56,15
181,283	84,82
181,503	4,95
181,723	47,96
181,943	-15,53
182,163	37,72
182,383	-29,87
182,602	-27,82
182,822	-11,43
183,042	72,53
183,262	23,38
183,482	-50,35
183,701	50
183,921	-56,49
184,141	13,14
184,361	84,82
184,58	31,57
184,8	21,33
185,02	19,29
185,239	-17,58
185,459	-66,73
185,679	9,05
185,898	-29,87
186,118	-3,24
186,338	-50,35
186,557	39,76
186,777	-46,25
186,997	-3,24
187,216	-91,31
187,436	2,9
187,655	-79,02
187,875	39,76
188,095	9,05
188,314	9,05
188,534	60,24
188,753	31,57
188,973	54,1
189,192	29,52
189,412	9,05
189,631	23,38
189,851	13,14
190,07	86,87
190,29	37,72
190,509	50
190,729	13,14
190,948	45,91
191,168	107,35
191,387	82,77
191,607	66,39
191,826	31,57
192,045	17,24
192,265	11,09
192,484	-40,11
192,704	54,1
192,923	4,95
193,142	60,24
193,362	7
193,581	17,24
193,8	13,14
194,02	4,95
194,239	-42,15
194,458	23,38
194,678	23,38
194,897	70,48
195,116	-27,82
195,335	115,54
195,555	25,43
195,774	-1,19
195,993	21,33
196,212	-9,39
196,432	-9,39
196,651	-5,29
196,87	-9,39
197,089	2,9
197,308	64,34
197,528	0,85
197,747	-7,34
197,966	-36,01
198,185	7
198,404	-36,01
198,623	9,05
198,842	29,52
199,062	-3,24
199,281	45,91
199,5	4,95
199,719	17,24
199,938	23,38
200,157	23,38
200,376	58,2
200,595	43,86
200,814	0,85
201,033	0,85
201,252	-11,43
201,471	-3,24
201,69	2,9
201,909	0,85
202,128	-17,58
202,347	23,38
202,566	-3,24
202,785	21,33
203,004	37,72
203,223	60,24
203,442	21,33
203,661	4,95
203,879	-27,82
204,098	70,48
204,317	-117,93
204,536	35,67
204,755	54,1
204,974	74,58
205,193	-1,19
205,411	179,03
205,63	33,62
205,849	9,05
206,068	-44,2
206,287	-31,91
206,505	9,05
206,724	-15,53
206,943	-68,78
207,162	-50,35
207,381	-5,29
207,599	7
207,818	-11,43
208,037	19,29
208,255	-38,06
208,474	-42,15
208,693	37,72
208,911	47,96
209,13	9,05
209,349	54,1
209,567	29,52
209,786	-25,77
210,005	23,38
210,223	29,52
210,442	-93,35
210,661	-50,35
210,879	-33,96
211,098	119,64
211,316	19,29
211,535	45,91
211,753	0,85
211,972	54,1
212,191	-50,35
212,409	78,68
212,628	47,96
212,846	70,48
213,065	39,76
213,283	86,87
213,502	9,05
213,72	25,43
213,938	-50,35
214,157	-17,58
214,375	-7,34
214,594	-19,63
214,812	13,14
215,031	45,91
215,249	45,91
215,467	-48,3
215,686	7
215,904	-21,67
216,122	35,67
216,341	43,86
216,559	13,14
216,778	-21,67
216,996	47,96
217,214	35,67
217,432	21,33
217,651	21,33
217,869	11,09
218,087	-23,72
218,306	37,72
218,524	54,1
218,742	-7,34
218,96	21,33
219,179	-81,07
219,397	31,57
219,615	95,06
219,833	29,52
220,051	27,48
220,27	35,67
220,488	-11,43
220,706	-62,63
220,924	-27,82
221,142	-5,29
221,36	0,85
221,578	2,9
221,796	-42,15
222,015	-58,54
222,233	25,43
222,451	23,38
222,669	15,19
222,887	-9,39
223,105	-48,3
223,323	-17,58
223,541	-40,11
223,759	33,62
223,977	33,62
224,195	86,87
224,413	0,85
224,631	4,95
224,849	-7,34
225,067	54,1
225,285	54,1
225,503	2,9
225,721	-11,43
225,939	25,43
226,157	-64,68
226,375	66,39
226,592	21,33
226,81	23,38
227,028	37,72
227,246	43,86
227,464	39,76
227,682	13,14
227,9	39,76
228,117	47,96
228,335	13,14
228,553	58,2
228,771	13,14
228,989	54,1
229,206	68,44
229,424	2,9
229,642	29,52
229,86	0,85
230,077	21,33
230,295	13,14
230,513	72,53
230,731	76,63
230,948	-1,19
231,166	45,91
231,384	23,38
231,601	-70,83
231,819	37,72
232,037	-3,24
232,254	-48,3
232,472	-17,58
232,689	-23,72
232,907	-1,19
233,125	-54,44
233,342	-5,29
233,56	-9,39
233,777	25,43
233,995	-11,43
234,213	-23,72
234,43	13,14
234,648	-52,39
234,865	15,19
235,083	-44,2
235,3	-25,77
235,518	-46,25
235,735	54,1
235,953	37,72
236,17	-19,63
236,388	-27,82
236,605	54,1
236,822	35,67
237,04	-31,91
237,257	90,96
237,475	33,62
237,692	7
237,909	-29,87
238,127	43,86
238,344	45,91
238,562	-29,87
238,779	21,33
238,996	0,85
239,214	60,24
239,431	23,38
239,648	25,43
239,865	99,16
240,083	37,72
240,3	-36,01
240,517	-15,53
240,735	-13,48
240,952	-3,24
241,169	45,91
241,386	-40,11
241,603	29,52
241,821	-40,11
242,038	7
242,255	-17,58
242,472	0,85
242,689	41,81
242,907	54,1
243,124	-60,59
243,341	-21,67
243,558	-64,68
243,775	19,29
243,992	37,72
244,209	54,1
244,426	64,34
244,643	-7,34
244,86	17,24
245,078	23,38
245,295	-60,59
245,512	-36,01
245,729	17,24
245,946	31,57
246,163	-11,43
246,38	45,91
246,597	-13,48
246,814	0,85
247,031	-3,24
247,248	-70,83
247,464	37,72
247,681	-27,82
247,898	-60,59
248,115	37,72
248,332	-9,39
248,549	52,05
248,766	2,9
248,983	31,57
249,2	37,72
249,417	66,39
249,633	31,57
249,85	64,34
250,067	-19,63
250,284	-17,58
250,501	58,2
250,717	15,19
250,934	2,9
251,151	-33,96
251,368	33,62
251,585	19,29
251,801	-9,39
252,018	-21,67
252,235	29,52
252,451	-13,48
252,668	-79,02
252,885	-3,24
253,102	-27,82
253,318	-95,4
253,535	-3,24
253,752	-72,87
253,968	-1,19
254,185	11,09
254,401	-23,72
254,618	21,33
254,835	-11,43
255,051	-7,34
255,268	-27,82
255,484	-11,43
255,701	-3,24
255,917	56,15
256,134	-29,87
256,351	-19,63
256,567	-23,72
256,784	93,01
257	-3,24
257,217	-36,01
257,433	13,14
257,65	-11,43
257,866	64,34
258,082	-27,82
258,299	74,58
258,515	54,1
258,732	-60,59
258,948	-3,24
259,165	50
259,381	37,72
259,597	64,34
259,814	-44,2
260,03	37,72
260,246	29,52
260,463	13,14
260,679	50
260,895	2,9
261,112	62,29
261,328	-7,34
261,544	-36,01
261,761	56,15
261,977	-7,34
262,193	-76,97
262,409	-1,19
262,626	45,91
262,842	-72,87
263,058	78,68
263,274	-1,19
263,49	13,14
263,707	121,68
263,923	-23,72
264,139	-85,16
264,355	-5,29
264,571	25,43
264,787	39,76
265,004	29,52
265,22	-52,39
265,436	-83,11
265,652	7
265,868	17,24
266,084	-27,82
266,3	64,34
266,516	-7,34
266,732	17,24
266,948	-21,67
267,164	-17,58
267,38	13,14
267,596	-3,24
267,812	0,85
268,028	13,14
268,244	-46,25
268,46	-58,54
268,676	11,09
268,892	13,14
269,108	-15,53
269,324	-89,26
269,54	-11,43
269,756	66,39
269,972	-56,49
270,188	-11,43
270,403	-36,01
270,619	66,39
270,835	-15,53
271,051	0,85
271,267	-5,29
271,483	29,52
271,698	45,91
271,914	39,76
272,13	39,76
272,346	-36,01
272,562	25,43
272,777	15,19
272,993	29,52
273,209	-27,82
273,425	13,14
273,64	15,19
273,856	13,14
274,072	9,05
274,287	33,62
274,503	9,05
274,719	25,43
274,934	88,92
275,15	-83,11
275,366	-17,58
275,581	-48,3
275,797	-62,63
276,012	-36,01
276,228	-3,24
276,444	11,09
276,659	15,19
276,875	-66,73
277,09	-50,35
277,306	-68,78
277,521	33,62
277,737	50
277,952	39,76
278,168	-62,63
278,383	0,85
278,599	9,05
278,814	-15,53
279,03	50
279,245	23,38
279,461	7
279,676	4,95
279,892	21,33
280,107	99,16
280,322	-64,68
280,538	-9,39
280,753	29,52
280,969	56,15
281,184	58,2
281,399	15,19
281,615	29,52
281,83	7
282,045	-3,24
282,26	-27,82
282,476	45,91
282,691	23,38
282,906	-50,35
283,122	-15,53
283,337	-3,24
283,552	-31,91
283,767	13,14
283,983	-11,43
284,198	-40,11
284,413	66,39
284,628	-50,35
284,843	21,33
285,058	39,76
285,274	-36,01
285,489	0,85
285,704	9,05
285,919	-50,35
286,134	31,57
286,349	-42,15
286,564	-68,78
286,779	-5,29
286,995	-3,24
287,21	-9,39
287,425	-23,72
287,64	17,24
287,855	-11,43
288,07	-9,39
288,285	-9,39
288,5	-3,24
288,715	47,96
288,93	7
289,145	-15,53
289,36	-60,59
289,575	-13,48
289,79	23,38
290,004	37,72
290,219	-3,24
290,434	23,38
290,649	21,33
290,864	11,09
291,079	-52,39
291,294	66,39
291,509	-46,25
291,724	-1,19
291,938	29,52
292,153	-15,53
292,368	-21,67
292,583	47,96
292,798	13,14
293,012	-21,67
293,227	-38,06
293,442	17,24
293,657	70,48
293,871	-1,19
294,086	7
294,301	4,95
294,516	54,1
294,73	4,95
294,945	47,96
295,16	21,33
295,374	-17,58
295,589	70,48
295,804	17,24
296,018	-7,34
296,233	-64,68
296,447	52,05
296,662	21,33
296,877	-7,34
297,091	-3,24
297,306	4,95
297,52	-21,67
297,735	70,48
297,949	-11,43
298,164	80,72
298,378	-5,29
298,593	-1,19
298,807	66,39
299,022	17,24
299,236	86,87
299,451	-25,77
299,665	-33,96
299,88	-44,2
300,094	-64,68
300,309	-52,39
300,523	2,9
300,737	-95,4
300,952	13,14
301,166	-15,53
301,381	-44,2
301,595	23,38
301,809	-7,34
302,024	-31,91
302,238	-33,96
302,452	35,67
302,667	-29,87
302,881	13,14
303,095	4,95
303,309	31,57
303,524	-33,96
303,738	47,96
303,952	35,67
304,166	23,38
304,381	29,52
304,595	54,1
304,809	15,19
305,023	-11,43
305,237	70,48
305,452	13,14
305,666	19,29
305,88	-1,19
306,094	-17,58
306,308	54,1
306,522	-27,82
306,736	-3,24
306,95	-42,15
307,164	-23,72
307,379	4,95
307,593	45,91
307,807	-91,31
308,021	70,48
308,235	50
308,449	-3,24
308,663	0,85
308,877	88,92
309,091	45,91
309,305	37,72
309,519	-15,53
309,733	13,14
309,947	21,33
310,161	37,72
310,374	13,14
310,588	-50,35
310,802	-1,19
311,016	-25,77
311,23	82,77
311,444	-42,15
311,658	-27,82
311,872	68,44
312,085	82,77
312,299	74,58
312,513	19,29
312,727	23,38
312,941	-38,06
313,154	17,24
313,368	-42,15
313,582	9,05
313,796	-58,54
314,009	-1,19
314,223	23,38
314,437	-27,82
314,651	-13,48
314,864	37,72
315,078	35,67
315,292	41,81
315,505	-17,58
315,719	72,53
315,933	-15,53
316,146	-11,43
316,36	31,57
316,573	17,24
316,787	19,29
317,001	21,33
317,214	-42,15
317,428	54,1
317,641	25,43
317,855	-50,35
318,068	-64,68
318,282	-11,43
318,495	101,2
318,709	62,29
318,922	39,76
319,136	2,9
319,349	-36,01
319,563	7
319,776	-31,91
319,99	45,91
320,203	27,48
320,417	64,34
320,63	70,48
320,843	21,33
321,057	-42,15
321,27	-58,54
321,483	-68,78
321,697	25,43
321,91	54,1
322,124	13,14
322,337	25,43
322,55	56,15
322,763	-13,48
322,977	52,05
323,19	-33,96
323,403	37,72
323,617	25,43
323,83	39,76
324,043	4,95
324,256	64,34
324,469	7
324,683	-89,26
324,896	11,09
325,109	-50,35
325,322	13,14
325,535	56,15
325,748	39,76
325,962	35,67
326,175	25,43
326,388	62,29
326,601	21,33
326,814	23,38
327,027	-29,87
327,24	-3,24
327,453	-38,06
327,666	15,19
327,879	-3,24
328,092	15,19
328,305	-3,24
328,518	-19,63
328,731	-33,96
328,944	37,72
329,157	7
329,37	31,57
329,583	7
329,796	7
330,009	-79,02
330,222	25,43
330,435	11,09
330,648	11,09
330,861	-50,35
331,073	31,57
331,286	37,72
331,499	9,05
331,712	-46,25
331,925	-21,67
332,138	-3,24
332,35	23,38
332,563	0,85
332,776	-7,34
332,989	9,05
333,202	-60,59
333,414	50
333,627	13,14
333,84	45,91
334,053	-23,72
334,265	2,9
334,478	23,38
334,691	29,52
334,903	58,2
335,116	-72,87
335,329	47,96
335,541	31,57
335,754	35,67
335,966	-42,15
336,179	33,62
336,392	37,72
336,604	-25,77
336,817	-40,11
337,029	21,33
337,242	-17,58
337,454	23,38
337,667	-19,63
337,88	70,48
338,092	-48,3
338,305	-89,26
338,517	0,85
338,729	13,14
338,942	35,67
339,154	31,57
339,367	17,24
339,579	-58,54
339,792	-31,91
340,004	68,44
340,217	37,72
340,429	15,19
340,641	-5,29
340,854	-15,53
341,066	13,14
341,278	86,87
341,491	31,57
341,703	76,63
341,915	0,85
342,128	45,91
342,34	45,91
342,552	-3,24
342,764	9,05
342,977	39,76
343,189	-9,39
343,401	-42,15
343,613	-19,63
343,826	-19,63
344,038	64,34
344,25	-7,34
344,462	-36,01
344,674	17,24
344,886	-52,39
345,099	23,38
345,311	-17,58
345,523	-7,34
345,735	29,52
345,947	33,62
346,159	-17,58
346,371	7
346,583	-23,72
346,795	41,81
347,007	-42,15
347,219	47,96
347,431	-23,72
347,643	-33,96
347,855	2,9
348,067	-9,39
348,279	-91,31
348,491	37,72
348,703	23,38
348,915	13,14
349,127	-56,49
349,339	60,24
349,551	-46,25
349,763	2,9
349,975	31,57
350,187	39,76
350,399	2,9
350,61	15,19
350,822	-15,53
351,034	4,95
351,246	-48,3
351,458	-13,48
351,669	37,72
351,881	13,14
352,093	-31,91
352,305	-19,63
352,517	-3,24
352,728	47,96
352,94	37,72
353,152	27,48
353,363	-11,43
353,575	113,49
353,787	56,15
353,999	21,33
354,21	19,29
354,422	-64,68
354,633	-27,82
354,845	76,63
355,057	-15,53
355,268	-3,24
355,48	62,29
355,692	25,43
355,903	-15,53
356,115	-9,39
356,326	33,62
356,538	37,72
356,749	-27,82
356,961	-19,63
357,172	-1,19
357,384	0,85
357,595	9,05
357,807	-23,72
358,018	-3,24
358,23	-3,24
358,441	39,76
358,653	-19,63
358,864	-58,54
359,075	-1,19
359,287	0,85
359,498	39,76
359,709	97,11
359,921	9,05
360,132	88,92
360,344	2,9
360,555	-25,77
360,766	-44,2
360,977	11,09
361,189	27,48
361,4	-72,87
361,611	111,44
361,823	-5,29
362,034	-31,91
362,245	4,95
362,456	17,24
362,667	54,1
362,879	15,19
363,09	4,95
363,301	13,14
363,512	-81,07
363,723	-13,48
363,935	13,14
364,146	43,86
364,357	-33,96
364,568	54,1
364,779	76,63
364,99	9,05
365,201	-91,31
365,412	140,12
365,623	-7,34
365,834	-21,67
366,045	-13,48
366,256	9,05
366,467	-15,53
366,678	9,05
366,889	-48,3
367,1	-13,48
367,311	39,76
367,522	13,14
367,733	21,33
367,944	37,72
368,155	-11,43
368,366	25,43
368,577	25,43
368,788	-9,39
368,999	11,09
369,209	-9,39
369,42	43,86
369,631	70,48
369,842	-52,39
370,053	-15,53
370,264	13,14
370,474	84,82
370,685	54,1
370,896	0,85
371,107	7
371,317	13,14
371,528	-27,82
371,739	31,57
371,95	-21,67
372,16	31,57
372,371	-48,3
372,582	25,43
372,792	-31,91
373,003	37,72
373,214	37,72
373,424	-85,16
373,635	0,85
373,846	78,68
374,056	50
374,267	-1,19
374,477	11,09
374,688	4,95
374,898	-56,49
375,109	-1,19
375,319	56,15
375,53	76,63
375,74	21,33
375,951	4,95
376,161	-25,77
376,372	35,67
376,582	-44,2
376,793	37,72
377,003	13,14
377,214	-13,48
377,424	41,81
377,635	-19,63
377,845	-40,11
378,055	-31,91
378,266	7
378,476	39,76
378,686	-3,24
378,897	-1,19
379,107	-11,43
379,317	7
379,528	66,39
379,738	45,91
379,948	-29,87
380,158	11,09
380,369	17,24
380,579	-17,58
380,789	-25,77
380,999	88,92
381,21	-15,53
381,42	-23,72
381,63	27,48
381,84	39,76
382,05	29,52
382,261	21,33
382,471	54,1
382,681	9,05
382,891	-13,48
383,101	64,34
383,311	62,29
383,521	39,76
383,731	39,76
383,941	39,76
384,151	11,09
384,361	33,62
384,571	-19,63
384,781	58,2
384,991	66,39
385,201	0,85
385,411	-1,19
385,621	39,76
385,831	-50,35
386,041	-1,19
386,251	15,19
386,461	41,81
386,671	4,95
386,881	54,1
387,091	-25,77
387,301	47,96
387,511	15,19
387,72	13,14
387,93	-52,39
388,14	9,05
388,35	-1,19
388,56	7
388,769	37,72
388,979	-56,49
389,189	2,9
389,399	-36,01
389,609	33,62
389,818	-40,11
390,028	47,96
390,238	29,52
390,447	15,19
390,657	2,9
390,867	0,85
391,076	41,81
391,286	27,48
391,496	13,14
391,705	31,57
391,915	-17,58
392,125	-36,01
392,334	58,2
392,544	74,58
392,753	9,05
392,963	-76,97
393,172	70,48
393,382	-52,39
393,591	50
393,801	-9,39
394,01	11,09
394,22	13,14
394,429	35,67
394,639	74,58
394,848	-1,19
395,058	-36,01
395,267	37,72
395,477	-3,24
395,686	68,44
395,895	52,05
396,105	70,48
396,314	11,09
396,524	62,29
396,733	-52,39
396,942	31,57
397,152	27,48
397,361	33,62
397,57	-52,39
397,78	9,05
397,989	27,48
398,198	70,48
398,407	7
398,617	-5,29
398,826	-27,82
399,035	-36,01
399,244	99,16
399,453	39,76
399,663	7
399,872	70,48
400,081	-15,53
400,29	70,48
400,499	-15,53
400,708	35,67
400,917	-13,48
401,127	11,09
401,336	-36,01
401,545	31,57
401,754	13,14
401,963	62,29
402,172	41,81
402,381	-27,82
402,59	-33,96
402,799	-27,82
403,008	45,91
403,217	62,29
403,426	29,52
403,635	-1,19
403,844	80,72
404,053	56,15
404,262	56,15
404,471	62,29
404,68	80,72
404,888	62,29
405,097	23,38
405,306	62,29
405,515	70,48
405,724	64,34
405,933	47,96
406,142	52,05
406,35	27,48
406,559	-13,48
406,768	17,24
406,977	72,53
407,185	60,24
407,394	9,05
407,603	50
407,812	-11,43
408,02	64,34
408,229	37,72
408,438	-5,29
408,646	21,33
408,855	13,14
409,064	64,34
409,272	-27,82
409,481	31,57
409,69	21,33
409,898	-9,39
410,107	39,76
410,315	54,1
410,524	47,96
410,733	-11,43
410,941	103,25
411,15	13,14
411,358	88,92
411,567	0,85
411,775	37,72
411,984	13,14
412,192	9,05
412,401	-21,67
412,609	-27,82
412,818	74,58
413,026	-11,43
413,234	-27,82
413,443	17,24
413,651	29,52
413,86	13,14
414,068	101,2
414,276	29,52
414,485	4,95
414,693	41,81
414,901	21,33
415,11	17,24
415,318	-19,63
415,526	-40,11
415,734	78,68
415,943	15,19
416,151	19,29
416,359	-31,91
416,567	123,73
416,776	82,77
416,984	13,14
417,192	45,91
417,4	37,72
417,608	37,72
417,817	-33,96
418,025	72,53
418,233	41,81
418,441	-23,72
418,649	37,72
418,857	7
419,065	9,05
419,273	-21,67
419,481	-40,11
419,689	-21,67
419,897	64,34
420,105	-3,24
420,313	35,67
420,521	37,72
420,729	58,2
420,937	56,15
421,145	-42,15
421,353	0,85
421,561	13,14
421,769	95,06
421,977	4,95
422,185	41,81
422,393	-44,2
422,601	17,24
422,809	54,1
423,017	-15,53
423,224	64,34
423,432	-13,48
423,64	62,29
423,848	-5,29
424,056	9,05
424,263	-1,19
424,471	-15,53
424,679	33,62
424,887	-27,82
425,094	21,33
425,302	43,86
425,51	-17,58
425,718	-9,39
425,925	33,62
426,133	31,57
426,341	109,4
426,548	70,48
426,756	-17,58
426,964	66,39
427,171	33,62
427,379	43,86
427,586	21,33
427,794	47,96
428,001	97,11
428,209	-15,53
428,417	13,14
428,624	123,73
428,832	11,09
429,039	43,86
429,247	-25,77
429,454	31,57
429,662	-54,44
429,869	-36,01
430,076	21,33
430,284	31,57
430,491	56,15
430,699	-60,59
430,906	23,38
431,114	121,68
431,321	13,14
431,528	7
431,736	33,62
431,943	13,14
432,15	95,06
432,358	13,14
432,565	21,33
432,772	-31,91
432,979	117,59
433,187	-31,91
433,394	-3,24
433,601	4,95
433,808	23,38
434,016	62,29
434,223	82,77
434,43	17,24
434,637	45,91
434,844	50
435,052	107,35
435,259	90,96
435,466	66,39
435,673	37,72
435,88	23,38
436,087	140,12
436,294	23,38
436,501	127,83
436,708	103,25
436,915	-5,29
437,122	191,31
437,329	29,52
437,537	58,2
437,743	0,85
437,95	19,29
438,157	62,29
438,364	90,96
438,571	50
438,778	119,64
438,985	78,68
439,192	107,35
439,399	37,72
439,606	133,97
439,813	21,33
440,02	172,88
440,227	74,58
440,433	37,72
440,64	115,54
440,847	203,6
441,054	142,16
441,261	187,22
441,467	144,21
441,674	119,64
441,881	121,68
442,088	123,73
442,294	162,64
442,501	187,22
442,708	269,14
442,914	197,46
443,121	164,69
443,328	262,99
443,534	283,47
443,741	271,19
443,948	295,76
444,154	402,26
444,361	353,1
444,568	371,54
444,774	502,61
444,981	430,93
445,187	629,58
445,394	602,96
445,6	701,26
445,807	777,03
446,013	856,9
446,22	959,3
446,426	1051,46
446,633	1301,31
446,839	1506,11
447,046	1545,02
447,252	1831,74
447,459	1991,48
447,665	2310,96
447,871	2564,91
448,078	3101,48
448,284	3478,3
448,491	3947,29
448,697	4666,13
448,903	5440,26
449,11	6212,34
449,316	6988,52
449,522	8331,99
449,728	9589,44
449,935	11059,88
450,141	12538,52
450,347	14688,89
450,553	16028,26
450,76	18317,89
450,966	21152,27
451,172	23321,07
451,378	26089,93
451,584	28060,07
451,791	31512,95
451,997	33540,44
452,203	36567,34
452,409	39186,69
452,615	40339,69
452,821	41791,7
453,027	42342,61
453,233	46383,25
453,44	46153,88
453,646	47843,45
453,852	49123,43
454,058	50909,26
454,264	49883,23
454,47	51980,35
454,676	51363,91
454,882	54616,08
455,088	50735,18
455,294	52000,83
455,5	54423,57
455,705	54286,36
455,911	53663,78
456,117	53407,78
456,323	53719,07
456,529	51667,01
456,735	54986,77
456,941	55209,99
457,147	55164,94
457,352	54315,03
457,558	54286,36
457,764	55592,97
457,97	55568,39
458,176	55019,53
458,381	55986,18
458,587	54626,32
458,793	55437,32
458,999	52439,09
459,204	57454,57
459,41	57278,44
459,616	53848,1
459,821	54413,34
460,027	53866,53
460,233	53295,14
460,438	50235,48
460,644	50905,16
460,85	47175,81
461,055	44970,15
461,261	43548,86
461,466	38363,4
461,672	35651,89
461,878	36036,91
462,083	31496,56
462,289	29137,3
462,494	26274,24
462,7	22815,23
462,905	20451,87
463,111	19499,56
463,316	17887,81
463,522	15880,8
463,727	14383,74
463,932	12427,93
464,138	11559,59
464,343	10166,97
464,549	9145,03
464,754	8219,35
464,959	7527,14
465,165	6560,5
465,37	5657,34
465,575	4893,45
465,781	4739,85
465,986	4307,73
466,191	3664,67
466,397	3392,29
466,602	2865,96
466,807	2773,8
467,012	2456,37
467,218	2237,24
467,423	2007,86
467,628	1901,37
467,833	1862,46
468,038	1583,93
468,244	1370,94
468,449	1356,61
468,654	1166,15
468,859	1141,57
469,064	1014,6
469,269	932,68
469,474	889,67
469,679	832,33
469,885	746,31
470,09	723,79
470,295	674,64
470,5	652,11
470,705	607,05
470,91	537,42
471,115	545,61
471,32	488,27
471,525	568,14
471,73	447,31
471,935	365,39
472,139	322,38
472,344	381,78
472,549	277,33
472,754	357,2
472,959	342,86
473,164	338,77
473,369	291,66
473,574	316,24
473,778	262,99
473,983	244,56
474,188	332,62
474,393	213,84
474,598	275,28
474,802	226,13
475,007	215,89
475,212	162,64
475,417	166,74
475,621	219,99
475,826	168,79
476,031	111,44
476,235	193,36
476,44	154,45
476,645	185,17
476,849	203,6
477,054	144,21
477,259	166,74
477,463	127,83
477,668	205,65
477,872	101,2
478,077	113,49
478,282	119,64
478,486	101,2
478,691	52,05
478,895	113,49
479,1	93,01
479,304	95,06
479,509	88,92
479,713	136,02
479,918	121,68
480,122	43,86
480,326	86,87
480,531	121,68
480,735	37,72
480,94	39,76
481,144	93,01
481,348	64,34
481,553	119,64
481,757	74,58
481,961	64,34
482,166	146,26
482,37	25,43
482,574	62,29
482,778	47,96
482,983	68,44
483,187	21,33
483,391	39,76
483,595	31,57
483,8	56,15
484,004	70,48
484,208	54,1
484,412	95,06
484,616	95,06
484,821	39,76
485,025	105,3
485,229	70,48
485,433	80,72
485,637	54,1
485,841	43,86
486,045	99,16
486,249	113,49
486,453	90,96
486,657	74,58
486,861	-21,67
487,065	25,43
487,269	72,53
487,473	68,44
487,677	70,48
487,881	138,07
488,085	50
488,289	90,96
488,493	9,05
488,697	88,92
488,901	80,72
489,105	-5,29
489,309	-5,29
489,512	119,64
489,716	13,14
489,92	-5,29
490,124	66,39
490,328	66,39
490,531	76,63
490,735	-11,43
490,939	13,14
491,143	19,29
491,346	4,95
491,55	82,77
491,754	56,15
491,958	15,19
492,161	54,1
492,365	54,1
492,569	66,39
492,772	117,59
492,976	127,83
493,18	82,77
493,383	50
493,587	23,38
493,79	58,2
493,994	54,1
494,197	-44,2
494,401	-19,63
494,605	35,67
494,808	-3,24
495,012	2,9
495,215	-3,24
495,419	76,63
495,622	29,52
495,825	45,91
496,029	-68,78
496,232	9,05
496,436	-13,48
496,639	-38,06
496,843	15,19
497,046	37,72
497,249	138,07
497,453	25,43
497,656	13,14
497,859	-25,77
498,063	35,67
498,266	2,9
498,469	13,14
498,673	11,09
498,876	29,52
499,079	2,9
499,282	4,95
499,485	66,39
499,689	9,05
499,892	60,24
500,095	-1,19
500,298	-27,82
500,501	0,85
500,705	54,1
500,908	27,48
501,111	-38,06
501,314	64,34
501,517	56,15
501,72	-27,82
501,923	66,39
502,126	37,72
502,329	4,95
502,532	29,52
502,735	29,52
502,938	64,34
503,141	-11,43
503,344	39,76
503,547	-13,48
503,75	27,48
503,953	27,48
504,156	58,2
504,359	-66,73
504,562	-25,77
504,765	0,85
504,968	-25,77
505,17	70,48
505,373	70,48
505,576	15,19
505,779	54,1
505,982	-38,06
506,185	-3,24
506,387	23,38
506,59	54,1
506,793	35,67
506,996	-1,19
507,198	-11,43
507,401	93,01
507,604	90,96
507,807	27,48
508,009	88,92
508,212	9,05
508,415	9,05
508,617	88,92
508,82	4,95
509,022	23,38
509,225	-3,24
509,428	35,67
509,63	4,95
509,833	68,44
510,035	21,33
510,238	39,76
510,44	-31,91
510,643	17,24
510,845	17,24
511,048	70,48
511,25	-3,24
511,453	19,29
511,655	-29,87
511,858	50
512,06	64,34
512,262	-11,43
512,465	35,67
512,667	88,92
512,87	-52,39
513,072	-11,43
513,274	-9,39
513,477	31,57
513,679	-27,82
513,881	7
514,084	19,29
514,286	-3,24
514,488	4,95
514,69	4,95
514,893	-13,48
515,095	-50,35
515,297	33,62
515,499	19,29
515,701	74,58
515,904	29,52
516,106	21,33
516,308	-1,19
516,51	41,81
516,712	37,72
516,914	-42,15
517,116	15,19
517,318	-42,15
517,52	-11,43
517,722	39,76
517,925	-58,54
518,127	25,43
518,329	39,76
518,531	-33,96
518,733	56,15
518,935	-3,24
519,136	0,85
519,338	-11,43
519,54	9,05
519,742	-7,34
519,944	109,4
520,146	-50,35
520,348	-1,19
520,55	43,86
520,752	15,19
520,954	-72,87
521,155	-19,63
521,357	52,05
521,559	7
521,761	84,82
521,963	41,81
522,164	21,33
522,366	37,72
522,568	7
522,77	29,52
522,971	4,95
523,173	-15,53
523,375	45,91
523,576	54,1
523,778	54,1
523,98	-11,43
524,181	23,38
524,383	50
524,584	54,1
524,786	-58,54
524,988	-9,39
525,189	-21,67
525,391	31,57
525,592	-52,39
525,794	-7,34
525,995	-27,82
526,197	37,72
526,398	45,91
526,6	13,14
526,801	-1,19
527,003	-68,78
527,204	-7,34
527,406	45,91
527,607	25,43
527,808	-64,68
528,01	-58,54
528,211	27,48
528,412	17,24
528,614	21,33
528,815	17,24
529,016	95,06
529,218	-23,72
529,419	-9,39
529,62	-31,91
529,822	72,53
530,023	29,52
530,224	-29,87
530,425	47,96
530,626	-36,01
530,828	-21,67
531,029	-52,39
531,23	66,39
531,431	-15,53
531,632	21,33
531,833	11,09
532,035	-17,58
532,236	-21,67
532,437	33,62
532,638	-62,63
532,839	-29,87
533,04	-13,48
533,241	21,33
533,442	41,81
533,643	-3,24
533,844	39,76
534,045	0,85
534,246	60,24
534,447	-46,25
534,648	45,91
534,849	33,62
535,05	-81,07
535,251	-7,34
535,451	62,29
535,652	2,9
535,853	-42,15
536,054	58,2
536,255	-46,25
536,456	29,52
536,657	-19,63
536,857	39,76
537,058	19,29
537,259	19,29
537,46	39,76
537,66	47,96
537,861	-70,83
538,062	17,24
538,263	-36,01
538,463	54,1
538,664	-17,58
538,865	-13,48
539,065	29,52
539,266	-19,63
539,466	-17,58
539,667	4,95
539,868	15,19
540,068	37,72
540,269	50
540,469	-13,48
540,67	-5,29
540,87	29,52
541,071	-42,15
541,271	25,43
541,472	-5,29
541,672	19,29
541,873	-11,43
542,073	35,67
542,274	-15,53
542,474	95,06
542,675	80,72
542,875	-25,77
543,075	2,9
543,276	-38,06
543,476	-9,39
543,676	45,91
543,877	-11,43
544,077	-46,25
544,277	74,58
544,478	-101,55
544,678	13,14
544,878	-3,24
545,078	72,53
545,279	-81,07
545,479	-36,01
545,679	-11,43
545,879	-62,63
546,079	-23,72
546,28	-29,87
546,48	54,1
546,68	29,52
546,88	-19,63
547,08	58,2
547,28	27,48
547,48	-3,24
547,68	37,72
547,88	-58,54
548,081	-3,24
548,281	-42,15
548,481	19,29
548,681	29,52
548,881	86,87
549,081	-7,34
549,28	23,38
549,48	-44,2
549,68	-11,43
549,88	7
550,08	9,05
550,28	-9,39
550,48	33,62
550,68	2,9
550,88	86,87
551,08	-1,19
551,279	7
551,479	-66,73
551,679	54,1
551,879	-25,77
552,079	-9,39
552,278	15,19
552,478	60,24
552,678	33,62
552,878	39,76
553,077	-33,96
553,277	-1,19
553,477	-68,78
553,676	11,09
553,876	62,29
554,076	-3,24
554,275	-19,63
554,475	0,85
554,674	-5,29
554,874	37,72
555,074	-40,11
555,273	23,38
555,473	25,43
555,672	54,1
555,872	-27,82
556,071	64,34
556,271	21,33
556,47	29,52
556,67	-11,43
556,869	93,01
557,068	-29,87
557,268	27,48
557,467	-52,39
557,667	-13,48
557,866	15,19
558,065	-19,63
558,265	21,33
558,464	-25,77
558,663	7
558,863	2,9
559,062	-3,24
559,261	-17,58
559,461	-27,82
559,66	27,48
559,859	-36,01
560,058	0,85
560,258	-105,64
560,457	97,11
560,656	52,05
560,855	-33,96
561,054	-1,19
561,253	31,57
561,453	-31,91
561,652	-9,39
561,851	-42,15
562,05	-21,67
562,249	50
562,448	33,62
562,647	-36,01
562,846	21,33
563,045	47,96
563,244	-105,64
563,443	-48,3
563,642	0,85
563,841	-42,15
564,04	-48,3
564,239	-31,91
564,438	23,38
564,637	41,81
564,836	-3,24
565,035	-48,3
565,234	-27,82
565,432	-93,35
565,631	33,62
565,83	0,85
566,029	17,24
566,228	-3,24
566,427	70,48
566,625	-70,83
566,824	37,72
567,023	9,05
567,222	21,33
567,42	-23,72
567,619	15,19
567,818	-15,53
568,016	31,57
568,215	17,24
568,414	54,1
568,612	-23,72
568,811	-1,19
569,01	13,14
569,208	47,96
569,407	23,38
569,605	70,48
569,804	78,68
570,002	21,33
570,201	0,85
570,4	13,14
570,598	9,05
570,797	52,05
570,995	-11,43
571,193	-36,01
571,392	54,1
571,59	-19,63
571,789	88,92
571,987	95,06
572,186	56,15
572,384	-50,35
572,582	-3,24
572,781	4,95
572,979	-44,2
573,177	37,72
573,376	-11,43
573,574	80,72
573,772	-44,2
573,971	37,72
574,169	9,05
574,367	0,85
574,565	-11,43
574,763	-48,3
574,962	64,34
575,16	-3,24
575,358	-3,24
575,556	29,52
575,754	-46,25
575,952	-3,24
576,151	52,05
576,349	-7,34
576,547	45,91
576,745	74,58
576,943	0,85
577,141	-27,82
577,339	-56,49
577,537	9,05
577,735	-58,54
577,933	27,48
578,131	-36,01
578,329	50
578,527	-68,78
578,725	-17,58
578,923	37,72
579,121	-9,39
579,319	-66,73
579,516	62,29
579,714	82,77
579,912	29,52
580,11	-81,07
580,308	-31,91
580,506	56,15
580,704	25,43
580,901	-36,01
581,099	35,67
581,297	-23,72
581,495	-9,39
581,692	37,72
581,89	31,57
582,088	0,85
582,285	-9,39
582,483	33,62
582,681	-5,29
582,878	-11,43
583,076	-25,77
583,274	13,14
583,471	86,87
583,669	-3,24
583,866	-52,39
584,064	2,9
584,262	-3,24
584,459	-17,58
584,657	86,87
584,854	-5,29
585,052	39,76
585,249	4,95
585,447	17,24
585,644	33,62
585,841	17,24
586,039	-7,34
586,236	25,43
586,434	4,95
586,631	15,19
586,828	13,14
587,026	-101,55
587,223	-62,63
587,42	-3,24
587,618	13,14
587,815	58,2
588,012	-23,72
588,21	-25,77
588,407	9,05
588,604	95,06
588,801	-15,53
588,999	23,38
589,196	7
589,393	23,38
589,59	-7,34
589,787	27,48
589,984	41,81
590,182	37,72
590,379	23,38
590,576	-19,63
590,773	15,19
590,97	-9,39
591,167	-70,83
591,364	58,2
591,561	45,91
591,758	97,11
591,955	7
592,152	-1,19
592,349	33,62
592,546	-11,43
592,743	-9,39
592,94	64,34
593,137	86,87
593,334	41,81
593,531	-7,34
593,727	2,9
593,924	21,33
594,121	-29,87
594,318	29,52
594,515	80,72
594,712	62,29
594,908	39,76
595,105	21,33
595,302	54,1
595,499	7
595,696	45,91
595,892	2,9
596,089	-40,11
596,286	37,72
596,482	31,57
596,679	-15,53
596,876	9,05
597,072	78,68
597,269	-17,58
597,466	-46,25
597,662	-25,77
597,859	-40,11
598,055	-1,19
598,252	13,14
598,448	-7,34
598,645	-13,48
598,841	0,85
599,038	-11,43
599,234	58,2
599,431	-42,15
599,627	11,09
599,824	66,39
600,02	4,95
600,217	-40,11
600,413	21,33
600,609	-19,63
600,806	64,34
601,002	0,85
601,198	-31,91
601,395	29,52
601,591	-27,82
601,787	-19,63
601,984	-9,39
602,18	-7,34
602,376	31,57
602,572	74,58
602,769	76,63
602,965	-19,63
603,161	11,09
603,357	31,57
603,553	-48,3
603,75	-9,39
603,946	45,91
604,142	9,05
604,338	4,95
604,534	-13,48
604,73	54,1
604,926	33,62
605,122	99,16
605,318	68,44
605,514	56,15
605,71	-36,01
605,906	11,09
606,102	21,33
606,298	7
606,494	0,85
606,69	86,87
606,886	-83,11
607,082	-36,01
607,278	27,48
607,474	33,62
607,67	25,43
607,866	-15,53
608,062	45,91
608,257	31,57
608,453	-33,96
608,649	13,14
608,845	-15,53
609,041	-85,16
609,236	0,85
609,432	17,24
609,628	64,34
609,824	-23,72
610,019	-52,39
610,215	-17,58
610,411	-64,68
610,606	-15,53
610,802	29,52
610,998	-27,82
611,193	9,05
611,389	-33,96
611,584	-17,58
611,78	-11,43
611,976	11,09
612,171	-3,24
612,367	-31,91
612,562	9,05
612,758	41,81
612,953	11,09
613,149	13,14
613,344	-3,24
613,539	-29,87
613,735	62,29
613,93	-11,43
614,126	2,9
614,321	45,91
614,517	78,68
614,712	11,09
614,907	84,82
615,103	-19,63
615,298	-9,39
615,493	-46,25
615,688	23,38
615,884	21,33
616,079	37,72
616,274	-25,77
616,47	-42,15
616,665	-29,87
616,86	9,05
617,055	7
617,25	21,33
617,445	-5,29
617,641	-60,59
617,836	29,52
618,031	-19,63
618,226	-48,3
618,421	13,14
618,616	45,91
618,811	21,33
619,006	-11,43
619,201	54,1
619,396	37,72
619,591	37,72
619,786	39,76
619,981	62,29
620,176	19,29
620,371	23,38
620,566	58,2
620,761	-29,87
620,956	35,67
621,151	37,72
621,346	60,24
621,541	-3,24
621,735	23,38
621,93	-42,15
622,125	0,85
622,32	74,58
622,515	-11,43
622,709	29,52
622,904	-17,58
623,099	-40,11
623,294	9,05
623,488	33,62
623,683	41,81
623,878	35,67
624,072	-33,96
624,267	-50,35
624,462	-1,19
624,656	-46,25
624,851	15,19
625,046	29,52
625,24	-54,44
625,435	-1,19
625,629	41,81
625,824	39,76
626,018	33,62
626,213	-27,82
626,407	-11,43
626,602	37,72
626,796	-3,24
626,991	45,91
627,185	-27,82
627,38	-7,34
627,574	37,72
627,768	45,91
627,963	25,43
628,157	70,48
628,352	-36,01
628,546	-66,73
628,74	-1,19
628,935	-11,43
629,129	52,05
629,323	-21,67
629,517	-52,39
629,712	-17,58
629,906	-5,29
630,1	15,19
630,294	52,05
630,489	-15,53
630,683	-17,58
630,877	78,68
631,071	74,58
631,265	-25,77
631,459	-27,82
631,653	7
631,848	-68,78
632,042	23,38
632,236	13,14
632,43	121,68
632,624	-89,26
632,818	0,85
633,012	-17,58
633,206	64,34
633,4	-15,53
633,594	50
633,788	-13,48
633,982	-1,19
634,176	54,1
634,369	7
634,563	-21,67
634,757	-19,63
634,951	-19,63
635,145	23,38
635,339	0,85
635,533	21,33
635,726	-3,24
635,92	0,85
636,114	-13,48
636,308	-3,24
636,501	-60,59
636,695	37,72
636,889	-76,97
637,083	4,95
637,276	15,19
637,47	-1,19
637,664	-44,2
637,857	-56,49
638,051	-3,24
638,244	7
638,438	-68,78
638,632	54,1
638,825	50
639,019	-11,43
639,212	4,95
639,406	47,96
639,599	41,81
639,793	9,05
639,986	37,72
640,18	-15,53
640,373	-36,01
640,567	-19,63
640,76	-103,59
640,954	74,58
641,147	2,9
641,34	-31,91
641,534	-23,72
641,727	93,01
641,92	29,52
642,114	70,48
642,307	-19,63
642,5	50
642,694	-13,48
642,887	7
643,08	0,85
643,273	25,43
643,467	-29,87
643,66	-9,39
643,853	-23,72
644,046	-11,43
644,239	43,86
644,432	-17,58
644,626	0,85
644,819	23,38
645,012	23,38
645,205	-9,39
645,398	-31,91
645,591	33,62
645,784	-52,39
645,977	29,52
646,17	-62,63
646,363	29,52
646,556	-25,77
646,749	13,14
646,942	-36,01
647,135	62,29
647,328	25,43
647,521	43,86
647,714	-21,67
647,907	31,57
648,099	23,38
648,292	9,05
648,485	11,09
648,678	0,85
648,871	23,38
649,064	33,62
649,256	-23,72
649,449	-23,72
649,642	-40,11
649,835	25,43
650,027	-74,92
650,22	23,38
650,413	-7,34
650,605	76,63
650,798	-17,58
650,991	27,48
651,183	-42,15
651,376	23,38
651,568	-60,59
651,761	82,77
651,954	-91,31
652,146	37,72
652,339	-19,63
652,531	21,33
652,724	11,09
652,916	23,38
653,109	-11,43
653,301	21,33
653,494	7
653,686	17,24
653,879	50
654,071	15,19
654,263	-19,63
654,456	23,38
654,648	103,25
654,84	0,85
655,033	-97,45
655,225	15,19
655,417	-48,3
655,61	-7,34
655,802	41,81
655,994	9,05
656,186	-5,29
656,379	97,11
656,571	13,14
656,763	-3,24
656,955	-40,11
657,148	-23,72
657,34	-23,72
657,532	-89,26
657,724	-13,48
657,916	107,35
658,108	-25,77
658,3	74,58
658,492	-9,39
658,684	4,95
658,876	-44,2
659,068	54,1
659,26	-52,39
659,452	-19,63
659,644	-36,01
659,836	50
660,028	-19,63
660,22	-11,43
660,412	-52,39
660,604	-33,96
660,796	33,62
660,988	47,96
661,18	13,14
661,372	-7,34
661,563	21,33
661,755	-1,19
661,947	-58,54
662,139	-15,53
662,331	4,95
662,522	103,25
662,714	9,05
662,906	-19,63
663,097	29,52
663,289	11,09
663,481	-33,96
663,673	4,95
663,864	7
664,056	78,68
664,247	-9,39
664,439	15,19
664,631	23,38
664,822	29,52
665,014	-38,06
665,205	-19,63
665,397	7
665,588	4,95
665,78	-1,19
665,971	64,34
666,163	33,62
666,354	17,24
666,546	4,95
666,737	72,53
666,929	-3,24
667,12	47,96
667,311	-3,24
667,503	7
667,694	39,76
667,885	9,05
668,077	-17,58
668,268	-25,77
668,459	-3,24
668,651	84,82
668,842	-19,63
669,033	13,14
669,224	-5,29
669,416	37,72
669,607	-3,24
669,798	-11,43
669,989	78,68
670,18	27,48
670,371	45,91
670,563	17,24
670,754	15,19
670,945	7
671,136	62,29
671,327	-25,77
671,518	11,09
671,709	99,16
671,9	0,85
672,091	45,91
672,282	41,81
672,473	-3,24
672,664	13,14
672,855	56,15
673,046	47,96
673,237	35,67
673,428	68,44
673,619	-52,39
673,809	21,33
674	64,34
674,191	-1,19
674,382	-68,78
674,573	-52,39
674,764	-64,68
674,954	74,58
675,145	9,05
675,336	-25,77
675,527	29,52
675,717	-31,91
675,908	45,91
676,099	-11,43
676,289	31,57
676,48	29,52
676,671	-9,39
676,861	17,24
677,052	105,3
677,243	-11,43
677,433	66,39
677,624	-17,58
677,814	-54,44
678,005	-11,43
678,195	-27,82
678,386	-7,34
678,576	-27,82
678,767	-56,49
678,957	17,24
679,148	-7,34
679,338	-54,44
679,529	7
679,719	-29,87
679,909	25,43
680,1	97,11
680,29	7
680,481	-3,24
680,671	-5,29
680,861	13,14
681,052	54,1
681,242	-1,19
681,432	62,29
681,622	129,88
681,813	-40,11
682,003	13,14
682,193	13,14
682,383	7
682,573	-44,2
682,764	-72,87
682,954	4,95
683,144	74,58
683,334	-72,87
683,524	19,29
683,714	-50,35
683,904	-13,48
684,094	-50,35
684,284	37,72
684,474	23,38
684,664	90,96
684,854	0,85
685,044	11,09
685,234	-19,63
685,424	-3,24
685,614	11,09
685,804	41,81
685,994	13,14
686,184	-25,77
686,374	-1,19
686,564	-15,53
686,753	-29,87
686,943	-27,82
687,133	-19,63
687,323	-7,34
687,513	23,38
687,702	19,29
687,892	15,19
688,082	-3,24
688,272	-9,39
688,461	-21,67
688,651	-9,39
688,841	13,14
689,03	25,43
689,22	-15,53
689,41	50
689,599	17,24
689,789	-52,39
689,979	25,43
690,168	-38,06
690,358	13,14
690,547	66,39
690,737	29,52
690,926	-27,82
691,116	-40,11
691,305	4,95
691,495	66,39
691,684	-15,53
691,874	39,76
692,063	-29,87
692,252	-50,35
692,442	-27,82
692,631	-7,34
692,82	-25,77
693,01	-11,43
693,199	-54,44
693,388	35,67
693,578	15,19
693,767	35,67
693,956	45,91
694,146	-3,24
694,335	-23,72
694,524	-42,15
694,713	72,53
694,902	-11,43
695,092	-19,63
695,281	15,19
695,47	21,33
695,659	-60,59
695,848	-7,34
696,037	-3,24
696,226	-23,72
696,415	4,95
696,604	-11,43
696,793	37,72
696,982	27,48
697,171	103,25
697,36	-44,2
697,549	27,48
697,738	2,9
697,927	13,14
698,116	-33,96
698,305	66,39
698,494	-31,91
698,683	-33,96
698,872	15,19
699,061	-3,24
699,25	43,86
699,438	74,58
699,627	23,38
699,816	54,1
700,005	-36,01
700,193	29,52
700,382	37,72
700,571	41,81
700,76	52,05
700,948	17,24
701,137	17,24
701,326	43,86
701,514	-27,82
701,703	25,43
701,892	33,62
702,08	23,38
702,269	37,72
702,457	-7,34
702,646	-29,87
702,834	56,15
703,023	-29,87
703,212	13,14
703,4	-60,59
703,589	37,72
703,777	21,33
703,965	-48,3
704,154	-52,39
704,342	-52,39
704,531	27,48
704,719	0,85
704,907	-52,39
705,096	4,95
705,284	-7,34
705,472	19,29
705,661	2,9
705,849	-42,15
706,037	-60,59
706,226	37,72
706,414	-27,82
706,602	27,48
706,79	17,24
706,979	-15,53
707,167	31,57
707,355	-50,35
707,543	52,05
707,731	-3,24
707,919	-64,68
708,107	-50,35
708,296	39,76
708,484	-60,59
708,672	7
708,86	9,05
709,048	-9,39
709,236	-23,72
709,424	-68,78
709,612	45,91
709,8	15,19
709,988	56,15
710,176	62,29
710,364	-25,77
710,551	52,05
710,739	4,95
710,927	-46,25
711,115	60,24
711,303	25,43
711,491	64,34
711,679	-25,77
711,866	4,95
712,054	97,11
712,242	-70,83
712,43	-15,53
712,617	-27,82
712,805	29,52
712,993	-15,53
713,181	-42,15
713,368	-11,43
713,556	-46,25
713,744	7
713,931	50
714,119	17,24
714,306	-109,74
714,494	-11,43
714,682	54,1
714,869	-25,77
715,057	-19,63
715,244	39,76
715,432	-31,91
715,619	-9,39
715,807	-36,01
715,994	-33,96
716,182	54,1
716,369	9,05
716,556	9,05
716,744	-9,39
716,931	-97,45
717,119	-1,19
717,306	-46,25
717,493	-48,3
717,681	-15,53
717,868	-3,24
718,055	7
718,242	-5,29
718,43	9,05
718,617	-3,24
718,804	9,05
718,991	50
719,179	37,72
719,366	56,15
719,553	-23,72
719,74	-9,39
719,927	56,15
720,114	41,81
720,301	-1,19
720,488	-21,67
720,676	-1,19
720,863	29,52
721,05	33,62
721,237	-15,53
721,424	52,05
721,611	31,57
721,798	-44,2
721,985	-15,53
722,172	25,43
722,358	-97,45
722,545	66,39
722,732	11,09
722,919	2,9
723,106	50
723,293	4,95
723,48	-9,39
723,667	-11,43
723,853	4,95
724,04	4,95
724,227	-31,91
724,414	27,48
724,6	29,52
724,787	56,15
724,974	-21,67
725,161	37,72
725,347	15,19
725,534	-11,43
725,72	84,82
725,907	-15,53
726,094	23,38
726,28	-42,15
726,467	50
726,653	-60,59
726,84	54,1
727,027	21,33
727,213	-44,2
727,4	-9,39
727,586	-36,01
727,773	-70,83
727,959	-27,82
728,145	-9,39
728,332	52,05
728,518	-76,97
728,705	-11,43
728,891	21,33
729,077	-5,29
729,264	-11,43
729,45	39,76
729,636	29,52
729,823	13,14
730,009	37,72
730,195	-19,63
730,382	4,95
730,568	-31,91
730,754	-13,48
730,94	-17,58
731,126	-7,34
731,313	56,15
731,499	-62,63
731,685	54,1
731,871	-36,01
732,057	27,48
732,243	-11,43
732,429	-13,48
732,615	-109,74
732,801	66,39
732,987	-9,39
733,173	7
733,359	-13,48
733,545	-13,48
733,731	13,14
733,917	60,24
734,103	-36,01
734,289	25,43
734,475	-48,3
734,661	9,05
734,847	15,19
735,033	62,29
735,219	-9,39
735,404	-31,91
735,59	-64,68
735,776	-25,77
735,962	45,91
736,148	-7,34
736,333	-23,72
736,519	23,38
736,705	-11,43
736,89	0,85
737,076	-50,35
737,262	-23,72
737,447	-31,91
737,633	-27,82
737,819	23,38
738,004	60,24
738,19	-50,35
738,375	-33,96
738,561	25,43
738,747	17,24
738,932	-1,19
739,118	9,05
739,303	66,39
739,489	7
739,674	60,24
739,859	-38,06
740,045	7
740,23	7
740,416	13,14
740,601	2,9
740,786	2,9
740,972	-38,06
741,157	-7,34
741,342	-3,24
741,528	-76,97
741,713	58,2
741,898	27,48
742,084	39,76
742,269	84,82
742,454	21,33
742,639	25,43
742,824	64,34
743,01	17,24
743,195	66,39
743,38	2,9
743,565	56,15
743,75	-17,58
743,935	39,76
744,12	72,53
744,305	74,58
744,49	19,29
744,675	21,33
744,86	9,05
745,045	21,33
745,23	-3,24
745,415	-27,82
745,6	-27,82
745,785	-36,01
745,97	56,15
746,155	66,39
746,34	-9,39
746,525	50
746,71	82,77
746,895	-31,91
747,079	31,57
747,264	0,85
747,449	15,19
747,634	15,19
747,819	60,24
748,003	-7,34
748,188	-7,34
748,373	-9,39
748,557	-5,29
748,742	-7,34
748,927	-25,77
749,111	-9,39
749,296	-11,43
749,481	4,95
749,665	-15,53
749,85	-33,96
750,034	15,19
750,219	25,43
750,404	47,96
750,588	-48,3
750,773	-50,35
750,957	37,72
751,141	13,14
751,326	54,1
751,51	-42,15
751,695	-15,53
751,879	54,1
752,064	86,87
752,248	-17,58
752,432	43,86
752,617	-1,19
752,801	13,14
752,985	21,33
753,17	74,58
753,354	-7,34
753,538	-19,63
753,722	37,72
753,907	-40,11
754,091	-58,54
754,275	27,48
754,459	-21,67
754,643	-29,87
754,828	15,19
755,012	21,33
755,196	13,14
755,38	-42,15
755,564	-19,63
755,748	-38,06
755,932	-52,39
756,116	54,1
756,3	15,19
756,484	-23,72
756,668	-5,29
756,852	-93,35
757,036	7
757,22	-68,78
757,404	-21,67
757,588	7
757,772	-17,58
757,956	2,9
758,14	43,86
758,323	-44,2
758,507	7
758,691	4,95
758,875	15,19
759,059	-17,58
759,242	-11,43
759,426	39,76
759,61	-15,53
759,794	-1,19
759,977	23,38
760,161	29,52
760,345	-21,67
760,528	17,24
760,712	93,01
760,895	31,57
761,079	25,43
761,263	-17,58
761,446	-23,72
761,63	-25,77
761,813	2,9
761,997	-97,45
762,18	21,33
762,364	70,48
762,547	-33,96
762,731	-23,72
762,914	0,85
763,098	78,68
763,281	-79,02
763,464	39,76
763,648	7
763,831	-31,91
764,015	-42,15
764,198	-36,01
764,381	21,33
764,564	-11,43
764,748	4,95
764,931	33,62
765,114	33,62
765,297	-3,24
765,481	-48,3
765,664	-9,39
765,847	-23,72
766,03	4,95
766,213	23,38
766,397	39,76
766,58	-46,25
766,763	-40,11
766,946	-11,43
767,129	-19,63
767,312	-7,34
767,495	-5,29
767,678	-3,24
767,861	62,29
768,044	-3,24
768,227	54,1
768,41	-31,91
768,593	31,57
768,776	86,87
768,959	0,85
769,142	17,24
769,324	21,33
769,507	80,72
769,69	-40,11
769,873	-9,39
770,056	50
770,239	19,29
770,421	29,52
770,604	4,95
770,787	-3,24
770,97	15,19
771,152	43,86
771,335	70,48
771,518	-44,2
771,7	-36,01
771,883	29,52
772,066	15,19
772,248	7
772,431	52,05
772,613	47,96
772,796	-50,35
772,978	93,01
773,161	-52,39
773,343	-17,58
773,526	-33,96
773,708	-48,3
773,891	-52,39
774,073	21,33
774,256	-23,72
774,438	39,76
774,621	-3,24
774,803	33,62
774,985	-91,31
775,168	4,95
775,35	-33,96
775,532	2,9
775,715	-27,82
775,897	23,38
776,079	-11,43
776,261	7
776,444	56,15
776,626	25,43
776,808	-15,53
776,99	-72,87
777,173	13,14
777,355	-27,82
777,537	4,95
777,719	-83,11
777,901	-56,49
778,083	-9,39
778,265	-44,2
778,447	-42,15
778,629	-27,82
778,811	62,29
778,993	-27,82
779,175	15,19
779,357	52,05
779,539	-17,58
779,721	-11,43
779,903	4,95
780,085	7
780,267	45,91
780,449	-46,25
780,631	13,14
780,812	-33,96
780,994	31,57
781,176	4,95
781,358	-7,34
781,54	-27,82
781,721	-15,53
781,903	-27,82
782,085	-31,91
782,267	-9,39
782,448	4,95
782,63	54,1
782,812	17,24
782,993	54,1
783,175	47,96
783,357	-13,48
783,538	-36,01
783,72	17,24
783,901	-3,24
784,083	-9,39
784,264	-81,07
784,446	-58,54
784,627	-23,72
784,809	-66,73
784,99	-27,82
785,172	-3,24
785,353	19,29
785,535	-1,19
785,716	9,05
785,897	-62,63
786,079	56,15
786,26	-17,58
786,441	-1,19
786,623	-27,82
786,804	4,95
786,985	-15,53
787,167	-17,58
787,348	-19,63
787,529	-44,2
787,71	27,48
787,891	21,33
788,073	-31,91
788,254	-62,63
788,435	-58,54
788,616	-23,72
788,797	-52,39
788,978	-42,15
789,159	-48,3
789,34	-3,24
789,522	-13,48
789,703	-11,43
789,884	-15,53
790,065	-48,3
790,246	-7,34
790,427	-21,67
790,607	21,33
790,788	27,48
790,969	13,14
791,15	-66,73
791,331	23,38
791,512	-70,83
791,693	-46,25
791,874	-40,11
792,054	-9,39
792,235	39,76
792,416	-1,19
792,597	31,57
792,778	4,95
792,958	0,85
793,139	82,77
793,32	4,95
793,5	-31,91
793,681	-36,01
793,862	-74,92
794,042	25,43
794,223	-1,19
794,404	-11,43
794,584	9,05
794,765	-1,19
794,945	-15,53
795,126	2,9
795,306	0,85
795,487	7
795,667	-38,06
795,848	4,95
796,028	-44,2
796,209	31,57
796,389	39,76
796,57	15,19
796,75	52,05
796,93	-50,35
797,111	7
797,291	21,33
797,471	-1,19
797,652	15,19
797,832	-19,63
798,012	99,16
798,192	-111,78
798,373	-74,92
798,553	-64,68
798,733	21,33
798,913	-44,2
799,093	2,9
799,274	-113,83
799,454	70,48
799,634	0,85
799,814	-17,58
799,994	-74,92
800,174	-5,29
800,354	4,95
800,534	-1,19
800,714	7
800,894	-7,34
801,074	-23,72
801,254	-17,58
801,434	-31,91
801,614	-40,11
801,794	-40,11
801,974	428,88
802,154	-29,87
802,334	70,48
802,514	-60,59
802,693	-3,24
802,873	-54,44
803,053	-11,43
803,233	-13,48
803,413	-44,2
803,592	-25,77
803,772	-19,63
803,952	-25,77
804,131	-79,02
804,311	37,72
804,491	-1,19
804,67	-11,43
804,85	-17,58
805,03	-66,73
805,209	-7,34
805,389	-62,63
805,568	-27,82
805,748	-79,02
805,928	-25,77
806,107	9,05
806,287	7
806,466	0,85
806,646	-36,01
806,825	-36,01
807,004	-1,19
807,184	-11,43
807,363	15,19
807,543	-21,67
807,722	0,85
807,901	76,63
808,081	-9,39
808,26	-83,11
808,439	37,72
808,619	-50,35
808,798	-11,43
808,977	-60,59
809,156	66,39
809,336	-1,19
809,515	-15,53
809,694	-85,16
809,873	-48,3
810,052	78,68
810,231	-19,63
810,411	21,33
810,59	15,19
810,769	25,43
810,948	-19,63
811,127	-44,2
811,306	-23,72
811,485	-33,96
811,664	39,76
811,843	-81,07
812,022	-36,01
812,201	-33,96
812,38	0,85
812,559	-15,53
812,737	9,05
812,916	27,48
813,095	13,14
813,274	-46,25
813,453	-64,68
813,632	-23,72
813,811	-11,43
813,989	-48,3
814,168	-9,39
814,347	-17,58
814,526	39,76
814,704	13,14
814,883	17,24
815,062	-11,43
815,24	-64,68
815,419	-44,2
815,598	29,52
815,776	7
815,955	-27,82
816,133	-85,16
816,312	7
816,49	-48,3
816,669	-44,2
816,847	-27,82
817,026	-3,24
817,204	-70,83
817,383	15,19
817,561	0,85
817,74	56,15
817,918	45,91
818,097	-44,2
818,275	-3,24
818,453	-19,63
818,632	37,72
818,81	25,43
818,988	-50,35
819,167	-33,96
819,345	-21,67
819,523	-29,87
819,701	-5,29
819,879	11,09
820,058	72,53
820,236	-33,96
820,414	54,1
820,592	-27,82
820,77	-50,35
820,948	37,72
821,127	-23,72
821,305	60,24
821,483	-76,97
821,661	111,44
821,839	-36,01
822,017	-27,82
822,195	37,72
822,373	31,57
822,551	-13,48
822,729	-42,15
822,907	-31,91
823,085	70,48
823,262	-27,82
823,44	4,95
823,618	-25,77
823,796	-31,91
823,974	-68,78
824,152	-21,67
824,329	50
824,507	-5,29
824,685	-25,77
824,863	58,2
825,04	-99,5
825,218	41,81
825,396	-11,43
825,574	21,33
825,751	7
825,929	47,96
826,107	-54,44
826,284	-1,19
826,462	0,85
826,639	4,95
826,817	2,9
826,994	-66,73
827,172	-11,43
827,349	31,57
827,527	-31,91
827,704	-25,77
827,882	-9,39
828,059	52,05
828,237	-29,87
828,414	-36,01
828,591	7
828,769	-1,19
828,946	-11,43
829,124	-25,77
829,301	13,14
829,478	-5,29
829,655	13,14
829,833	-17,58
830,01	-17,58
830,187	66,39
830,364	41,81
830,542	17,24
830,719	-1,19
830,896	-23,72
831,073	31,57
831,25	-17,58
831,427	-46,25
831,604	-3,24
831,782	31,57
831,959	99,16
832,136	-85,16
832,313	23,38
832,49	-31,91
832,667	-44,2
832,844	-79,02
833,021	35,67
833,198	13,14
833,374	54,1
833,551	-52,39
833,728	-58,54
833,905	-40,11
834,082	-9,39
834,259	33,62
834,436	19,29
834,612	19,29
834,789	31,57
834,966	-48,3
835,143	-83,11
835,319	-40,11
835,496	-70,83
835,673	-31,91
835,85	19,29
836,026	-3,24
836,203	-31,91
836,38	25,43
836,556	-19,63
836,733	-101,55
836,909	31,57
837,086	-27,82
837,262	-11,43
837,439	-76,97
837,616	4,95
837,792	13,14
837,968	-3,24
838,145	-9,39
838,321	-15,53
838,498	-99,5
838,674	58,2
838,851	-48,3
839,027	39,76
839,203	-52,39
839,38	-19,63
839,556	0,85
839,732	37,72
839,909	-19,63
840,085	-17,58
840,261	11,09
840,437	76,63
840,614	-27,82
840,79	4,95
840,966	-1,19
841,142	7
841,318	-46,25
841,494	-91,31
841,671	90,96
841,847	-27,82
842,023	-19,63
842,199	9,05
842,375	21,33
842,551	-21,67
842,727	-9,39
842,903	95,06
843,079	41,81
843,255	105,3
843,431	0,85
843,607	29,52
843,783	-66,73
843,959	-40,11
844,134	-19,63
844,31	47,96
844,486	-19,63
844,662	23,38
844,838	7
845,013	-46,25
845,189	13,14
845,365	-38,06
845,541	37,72
845,716	-9,39
845,892	76,63
846,068	47,96
846,244	-19,63
846,419	11,09
846,595	-46,25
846,77	-48,3
846,946	66,39
847,122	33,62
847,297	-19,63
847,473	13,14
847,648	-119,98
847,824	54,1
847,999	-48,3
848,175	-11,43
848,35	-44,2
848,526	-56,49
848,701	-42,15
848,876	-46,25
849,052	-7,34
849,227	-27,82
849,403	15,19
849,578	7
849,753	-9,39
849,929	-15,53
850,104	-25,77
850,279	27,48
850,454	0,85
850,63	39,76
850,805	17,24
850,98	21,33
851,155	-11,43
851,33	-1,19
851,505	0,85
851,681	64,34
851,856	7
852,031	33,62
852,206	-3,24
852,381	-31,91
852,556	-81,07
852,731	45,91
852,906	13,14
853,081	-11,43
853,256	66,39
853,431	-7,34
853,606	-13,48
853,781	2,9
853,956	-42,15
854,131	-29,87
854,305	-1,19
854,48	-44,2
854,655	2,9
854,83	-31,91
855,005	0,85
855,18	-3,24
855,354	-52,39
855,529	-5,29
855,704	-40,11
855,879	86,87
856,053	21,33
856,228	-7,34
856,403	4,95
856,577	-21,67
856,752	-42,15
856,926	-17,58
857,101	-68,78
857,276	17,24
857,45	-9,39
857,625	29,52
857,799	-62,63
857,974	29,52
858,148	-33,96
858,323	35,67
858,497	-7,34
858,672	-52,39
858,846	-23,72
859,02	21,33
859,195	-52,39
859,369	-48,3
859,543	45,91
859,718	27,48
859,892	7
860,066	-62,63
860,241	-40,11
860,415	-33,96
860,589	-56,49
860,763	15,19
860,938	-72,87
861,112	31,57
861,286	-27,82
861,46	17,24
861,634	-13,48
861,808	60,24
861,982	-33,96
862,157	-3,24
862,331	29,52
862,505	-25,77
862,679	-23,72
862,853	23,38
863,027	-40,11
863,201	-9,39
863,375	-44,2
863,549	7
863,722	31,57
863,896	-19,63
864,07	-46,25
864,244	4,95
864,418	-56,49
864,592	-27,82
864,766	-64,68
864,939	-15,53
865,113	-31,91
865,287	21,33
865,461	-76,97
865,634	27,48
865,808	-33,96
865,982	-3,24
866,156	27,48
866,329	-93,35
866,503	-44,2
866,676	72,53
866,85	21,33
867,024	-74,92
867,197	-60,59
867,371	-15,53
867,544	23,38
867,718	17,24
867,891	7
868,065	15,19
868,238	29,52
868,412	15,19
868,585	-70,83
868,759	-3,24
868,932	4,95
869,105	-70,83
869,279	-25,77
869,452	-25,77
869,625	35,67
869,799	-27,82
869,972	-44,2
870,145	4,95
870,319	29,52
870,492	-23,72
870,665	-83,11
870,838	-9,39
871,011	0,85
871,185	17,24
871,358	17,24
871,531	70,48
871,704	19,29
871,877	-19,63
872,05	9,05
872,223	0,85
872,396	-17,58
872,569	43,86
872,742	-42,15
872,915	-15,53
873,088	21,33
873,261	-36,01
873,434	-54,44
873,607	0,85
873,78	-36,01
873,953	-40,11
874,126	-60,59
874,299	4,95
874,471	0,85
874,644	-25,77
874,817	-25,77
874,99	68,44
875,163	-5,29
875,335	-5,29
875,508	-25,77
875,681	21,33
875,853	-29,87
876,026	9,05
876,199	-58,54
876,371	-52,39
876,544	-9,39
876,717	-56,49
876,889	-11,43
877,062	62,29
877,234	-7,34
877,407	45,91
877,579	-66,73
877,752	27,48
877,924	-38,06
878,097	21,33
878,269	-9,39
878,442	37,72
878,614	-19,63
878,786	-11,43
878,959	4,95
879,131	-17,58
879,303	-27,82
879,476	7
879,648	4,95
879,82	-33,96
879,993	-9,39
880,165	-17,58
880,337	-36,01
880,509	-29,87
880,681	-25,77
880,854	-68,78
881,026	47,96
881,198	54,1
881,37	31,57
881,542	17,24
881,714	-60,59
881,886	-1,19
882,058	-79,02
882,23	-36,01
882,402	-56,49
882,574	-33,96
882,746	-17,58
882,918	50
883,09	21,33
883,262	37,72
883,434	13,14
883,606	-52,39
883,778	-70,83
883,95	31,57
884,122	-17,58
884,293	29,52
884,465	11,09
884,637	7
884,809	-48,3
884,98	15,19
885,152	-17,58
885,324	13,14
885,496	-79,02
885,667	4,95
885,839	-58,54
886,011	-3,24
886,182	-11,43
886,354	-31,91
886,525	-97,45
886,697	-1,19
886,869	-58,54
887,04	23,38
887,212	-33,96
887,383	88,92
887,555	-33,96
887,726	-11,43
887,897	-9,39
888,069	-3,24
888,24	-40,11
888,412	-3,24
888,583	17,24
888,754	39,76
888,926	-54,44
889,097	-23,72
889,268	-46,25
889,44	-79,02
889,611	37,72
889,782	-52,39
889,953	-64,68
890,125	17,24
890,296	-31,91
890,467	-23,72
890,638	-58,54
890,809	-58,54
890,98	13,14
891,151	62,29
891,323	-3,24
891,494	35,67
891,665	-1,19
891,836	66,39
892,007	-93,35
892,178	-9,39
892,349	-70,83
892,52	-52,39
892,691	-48,3
892,862	-15,53
893,032	-1,19
893,203	-17,58
893,374	7
893,545	21,33
893,716	64,34
893,887	52,05
894,057	-25,77
894,228	-31,91
894,399	-25,77
894,57	23,38
894,74	0,85
894,911	-19,63
895,082	-25,77
895,253	37,72
895,423	-11,43
895,594	11,09
895,764	-44,2
895,935	-5,29
896,106	-25,77
896,276	-44,2
896,447	13,14
896,617	-9,39
896,788	-76,97
896,958	-15,53
897,129	-119,98
897,299	-25,77
897,47	-11,43
897,64	-11,43
897,81	-3,24
897,981	-3,24
898,151	-3,24
898,322	-17,58
898,492	-21,67
898,662	-85,16
898,832	9,05
899,003	-31,91
899,173	-42,15
899,343	-15,53
899,513	0,85
