Data from filtre 450_USB4F104151__0__11-55-00-258.txt Node

Date: Wed Apr 15 11:55:00 EDT 2026
User: LaboPhy
Spectrometer: USB4F10415
Trigger mode: 4
Integration Time (sec): 2,100000E-2
Scans to average: 1
Electric dark correction enabled: true
Nonlinearity correction enabled: false
Boxcar width: 0
XAxis mode: Wavelengths
Number of Pixels in Spectrum: 3648
>>>>>Begin Spectral Data<<<<<
178,204	-19,29
178,424	-19,29
178,644	-19,29
178,864	-119,64
179,084	-70,48
179,304	-21,33
179,524	9,39
179,744	-4,95
179,964	66,73
180,184	36,01
180,404	-21,33
180,624	19,63
180,844	-72,53
181,064	-41,81
181,283	21,67
181,503	7,34
181,723	1,19
181,943	-31,57
182,163	93,35
182,383	-19,29
182,602	54,44
182,822	-41,81
183,042	-11,09
183,262	1,19
183,482	-17,24
183,701	48,3
183,921	66,73
184,141	17,58
184,361	144,55
184,58	19,63
184,8	40,11
185,02	5,29
185,239	27,82
185,459	-21,33
185,679	60,59
185,898	21,67
186,118	54,44
186,338	-4,95
186,557	52,39
186,777	11,43
186,997	38,06
187,216	87,21
187,436	68,78
187,655	17,58
187,875	-23,38
188,095	27,82
188,314	5,29
188,534	19,63
188,753	5,29
188,973	3,24
189,192	42,15
189,412	7,34
189,631	-19,29
189,851	48,3
190,07	74,92
190,29	29,87
190,509	15,53
190,729	17,58
190,948	36,01
191,168	103,59
191,387	-84,82
191,607	-66,39
191,826	66,73
192,045	15,53
192,265	7,34
192,484	17,58
192,704	72,87
192,923	11,43
193,142	109,74
193,362	76,97
193,581	87,21
193,8	-7
194,02	11,43
194,239	29,87
194,458	44,2
194,678	40,11
194,897	11,43
195,116	19,63
195,335	13,48
195,555	-25,43
195,774	68,78
195,993	40,11
196,212	-9,05
196,432	46,25
196,651	-27,48
196,87	-9,05
197,089	160,94
197,308	36,01
197,528	5,29
197,747	-72,53
197,966	40,11
198,185	31,91
198,404	11,43
198,623	89,26
198,842	36,01
199,062	50,35
199,281	36,01
199,5	-25,43
199,719	54,44
199,938	29,87
200,157	54,44
200,376	11,43
200,595	99,5
200,814	13,48
201,033	-74,58
201,252	9,39
201,471	1,19
201,69	81,07
201,909	-9,05
202,128	74,92
202,347	27,82
202,566	44,2
202,785	-9,05
203,004	19,63
203,223	109,74
203,442	13,48
203,661	-50
203,879	25,77
204,098	-2,9
204,317	7,34
204,536	-11,09
204,755	11,43
204,974	66,73
205,193	-15,19
205,411	101,55
205,63	25,77
205,849	-17,24
206,068	54,44
206,287	13,48
206,505	44,2
206,724	68,78
206,943	-21,33
207,162	36,01
207,381	56,49
207,599	5,29
207,818	-17,24
208,037	70,83
208,255	40,11
208,474	91,31
208,693	-19,29
208,911	-19,29
209,13	19,63
209,349	56,49
209,567	38,06
209,786	13,48
210,005	23,72
210,223	7,34
210,442	33,96
210,661	95,4
210,879	48,3
211,098	50,35
211,316	72,87
211,535	-27,48
211,753	-35,67
211,972	52,39
212,191	13,48
212,409	-2,9
212,628	70,83
212,846	-41,81
213,065	62,63
213,283	52,39
213,502	11,43
213,72	50,35
213,938	1,19
214,157	33,96
214,375	-50
214,594	27,82
214,812	81,07
215,031	-45,91
215,249	21,67
215,467	21,67
215,686	62,63
215,904	40,11
216,122	19,63
216,341	74,92
216,559	56,49
216,778	52,39
216,996	36,01
217,214	17,58
217,432	40,11
217,651	83,11
217,869	-47,96
218,087	-27,48
218,306	101,55
218,524	13,48
218,742	46,25
218,96	-2,9
219,179	87,21
219,397	3,24
219,615	3,24
219,833	31,91
220,051	-35,67
220,27	36,01
220,488	13,48
220,706	44,2
220,924	-50
221,142	11,43
221,36	27,82
221,578	52,39
221,796	1,19
222,015	17,58
222,233	-29,52
222,451	117,93
222,669	42,15
222,887	13,48
223,105	36,01
223,323	62,63
223,541	29,87
223,759	105,64
223,977	-37,72
224,195	44,2
224,413	-17,24
224,631	-21,33
224,849	-68,44
225,067	76,97
225,285	11,43
225,503	-11,09
225,721	-29,52
225,939	-21,33
226,157	7,34
226,375	97,45
226,592	-27,48
226,81	31,91
227,028	9,39
227,246	68,78
227,464	17,58
227,682	97,45
227,9	21,67
228,117	60,59
228,335	103,59
228,553	64,68
228,771	-11,09
228,989	52,39
229,206	46,25
229,424	19,63
229,642	44,2
229,86	-25,43
230,077	5,29
230,295	36,01
230,513	54,44
230,731	36,01
230,948	70,83
231,166	46,25
231,384	-7
231,601	3,24
231,819	58,54
232,037	17,58
232,254	17,58
232,472	60,59
232,689	-11,09
232,907	52,39
233,125	-7
233,342	13,48
233,56	-27,48
233,777	93,35
233,995	-35,67
234,213	-0,85
234,43	-9,05
234,648	21,67
234,865	62,63
235,083	60,59
235,3	5,29
235,518	-4,95
235,735	101,55
235,953	46,25
236,17	21,67
236,388	40,11
236,605	21,67
236,822	44,2
237,04	27,82
237,257	15,53
237,475	-23,38
237,692	68,78
237,909	-62,29
238,127	-31,57
238,344	81,07
238,562	126,12
238,779	-43,86
238,996	40,11
239,214	44,2
239,431	11,43
239,648	-25,43
239,865	13,48
240,083	-52,05
240,3	-11,09
240,517	52,39
240,735	7,34
240,952	27,82
241,169	13,48
241,386	60,59
241,603	36,01
241,821	36,01
242,038	21,67
242,255	21,67
242,472	-27,48
242,689	25,77
242,907	46,25
243,124	25,77
243,341	-7
243,558	7,34
243,775	36,01
243,992	-52,05
244,209	68,78
244,426	52,39
244,643	27,82
244,86	-4,95
245,078	23,72
245,295	68,78
245,512	38,06
245,729	-2,9
245,946	58,54
246,163	36,01
246,38	33,96
246,597	-52,05
246,814	-13,14
247,031	15,53
247,248	36,01
247,464	-9,05
247,681	3,24
247,898	79,02
248,115	58,54
248,332	-9,05
248,549	11,43
248,766	70,83
248,983	62,63
249,2	27,82
249,417	54,44
249,633	-43,86
249,85	68,78
250,067	11,43
250,284	-33,62
250,501	36,01
250,717	21,67
250,934	-29,52
251,151	-11,09
251,368	-35,67
251,585	1,19
251,801	21,67
252,018	-13,14
252,235	3,24
252,451	19,63
252,668	-37,72
252,885	31,91
253,102	117,93
253,318	5,29
253,535	44,2
253,752	21,67
253,968	-35,67
254,185	-37,72
254,401	81,07
254,618	44,2
254,835	68,78
255,051	70,83
255,268	-13,14
255,484	11,43
255,701	-39,76
255,917	103,59
256,134	46,25
256,351	50,35
256,567	-2,9
256,784	13,48
257	-27,48
257,217	103,59
257,433	-60,24
257,65	50,35
257,866	13,48
258,082	-58,2
258,299	-2,9
258,515	-9,05
258,732	-35,67
258,948	68,78
259,165	-27,48
259,381	52,39
259,597	76,97
259,814	38,06
260,03	21,67
260,246	38,06
260,463	-2,9
260,679	13,48
260,895	50,35
261,112	-33,62
261,328	-13,14
261,544	33,96
261,761	87,21
261,977	38,06
262,193	-0,85
262,409	-9,05
262,626	58,54
262,842	93,35
263,058	-19,29
263,274	122,02
263,49	70,83
263,707	11,43
263,923	-58,2
264,139	27,82
264,355	31,91
264,571	19,63
264,787	36,01
265,004	70,83
265,22	36,01
265,436	27,82
265,652	36,01
265,868	48,3
266,084	46,25
266,3	13,48
266,516	-0,85
266,732	15,53
266,948	-31,57
267,164	23,72
267,38	97,45
267,596	72,87
267,812	36,01
268,028	36,01
268,244	-2,9
268,46	29,87
268,676	-25,43
268,892	38,06
269,108	7,34
269,324	5,29
269,54	40,11
269,756	46,25
269,972	40,11
270,188	27,82
270,403	42,15
270,619	21,67
270,835	150,7
271,051	-19,29
271,267	-0,85
271,483	15,53
271,698	-9,05
271,914	21,67
272,13	-27,48
272,346	48,3
272,562	52,39
272,777	31,91
272,993	-4,95
273,209	11,43
273,425	5,29
273,64	21,67
273,856	95,4
274,072	-7
274,287	5,29
274,503	-0,85
274,719	-35,67
274,934	3,24
275,15	25,77
275,366	-35,67
275,581	-27,48
275,797	-60,24
276,012	-13,14
276,228	36,01
276,444	-39,76
276,659	44,2
276,875	1,19
277,09	-37,72
277,306	27,82
277,521	15,53
277,737	-0,85
277,952	85,16
278,168	-9,05
278,383	76,97
278,599	13,48
278,814	11,43
279,03	27,82
279,245	50,35
279,461	-2,9
279,676	-17,24
279,892	-72,53
280,107	-43,86
280,322	-17,24
280,538	66,73
280,753	-17,24
280,969	81,07
281,184	-37,72
281,399	72,87
281,615	19,63
281,83	-21,33
282,045	13,48
282,26	-13,14
282,476	66,73
282,691	-2,9
282,906	52,39
283,122	48,3
283,337	-4,95
283,552	9,39
283,767	-17,24
283,983	27,82
284,198	-11,09
284,413	9,39
284,628	-21,33
284,843	-25,43
285,058	-13,14
285,274	-27,48
285,489	-35,67
285,704	-45,91
285,919	-2,9
286,134	46,25
286,349	44,2
286,564	-13,14
286,779	54,44
286,995	33,96
287,21	-52,05
287,425	21,67
287,64	-21,33
287,855	-33,62
288,07	15,53
288,285	-0,85
288,5	50,35
288,715	54,44
288,93	-4,95
289,145	-21,33
289,36	23,72
289,575	62,63
289,79	11,43
290,004	-29,52
290,219	13,48
290,434	29,87
290,649	-11,09
290,864	13,48
291,079	19,63
291,294	44,2
291,509	19,63
291,724	1,19
291,938	-19,29
292,153	17,58
292,368	44,2
292,583	33,96
292,798	21,67
293,012	93,35
293,227	25,77
293,442	38,06
293,657	13,48
293,871	13,48
294,086	83,11
294,301	-9,05
294,516	79,02
294,73	-25,43
294,945	7,34
295,16	46,25
295,374	64,68
295,589	46,25
295,804	-13,14
296,018	31,91
296,233	27,82
296,447	46,25
296,662	-19,29
296,877	66,73
297,091	44,2
297,306	15,53
297,52	68,78
297,735	97,45
297,949	60,59
298,164	23,72
298,378	27,82
298,593	11,43
298,807	-21,33
299,022	23,72
299,236	50,35
299,451	66,73
299,665	76,97
299,88	-50
300,094	-52,05
300,309	38,06
300,523	3,24
300,737	-50
300,952	50,35
301,166	-27,48
301,381	11,43
301,595	13,48
301,809	52,39
302,024	27,82
302,238	-33,62
302,452	60,59
302,667	15,53
302,881	81,07
303,095	-19,29
303,309	76,97
303,524	15,53
303,738	-9,05
303,952	11,43
304,166	85,16
304,381	-11,09
304,595	-19,29
304,809	48,3
305,023	52,39
305,237	11,43
305,452	3,24
305,666	11,43
305,88	52,39
306,094	-11,09
306,308	-27,48
306,522	40,11
306,736	64,68
306,95	11,43
307,164	19,63
307,379	-13,14
307,593	48,3
307,807	85,16
308,021	27,82
308,235	52,39
308,449	54,44
308,663	58,54
308,877	62,63
309,091	27,82
309,305	5,29
309,519	38,06
309,733	48,3
309,947	-70,48
310,161	-11,09
310,374	5,29
310,588	48,3
310,802	76,97
311,016	-29,52
311,23	44,2
311,444	-37,72
311,658	62,63
311,872	9,39
312,085	29,87
312,299	46,25
312,513	76,97
312,727	-2,9
312,941	21,67
313,154	-21,33
313,368	48,3
313,582	31,91
313,796	31,91
314,009	44,2
314,223	7,34
314,437	-2,9
314,651	-27,48
314,864	7,34
315,078	44,2
315,292	15,53
315,505	56,49
315,719	19,63
315,933	56,49
316,146	-43,86
316,36	68,78
316,573	23,72
316,787	52,39
317,001	3,24
317,214	21,67
317,428	3,24
317,641	25,77
317,855	70,83
318,068	21,67
318,282	-21,33
318,495	68,78
318,709	48,3
318,922	7,34
319,136	87,21
319,349	40,11
319,563	13,48
319,776	60,59
319,99	-31,57
320,203	91,31
320,417	52,39
320,63	85,16
320,843	95,4
321,057	-27,48
321,27	5,29
321,483	-0,85
321,697	111,78
321,91	15,53
322,124	91,31
322,337	-11,09
322,55	-45,91
322,763	7,34
322,977	52,39
323,19	58,54
323,403	-13,14
323,617	21,67
323,83	48,3
324,043	-45,91
324,256	48,3
324,469	-0,85
324,683	5,29
324,896	19,63
325,109	25,77
325,322	-4,95
325,535	113,83
325,748	36,01
325,962	19,63
326,175	48,3
326,388	46,25
326,601	42,15
326,814	46,25
327,027	27,82
327,24	93,35
327,453	-9,05
327,666	19,63
327,879	23,72
328,092	48,3
328,305	64,68
328,518	11,43
328,731	-29,52
328,944	62,63
329,157	-7
329,37	-17,24
329,583	97,45
329,796	44,2
330,009	-13,14
330,222	38,06
330,435	44,2
330,648	-17,24
330,861	72,87
331,073	83,11
331,286	25,77
331,499	44,2
331,712	-84,82
331,925	83,11
332,138	-0,85
332,35	3,24
332,563	-17,24
332,776	48,3
332,989	17,58
333,202	60,59
333,414	40,11
333,627	60,59
333,84	-4,95
334,053	62,63
334,265	81,07
334,478	85,16
334,691	-62,29
334,903	21,67
335,116	11,43
335,329	-7
335,541	33,96
335,754	126,12
335,966	7,34
336,179	-4,95
336,392	-39,76
336,604	36,01
336,817	33,96
337,029	62,63
337,242	1,19
337,454	58,54
337,667	-7
337,88	46,25
338,092	15,53
338,305	-37,72
338,517	-37,72
338,729	64,68
338,942	48,3
339,154	60,59
339,367	-33,62
339,579	27,82
339,792	66,73
340,004	52,39
340,217	-4,95
340,429	-17,24
340,641	46,25
340,854	-4,95
341,066	27,82
341,278	36,01
341,491	-21,33
341,703	76,97
341,915	-43,86
342,128	1,19
342,34	-7
342,552	60,59
342,764	-2,9
342,977	13,48
343,189	-2,9
343,401	44,2
343,613	-4,95
343,826	15,53
344,038	-4,95
344,25	-52,05
344,462	1,19
344,674	-41,81
344,886	52,39
345,099	-0,85
345,311	56,49
345,523	54,44
345,735	36,01
345,947	21,67
346,159	38,06
346,371	5,29
346,583	13,48
346,795	99,5
347,007	21,67
347,219	-0,85
347,431	-21,33
347,643	56,49
347,855	-7
348,067	13,48
348,279	-27,48
348,491	3,24
348,703	11,43
348,915	38,06
349,127	15,53
349,339	81,07
349,551	-70,48
349,763	122,02
349,975	19,63
350,187	21,67
350,399	87,21
350,61	-27,48
350,822	46,25
351,034	97,45
351,246	3,24
351,458	13,48
351,669	-7
351,881	46,25
352,093	11,43
352,305	136,36
352,517	36,01
352,728	87,21
352,94	52,39
353,152	29,87
353,363	-13,14
353,575	11,43
353,787	48,3
353,999	60,59
354,21	76,97
354,422	19,63
354,633	62,63
354,845	62,63
355,057	46,25
355,268	25,77
355,48	-29,52
355,692	-21,33
355,903	-35,67
356,115	36,01
356,326	91,31
356,538	89,26
356,749	66,73
356,961	64,68
357,172	27,82
357,384	36,01
357,595	11,43
357,807	46,25
358,018	109,74
358,23	64,68
358,441	-9,05
358,653	70,83
358,864	74,92
359,075	36,01
359,287	38,06
359,498	21,67
359,709	-13,14
359,921	27,82
360,132	9,39
360,344	15,53
360,555	11,43
360,766	60,59
360,977	38,06
361,189	-21,33
361,4	-35,67
361,611	52,39
361,823	85,16
362,034	-11,09
362,245	-4,95
362,456	-4,95
362,667	11,43
362,879	15,53
363,09	-11,09
363,301	7,34
363,512	-35,67
363,723	-0,85
363,935	11,43
364,146	11,43
364,357	38,06
364,568	-93,01
364,779	-27,48
364,99	58,54
365,201	-74,58
365,412	38,06
365,623	25,77
365,834	105,64
366,045	54,44
366,256	27,82
366,467	68,78
366,678	42,15
366,889	3,24
367,1	79,02
367,311	64,68
367,522	36,01
367,733	27,82
367,944	58,54
368,155	-60,24
368,366	113,83
368,577	-13,14
368,788	54,44
368,999	38,06
369,209	62,63
369,42	119,98
369,631	44,2
369,842	-9,05
370,053	95,4
370,264	99,5
370,474	29,87
370,685	54,44
370,896	29,87
371,107	89,26
371,317	72,87
371,528	38,06
371,739	52,39
371,95	23,72
372,16	66,73
372,371	11,43
372,582	97,45
372,792	-15,19
373,003	-17,24
373,214	60,59
373,424	11,43
373,635	-21,33
373,846	-13,14
374,056	38,06
374,267	7,34
374,477	7,34
374,688	23,72
374,898	-39,76
375,109	79,02
375,319	56,49
375,53	58,54
375,74	1,19
375,951	115,88
376,161	-25,43
376,372	44,2
376,582	17,58
376,793	52,39
377,003	38,06
377,214	13,48
377,424	54,44
377,635	29,87
377,845	-33,62
378,055	25,77
378,266	15,53
378,476	-11,09
378,686	40,11
378,897	95,4
379,107	76,97
379,317	38,06
379,528	68,78
379,738	87,21
379,948	-17,24
380,158	58,54
380,369	-2,9
380,579	85,16
380,789	17,58
380,999	27,82
381,21	23,72
381,42	42,15
381,63	60,59
381,84	126,12
382,05	-13,14
382,261	36,01
382,471	70,83
382,681	-31,57
382,891	95,4
383,101	79,02
383,311	-27,48
383,521	-27,48
383,731	56,49
383,941	-2,9
384,151	27,82
384,361	97,45
384,571	44,2
384,781	-11,09
384,991	60,59
385,201	52,39
385,411	21,67
385,621	60,59
385,831	-17,24
386,041	19,63
386,251	44,2
386,461	40,11
386,671	46,25
386,881	124,07
387,091	-23,38
387,301	27,82
387,511	44,2
387,72	130,22
387,93	-21,33
388,14	-11,09
388,35	44,2
388,56	52,39
388,769	68,78
388,979	40,11
389,189	44,2
389,399	-45,91
389,609	42,15
389,818	74,92
390,028	68,78
390,238	44,2
390,447	-54,1
390,657	56,49
390,867	44,2
391,076	13,48
391,286	50,35
391,496	40,11
391,705	11,43
391,915	54,44
392,125	83,11
392,334	54,44
392,544	38,06
392,753	46,25
392,963	21,67
393,172	5,29
393,382	-4,95
393,591	103,59
393,801	15,53
394,01	85,16
394,22	27,82
394,429	13,48
394,639	-9,05
394,848	60,59
395,058	74,92
395,267	36,01
395,477	23,72
395,686	19,63
395,895	44,2
396,105	44,2
396,314	-35,67
396,524	74,92
396,733	-13,14
396,942	42,15
397,152	-25,43
397,361	54,44
397,57	81,07
397,78	81,07
397,989	5,29
398,198	-13,14
398,407	27,82
398,617	21,67
398,826	66,73
399,035	5,29
399,244	36,01
399,453	-33,62
399,663	27,82
399,872	97,45
400,081	-93,01
400,29	81,07
400,499	-0,85
400,708	17,58
400,917	50,35
401,127	60,59
401,336	-9,05
401,545	101,55
401,754	48,3
401,963	13,48
402,172	38,06
402,381	29,87
402,59	17,58
402,799	91,31
403,008	-7
403,217	36,01
403,426	3,24
403,635	7,34
403,844	52,39
404,053	-23,38
404,262	31,91
404,471	27,82
404,68	36,01
404,888	52,39
405,097	89,26
405,306	-41,81
405,515	56,49
405,724	81,07
405,933	7,34
406,142	72,87
406,35	68,78
406,559	19,63
406,768	9,39
406,977	68,78
407,185	31,91
407,394	54,44
407,603	52,39
407,812	60,59
408,02	146,6
408,229	33,96
408,438	-21,33
408,646	-29,52
408,855	62,63
409,064	-4,95
409,272	36,01
409,481	17,58
409,69	-9,05
409,898	52,39
410,107	40,11
410,315	15,53
410,524	-17,24
410,733	60,59
410,941	15,53
411,15	40,11
411,358	36,01
411,567	40,11
411,775	70,83
411,984	11,43
412,192	7,34
412,401	52,39
412,609	42,15
412,818	15,53
413,026	46,25
413,234	36,01
413,443	19,63
413,651	17,58
413,86	40,11
414,068	109,74
414,276	46,25
414,485	52,39
414,693	54,44
414,901	42,15
415,11	1,19
415,318	13,48
415,526	15,53
415,734	60,59
415,943	81,07
416,151	31,91
416,359	-9,05
416,567	36,01
416,776	11,43
416,984	15,53
417,192	48,3
417,4	54,44
417,608	5,29
417,817	27,82
418,025	3,24
418,233	50,35
418,441	11,43
418,649	74,92
418,857	-27,48
419,065	-15,19
419,273	44,2
419,481	56,49
419,689	64,68
419,897	40,11
420,105	42,15
420,313	-31,57
420,521	-0,85
420,729	31,91
420,937	54,44
421,145	36,01
421,353	93,35
421,561	107,69
421,769	62,63
421,977	38,06
422,185	85,16
422,393	25,77
422,601	58,54
422,809	-4,95
423,017	31,91
423,224	3,24
423,432	83,11
423,64	7,34
423,848	93,35
424,056	13,48
424,263	38,06
424,471	-31,57
424,679	85,16
424,887	54,44
425,094	5,29
425,302	7,34
425,51	-0,85
425,718	21,67
425,925	50,35
426,133	-9,05
426,341	74,92
426,548	3,24
426,756	17,58
426,964	27,82
427,171	13,48
427,379	68,78
427,586	68,78
427,794	31,91
428,001	-4,95
428,209	3,24
428,417	48,3
428,624	64,68
428,832	97,45
429,039	60,59
429,247	44,2
429,454	-11,09
429,662	148,65
429,869	85,16
430,076	44,2
430,284	74,92
430,491	62,63
430,699	40,11
430,906	54,44
431,114	11,43
431,321	33,96
431,528	68,78
431,736	89,26
431,943	48,3
432,15	13,48
432,358	60,59
432,565	70,83
432,772	44,2
432,979	56,49
433,187	62,63
433,394	138,41
433,601	48,3
433,808	95,4
434,016	97,45
434,223	81,07
434,43	44,2
434,637	31,91
434,844	19,63
435,052	38,06
435,259	66,73
435,466	1,19
435,673	81,07
435,88	44,2
436,087	42,15
436,294	15,53
436,501	60,59
436,708	60,59
436,915	95,4
437,122	29,87
437,329	27,82
437,537	64,68
437,743	-4,95
437,95	113,83
438,157	113,83
438,364	87,21
438,571	54,44
438,778	54,44
438,985	38,06
439,192	27,82
439,399	115,88
439,606	105,64
439,813	167,08
440,02	83,11
440,227	222,38
440,433	144,55
440,64	193,7
440,847	144,55
441,054	103,59
441,261	169,13
441,467	136,36
441,674	146,6
441,881	201,9
442,088	183,46
442,294	193,7
442,501	201,9
442,708	255,14
442,914	218,28
443,121	277,67
443,328	210,09
443,534	322,73
443,741	332,97
443,948	322,73
444,154	357,54
444,361	398,5
444,568	464,04
444,774	511,14
444,981	541,86
445,187	593,06
445,394	664,74
445,6	672,93
445,807	820,38
446,013	806,05
446,22	945,31
446,426	1207,45
446,633	1221,78
446,839	1469,59
447,046	1604,75
447,252	1973,39
447,459	1997,96
447,665	2284,68
447,871	2790,53
448,078	3064,96
448,284	3521,65
448,491	4002,93
448,697	4467,81
448,903	5418,07
449,11	6132,81
449,316	7085,12
449,522	8248,36
449,728	9741,33
449,935	10996,74
450,141	12637,16
450,347	14748,62
450,553	15819,71
450,76	18305,94
450,966	21236,58
451,172	23221,06
451,378	25971,49
451,584	28566,26
451,791	31273,68
451,997	33194,67
452,203	36577,92
452,409	39051,86
452,615	40723,01
452,821	41720,37
453,027	42377,76
453,233	46197,23
453,44	45838,83
453,646	47710,67
453,852	48775,62
454,058	50760,1
454,264	50342,31
454,47	51667,35
454,676	51612,06
454,882	54776,17
455,088	50956,71
455,294	52232,59
455,5	54077,81
455,705	54481,26
455,911	53401,98
456,117	53494,14
456,323	53682,55
456,529	52304,27
456,735	55032,16
456,941	54778,21
457,147	54716,78
457,352	54133,1
457,558	53565,82
457,764	55517,53
457,97	55568,73
458,176	55247,2
458,381	55849,3
458,587	54622,57
458,793	55452
458,999	52861,32
459,204	57852,22
459,41	57282,88
459,616	53778,81
459,821	53713,27
460,027	54098,29
460,233	53117,31
460,438	49988,02
460,644	50557,35
460,85	47303,13
461,055	45365,75
461,261	43176,47
461,466	38482,53
461,672	35392,14
461,878	36207,23
462,083	31896,26
462,289	28938,99
462,494	26006,3
462,7	22958,92
462,905	20812,65
463,111	19665,79
463,316	17656,73
463,522	15555,52
463,727	14250,96
463,932	12600,3
464,138	11656,18
464,343	10372,11
464,549	9065,5
464,754	8389,67
464,959	7246,91
465,165	6456,39
465,37	5631,06
465,575	5035,1
465,781	4656,23
465,986	4207,72
466,191	3636,34
466,397	3331,19
466,602	2940,03
466,807	2860,16
467,012	2487,43
467,218	2192,52
467,423	2092,17
467,628	1899,66
467,833	1840,27
468,038	1686,67
468,244	1385,62
468,449	1346,71
468,654	1172,63
468,859	1047,71
469,064	988,32
469,269	885,92
469,474	908,44
469,679	791,71
469,885	879,77
470,09	791,71
470,295	689,31
470,5	625,83
470,705	658,59
470,91	517,28
471,115	644,26
471,32	400,55
471,525	636,06
471,73	439,46
471,935	461,99
472,139	421,03
472,344	330,92
472,549	382,12
472,754	322,73
472,959	380,07
473,164	332,97
473,369	306,34
473,574	330,92
473,778	283,81
473,983	275,62
474,188	249
474,393	224,42
474,598	355,49
474,802	289,96
475,007	216,23
475,212	265,38
475,417	193,7
475,621	216,23
475,826	105,64
476,031	240,81
476,235	208,04
476,44	119,98
476,645	199,85
476,849	136,36
477,054	138,41
477,259	177,32
477,463	130,22
477,668	232,62
477,872	138,41
478,077	193,7
478,282	126,12
478,486	152,74
478,691	44,2
478,895	97,45
479,1	158,89
479,304	179,37
479,509	126,12
479,713	150,7
479,918	191,66
480,122	85,16
480,326	66,73
480,531	76,97
480,735	130,22
480,94	142,5
481,144	130,22
481,348	101,55
481,553	160,94
481,757	122,02
481,961	93,35
482,166	70,83
482,37	89,26
482,574	142,5
482,778	148,65
482,983	99,5
483,187	175,27
483,391	44,2
483,595	68,78
483,8	109,74
484,004	76,97
484,208	64,68
484,412	105,64
484,616	103,59
484,821	36,01
485,025	60,59
485,229	-25,43
485,433	64,68
485,637	3,24
485,841	29,87
486,045	136,36
486,249	95,4
486,453	117,93
486,657	21,67
486,861	81,07
487,065	109,74
487,269	19,63
487,473	27,82
487,677	50,35
487,881	144,55
488,085	54,44
488,289	46,25
488,493	117,93
488,697	156,84
488,901	38,06
489,105	89,26
489,309	89,26
489,512	95,4
489,716	60,59
489,92	40,11
490,124	-0,85
490,328	79,02
490,531	56,49
490,735	79,02
490,939	54,44
491,143	48,3
491,346	-13,14
491,55	140,46
491,754	38,06
491,958	5,29
492,161	76,97
492,365	38,06
492,569	-31,57
492,772	19,63
492,976	89,26
493,18	60,59
493,383	64,68
493,587	97,45
493,79	76,97
493,994	33,96
494,197	40,11
494,401	132,26
494,605	5,29
494,808	19,63
495,012	-27,48
495,215	48,3
495,419	93,35
495,622	-11,09
495,825	91,31
496,029	68,78
496,232	-19,29
496,436	105,64
496,639	-13,14
496,843	-7
497,046	-29,52
497,249	40,11
497,453	-11,09
497,656	-7
497,859	97,45
498,063	72,87
498,266	66,73
498,469	11,43
498,673	-11,09
498,876	21,67
499,079	40,11
499,282	1,19
499,485	140,46
499,689	52,39
499,892	66,73
500,095	7,34
500,298	62,63
500,501	-21,33
500,705	93,35
500,908	60,59
501,111	-23,38
501,314	36,01
501,517	74,92
501,72	13,48
501,923	-21,33
502,126	21,67
502,329	97,45
502,532	-54,1
502,735	36,01
502,938	42,15
503,141	46,25
503,344	17,58
503,547	74,92
503,75	58,54
503,953	81,07
504,156	87,21
504,359	52,39
504,562	-70,48
504,765	33,96
504,968	-2,9
505,17	36,01
505,373	38,06
505,576	33,96
505,779	46,25
505,982	81,07
506,185	74,92
506,387	17,58
506,59	38,06
506,793	52,39
506,996	126,12
507,198	9,39
507,401	60,59
507,604	103,59
507,807	17,58
508,009	81,07
508,212	101,55
508,415	-21,33
508,617	1,19
508,82	60,59
509,022	103,59
509,225	40,11
509,428	13,48
509,63	-13,14
509,833	68,78
510,035	27,82
510,238	70,83
510,44	11,43
510,643	54,44
510,845	56,49
511,048	85,16
511,25	85,16
511,453	21,67
511,655	76,97
511,858	38,06
512,06	95,4
512,262	79,02
512,465	15,53
512,667	99,5
512,87	15,53
513,072	56,49
513,274	46,25
513,477	48,3
513,679	-17,24
513,881	-29,52
514,084	27,82
514,286	27,82
514,488	74,92
514,69	-0,85
514,893	36,01
515,095	52,39
515,297	-21,33
515,499	-13,14
515,701	5,29
515,904	9,39
516,106	21,67
516,308	7,34
516,51	-2,9
516,712	-11,09
516,914	60,59
517,116	56,49
517,318	11,43
517,52	11,43
517,722	-7
517,925	36,01
518,127	66,73
518,329	44,2
518,531	-72,53
518,733	11,43
518,935	44,2
519,136	44,2
519,338	36,01
519,54	36,01
519,742	70,83
519,944	44,2
520,146	42,15
520,348	64,68
520,55	93,35
520,752	44,2
520,954	46,25
521,155	33,96
521,357	-39,76
521,559	48,3
521,761	15,53
521,963	62,63
522,164	40,11
522,366	81,07
522,568	87,21
522,77	44,2
522,971	-9,05
523,173	68,78
523,375	-0,85
523,576	23,72
523,778	-27,48
523,98	21,67
524,181	19,63
524,383	52,39
524,584	5,29
524,786	115,88
524,988	36,01
525,189	3,24
525,391	29,87
525,592	15,53
525,794	-68,44
525,995	52,39
526,197	-11,09
526,398	40,11
526,6	-23,38
526,801	31,91
527,003	-25,43
527,204	79,02
527,406	17,58
527,607	68,78
527,808	27,82
528,01	60,59
528,211	25,77
528,412	-78,68
528,614	70,83
528,815	-11,09
529,016	64,68
529,218	46,25
529,419	62,63
529,62	-7
529,822	36,01
530,023	-43,86
530,224	42,15
530,425	64,68
530,626	7,34
530,828	5,29
531,029	19,63
531,23	76,97
531,431	36,01
531,632	36,01
531,833	23,72
532,035	44,2
532,236	87,21
532,437	70,83
532,638	27,82
532,839	44,2
533,04	-2,9
533,241	21,67
533,442	15,53
533,643	-39,76
533,844	3,24
534,045	31,91
534,246	-35,67
534,447	21,67
534,648	29,87
534,849	13,48
535,05	19,63
535,251	11,43
535,451	-23,38
535,652	11,43
535,853	38,06
536,054	13,48
536,255	72,87
536,456	-23,38
536,657	9,39
536,857	74,92
537,058	21,67
537,259	68,78
537,46	-23,38
537,66	33,96
537,861	70,83
538,062	58,54
538,263	-39,76
538,463	97,45
538,664	-52,05
538,865	25,77
539,065	13,48
539,266	64,68
539,466	-33,62
539,667	52,39
539,868	40,11
540,068	60,59
540,269	85,16
540,469	-21,33
540,67	-15,19
540,87	13,48
541,071	-0,85
541,271	36,01
541,472	40,11
541,672	48,3
541,873	76,97
542,073	-23,38
542,274	23,72
542,474	85,16
542,675	27,82
542,875	-37,72
543,075	70,83
543,276	-4,95
543,476	52,39
543,676	-11,09
543,877	-15,19
544,077	-0,85
544,277	-2,9
544,478	68,78
544,678	9,39
544,878	46,25
545,078	17,58
545,279	-7
545,479	-35,67
545,679	38,06
545,879	11,43
546,079	17,58
546,28	5,29
546,48	19,63
546,68	44,2
546,88	50,35
547,08	48,3
547,28	111,78
547,48	-13,14
547,68	27,82
547,88	7,34
548,081	36,01
548,281	-0,85
548,481	-27,48
548,681	93,35
548,881	-27,48
549,081	-17,24
549,28	15,53
549,48	-31,57
549,68	76,97
549,88	40,11
550,08	-2,9
550,28	-4,95
550,48	11,43
550,68	23,72
550,88	48,3
551,08	-62,29
551,279	23,72
551,479	29,87
551,679	-0,85
551,879	25,77
552,079	76,97
552,278	3,24
552,478	54,44
552,678	13,48
552,878	9,39
553,077	48,3
553,277	29,87
553,477	-21,33
553,676	52,39
553,876	-13,14
554,076	21,67
554,275	5,29
554,475	13,48
554,674	76,97
554,874	-43,86
555,074	-35,67
555,273	44,2
555,473	52,39
555,672	48,3
555,872	17,58
556,071	117,93
556,271	-4,95
556,47	-11,09
556,67	3,24
556,869	27,82
557,068	-58,2
557,268	33,96
557,467	52,39
557,667	44,2
557,866	-35,67
558,065	60,59
558,265	68,78
558,464	44,2
558,663	36,01
558,863	-82,77
559,062	-15,19
559,261	72,87
559,461	5,29
559,66	60,59
559,859	-4,95
560,058	93,35
560,258	19,63
560,457	25,77
560,656	7,34
560,855	5,29
561,054	21,67
561,253	1,19
561,453	29,87
561,652	54,44
561,851	40,11
562,05	-19,29
562,249	-11,09
562,448	-39,76
562,647	-60,24
562,846	5,29
563,045	-7
563,244	11,43
563,443	40,11
563,642	62,63
563,841	1,19
564,04	5,29
564,239	-29,52
564,438	95,4
564,637	25,77
564,836	50,35
565,035	70,83
565,234	58,54
565,432	23,72
565,631	25,77
565,83	-0,85
566,029	-45,91
566,228	31,91
566,427	3,24
566,625	-41,81
566,824	21,67
567,023	-21,33
567,222	11,43
567,42	11,43
567,619	46,25
567,818	36,01
568,016	54,44
568,215	54,44
568,414	25,77
568,612	40,11
568,811	23,72
569,01	23,72
569,208	7,34
569,407	36,01
569,605	74,92
569,804	-0,85
570,002	-15,19
570,201	99,5
570,4	5,29
570,598	11,43
570,797	-76,63
570,995	-27,48
571,193	31,91
571,392	-54,1
571,59	-13,14
571,789	79,02
571,987	72,87
572,186	42,15
572,384	38,06
572,582	5,29
572,781	5,29
572,979	-66,39
573,177	40,11
573,376	25,77
573,574	31,91
573,772	-13,14
573,971	-2,9
574,169	113,83
574,367	70,83
574,565	-7
574,763	64,68
574,962	3,24
575,16	40,11
575,358	-50
575,556	-4,95
575,754	-9,05
575,952	52,39
576,151	52,39
576,349	40,11
576,547	-39,76
576,745	101,55
576,943	-33,62
577,141	-0,85
577,339	15,53
577,537	91,31
577,735	60,59
577,933	27,82
578,131	38,06
578,329	56,49
578,527	-37,72
578,725	87,21
578,923	42,15
579,121	54,44
579,319	-27,48
579,516	68,78
579,714	79,02
579,912	-11,09
580,11	-13,14
580,308	89,26
580,506	-35,67
580,704	-0,85
580,901	-82,77
581,099	107,69
581,297	9,39
581,495	64,68
581,692	-17,24
581,89	31,91
582,088	-2,9
582,285	46,25
582,483	-7
582,681	38,06
582,878	1,19
583,076	19,63
583,274	50,35
583,471	89,26
583,669	52,39
583,866	31,91
584,064	38,06
584,262	3,24
584,459	-50
584,657	11,43
584,854	27,82
585,052	62,63
585,249	36,01
585,447	54,44
585,644	-9,05
585,841	58,54
586,039	27,82
586,236	60,59
586,434	-2,9
586,631	46,25
586,828	-56,15
587,026	-29,52
587,223	44,2
587,42	21,67
587,618	25,77
587,815	93,35
588,012	3,24
588,21	48,3
588,407	-19,29
588,604	64,68
588,801	46,25
588,999	1,19
589,196	-0,85
589,393	-37,72
589,59	-43,86
589,787	54,44
589,984	38,06
590,182	38,06
590,379	-39,76
590,576	-7
590,773	44,2
590,97	46,25
591,167	31,91
591,364	54,44
591,561	36,01
591,758	9,39
591,955	23,72
592,152	31,91
592,349	-37,72
592,546	19,63
592,743	3,24
592,94	15,53
593,137	-0,85
593,334	54,44
593,531	-17,24
593,727	-19,29
593,924	52,39
594,121	46,25
594,318	9,39
594,515	33,96
594,712	68,78
594,908	46,25
595,105	-82,77
595,302	72,87
595,499	46,25
595,696	-41,81
595,892	3,24
596,089	7,34
596,286	23,72
596,482	97,45
596,679	-50
596,876	52,39
597,072	-43,86
597,269	46,25
597,466	44,2
597,662	-27,48
597,859	-43,86
598,055	19,63
598,252	3,24
598,448	50,35
598,645	-13,14
598,841	-19,29
599,038	27,82
599,234	38,06
599,431	68,78
599,627	44,2
599,824	-4,95
600,02	36,01
600,217	-50
600,413	52,39
600,609	-4,95
600,806	97,45
601,002	66,73
601,198	-2,9
601,395	15,53
601,591	-21,33
601,787	-9,05
601,984	-13,14
602,18	-4,95
602,376	-33,62
602,572	-13,14
602,769	3,24
602,965	44,2
603,161	-21,33
603,357	31,91
603,553	50,35
603,75	-62,29
603,946	79,02
604,142	19,63
604,338	66,73
604,534	-50
604,73	89,26
604,926	27,82
605,122	21,67
605,318	21,67
605,514	-39,76
605,71	62,63
605,906	85,16
606,102	72,87
606,298	-13,14
606,494	33,96
606,69	93,35
606,886	-19,29
607,082	-2,9
607,278	9,39
607,474	76,97
607,67	27,82
607,866	38,06
608,062	-19,29
608,257	81,07
608,453	15,53
608,649	11,43
608,845	-50
609,041	-29,52
609,236	46,25
609,432	48,3
609,628	-29,52
609,824	11,43
610,019	-25,43
610,215	-35,67
610,411	40,11
610,606	113,83
610,802	-50
610,998	29,87
611,193	-4,95
611,389	-21,33
611,584	17,58
611,78	31,91
611,976	11,43
612,171	93,35
612,367	56,49
612,562	97,45
612,758	-39,76
612,953	5,29
613,149	-25,43
613,344	15,53
613,539	3,24
613,735	-45,91
613,93	-31,57
614,126	23,72
614,321	23,72
614,517	70,83
614,712	91,31
614,907	-9,05
615,103	-29,52
615,298	-41,81
615,493	-35,67
615,688	-25,43
615,884	-2,9
616,079	23,72
616,274	-31,57
616,47	-17,24
616,665	17,58
616,86	103,59
617,055	11,43
617,25	-47,96
617,445	31,91
617,641	31,91
617,836	11,43
618,031	13,48
618,226	21,67
618,421	40,11
618,616	-21,33
618,811	-25,43
619,006	27,82
619,201	9,39
619,396	-13,14
619,591	-21,33
619,786	3,24
619,981	46,25
620,176	-11,09
620,371	-45,91
620,566	36,01
620,761	76,97
620,956	72,87
621,151	40,11
621,346	-9,05
621,541	-23,38
621,735	36,01
621,93	36,01
622,125	62,63
622,32	36,01
622,515	-37,72
622,709	1,19
622,904	56,49
623,099	-2,9
623,294	54,44
623,488	1,19
623,683	29,87
623,878	-4,95
624,072	74,92
624,267	-0,85
624,462	11,43
624,656	-60,24
624,851	5,29
625,046	-4,95
625,24	3,24
625,435	15,53
625,629	27,82
625,824	-0,85
626,018	-25,43
626,213	70,83
626,407	85,16
626,602	33,96
626,796	-19,29
626,991	-9,05
627,185	-62,29
627,38	19,63
627,574	-2,9
627,768	62,63
627,963	60,59
628,157	-27,48
628,352	-62,29
628,546	64,68
628,74	15,53
628,935	-11,09
629,129	76,97
629,323	13,48
629,517	11,43
629,712	52,39
629,906	48,3
630,1	13,48
630,294	-52,05
630,489	-27,48
630,683	29,87
630,877	52,39
631,071	66,73
631,265	-45,91
631,459	-23,38
631,653	31,91
631,848	-29,52
632,042	38,06
632,236	5,29
632,43	-0,85
632,624	-74,58
632,818	31,91
633,012	31,91
633,206	40,11
633,4	17,58
633,594	40,11
633,788	101,55
633,982	3,24
634,176	11,43
634,369	-4,95
634,563	13,48
634,757	-41,81
634,951	44,2
635,145	54,44
635,339	17,58
635,533	-0,85
635,726	72,87
635,92	68,78
636,114	-39,76
636,308	5,29
636,501	83,11
636,695	81,07
636,889	-52,05
637,083	-2,9
637,276	93,35
637,47	-35,67
637,664	-60,24
637,857	11,43
638,051	-41,81
638,244	29,87
638,438	-19,29
638,632	95,4
638,825	-39,76
639,019	-11,09
639,212	-4,95
639,406	-4,95
639,599	29,87
639,793	11,43
639,986	38,06
640,18	9,39
640,373	38,06
640,567	52,39
640,76	-37,72
640,954	-21,33
641,147	11,43
641,34	-9,05
641,534	42,15
641,727	-2,9
641,92	29,87
642,114	21,67
642,307	3,24
642,5	-15,19
642,694	9,39
642,887	52,39
643,08	56,49
643,273	21,67
643,467	46,25
643,66	-33,62
643,853	9,39
644,046	27,82
644,239	-35,67
644,432	-29,52
644,626	56,49
644,819	-4,95
645,012	62,63
645,205	36,01
645,398	-2,9
645,591	3,24
645,784	-33,62
645,977	9,39
646,17	-9,05
646,363	21,67
646,556	-78,68
646,749	5,29
646,942	9,39
647,135	89,26
647,328	44,2
647,521	19,63
647,714	1,19
647,907	-50
648,099	-17,24
648,292	27,82
648,485	64,68
648,678	11,43
648,871	25,77
649,064	3,24
649,256	-7
649,449	76,97
649,642	33,96
649,835	40,11
650,027	11,43
650,22	13,48
650,413	1,19
650,605	29,87
650,798	70,83
650,991	62,63
651,183	-4,95
651,376	46,25
651,568	48,3
651,761	31,91
651,954	-39,76
652,146	21,67
652,339	44,2
652,531	3,24
652,724	74,92
652,916	-2,9
653,109	42,15
653,301	-25,43
653,494	25,77
653,686	-66,39
653,879	11,43
654,071	48,3
654,263	-82,77
654,456	-4,95
654,648	42,15
654,84	105,64
655,033	-41,81
655,225	68,78
655,417	5,29
655,61	68,78
655,802	76,97
655,994	7,34
656,186	23,72
656,379	109,74
656,571	19,63
656,763	-74,58
656,955	-4,95
657,148	19,63
657,34	-0,85
657,532	62,63
657,724	-2,9
657,916	60,59
658,108	27,82
658,3	85,16
658,492	60,59
658,684	-4,95
658,876	60,59
659,068	60,59
659,26	-31,57
659,452	85,16
659,644	58,54
659,836	87,21
660,028	72,87
660,22	72,87
660,412	-13,14
660,604	-52,05
660,796	15,53
660,988	-4,95
661,18	19,63
661,372	9,39
661,563	46,25
661,755	36,01
661,947	-54,1
662,139	23,72
662,331	70,83
662,522	-11,09
662,714	7,34
662,906	15,53
663,097	27,82
663,289	-52,05
663,481	7,34
663,673	46,25
663,864	64,68
664,056	19,63
664,247	27,82
664,439	-21,33
664,631	64,68
664,822	19,63
665,014	93,35
665,205	-11,09
665,397	25,77
665,588	68,78
665,78	52,39
665,971	56,49
666,163	-41,81
666,354	11,43
666,546	-74,58
666,737	3,24
666,929	7,34
667,12	-39,76
667,311	27,82
667,503	64,68
667,694	54,44
667,885	150,7
668,077	-21,33
668,268	7,34
668,459	-0,85
668,651	91,31
668,842	5,29
669,033	-4,95
669,224	5,29
669,416	40,11
669,607	21,67
669,798	21,67
669,989	52,39
670,18	11,43
670,371	72,87
670,563	11,43
670,754	76,97
670,945	13,48
671,136	87,21
671,327	-0,85
671,518	38,06
671,709	93,35
671,9	-13,14
672,091	-4,95
672,282	52,39
672,473	27,82
672,664	-31,57
672,855	21,67
673,046	64,68
673,237	11,43
673,428	50,35
673,619	38,06
673,809	76,97
674	76,97
674,191	-15,19
674,382	-23,38
674,573	-2,9
674,764	19,63
674,954	44,2
675,145	68,78
675,336	-23,38
675,527	23,72
675,717	70,83
675,908	5,29
676,099	9,39
676,289	33,96
676,48	-13,14
676,671	7,34
676,861	-43,86
677,052	91,31
677,243	-9,05
677,433	1,19
677,624	27,82
677,814	-13,14
678,005	-7
678,195	87,21
678,386	-29,52
678,576	31,91
678,767	5,29
678,957	68,78
679,148	-27,48
679,338	46,25
679,529	-25,43
679,719	11,43
679,909	48,3
680,1	13,48
680,29	42,15
680,481	-4,95
680,671	19,63
680,861	68,78
681,052	7,34
681,242	-2,9
681,432	44,2
681,622	36,01
681,813	-76,63
682,003	50,35
682,193	-35,67
682,383	76,97
682,573	3,24
682,764	60,59
682,954	52,39
683,144	54,44
683,334	-35,67
683,524	93,35
683,714	-54,1
683,904	72,87
684,094	46,25
684,284	29,87
684,474	89,26
684,664	-4,95
684,854	3,24
685,044	7,34
685,234	62,63
685,424	56,49
685,614	27,82
685,804	19,63
685,994	-7
686,184	19,63
686,374	-2,9
686,564	33,96
686,753	23,72
686,943	-7
687,133	11,43
687,323	11,43
687,513	-25,43
687,702	3,24
687,892	-11,09
688,082	76,97
688,272	-7
688,461	38,06
688,651	44,2
688,841	25,77
689,03	36,01
689,22	-31,57
689,41	23,72
689,599	81,07
689,789	-4,95
689,979	38,06
690,168	15,53
690,358	81,07
690,547	-9,05
690,737	52,39
690,926	105,64
691,116	21,67
691,305	17,58
691,495	38,06
691,684	-23,38
691,874	-29,52
692,063	19,63
692,252	29,87
692,442	1,19
692,631	31,91
692,82	56,49
693,01	74,92
693,199	-2,9
693,388	-21,33
693,578	50,35
693,767	19,63
693,956	72,87
694,146	-9,05
694,335	-47,96
694,524	3,24
694,713	-13,14
694,902	11,43
695,092	79,02
695,281	122,02
695,47	72,87
695,659	60,59
695,848	-25,43
696,037	-2,9
696,226	-37,72
696,415	29,87
696,604	81,07
696,793	-27,48
696,982	-35,67
697,171	52,39
697,36	11,43
697,549	5,29
697,738	-72,53
697,927	38,06
698,116	-41,81
698,305	124,07
698,494	11,43
698,683	-41,81
698,872	68,78
699,061	117,93
699,25	-19,29
699,438	-21,33
699,627	36,01
699,816	56,49
700,005	-41,81
700,193	-21,33
700,382	-2,9
700,571	3,24
700,76	42,15
700,948	27,82
701,137	91,31
701,326	31,91
701,514	-11,09
701,703	17,58
701,892	48,3
702,08	-7
702,269	-19,29
702,457	-9,05
702,646	5,29
702,834	3,24
703,023	48,3
703,212	111,78
703,4	15,53
703,589	74,92
703,777	7,34
703,965	-68,44
704,154	9,39
704,342	3,24
704,531	17,58
704,719	-15,19
704,907	68,78
705,096	-37,72
705,284	-2,9
705,472	-17,24
705,661	-4,95
705,849	64,68
706,037	48,3
706,226	97,45
706,414	48,3
706,602	-19,29
706,79	7,34
706,979	-27,48
707,167	-2,9
707,355	-4,95
707,543	23,72
707,731	52,39
707,919	11,43
708,107	56,49
708,296	64,68
708,484	-47,96
708,672	-47,96
708,86	23,72
709,048	-27,48
709,236	-17,24
709,424	-52,05
709,612	-13,14
709,8	3,24
709,988	11,43
710,176	60,59
710,364	25,77
710,551	-33,62
710,739	-0,85
710,927	7,34
711,115	-31,57
711,303	38,06
711,491	-2,9
711,679	19,63
711,866	27,82
712,054	74,92
712,242	13,48
712,43	54,44
712,617	56,49
712,805	17,58
712,993	-0,85
713,181	-86,87
713,368	-0,85
713,556	-7
713,744	3,24
713,931	13,48
714,119	21,67
714,306	7,34
714,494	-27,48
714,682	25,77
714,869	-15,19
715,057	-74,58
715,244	-45,91
715,432	-0,85
715,619	7,34
715,807	-17,24
715,994	13,48
716,182	3,24
716,369	48,3
716,556	15,53
716,744	9,39
716,931	9,39
717,119	48,3
717,306	70,83
717,493	-70,48
717,681	11,43
717,868	11,43
718,055	85,16
718,242	1,19
718,43	3,24
718,617	-0,85
718,804	40,11
718,991	31,91
719,179	7,34
719,366	72,87
719,553	70,83
719,74	50,35
719,927	15,53
720,114	11,43
720,301	-2,9
720,488	23,72
720,676	19,63
720,863	-11,09
721,05	-35,67
721,237	3,24
721,424	83,11
721,611	62,63
721,798	48,3
721,985	19,63
722,172	50,35
722,358	-15,19
722,545	-17,24
722,732	66,73
722,919	40,11
723,106	-9,05
723,293	58,54
723,48	11,43
723,667	-9,05
723,853	60,59
724,04	40,11
724,227	46,25
724,414	44,2
724,6	-60,24
724,787	79,02
724,974	56,49
725,161	-43,86
725,347	15,53
725,534	76,97
725,72	126,12
725,907	48,3
726,094	85,16
726,28	-101,2
726,467	-25,43
726,653	-4,95
726,84	60,59
727,027	70,83
727,213	7,34
727,4	52,39
727,586	-25,43
727,773	-21,33
727,959	-37,72
728,145	-21,33
728,332	29,87
728,518	-25,43
728,705	42,15
728,891	-0,85
729,077	3,24
729,264	74,92
729,45	3,24
729,636	79,02
729,823	56,49
730,009	-62,29
730,195	48,3
730,382	52,39
730,568	21,67
730,754	-29,52
730,94	13,48
731,126	11,43
731,313	31,91
731,499	-0,85
731,685	79,02
731,871	3,24
732,057	85,16
732,243	48,3
732,429	52,39
732,615	36,01
732,801	44,2
732,987	-37,72
733,173	1,19
733,359	13,48
733,545	27,82
733,731	-29,52
733,917	-11,09
734,103	25,77
734,289	48,3
734,475	85,16
734,661	70,83
734,847	74,92
735,033	48,3
735,219	-33,62
735,404	27,82
735,59	25,77
735,776	29,87
735,962	1,19
736,148	17,58
736,333	-29,52
736,519	-23,38
736,705	-4,95
736,89	-23,38
737,076	19,63
737,262	-2,9
737,447	29,87
737,633	-33,62
737,819	25,77
738,004	19,63
738,19	-21,33
738,375	54,44
738,561	17,58
738,747	-52,05
738,932	-60,24
739,118	119,98
739,303	19,63
739,489	27,82
739,674	-2,9
739,859	-45,91
740,045	60,59
740,23	19,63
740,416	-60,24
740,601	29,87
740,786	-25,43
740,972	23,72
741,157	3,24
741,342	-47,96
741,528	-84,82
741,713	93,35
741,898	36,01
742,084	52,39
742,269	25,77
742,454	-15,19
742,639	31,91
742,824	-33,62
743,01	99,5
743,195	76,97
743,38	85,16
743,565	11,43
743,75	-2,9
743,935	62,63
744,12	111,78
744,305	19,63
744,49	-62,29
744,675	29,87
744,86	-7
745,045	76,97
745,23	52,39
745,415	-4,95
745,6	36,01
745,785	46,25
745,97	19,63
746,155	60,59
746,34	-29,52
746,525	64,68
746,71	42,15
746,895	-27,48
747,079	19,63
747,264	46,25
747,449	19,63
747,634	-21,33
747,819	5,29
748,003	38,06
748,188	-29,52
748,373	27,82
748,557	-19,29
748,742	46,25
748,927	3,24
749,111	31,91
749,296	54,44
749,481	11,43
749,665	11,43
749,85	-66,39
750,034	9,39
750,219	79,02
750,404	-68,44
750,588	-0,85
750,773	15,53
750,957	33,96
751,141	-21,33
751,326	-31,57
751,51	-37,72
751,695	-9,05
751,879	-13,14
752,064	-13,14
752,248	68,78
752,432	109,74
752,617	89,26
752,801	111,78
752,985	3,24
753,17	19,63
753,354	60,59
753,538	27,82
753,722	60,59
753,907	15,53
754,091	-41,81
754,275	33,96
754,459	-115,54
754,643	-29,52
754,828	13,48
755,012	85,16
755,196	-37,72
755,38	52,39
755,564	-25,43
755,748	64,68
755,932	36,01
756,116	33,96
756,3	11,43
756,484	60,59
756,668	36,01
756,852	-62,29
757,036	-27,48
757,22	-27,48
757,404	15,53
757,588	21,67
757,772	54,44
757,956	40,11
758,14	13,48
758,323	46,25
758,507	52,39
758,691	5,29
758,875	-15,19
759,059	58,54
759,242	-9,05
759,426	-21,33
759,61	17,58
759,794	103,59
759,977	-37,72
760,161	38,06
760,345	-60,24
760,528	27,82
760,712	36,01
760,895	9,39
761,079	-2,9
761,263	44,2
761,446	40,11
761,63	89,26
761,813	-21,33
761,997	-43,86
762,18	-7
762,364	44,2
762,547	29,87
762,731	5,29
762,914	-21,33
763,098	-17,24
763,281	11,43
763,464	-2,9
763,648	25,77
763,831	-29,52
764,015	-21,33
764,198	-19,29
764,381	58,54
764,564	-2,9
764,748	17,58
764,931	93,35
765,114	27,82
765,297	3,24
765,481	-31,57
765,664	31,91
765,847	5,29
766,03	-2,9
766,213	-15,19
766,397	1,19
766,58	38,06
766,763	36,01
766,946	48,3
767,129	-21,33
767,312	-17,24
767,495	36,01
767,678	-90,96
767,861	40,11
768,044	-4,95
768,227	-2,9
768,41	19,63
768,593	-4,95
768,776	-17,24
768,959	13,48
769,142	46,25
769,324	-78,68
769,507	-60,24
769,69	48,3
769,873	11,43
770,056	60,59
770,239	83,11
770,421	1,19
770,604	-25,43
770,787	23,72
770,97	-11,09
771,152	-4,95
771,335	44,2
771,518	-11,09
771,7	21,67
771,883	83,11
772,066	68,78
772,248	17,58
772,431	7,34
772,613	-33,62
772,796	-39,76
772,978	109,74
773,161	64,68
773,343	-4,95
773,526	-27,48
773,708	-29,52
773,891	-43,86
774,073	50,35
774,256	-29,52
774,438	-21,33
774,621	-17,24
774,803	85,16
774,985	13,48
775,168	5,29
775,35	23,72
775,532	79,02
775,715	5,29
775,897	-21,33
776,079	17,58
776,261	-4,95
776,444	17,58
776,626	15,53
776,808	-37,72
776,99	-31,57
777,173	17,58
777,355	68,78
777,537	36,01
777,719	44,2
777,901	-41,81
778,083	40,11
778,265	11,43
778,447	87,21
778,629	-72,53
778,811	52,39
778,993	-13,14
779,175	3,24
779,357	66,73
779,539	-13,14
779,721	42,15
779,903	70,83
780,085	62,63
780,267	76,97
780,449	93,35
780,631	11,43
780,812	31,91
780,994	-0,85
781,176	42,15
781,358	-9,05
781,54	-7
781,721	11,43
781,903	48,3
782,085	-13,14
782,267	-47,96
782,448	-58,2
782,63	-50
782,812	-19,29
782,993	44,2
783,175	56,49
783,357	3,24
783,538	3,24
783,72	-37,72
783,901	11,43
784,083	52,39
784,264	128,17
784,446	36,01
784,627	15,53
784,809	-23,38
784,99	-29,52
785,172	23,72
785,353	19,63
785,535	29,87
785,716	-0,85
785,897	-68,44
786,079	17,58
786,26	40,11
786,441	99,5
786,623	-119,64
786,804	-45,91
786,985	-25,43
787,167	111,78
787,348	15,53
787,529	-27,48
787,71	70,83
787,891	64,68
788,073	-33,62
788,254	-35,67
788,435	56,49
788,616	38,06
788,797	-29,52
788,978	-29,52
789,159	52,39
789,34	15,53
789,522	13,48
789,703	7,34
789,884	36,01
790,065	25,77
790,246	-17,24
790,427	-78,68
790,607	1,19
790,788	-25,43
790,969	-19,29
791,15	27,82
791,331	-78,68
791,512	-27,48
791,693	27,82
791,874	-41,81
792,054	21,67
792,235	19,63
792,416	-19,29
792,597	13,48
792,778	-17,24
792,958	5,29
793,139	3,24
793,32	-27,48
793,5	-50
793,681	5,29
793,862	-17,24
794,042	19,63
794,223	-37,72
794,404	33,96
794,584	3,24
794,765	-35,67
794,945	-4,95
795,126	5,29
795,306	38,06
795,487	21,67
795,667	-19,29
795,848	11,43
796,028	-52,05
796,209	-45,91
796,389	11,43
796,57	-90,96
796,75	31,91
796,93	29,87
797,111	40,11
797,291	-11,09
797,471	25,77
797,652	-66,39
797,832	29,87
798,012	-21,33
798,192	-27,48
798,373	-15,19
798,553	1,19
798,733	58,54
798,913	-56,15
799,093	-2,9
799,274	-35,67
799,454	36,01
799,634	31,91
799,814	36,01
799,994	11,43
800,174	52,39
800,354	44,2
800,534	7,34
800,714	93,35
800,894	-23,38
801,074	-33,62
801,254	-13,14
801,434	62,63
801,614	11,43
801,794	-43,86
801,974	414,88
802,154	-4,95
802,334	36,01
802,514	5,29
802,693	-76,63
802,873	3,24
803,053	9,39
803,233	-29,52
803,413	-27,48
803,592	48,3
803,772	36,01
803,952	-25,43
804,131	-9,05
804,311	-4,95
804,491	48,3
804,67	-17,24
804,85	-58,2
805,03	38,06
805,209	97,45
805,389	36,01
805,568	-29,52
805,748	19,63
805,928	23,72
806,107	-11,09
806,287	54,44
806,466	27,82
806,646	-0,85
806,825	19,63
807,004	11,43
807,184	25,77
807,363	56,49
807,543	-21,33
807,722	-0,85
807,901	74,92
808,081	5,29
808,26	-19,29
808,439	9,39
808,619	27,82
808,798	19,63
808,977	-25,43
809,156	72,87
809,336	21,67
809,515	44,2
809,694	-25,43
809,873	-47,96
810,052	-4,95
810,231	-2,9
810,411	27,82
810,59	38,06
810,769	-21,33
810,948	15,53
811,127	-43,86
811,306	-35,67
811,485	27,82
811,664	70,83
811,843	72,87
812,022	36,01
812,201	36,01
812,38	40,11
812,559	7,34
812,737	-29,52
812,916	-15,19
813,095	11,43
813,274	-29,52
813,453	13,48
813,632	-31,57
813,811	-11,09
813,989	-31,57
814,168	68,78
814,347	-33,62
814,526	-21,33
814,704	62,63
814,883	56,49
815,062	-17,24
815,24	-25,43
815,419	40,11
815,598	15,53
815,776	-17,24
815,955	40,11
816,133	-95,06
816,312	-78,68
816,49	-11,09
816,669	-27,48
816,847	-29,52
817,026	-19,29
817,204	-33,62
817,383	-19,29
817,561	81,07
817,74	64,68
817,918	21,67
818,097	11,43
818,275	38,06
818,453	72,87
818,632	19,63
818,81	-21,33
818,988	-9,05
819,167	-21,33
819,345	48,3
819,523	1,19
819,701	-60,24
819,879	-9,05
820,058	-52,05
820,236	-0,85
820,414	-41,81
820,592	11,43
820,77	-13,14
820,948	-4,95
821,127	29,87
821,305	21,67
821,483	42,15
821,661	38,06
821,839	52,39
822,017	44,2
822,195	-64,34
822,373	58,54
822,551	-9,05
822,729	23,72
822,907	64,68
823,085	62,63
823,262	13,48
823,44	-39,76
823,618	-35,67
823,796	-52,05
823,974	-23,38
824,152	54,44
824,329	15,53
824,507	21,67
824,685	-15,19
824,863	-13,14
825,04	70,83
825,218	19,63
825,396	-15,19
825,574	17,58
825,751	40,11
825,929	19,63
826,107	-7
826,284	33,96
826,462	-15,19
826,639	-4,95
826,817	-4,95
826,994	-13,14
827,172	-25,43
827,349	-7
827,527	29,87
827,704	-54,1
827,882	5,29
828,059	-23,38
828,237	3,24
828,414	42,15
828,591	-21,33
828,769	-17,24
828,946	23,72
829,124	36,01
829,301	-52,05
829,478	-29,52
829,655	-43,86
829,833	-9,05
830,01	-64,34
830,187	52,39
830,364	-9,05
830,542	-13,14
830,719	66,73
830,896	52,39
831,073	-19,29
831,25	15,53
831,427	31,91
831,604	-56,15
831,782	-58,2
831,959	27,82
832,136	52,39
832,313	33,96
832,49	-41,81
832,667	11,43
832,844	-15,19
833,021	25,77
833,198	-19,29
833,374	56,49
833,551	-7
833,728	33,96
833,905	68,78
834,082	13,48
834,259	44,2
834,436	31,91
834,612	-23,38
834,789	46,25
834,966	-33,62
835,143	52,39
835,319	-4,95
835,496	66,73
835,673	27,82
835,85	13,48
836,026	48,3
836,203	58,54
836,38	-4,95
836,556	-72,53
836,733	-31,57
836,909	40,11
837,086	-13,14
837,262	29,87
837,439	44,2
837,616	-2,9
837,792	-76,63
837,968	31,91
838,145	7,34
838,321	3,24
838,498	-21,33
838,674	-33,62
838,851	5,29
839,027	3,24
839,203	-7
839,38	-13,14
839,556	21,67
839,732	-11,09
839,909	46,25
840,085	64,68
840,261	-47,96
840,437	79,02
840,614	-17,24
840,79	21,67
840,966	36,01
841,142	27,82
841,318	38,06
841,494	46,25
841,671	25,77
841,847	7,34
842,023	21,67
842,199	54,44
842,375	3,24
842,551	7,34
842,727	9,39
842,903	7,34
843,079	19,63
843,255	-27,48
843,431	40,11
843,607	33,96
843,783	-47,96
843,959	-37,72
844,134	-54,1
844,31	5,29
844,486	13,48
844,662	-21,33
844,838	-29,52
845,013	111,78
845,189	-2,9
845,365	-33,62
845,541	17,58
845,716	29,87
845,892	-11,09
846,068	-37,72
846,244	-23,38
846,419	-37,72
846,595	-9,05
846,77	-2,9
846,946	36,01
847,122	-50
847,297	38,06
847,473	52,39
847,648	-27,48
847,824	70,83
847,999	-13,14
848,175	15,53
848,35	48,3
848,526	-11,09
848,701	27,82
848,876	3,24
849,052	76,97
849,227	21,67
849,403	3,24
849,578	-19,29
849,753	15,53
849,929	60,59
850,104	-4,95
850,279	42,15
850,454	38,06
850,63	-21,33
850,805	58,54
850,98	-27,48
851,155	7,34
851,33	-17,24
851,505	-37,72
851,681	109,74
851,856	-9,05
852,031	-11,09
852,206	-41,81
852,381	-45,91
852,556	-13,14
852,731	27,82
852,906	46,25
853,081	27,82
853,256	27,82
853,431	-13,14
853,606	-25,43
853,781	-4,95
853,956	-84,82
854,131	-27,48
854,305	-7
854,48	13,48
854,655	11,43
854,83	60,59
855,005	-13,14
855,18	36,01
855,354	-17,24
855,529	-2,9
855,704	9,39
855,879	52,39
856,053	29,87
856,228	56,49
856,403	-13,14
856,577	50,35
856,752	-15,19
856,926	11,43
857,101	36,01
857,276	5,29
857,45	-15,19
857,625	3,24
857,799	-50
857,974	3,24
858,148	-35,67
858,323	85,16
858,497	-21,33
858,672	-31,57
858,846	36,01
859,02	52,39
859,195	-35,67
859,369	-41,81
859,543	9,39
859,718	9,39
859,892	13,48
860,066	-25,43
860,241	-33,62
860,415	-35,67
860,589	62,63
860,763	31,91
860,938	-9,05
861,112	-11,09
861,286	-43,86
861,46	-2,9
861,634	-2,9
861,808	52,39
861,982	-4,95
862,157	-17,24
862,331	-43,86
862,505	-0,85
862,679	36,01
862,853	11,43
863,027	29,87
863,201	60,59
863,375	-21,33
863,549	27,82
863,722	-27,48
863,896	-9,05
864,07	-27,48
864,244	7,34
864,418	-52,05
864,592	33,96
864,766	-17,24
864,939	-17,24
865,113	7,34
865,287	109,74
865,461	-23,38
865,634	-17,24
865,808	-52,05
865,982	50,35
866,156	-11,09
866,329	-68,44
866,503	72,87
866,676	-25,43
866,85	-45,91
867,024	52,39
867,197	42,15
867,371	40,11
867,544	-4,95
867,718	29,87
867,891	-60,24
868,065	19,63
868,238	-2,9
868,412	-7
868,585	-58,2
868,759	19,63
868,932	-54,1
869,105	29,87
869,279	-9,05
869,452	-19,29
869,625	-11,09
869,799	36,01
869,972	-58,2
870,145	21,67
870,319	-50
870,492	13,48
870,665	-54,1
870,838	-13,14
871,011	-33,62
871,185	27,82
871,358	-19,29
871,531	9,39
871,704	23,72
871,877	-21,33
872,05	-25,43
872,223	5,29
872,396	-23,38
872,569	44,2
872,742	19,63
872,915	13,48
873,088	7,34
873,261	-37,72
873,434	44,2
873,607	44,2
873,78	19,63
873,953	-27,48
874,126	29,87
874,299	-0,85
874,471	-52,05
874,644	5,29
874,817	-7
874,99	-37,72
875,163	-84,82
875,335	79,02
875,508	-13,14
875,681	29,87
875,853	-35,67
876,026	7,34
876,199	36,01
876,371	19,63
876,544	11,43
876,717	11,43
876,889	89,26
877,062	15,53
877,234	-39,76
877,407	19,63
877,579	-2,9
877,752	23,72
877,924	46,25
878,097	36,01
878,269	56,49
878,442	60,59
878,614	7,34
878,786	9,39
878,959	38,06
879,131	17,58
879,303	-11,09
879,476	21,67
879,648	-54,1
879,82	-25,43
879,993	-29,52
880,165	70,83
880,337	-66,39
880,509	95,4
880,681	7,34
880,854	7,34
881,026	85,16
881,198	31,91
881,37	7,34
881,542	-19,29
881,714	-9,05
881,886	3,24
882,058	-31,57
882,23	27,82
882,402	27,82
882,574	33,96
882,746	56,49
882,918	23,72
883,09	-19,29
883,262	-0,85
883,434	52,39
883,606	-45,91
883,778	19,63
883,95	74,92
884,122	17,58
884,293	-33,62
884,465	25,77
884,637	-21,33
884,809	50,35
884,98	13,48
885,152	-54,1
885,324	36,01
885,496	-9,05
885,667	31,91
885,839	1,19
886,011	74,92
886,182	52,39
886,354	68,78
886,525	13,48
886,697	-35,67
886,869	5,29
887,04	5,29
887,212	23,72
887,383	5,29
887,555	-27,48
887,726	-17,24
887,897	13,48
888,069	-17,24
888,24	27,82
888,412	-68,44
888,583	-2,9
888,754	-27,48
888,926	9,39
889,097	-13,14
889,268	-54,1
889,44	-39,76
889,611	-17,24
889,782	3,24
889,953	-93,01
890,125	54,44
890,296	-58,2
890,467	-86,87
890,638	-93,01
890,809	9,39
890,98	-33,62
891,151	1,19
891,323	-2,9
891,494	17,58
891,665	56,49
891,836	11,43
892,007	38,06
892,178	60,59
892,349	19,63
892,52	11,43
892,691	-17,24
892,862	-21,33
893,032	-7
893,203	7,34
893,374	19,63
893,545	3,24
893,716	-21,33
893,887	36,01
894,057	13,48
894,228	-60,24
894,399	-80,72
894,57	13,48
894,74	48,3
894,911	91,31
895,082	-47,96
895,253	-21,33
895,423	-11,09
895,594	-39,76
895,764	-25,43
895,935	-11,09
896,106	-15,19
896,276	42,15
896,447	-4,95
896,617	-21,33
896,788	11,43
896,958	68,78
897,129	-43,86
897,299	9,39
897,47	-2,9
897,64	13,48
897,81	-52,05
897,981	38,06
898,151	19,63
898,322	87,21
898,492	-7
898,662	3,24
898,832	-45,91
899,003	-13,14
899,173	-21,33
899,343	-54,1
899,513	-76,63
