Data from filtre 450_USB4F104151__4__11-55-00-343.txt Node

Date: Wed Apr 15 11:55:00 EDT 2026
User: LaboPhy
Spectrometer: USB4F10415
Trigger mode: 4
Integration Time (sec): 2,100000E-2
Scans to average: 1
Electric dark correction enabled: true
Nonlinearity correction enabled: false
Boxcar width: 0
XAxis mode: Wavelengths
Number of Pixels in Spectrum: 3648
>>>>>Begin Spectral Data<<<<<
178,204	-46,93
178,424	-46,93
178,644	-46,93
178,864	-114,52
179,084	-102,23
179,304	-40,79
179,524	26,79
179,744	-5,97
179,964	73,9
180,184	-8,02
180,404	18,6
180,624	-44,88
180,844	-24,4
181,064	32,94
181,283	-40,79
181,503	-40,79
181,723	53,42
181,943	-48,98
182,163	94,38
182,383	75,95
182,602	32,94
182,822	49,32
183,042	16,55
183,262	6,31
183,482	-22,36
183,701	34,99
183,921	100,52
184,141	12,46
184,361	65,71
184,58	28,84
184,8	0,17
185,02	20,65
185,239	65,71
185,459	22,7
185,679	53,42
185,898	22,7
186,118	45,23
186,338	18,6
186,557	65,71
186,777	39,08
186,997	10,41
187,216	-16,21
187,436	88,23
187,655	55,47
187,875	151,72
188,095	51,37
188,314	102,57
188,534	82,09
188,753	-51,03
188,973	75,95
189,192	34,99
189,412	108,71
189,631	98,47
189,851	28,84
190,07	22,7
190,29	77,99
190,509	-5,97
190,729	32,94
190,948	92,33
191,168	141,48
191,387	65,71
191,607	30,89
191,826	6,31
192,045	121
192,265	57,51
192,484	16,55
192,704	41,13
192,923	-1,88
193,142	90,28
193,362	65,71
193,581	0,17
193,8	39,08
194,02	100,52
194,239	57,51
194,458	30,89
194,678	41,13
194,897	94,38
195,116	61,61
195,335	63,66
195,555	73,9
195,774	43,18
195,993	28,84
196,212	75,95
196,432	16,55
196,651	49,32
196,87	61,61
197,089	24,75
197,308	-16,21
197,528	53,42
197,747	51,37
197,966	59,56
198,185	34,99
198,404	4,27
198,623	65,71
198,842	43,18
199,062	100,52
199,281	75,95
199,5	71,85
199,719	28,84
199,938	82,09
200,157	69,8
200,376	37,03
200,595	-22,36
200,814	24,75
201,033	-32,6
201,252	63,66
201,471	121
201,69	118,95
201,909	61,61
202,128	41,13
202,347	4,27
202,566	-8,02
202,785	12,46
203,004	16,55
203,223	94,38
203,442	41,13
203,661	100,52
203,879	43,18
204,098	65,71
204,317	110,76
204,536	59,56
204,755	86,19
204,974	80,04
205,193	61,61
205,411	51,37
205,63	14,51
205,849	-22,36
206,068	16,55
206,287	34,99
206,505	39,08
206,724	59,56
206,943	51,37
207,162	8,36
207,381	-1,88
207,599	-1,88
207,818	49,32
208,037	84,14
208,255	47,27
208,474	8,36
208,693	59,56
208,911	73,9
209,13	51,37
209,349	133,29
209,567	-3,93
209,786	67,75
210,005	51,37
210,223	0,17
210,442	59,56
210,661	98,47
210,879	67,75
211,098	28,84
211,316	92,33
211,535	39,08
211,753	22,7
211,972	10,41
212,191	18,6
212,409	51,37
212,628	34,99
212,846	-28,5
213,065	51,37
213,283	55,47
213,502	45,23
213,72	26,79
213,938	37,03
214,157	24,75
214,375	61,61
214,594	110,76
214,812	20,65
215,031	-22,36
215,249	53,42
215,467	61,61
215,686	18,6
215,904	65,71
216,122	73,9
216,341	73,9
216,559	63,66
216,778	16,55
216,996	24,75
217,214	24,75
217,432	-36,69
217,651	-1,88
217,869	24,75
218,087	45,23
218,306	51,37
218,524	61,61
218,742	-3,93
218,96	53,42
219,179	37,03
219,397	-10,07
219,615	100,52
219,833	98,47
220,051	75,95
220,27	41,13
220,488	69,8
220,706	10,41
220,924	90,28
221,142	88,23
221,36	8,36
221,578	47,27
221,796	6,31
222,015	59,56
222,233	32,94
222,451	90,28
222,669	-32,6
222,887	41,13
223,105	-12,12
223,323	-22,36
223,541	-26,45
223,759	71,85
223,977	28,84
224,195	80,04
224,413	32,94
224,631	139,43
224,849	80,04
225,067	57,51
225,285	34,99
225,503	-12,12
225,721	-14,17
225,939	41,13
226,157	69,8
226,375	98,47
226,592	28,84
226,81	16,55
227,028	73,9
227,246	141,48
227,464	12,46
227,682	-3,93
227,9	30,89
228,117	116,9
228,335	39,08
228,553	0,17
228,771	0,17
228,989	16,55
229,206	49,32
229,424	75,95
229,642	94,38
229,86	102,57
230,077	10,41
230,295	59,56
230,513	94,38
230,731	84,14
230,948	90,28
231,166	22,7
231,384	32,94
231,601	45,23
231,819	61,61
232,037	-44,88
232,254	10,41
232,472	24,75
232,689	57,51
232,907	28,84
233,125	86,19
233,342	82,09
233,56	49,32
233,777	16,55
233,995	24,75
234,213	90,28
234,43	71,85
234,648	12,46
234,865	24,75
235,083	41,13
235,3	30,89
235,518	-24,4
235,735	65,71
235,953	59,56
236,17	-38,74
236,388	26,79
236,605	37,03
236,822	98,47
237,04	51,37
237,257	45,23
237,475	80,04
237,692	69,8
237,909	-57,17
238,127	49,32
238,344	34,99
238,562	43,18
238,779	6,31
238,996	45,23
239,214	43,18
239,431	116,9
239,648	-16,21
239,865	59,56
240,083	96,43
240,3	8,36
240,517	26,79
240,735	28,84
240,952	10,41
241,169	32,94
241,386	73,9
241,603	-5,97
241,821	16,55
242,038	59,56
242,255	75,95
242,472	47,27
242,689	73,9
242,907	77,99
243,124	106,67
243,341	100,52
243,558	12,46
243,775	34,99
243,992	24,75
244,209	-10,07
244,426	100,52
244,643	98,47
244,86	2,22
245,078	26,79
245,295	45,23
245,512	43,18
245,729	22,7
245,946	18,6
246,163	-36,69
246,38	32,94
246,597	-28,5
246,814	65,71
247,031	69,8
247,248	26,79
247,464	34,99
247,681	-14,17
247,898	55,47
248,115	-24,4
248,332	20,65
248,549	65,71
248,766	37,03
248,983	-3,93
249,2	0,17
249,417	53,42
249,633	10,41
249,85	16,55
250,067	-3,93
250,284	20,65
250,501	82,09
250,717	90,28
250,934	-89,94
251,151	0,17
251,368	22,7
251,585	67,75
251,801	86,19
252,018	53,42
252,235	4,27
252,451	2,22
252,668	-1,88
252,885	14,51
253,102	86,19
253,318	-10,07
253,535	24,75
253,752	-57,17
253,968	12,46
254,185	49,32
254,401	-26,45
254,618	-20,31
254,835	10,41
255,051	16,55
255,268	-3,93
255,484	8,36
255,701	73,9
255,917	32,94
256,134	39,08
256,351	24,75
256,567	-3,93
256,784	53,42
257	26,79
257,217	94,38
257,433	20,65
257,65	41,13
257,866	67,75
258,082	61,61
258,299	-3,93
258,515	24,75
258,732	-30,55
258,948	-77,65
259,165	57,51
259,381	65,71
259,597	-5,97
259,814	34,99
260,03	34,99
260,246	34,99
260,463	57,51
260,679	59,56
260,895	57,51
261,112	49,32
261,328	18,6
261,544	53,42
261,761	28,84
261,977	14,51
262,193	10,41
262,409	39,08
262,626	51,37
262,842	121
263,058	57,51
263,274	8,36
263,49	82,09
263,707	100,52
263,923	10,41
264,139	41,13
264,355	30,89
264,571	47,27
264,787	16,55
265,004	49,32
265,22	-3,93
265,436	82,09
265,652	28,84
265,868	84,14
266,084	16,55
266,3	143,53
266,516	39,08
266,732	84,14
266,948	-14,17
267,164	10,41
267,38	114,86
267,596	20,65
267,812	139,43
268,028	-24,4
268,244	22,7
268,46	116,9
268,676	14,51
268,892	43,18
269,108	0,17
269,324	24,75
269,54	-16,21
269,756	123,05
269,972	30,89
270,188	32,94
270,403	37,03
270,619	-14,17
270,835	51,37
271,051	41,13
271,267	73,9
271,483	12,46
271,698	14,51
271,914	-53,08
272,13	47,27
272,346	18,6
272,562	84,14
272,777	32,94
272,993	-38,74
273,209	41,13
273,425	73,9
273,64	-20,31
273,856	24,75
274,072	10,41
274,287	-3,93
274,503	26,79
274,719	32,94
274,934	65,71
275,15	-44,88
275,366	-40,79
275,581	41,13
275,797	49,32
276,012	20,65
276,228	8,36
276,444	-69,46
276,659	32,94
276,875	8,36
277,09	-12,12
277,306	49,32
277,521	32,94
277,737	106,67
277,952	73,9
278,168	24,75
278,383	8,36
278,599	32,94
278,814	8,36
279,03	104,62
279,245	26,79
279,461	41,13
279,676	80,04
279,892	65,71
280,107	39,08
280,322	-22,36
280,538	16,55
280,753	-28,5
280,969	123,05
281,184	18,6
281,399	41,13
281,615	8,36
281,83	24,75
282,045	-3,93
282,26	41,13
282,476	2,22
282,691	110,76
282,906	-16,21
283,122	84,14
283,337	0,17
283,552	75,95
283,767	-14,17
283,983	34,99
284,198	41,13
284,413	10,41
284,628	2,22
284,843	47,27
285,058	77,99
285,274	16,55
285,489	20,65
285,704	73,9
285,919	-16,21
286,134	65,71
286,349	34,99
286,564	14,51
286,779	45,23
286,995	75,95
287,21	49,32
287,425	32,94
287,64	28,84
287,855	-5,97
288,07	-5,97
288,285	18,6
288,5	8,36
288,715	2,22
288,93	49,32
289,145	2,22
289,36	18,6
289,575	26,79
289,79	2,22
290,004	-5,97
290,219	22,7
290,434	26,79
290,649	16,55
290,864	84,14
291,079	98,47
291,294	47,27
291,509	-34,64
291,724	26,79
291,938	65,71
292,153	110,76
292,368	-10,07
292,583	16,55
292,798	127,14
293,012	37,03
293,227	94,38
293,442	-32,6
293,657	43,18
293,871	143,53
294,086	59,56
294,301	59,56
294,516	12,46
294,73	51,37
294,945	-81,75
295,16	2,22
295,374	69,8
295,589	84,14
295,804	16,55
296,018	-14,17
296,233	49,32
296,447	71,85
296,662	24,75
296,877	98,47
297,091	98,47
297,306	90,28
297,52	34,99
297,735	82,09
297,949	100,52
298,164	77,99
298,378	-5,97
298,593	37,03
298,807	37,03
299,022	71,85
299,236	41,13
299,451	61,61
299,665	32,94
299,88	118,95
300,094	20,65
300,309	34,99
300,523	55,47
300,737	10,41
300,952	92,33
301,166	98,47
301,381	-8,02
301,595	-28,5
301,809	-18,26
302,024	41,13
302,238	37,03
302,452	51,37
302,667	30,89
302,881	110,76
303,095	16,55
303,309	90,28
303,524	94,38
303,738	65,71
303,952	4,27
304,166	82,09
304,381	24,75
304,595	32,94
304,809	22,7
305,023	-8,02
305,237	16,55
305,452	-12,12
305,666	28,84
305,88	22,7
306,094	59,56
306,308	28,84
306,522	53,42
306,736	51,37
306,95	75,95
307,164	18,6
307,379	65,71
307,593	59,56
307,807	84,14
308,021	57,51
308,235	41,13
308,449	30,89
308,663	45,23
308,877	118,95
309,091	53,42
309,305	98,47
309,519	104,62
309,733	110,76
309,947	-38,74
310,161	147,62
310,374	53,42
310,588	106,67
310,802	-16,21
311,016	24,75
311,23	28,84
311,444	14,51
311,658	71,85
311,872	51,37
312,085	84,14
312,299	127,14
312,513	16,55
312,727	4,27
312,941	18,6
313,154	32,94
313,368	61,61
313,582	59,56
313,796	57,51
314,009	39,08
314,223	45,23
314,437	16,55
314,651	-26,45
314,864	49,32
315,078	4,27
315,292	-22,36
315,505	32,94
315,719	37,03
315,933	20,65
316,146	61,61
316,36	8,36
316,573	102,57
316,787	18,6
317,001	34,99
317,214	-12,12
317,428	57,51
317,641	16,55
317,855	55,47
318,068	88,23
318,282	24,75
318,495	20,65
318,709	49,32
318,922	12,46
319,136	104,62
319,349	104,62
319,563	-8,02
319,776	51,37
319,99	-3,93
320,203	20,65
320,417	2,22
320,63	100,52
320,843	92,33
321,057	24,75
321,27	-48,98
321,483	16,55
321,697	73,9
321,91	2,22
322,124	16,55
322,337	16,55
322,55	80,04
322,763	-18,26
322,977	102,57
323,19	86,19
323,403	45,23
323,617	43,18
323,83	37,03
324,043	10,41
324,256	55,47
324,469	26,79
324,683	112,81
324,896	28,84
325,109	28,84
325,322	-5,97
325,535	-8,02
325,748	59,56
325,962	24,75
326,175	8,36
326,388	-24,4
326,601	63,66
326,814	61,61
327,027	28,84
327,24	30,89
327,453	51,37
327,666	37,03
327,879	-3,93
328,092	114,86
328,305	80,04
328,518	61,61
328,731	8,36
328,944	67,75
329,157	65,71
329,37	100,52
329,583	65,71
329,796	80,04
330,009	-24,4
330,222	28,84
330,435	82,09
330,648	77,99
330,861	-22,36
331,073	39,08
331,286	39,08
331,499	16,55
331,712	-38,74
331,925	116,9
332,138	43,18
332,35	100,52
332,563	-22,36
332,776	65,71
332,989	18,6
333,202	73,9
333,414	16,55
333,627	10,41
333,84	16,55
334,053	30,89
334,265	-51,03
334,478	16,55
334,691	65,71
334,903	24,75
335,116	-16,21
335,329	8,36
335,541	10,41
335,754	20,65
335,966	-14,17
336,179	65,71
336,392	34,99
336,604	65,71
336,817	49,32
337,029	8,36
337,242	24,75
337,454	32,94
337,667	4,27
337,88	32,94
338,092	-26,45
338,305	96,43
338,517	57,51
338,729	45,23
338,942	0,17
339,154	-24,4
339,367	57,51
339,579	16,55
339,792	92,33
340,004	75,95
340,217	43,18
340,429	22,7
340,641	53,42
340,854	108,71
341,066	0,17
341,278	57,51
341,491	63,66
341,703	51,37
341,915	24,75
342,128	12,46
342,34	28,84
342,552	110,76
342,764	80,04
342,977	71,85
343,189	73,9
343,401	41,13
343,613	34,99
343,826	0,17
344,038	-51,03
344,25	32,94
344,462	16,55
344,674	-14,17
344,886	18,6
345,099	57,51
345,311	16,55
345,523	41,13
345,735	34,99
345,947	59,56
346,159	8,36
346,371	90,28
346,583	65,71
346,795	98,47
347,007	65,71
347,219	39,08
347,431	10,41
347,643	82,09
347,855	24,75
348,067	14,51
348,279	-8,02
348,491	-65,36
348,703	22,7
348,915	22,7
349,127	2,22
349,339	-8,02
349,551	49,32
349,763	139,43
349,975	94,38
350,187	110,76
350,399	73,9
350,61	59,56
350,822	-3,93
351,034	22,7
351,246	41,13
351,458	94,38
351,669	-34,64
351,881	57,51
352,093	45,23
352,305	88,23
352,517	16,55
352,728	86,19
352,94	61,61
353,152	43,18
353,363	-42,84
353,575	28,84
353,787	12,46
353,999	90,28
354,21	8,36
354,422	-10,07
354,633	80,04
354,845	57,51
355,057	18,6
355,268	73,9
355,48	45,23
355,692	-10,07
355,903	28,84
356,115	34,99
356,326	-12,12
356,538	84,14
356,749	18,6
356,961	39,08
357,172	71,85
357,384	22,7
357,595	141,48
357,807	16,55
358,018	26,79
358,23	96,43
358,441	98,47
358,653	28,84
358,864	16,55
359,075	51,37
359,287	28,84
359,498	100,52
359,709	51,37
359,921	-22,36
360,132	28,84
360,344	131,24
360,555	30,89
360,766	-40,79
360,977	-5,97
361,189	49,32
361,4	-34,64
361,611	51,37
361,823	34,99
362,034	77,99
362,245	75,95
362,456	49,32
362,667	61,61
362,879	90,28
363,09	90,28
363,301	14,51
363,512	0,17
363,723	-32,6
363,935	-42,84
364,146	43,18
364,357	4,27
364,568	75,95
364,779	-5,97
364,99	125,1
365,201	-28,5
365,412	92,33
365,623	20,65
365,834	53,42
366,045	39,08
366,256	57,51
366,467	69,8
366,678	16,55
366,889	-30,55
367,1	26,79
367,311	41,13
367,522	53,42
367,733	98,47
367,944	28,84
368,155	22,7
368,366	123,05
368,577	94,38
368,788	88,23
368,999	61,61
369,209	10,41
369,42	129,19
369,631	129,19
369,842	73,9
370,053	39,08
370,264	26,79
370,474	24,75
370,685	26,79
370,896	100,52
371,107	108,71
371,317	-3,93
371,528	30,89
371,739	98,47
371,95	24,75
372,16	26,79
372,371	80,04
372,582	18,6
372,792	57,51
373,003	106,67
373,214	8,36
373,424	39,08
373,635	-34,64
373,846	39,08
374,056	73,9
374,267	12,46
374,477	34,99
374,688	16,55
374,898	20,65
375,109	51,37
375,319	92,33
375,53	49,32
375,74	43,18
375,951	-36,69
376,161	22,7
376,372	98,47
376,582	28,84
376,793	28,84
377,003	20,65
377,214	84,14
377,424	37,03
377,635	30,89
377,845	32,94
378,055	84,14
378,266	77,99
378,476	-14,17
378,686	4,27
378,897	26,79
379,107	73,9
379,317	75,95
379,528	-24,4
379,738	12,46
379,948	28,84
380,158	100,52
380,369	32,94
380,579	41,13
380,789	127,14
380,999	63,66
381,21	2,22
381,42	43,18
381,63	16,55
381,84	63,66
382,05	77,99
382,261	55,47
382,471	47,27
382,681	45,23
382,891	75,95
383,101	94,38
383,311	12,46
383,521	39,08
383,731	28,84
383,941	143,53
384,151	8,36
384,361	51,37
384,571	57,51
384,781	69,8
384,991	57,51
385,201	73,9
385,411	-40,79
385,621	82,09
385,831	18,6
386,041	55,47
386,251	-5,97
386,461	32,94
386,671	18,6
386,881	-1,88
387,091	37,03
387,301	57,51
387,511	57,51
387,72	47,27
387,93	51,37
388,14	-67,41
388,35	53,42
388,56	26,79
388,769	92,33
388,979	26,79
389,189	28,84
389,399	55,47
389,609	73,9
389,818	77,99
390,028	39,08
390,238	59,56
390,447	-10,07
390,657	73,9
390,867	12,46
391,076	63,66
391,286	73,9
391,496	-1,88
391,705	20,65
391,915	65,71
392,125	-1,88
392,334	49,32
392,544	16,55
392,753	8,36
392,963	49,32
393,172	20,65
393,382	-32,6
393,591	82,09
393,801	28,84
394,01	86,19
394,22	110,76
394,429	28,84
394,639	59,56
394,848	51,37
395,058	37,03
395,267	51,37
395,477	-5,97
395,686	28,84
395,895	75,95
396,105	67,75
396,314	53,42
396,524	71,85
396,733	61,61
396,942	73,9
397,152	12,46
397,361	102,57
397,57	63,66
397,78	16,55
397,989	45,23
398,198	84,14
398,407	22,7
398,617	59,56
398,826	88,23
399,035	67,75
399,244	43,18
399,453	57,51
399,663	34,99
399,872	69,8
400,081	96,43
400,29	67,75
400,499	30,89
400,708	49,32
400,917	67,75
401,127	65,71
401,336	139,43
401,545	86,19
401,754	104,62
401,963	57,51
402,172	-34,64
402,381	75,95
402,59	12,46
402,799	82,09
403,008	96,43
403,217	86,19
403,426	22,7
403,635	53,42
403,844	37,03
404,053	51,37
404,262	4,27
404,471	53,42
404,68	32,94
404,888	26,79
405,097	24,75
405,306	61,61
405,515	45,23
405,724	18,6
405,933	14,51
406,142	32,94
406,35	59,56
406,559	51,37
406,768	18,6
406,977	104,62
407,185	49,32
407,394	94,38
407,603	4,27
407,812	-14,17
408,02	59,56
408,229	92,33
408,438	49,32
408,646	0,17
408,855	65,71
409,064	75,95
409,272	69,8
409,481	37,03
409,69	4,27
409,898	30,89
410,107	96,43
410,315	92,33
410,524	14,51
410,733	106,67
410,941	20,65
411,15	12,46
411,358	45,23
411,567	75,95
411,775	65,71
411,984	43,18
412,192	61,61
412,401	-46,93
412,609	73,9
412,818	82,09
413,026	55,47
413,234	34,99
413,443	80,04
413,651	63,66
413,86	6,31
414,068	90,28
414,276	65,71
414,485	65,71
414,693	65,71
414,901	57,51
415,11	8,36
415,318	53,42
415,526	18,6
415,734	82,09
415,943	57,51
416,151	86,19
416,359	65,71
416,567	92,33
416,776	28,84
416,984	49,32
417,192	55,47
417,4	34,99
417,608	22,7
417,817	90,28
418,025	80,04
418,233	106,67
418,441	41,13
418,649	121
418,857	20,65
419,065	80,04
419,273	-5,97
419,481	49,32
419,689	20,65
419,897	26,79
420,105	-3,93
420,313	94,38
420,521	61,61
420,729	98,47
420,937	69,8
421,145	131,24
421,353	73,9
421,561	90,28
421,769	100,52
421,977	49,32
422,185	67,75
422,393	39,08
422,601	86,19
422,809	4,27
423,017	28,84
423,224	41,13
423,432	49,32
423,64	39,08
423,848	57,51
424,056	-14,17
424,263	4,27
424,471	26,79
424,679	98,47
424,887	28,84
425,094	-18,26
425,302	73,9
425,51	32,94
425,718	12,46
425,925	63,66
426,133	63,66
426,341	45,23
426,548	71,85
426,756	43,18
426,964	147,62
427,171	-10,07
427,379	18,6
427,586	92,33
427,794	98,47
428,001	63,66
428,209	100,52
428,417	75,95
428,624	41,13
428,832	100,52
429,039	86,19
429,247	88,23
429,454	20,65
429,662	96,43
429,869	92,33
430,076	88,23
430,284	57,51
430,491	82,09
430,699	143,53
430,906	47,27
431,114	37,03
431,321	41,13
431,528	71,85
431,736	43,18
431,943	96,43
432,15	67,75
432,358	73,9
432,565	63,66
432,772	34,99
432,979	24,75
433,187	123,05
433,394	127,14
433,601	82,09
433,808	57,51
434,016	155,82
434,223	53,42
434,43	41,13
434,637	71,85
434,844	49,32
435,052	2,22
435,259	145,58
435,466	55,47
435,673	157,86
435,88	32,94
436,087	123,05
436,294	100,52
436,501	114,86
436,708	67,75
436,915	123,05
437,122	67,75
437,329	45,23
437,537	127,14
437,743	69,8
437,95	77,99
438,157	43,18
438,364	106,67
438,571	92,33
438,778	100,52
438,985	86,19
439,192	80,04
439,399	106,67
439,606	73,9
439,813	88,23
440,02	137,38
440,227	135,34
440,433	137,38
440,64	131,24
440,847	98,47
441,054	207,02
441,261	155,82
441,467	147,62
441,674	123,05
441,881	286,89
442,088	143,53
442,294	223,4
442,501	229,54
442,708	204,97
442,914	270,5
443,121	311,46
443,328	290,98
443,534	354,47
443,741	377
443,948	307,37
444,154	407,72
444,361	458,92
444,568	471,2
444,774	399,52
444,981	501,92
445,187	630,95
445,394	706,72
445,6	676
445,807	815,26
446,013	876,7
446,22	919,71
446,426	1241,24
446,633	1353,88
446,839	1468,56
447,046	1599,63
447,252	1837,2
447,459	1970,32
447,665	2345,09
447,871	2758,78
448,078	3162,23
448,284	3385,46
448,491	4102,25
448,697	4857,95
448,903	5447,77
449,11	6164,56
449,316	6996,03
449,522	8486,95
449,728	9685,01
449,935	10956,8
450,141	12754,92
450,347	14712,78
450,553	15888,31
450,76	18456,47
450,966	21297
451,172	22974,28
451,378	26193,69
451,584	28616,44
451,791	31311,56
451,997	33181,36
452,203	36488,83
452,409	39460,43
452,615	40547,9
452,821	41815,6
453,027	42581,54
453,233	46603,75
453,44	45962,73
453,646	47646,16
453,852	49544,63
454,058	51068,32
454,264	50544,04
454,47	51981,71
454,676	51305,88
454,882	55244,13
455,088	50785,7
455,294	52340,11
455,5	54816,1
455,705	54420,84
455,911	53269,89
456,117	53204,35
456,323	53835,13
456,529	51801,49
456,735	54916,45
456,941	54576,49
457,147	55094,63
457,352	54254,96
457,558	53679,48
457,764	55414,11
457,97	55764,31
458,176	55174,5
458,381	56159,57
458,587	54207,86
458,793	55487,84
458,999	52952,45
459,204	57834,81
459,41	57554,24
459,616	53644,66
459,821	54084,98
460,027	54015,35
460,233	53353,85
460,438	50079,15
460,644	50310,57
460,85	46851,55
461,055	45063,68
461,261	43453,97
461,466	38168,16
461,672	35597,96
461,878	36157,06
462,083	31540,94
462,289	28729,08
462,494	26294,04
462,7	23140,17
462,905	20391,8
463,111	19359,62
463,316	17686,43
463,522	15691,71
463,727	14247,89
463,932	12570,6
464,138	11677,69
464,343	10373,13
464,549	8929,31
464,754	8359,98
464,959	7309,37
465,165	6541,38
465,37	5630,04
465,575	4831,33
465,781	4569,19
465,986	4366,44
466,191	3637,36
466,397	3266,68
466,602	2760,83
466,807	2635,91
467,012	2474,12
467,218	2318,47
467,423	2035,85
467,628	1917,07
467,833	1771,66
468,038	1638,55
468,244	1364,12
468,449	1384,6
468,654	1321,11
468,859	1077,4
469,064	1026,2
469,269	948,38
469,474	927,9
469,679	876,7
469,885	850,08
470,09	770,21
470,295	696,48
470,5	616,61
470,705	632,99
470,91	647,33
471,115	573,6
471,32	565,41
471,525	497,83
471,73	485,54
471,935	442,53
472,139	415,91
472,344	299,17
472,549	381,09
472,754	405,67
472,959	305,32
473,164	362,66
473,369	231,59
473,574	303,27
473,778	243,88
473,983	194,73
474,188	239,78
474,393	329,89
474,598	268,45
474,802	247,97
475,007	270,5
475,212	272,55
475,417	200,87
475,621	217,26
475,826	164,01
476,031	235,69
476,235	211,11
476,44	172,2
476,645	200,87
476,849	123,05
477,054	182,44
477,259	180,39
477,463	223,4
477,668	198,82
477,872	108,71
478,077	159,91
478,282	133,29
478,486	108,71
478,691	135,34
478,895	125,1
479,1	166,06
479,304	200,87
479,509	108,71
479,713	131,24
479,918	98,47
480,122	135,34
480,326	67,75
480,531	110,76
480,735	71,85
480,94	73,9
481,144	131,24
481,348	65,71
481,553	106,67
481,757	100,52
481,961	94,38
482,166	143,53
482,37	100,52
482,574	114,86
482,778	49,32
482,983	100,52
483,187	118,95
483,391	116,9
483,595	84,14
483,8	114,86
484,004	100,52
484,208	37,03
484,412	61,61
484,616	61,61
484,821	145,58
485,025	-24,4
485,229	49,32
485,433	69,8
485,637	155,82
485,841	92,33
486,045	110,76
486,249	67,75
486,453	82,09
486,657	67,75
486,861	30,89
487,065	98,47
487,269	174,25
487,473	2,22
487,677	108,71
487,881	129,19
488,085	92,33
488,289	53,42
488,493	63,66
488,697	65,71
488,901	59,56
489,105	45,23
489,309	90,28
489,512	90,28
489,716	37,03
489,92	69,8
490,124	51,37
490,328	114,86
490,531	92,33
490,735	59,56
490,939	41,13
491,143	20,65
491,346	37,03
491,55	59,56
491,754	82,09
491,958	133,29
492,161	34,99
492,365	55,47
492,569	-24,4
492,772	100,52
492,976	53,42
493,18	18,6
493,383	53,42
493,587	65,71
493,79	43,18
493,994	16,55
494,197	-10,07
494,401	92,33
494,605	45,23
494,808	51,37
495,012	-14,17
495,215	65,71
495,419	133,29
495,622	22,7
495,825	57,51
496,029	32,94
496,232	94,38
496,436	43,18
496,639	61,61
496,843	65,71
497,046	-14,17
497,249	20,65
497,453	-14,17
497,656	24,75
497,859	18,6
498,063	-10,07
498,266	24,75
498,469	32,94
498,673	73,9
498,876	59,56
499,079	-8,02
499,282	100,52
499,485	32,94
499,689	98,47
499,892	57,51
500,095	51,37
500,298	43,18
500,501	114,86
500,705	28,84
500,908	65,71
501,111	26,79
501,314	65,71
501,517	-3,93
501,72	65,71
501,923	22,7
502,126	77,99
502,329	57,51
502,532	18,6
502,735	28,84
502,938	80,04
503,141	108,71
503,344	59,56
503,547	84,14
503,75	59,56
503,953	37,03
504,156	45,23
504,359	18,6
504,562	6,31
504,765	51,37
504,968	110,76
505,17	55,47
505,373	94,38
505,576	26,79
505,779	-8,02
505,982	-16,21
506,185	92,33
506,387	-28,5
506,59	112,81
506,793	-3,93
506,996	84,14
507,198	18,6
507,401	71,85
507,604	28,84
507,807	22,7
508,009	49,32
508,212	116,9
508,415	45,23
508,617	92,33
508,82	28,84
509,022	43,18
509,225	-1,88
509,428	41,13
509,63	67,75
509,833	88,23
510,035	18,6
510,238	8,36
510,44	49,32
510,643	49,32
510,845	39,08
511,048	67,75
511,25	28,84
511,453	98,47
511,655	88,23
511,858	20,65
512,06	125,1
512,262	12,46
512,465	69,8
512,667	75,95
512,87	-34,64
513,072	67,75
513,274	55,47
513,477	-1,88
513,679	49,32
513,881	47,27
514,084	-8,02
514,286	2,22
514,488	49,32
514,69	116,9
514,893	82,09
515,095	100,52
515,297	49,32
515,499	24,75
515,701	53,42
515,904	49,32
516,106	16,55
516,308	47,27
516,51	100,52
516,712	45,23
516,914	92,33
517,116	61,61
517,318	2,22
517,52	-12,12
517,722	37,03
517,925	49,32
518,127	10,41
518,329	96,43
518,531	16,55
518,733	98,47
518,935	-32,6
519,136	-5,97
519,338	-18,26
519,54	45,23
519,742	18,6
519,944	20,65
520,146	32,94
520,348	34,99
520,55	67,75
520,752	-10,07
520,954	59,56
521,155	108,71
521,357	12,46
521,559	75,95
521,761	20,65
521,963	43,18
522,164	-51,03
522,366	90,28
522,568	73,9
522,77	63,66
522,971	61,61
523,173	34,99
523,375	28,84
523,576	-65,36
523,778	-12,12
523,98	-5,97
524,181	30,89
524,383	32,94
524,584	-44,88
524,786	49,32
524,988	57,51
525,189	67,75
525,391	10,41
525,592	69,8
525,794	14,51
525,995	49,32
526,197	43,18
526,398	96,43
526,6	-1,88
526,801	82,09
527,003	34,99
527,204	28,84
527,406	26,79
527,607	2,22
527,808	-28,5
528,01	123,05
528,211	41,13
528,412	16,55
528,614	86,19
528,815	67,75
529,016	30,89
529,218	90,28
529,419	16,55
529,62	75,95
529,822	43,18
530,023	37,03
530,224	53,42
530,425	41,13
530,626	6,31
530,828	12,46
531,029	32,94
531,23	110,76
531,431	73,9
531,632	73,9
531,833	24,75
532,035	45,23
532,236	86,19
532,437	77,99
532,638	98,47
532,839	-32,6
533,04	55,47
533,241	53,42
533,442	4,27
533,643	73,9
533,844	-8,02
534,045	16,55
534,246	63,66
534,447	53,42
534,648	-38,74
534,849	45,23
535,05	32,94
535,251	2,22
535,451	14,51
535,652	18,6
535,853	-51,03
536,054	37,03
536,255	114,86
536,456	20,65
536,657	49,32
536,857	28,84
537,058	100,52
537,259	-22,36
537,46	86,19
537,66	45,23
537,861	45,23
538,062	39,08
538,263	-65,36
538,463	32,94
538,664	67,75
538,865	16,55
539,065	24,75
539,266	34,99
539,466	43,18
539,667	34,99
539,868	61,61
540,068	24,75
540,269	57,51
540,469	61,61
540,67	41,13
540,87	63,66
541,071	0,17
541,271	-16,21
541,472	43,18
541,672	65,71
541,873	-22,36
542,073	20,65
542,274	39,08
542,474	-22,36
542,675	63,66
542,875	24,75
543,075	112,81
543,276	34,99
543,476	22,7
543,676	26,79
543,877	2,22
544,077	30,89
544,277	-81,75
544,478	16,55
544,678	24,75
544,878	49,32
545,078	24,75
545,279	20,65
545,479	2,22
545,679	57,51
545,879	24,75
546,079	75,95
546,28	39,08
546,48	53,42
546,68	18,6
546,88	59,56
547,08	75,95
547,28	118,95
547,48	6,31
547,68	39,08
547,88	69,8
548,081	43,18
548,281	10,41
548,481	102,57
548,681	57,51
548,881	20,65
549,081	18,6
549,28	-16,21
549,48	-16,21
549,68	45,23
549,88	41,13
550,08	8,36
550,28	-14,17
550,48	49,32
550,68	-28,5
550,88	-5,97
551,08	28,84
551,279	112,81
551,479	43,18
551,679	82,09
551,879	18,6
552,079	77,99
552,278	0,17
552,478	77,99
552,678	49,32
552,878	32,94
553,077	59,56
553,277	14,51
553,477	-40,79
553,676	73,9
553,876	53,42
554,076	102,57
554,275	90,28
554,475	16,55
554,674	34,99
554,874	49,32
555,074	24,75
555,273	32,94
555,473	28,84
555,672	67,75
555,872	88,23
556,071	28,84
556,271	65,71
556,47	0,17
556,67	94,38
556,869	65,71
557,068	-12,12
557,268	-5,97
557,467	51,37
557,667	41,13
557,866	-42,84
558,065	47,27
558,265	16,55
558,464	-1,88
558,663	8,36
558,863	34,99
559,062	108,71
559,261	32,94
559,461	-40,79
559,66	2,22
559,859	73,9
560,058	49,32
560,258	-18,26
560,457	77,99
560,656	92,33
560,855	73,9
561,054	67,75
561,253	41,13
561,453	73,9
561,652	67,75
561,851	20,65
562,05	90,28
562,249	45,23
562,448	22,7
562,647	47,27
562,846	112,81
563,045	43,18
563,244	32,94
563,443	121
563,642	51,37
563,841	16,55
564,04	86,19
564,239	10,41
564,438	51,37
564,637	-32,6
564,836	26,79
565,035	12,46
565,234	14,51
565,432	16,55
565,631	104,62
565,83	4,27
566,029	53,42
566,228	55,47
566,427	123,05
566,625	24,75
566,824	80,04
567,023	71,85
567,222	-36,69
567,42	8,36
567,619	53,42
567,818	73,9
568,016	73,9
568,215	-3,93
568,414	55,47
568,612	-16,21
568,811	24,75
569,01	18,6
569,208	12,46
569,407	12,46
569,605	49,32
569,804	65,71
570,002	39,08
570,201	-24,4
570,4	32,94
570,598	55,47
570,797	-40,79
570,995	71,85
571,193	-12,12
571,392	73,9
571,59	16,55
571,789	-32,6
571,987	67,75
572,186	45,23
572,384	18,6
572,582	24,75
572,781	75,95
572,979	16,55
573,177	71,85
573,376	47,27
573,574	49,32
573,772	59,56
573,971	8,36
574,169	-16,21
574,367	28,84
574,565	28,84
574,763	2,22
574,962	98,47
575,16	4,27
575,358	-22,36
575,556	-1,88
575,754	12,46
575,952	57,51
576,151	-1,88
576,349	75,95
576,547	32,94
576,745	43,18
576,943	45,23
577,141	-14,17
577,339	-32,6
577,537	57,51
577,735	2,22
577,933	45,23
578,131	39,08
578,329	100,52
578,527	8,36
578,725	8,36
578,923	0,17
579,121	59,56
579,319	22,7
579,516	-53,08
579,714	-16,21
579,912	114,86
580,11	100,52
580,308	8,36
580,506	47,27
580,704	0,17
580,901	-28,5
581,099	84,14
581,297	-48,98
581,495	20,65
581,692	-5,97
581,89	90,28
582,088	-46,93
582,285	59,56
582,483	-3,93
582,681	16,55
582,878	2,22
583,076	37,03
583,274	8,36
583,471	34,99
583,669	24,75
583,866	-32,6
584,064	0,17
584,262	4,27
584,459	-20,31
584,657	-24,4
584,854	-28,5
585,052	26,79
585,249	-8,02
585,447	88,23
585,644	-8,02
585,841	121
586,039	-8,02
586,236	53,42
586,434	-1,88
586,631	2,22
586,828	43,18
587,026	10,41
587,223	12,46
587,42	-18,26
587,618	98,47
587,815	90,28
588,012	34,99
588,21	55,47
588,407	96,43
588,604	88,23
588,801	47,27
588,999	61,61
589,196	22,7
589,393	10,41
589,59	39,08
589,787	24,75
589,984	32,94
590,182	-5,97
590,379	65,71
590,576	73,9
590,773	4,27
590,97	8,36
591,167	-8,02
591,364	45,23
591,561	8,36
591,758	149,67
591,955	-28,5
592,152	32,94
592,349	34,99
592,546	77,99
592,743	20,65
592,94	77,99
593,137	-3,93
593,334	20,65
593,531	34,99
593,727	110,76
593,924	67,75
594,121	2,22
594,318	39,08
594,515	41,13
594,712	-10,07
594,908	104,62
595,105	-3,93
595,302	82,09
595,499	53,42
595,696	102,57
595,892	18,6
596,089	41,13
596,286	10,41
596,482	20,65
596,679	-3,93
596,876	0,17
597,072	49,32
597,269	18,6
597,466	30,89
597,662	24,75
597,859	51,37
598,055	53,42
598,252	0,17
598,448	16,55
598,645	49,32
598,841	-5,97
599,038	-30,55
599,234	67,75
599,431	84,14
599,627	30,89
599,824	6,31
600,02	55,47
600,217	-28,5
600,413	16,55
600,609	-1,88
600,806	65,71
601,002	16,55
601,198	0,17
601,395	28,84
601,591	16,55
601,787	18,6
601,984	53,42
602,18	32,94
602,376	80,04
602,572	57,51
602,769	30,89
602,965	-26,45
603,161	100,52
603,357	8,36
603,553	69,8
603,75	-24,4
603,946	39,08
604,142	26,79
604,338	114,86
604,534	-24,4
604,73	22,7
604,926	0,17
605,122	49,32
605,318	26,79
605,514	-3,93
605,71	114,86
605,906	65,71
606,102	-14,17
606,298	-24,4
606,494	22,7
606,69	90,28
606,886	24,75
607,082	53,42
607,278	-63,32
607,474	-18,26
607,67	-18,26
607,866	-3,93
608,062	10,41
608,257	10,41
608,453	8,36
608,649	77,99
608,845	-24,4
609,041	55,47
609,236	-14,17
609,432	84,14
609,628	65,71
609,824	123,05
610,019	-53,08
610,215	90,28
610,411	84,14
610,606	59,56
610,802	0,17
610,998	32,94
611,193	37,03
611,389	2,22
611,584	-1,88
611,78	32,94
611,976	10,41
612,171	90,28
612,367	22,7
612,562	32,94
612,758	-18,26
612,953	2,22
613,149	34,99
613,344	24,75
613,539	-20,31
613,735	16,55
613,93	-44,88
614,126	6,31
614,321	32,94
614,517	51,37
614,712	53,42
614,907	14,51
615,103	-44,88
615,298	22,7
615,493	-28,5
615,688	-44,88
615,884	-12,12
616,079	41,13
616,274	104,62
616,47	-30,55
616,665	-38,74
616,86	41,13
617,055	41,13
617,25	-28,5
617,445	0,17
617,641	92,33
617,836	-30,55
618,031	-18,26
618,226	16,55
618,421	-22,36
618,616	-14,17
618,811	47,27
619,006	16,55
619,201	77,99
619,396	37,03
619,591	22,7
619,786	51,37
619,981	16,55
620,176	32,94
620,371	32,94
620,566	-3,93
620,761	92,33
620,956	41,13
621,151	-16,21
621,346	16,55
621,541	51,37
621,735	34,99
621,93	14,51
622,125	14,51
622,32	-8,02
622,515	22,7
622,709	51,37
622,904	8,36
623,099	41,13
623,294	61,61
623,488	18,6
623,683	20,65
623,878	8,36
624,072	26,79
624,267	61,61
624,462	-44,88
624,656	-18,26
624,851	18,6
625,046	-12,12
625,24	41,13
625,435	47,27
625,629	-36,69
625,824	90,28
626,018	39,08
626,213	51,37
626,407	16,55
626,602	28,84
626,796	45,23
626,991	45,23
627,185	-8,02
627,38	-18,26
627,574	28,84
627,768	10,41
627,963	2,22
628,157	22,7
628,352	82,09
628,546	4,27
628,74	24,75
628,935	24,75
629,129	22,7
629,323	104,62
629,517	8,36
629,712	47,27
629,906	34,99
630,1	24,75
630,294	84,14
630,489	10,41
630,683	-18,26
630,877	34,99
631,071	47,27
631,265	90,28
631,459	-3,93
631,653	24,75
631,848	47,27
632,042	-48,98
632,236	57,51
632,43	55,47
632,624	59,56
632,818	-10,07
633,012	34,99
633,206	47,27
633,4	49,32
633,594	24,75
633,788	43,18
633,982	0,17
634,176	41,13
634,369	16,55
634,563	39,08
634,757	10,41
634,951	-1,88
635,145	67,75
635,339	37,03
635,533	75,95
635,726	57,51
635,92	18,6
636,114	-16,21
636,308	69,8
636,501	-18,26
636,695	37,03
636,889	-46,93
637,083	73,9
637,276	22,7
637,47	2,22
637,664	22,7
637,857	22,7
638,051	18,6
638,244	114,86
638,438	43,18
638,632	100,52
638,825	8,36
639,019	67,75
639,212	-14,17
639,406	0,17
639,599	69,8
639,793	4,27
639,986	80,04
640,18	73,9
640,373	65,71
640,567	65,71
640,76	10,41
640,954	0,17
641,147	-32,6
641,34	37,03
641,534	65,71
641,727	51,37
641,92	-10,07
642,114	32,94
642,307	16,55
642,5	59,56
642,694	92,33
642,887	-16,21
643,08	10,41
643,273	67,75
643,467	39,08
643,66	16,55
643,853	8,36
644,046	32,94
644,239	94,38
644,432	6,31
644,626	-22,36
644,819	57,51
645,012	88,23
645,205	49,32
645,398	65,71
645,591	18,6
645,784	-14,17
645,977	-20,31
646,17	6,31
646,363	16,55
646,556	0,17
646,749	6,31
646,942	12,46
647,135	37,03
647,328	-3,93
647,521	51,37
647,714	67,75
647,907	16,55
648,099	18,6
648,292	-8,02
648,485	20,65
648,678	-14,17
648,871	-32,6
649,064	4,27
649,256	37,03
649,449	71,85
649,642	28,84
649,835	-14,17
650,027	41,13
650,22	0,17
650,413	94,38
650,605	102,57
650,798	4,27
650,991	51,37
651,183	20,65
651,376	75,95
651,568	-5,97
651,761	-16,21
651,954	30,89
652,146	41,13
652,339	41,13
652,531	53,42
652,724	18,6
652,916	-16,21
653,109	-65,36
653,301	65,71
653,494	30,89
653,686	37,03
653,879	77,99
654,071	49,32
654,263	12,46
654,456	51,37
654,648	59,56
654,84	-55,12
655,033	8,36
655,225	-24,4
655,417	61,61
655,61	51,37
655,802	57,51
655,994	106,67
656,186	32,94
656,379	82,09
656,571	-24,4
656,763	10,41
656,955	-34,64
657,148	47,27
657,34	-30,55
657,532	41,13
657,724	41,13
657,916	2,22
658,108	26,79
658,3	84,14
658,492	-14,17
658,684	-53,08
658,876	86,19
659,068	2,22
659,26	-8,02
659,452	16,55
659,644	77,99
659,836	84,14
660,028	-26,45
660,22	20,65
660,412	37,03
660,604	45,23
660,796	-8,02
660,988	82,09
661,18	-46,93
661,372	37,03
661,563	-38,74
661,755	-30,55
661,947	-46,93
662,139	34,99
662,331	49,32
662,522	-36,69
662,714	-65,36
662,906	-28,5
663,097	-3,93
663,289	4,27
663,481	-10,07
663,673	-32,6
663,864	41,13
664,056	30,89
664,247	8,36
664,439	59,56
664,631	61,61
664,822	34,99
665,014	45,23
665,205	24,75
665,397	-32,6
665,588	51,37
665,78	-22,36
665,971	65,71
666,163	71,85
666,354	77,99
666,546	84,14
666,737	-8,02
666,929	45,23
667,12	-24,4
667,311	10,41
667,503	-28,5
667,694	37,03
667,885	71,85
668,077	2,22
668,268	10,41
668,459	-18,26
668,651	90,28
668,842	77,99
669,033	24,75
669,224	-22,36
669,416	53,42
669,607	45,23
669,798	43,18
669,989	37,03
670,18	37,03
670,371	-12,12
670,563	94,38
670,754	30,89
670,945	16,55
671,136	49,32
671,327	53,42
671,518	61,61
671,709	67,75
671,9	41,13
672,091	49,32
672,282	32,94
672,473	116,9
672,664	37,03
672,855	77,99
673,046	8,36
673,237	12,46
673,428	-12,12
673,619	84,14
673,809	69,8
674	86,19
674,191	28,84
674,382	24,75
674,573	20,65
674,764	45,23
674,954	-10,07
675,145	24,75
675,336	24,75
675,527	-32,6
675,717	41,13
675,908	73,9
676,099	0,17
676,289	98,47
676,48	26,79
676,671	-3,93
676,861	45,23
677,052	55,47
677,243	8,36
677,433	82,09
677,624	4,27
677,814	57,51
678,005	-53,08
678,195	39,08
678,386	69,8
678,576	24,75
678,767	32,94
678,957	8,36
679,148	24,75
679,338	88,23
679,529	32,94
679,719	-71,51
679,909	90,28
680,1	30,89
680,29	84,14
680,481	8,36
680,671	45,23
680,861	24,75
681,052	16,55
681,242	-36,69
681,432	39,08
681,622	2,22
681,813	10,41
682,003	16,55
682,193	104,62
682,383	65,71
682,573	-32,6
682,764	90,28
682,954	24,75
683,144	18,6
683,334	24,75
683,524	-14,17
683,714	14,51
683,904	18,6
684,094	49,32
684,284	63,66
684,474	32,94
684,664	43,18
684,854	98,47
685,044	-38,74
685,234	45,23
685,424	49,32
685,614	12,46
685,804	43,18
685,994	2,22
686,184	51,37
686,374	-28,5
686,564	41,13
686,753	51,37
686,943	51,37
687,133	57,51
687,323	-44,88
687,513	69,8
687,702	57,51
687,892	59,56
688,082	30,89
688,272	77,99
688,461	-20,31
688,651	43,18
688,841	82,09
689,03	69,8
689,22	8,36
689,41	18,6
689,599	73,9
689,789	16,55
689,979	53,42
690,168	20,65
690,358	22,7
690,547	51,37
690,737	-32,6
690,926	84,14
691,116	-12,12
691,305	26,79
691,495	-22,36
691,684	-12,12
691,874	18,6
692,063	-40,79
692,252	51,37
692,442	73,9
692,631	34,99
692,82	8,36
693,01	-8,02
693,199	100,52
693,388	110,76
693,578	22,7
693,767	-16,21
693,956	102,57
694,146	51,37
694,335	69,8
694,524	32,94
694,713	41,13
694,902	-38,74
695,092	53,42
695,281	98,47
695,47	24,75
695,659	28,84
695,848	2,22
696,037	41,13
696,226	49,32
696,415	-48,98
696,604	-8,02
696,793	43,18
696,982	49,32
697,171	69,8
697,36	-16,21
697,549	32,94
697,738	-36,69
697,927	10,41
698,116	-18,26
698,305	4,27
698,494	-22,36
698,683	41,13
698,872	-20,31
699,061	-8,02
699,25	-3,93
699,438	43,18
699,627	-5,97
699,816	67,75
700,005	16,55
700,193	51,37
700,382	88,23
700,571	59,56
700,76	37,03
700,948	-1,88
701,137	20,65
701,326	53,42
701,514	61,61
701,703	-5,97
701,892	32,94
702,08	104,62
702,269	8,36
702,457	10,41
702,646	-14,17
702,834	18,6
703,023	-8,02
703,212	47,27
703,4	-28,5
703,589	41,13
703,777	10,41
703,965	-28,5
704,154	41,13
704,342	6,31
704,531	53,42
704,719	12,46
704,907	73,9
705,096	-20,31
705,284	-12,12
705,472	180,39
705,661	63,66
705,849	59,56
706,037	96,43
706,226	18,6
706,414	8,36
706,602	0,17
706,79	-14,17
706,979	57,51
707,167	47,27
707,355	28,84
707,543	73,9
707,731	61,61
707,919	-40,79
708,107	24,75
708,296	-24,4
708,484	20,65
708,672	37,03
708,86	41,13
709,048	51,37
709,236	100,52
709,424	69,8
709,612	43,18
709,8	-10,07
709,988	55,47
710,176	75,95
710,364	41,13
710,551	-44,88
710,739	51,37
710,927	20,65
711,115	41,13
711,303	57,51
711,491	98,47
711,679	53,42
711,866	43,18
712,054	45,23
712,242	65,71
712,43	49,32
712,617	73,9
712,805	80,04
712,993	69,8
713,181	-34,64
713,368	45,23
713,556	57,51
713,744	-18,26
713,931	96,43
714,119	90,28
714,306	28,84
714,494	18,6
714,682	34,99
714,869	-28,5
715,057	-30,55
715,244	47,27
715,432	-32,6
715,619	28,84
715,807	-30,55
715,994	24,75
716,182	16,55
716,369	65,71
716,556	-8,02
716,744	34,99
716,931	4,27
717,119	22,7
717,306	51,37
717,493	-5,97
717,681	22,7
717,868	4,27
718,055	6,31
718,242	14,51
718,43	32,94
718,617	67,75
718,804	4,27
718,991	-46,93
719,179	37,03
719,366	69,8
719,553	30,89
719,74	-24,4
719,927	37,03
720,114	86,19
720,301	45,23
720,488	20,65
720,676	-8,02
720,863	30,89
721,05	41,13
721,237	-30,55
721,424	65,71
721,611	88,23
721,798	49,32
721,985	-14,17
722,172	32,94
722,358	-8,02
722,545	45,23
722,732	2,22
722,919	18,6
723,106	49,32
723,293	32,94
723,48	32,94
723,667	4,27
723,853	24,75
724,04	26,79
724,227	43,18
724,414	8,36
724,6	75,95
724,787	108,71
724,974	131,24
725,161	4,27
725,347	-57,17
725,534	51,37
725,72	8,36
725,907	71,85
726,094	59,56
726,28	37,03
726,467	8,36
726,653	18,6
726,84	69,8
727,027	-57,17
727,213	0,17
727,4	-34,64
727,586	51,37
727,773	0,17
727,959	18,6
728,145	-63,32
728,332	-14,17
728,518	-3,93
728,705	59,56
728,891	59,56
729,077	37,03
729,264	-22,36
729,45	12,46
729,636	26,79
729,823	28,84
730,009	2,22
730,195	88,23
730,382	-10,07
730,568	8,36
730,754	-22,36
730,94	32,94
731,126	-1,88
731,313	10,41
731,499	16,55
731,685	16,55
731,871	57,51
732,057	61,61
732,243	18,6
732,429	12,46
732,615	49,32
732,801	4,27
732,987	2,22
733,173	0,17
733,359	0,17
733,545	73,9
733,731	8,36
733,917	47,27
734,103	77,99
734,289	98,47
734,475	14,51
734,661	65,71
734,847	43,18
735,033	28,84
735,219	8,36
735,404	32,94
735,59	100,52
735,776	10,41
735,962	-14,17
736,148	80,04
736,333	82,09
736,519	30,89
736,705	34,99
736,89	24,75
737,076	8,36
737,262	51,37
737,447	-12,12
737,633	-12,12
737,819	39,08
738,004	8,36
738,19	32,94
738,375	49,32
738,561	104,62
738,747	-12,12
738,932	8,36
739,118	59,56
739,303	10,41
739,489	12,46
739,674	6,31
739,859	-14,17
740,045	24,75
740,23	4,27
740,416	-3,93
740,601	32,94
740,786	2,22
740,972	-14,17
741,157	18,6
741,342	-34,64
741,528	49,32
741,713	108,71
741,898	8,36
742,084	57,51
742,269	-30,55
742,454	16,55
742,639	26,79
742,824	108,71
743,01	28,84
743,195	65,71
743,38	63,66
743,565	57,51
743,75	34,99
743,935	16,55
744,12	43,18
744,305	18,6
744,49	8,36
744,675	26,79
744,86	-12,12
745,045	43,18
745,23	14,51
745,415	20,65
745,6	47,27
745,785	22,7
745,97	77,99
746,155	-12,12
746,34	82,09
746,525	24,75
746,71	16,55
746,895	-16,21
747,079	-16,21
747,264	90,28
747,449	49,32
747,634	59,56
747,819	16,55
748,003	26,79
748,188	-32,6
748,373	12,46
748,557	57,51
748,742	77,99
748,927	0,17
749,111	-22,36
749,296	73,9
749,481	41,13
749,665	63,66
749,85	96,43
750,034	71,85
750,219	-36,69
750,404	39,08
750,588	24,75
750,773	14,51
750,957	-46,93
751,141	18,6
751,326	2,22
751,51	-26,45
751,695	18,6
751,879	2,22
752,064	75,95
752,248	63,66
752,432	71,85
752,617	84,14
752,801	24,75
752,985	0,17
753,17	28,84
753,354	73,9
753,538	-22,36
753,722	-8,02
753,907	-1,88
754,091	10,41
754,275	28,84
754,459	-40,79
754,643	26,79
754,828	55,47
755,012	57,51
755,196	34,99
755,38	24,75
755,564	-10,07
755,748	90,28
755,932	49,32
756,116	47,27
756,3	49,32
756,484	20,65
756,668	45,23
756,852	37,03
757,036	-28,5
757,22	37,03
757,404	18,6
757,588	18,6
757,772	-8,02
757,956	28,84
758,14	24,75
758,323	84,14
758,507	45,23
758,691	12,46
758,875	26,79
759,059	59,56
759,242	22,7
759,426	28,84
759,61	32,94
759,794	49,32
759,977	-48,98
760,161	125,1
760,345	127,14
760,528	63,66
760,712	53,42
760,895	41,13
761,079	2,22
761,263	26,79
761,446	63,66
761,63	-36,69
761,813	20,65
761,997	51,37
762,18	39,08
762,364	28,84
762,547	-36,69
762,731	43,18
762,914	41,13
763,098	-16,21
763,281	41,13
763,464	77,99
763,648	22,7
763,831	0,17
764,015	-28,5
764,198	82,09
764,381	-16,21
764,564	20,65
764,748	53,42
764,931	24,75
765,114	24,75
765,297	55,47
765,481	0,17
765,664	71,85
765,847	12,46
766,03	24,75
766,213	45,23
766,397	-12,12
766,58	10,41
766,763	4,27
766,946	-18,26
767,129	-67,41
767,312	-28,5
767,495	-61,27
767,678	41,13
767,861	106,67
768,044	32,94
768,227	12,46
768,41	-5,97
768,593	67,75
768,776	22,7
768,959	34,99
769,142	-26,45
769,324	8,36
769,507	28,84
769,69	28,84
769,873	61,61
770,056	129,19
770,239	24,75
770,421	30,89
770,604	8,36
770,787	100,52
770,97	-14,17
771,152	32,94
771,335	-12,12
771,518	-3,93
771,7	61,61
771,883	55,47
772,066	-3,93
772,248	37,03
772,431	80,04
772,613	73,9
772,796	-1,88
772,978	8,36
773,161	84,14
773,343	14,51
773,526	-36,69
773,708	-8,02
773,891	-55,12
774,073	49,32
774,256	43,18
774,438	24,75
774,621	-18,26
774,803	-14,17
774,985	8,36
775,168	98,47
775,35	18,6
775,532	0,17
775,715	12,46
775,897	75,95
776,079	26,79
776,261	90,28
776,444	53,42
776,626	65,71
776,808	-8,02
776,99	28,84
777,173	4,27
777,355	55,47
777,537	-26,45
777,719	8,36
777,901	-14,17
778,083	8,36
778,265	-3,93
778,447	59,56
778,629	47,27
778,811	-38,74
778,993	51,37
779,175	57,51
779,357	10,41
779,539	2,22
779,721	26,79
779,903	69,8
780,085	-71,51
780,267	34,99
780,449	-28,5
780,631	32,94
780,812	32,94
780,994	-20,31
781,176	34,99
781,358	-48,98
781,54	-44,88
781,721	80,04
781,903	-5,97
782,085	75,95
782,267	100,52
782,448	108,71
782,63	-28,5
782,812	-1,88
782,993	65,71
783,175	45,23
783,357	61,61
783,538	77,99
783,72	-28,5
783,901	-10,07
784,083	55,47
784,264	51,37
784,446	90,28
784,627	43,18
784,809	16,55
784,99	65,71
785,172	-8,02
785,353	61,61
785,535	45,23
785,716	18,6
785,897	-48,98
786,079	24,75
786,26	32,94
786,441	57,51
786,623	24,75
786,804	53,42
786,985	37,03
787,167	28,84
787,348	6,31
787,529	55,47
787,71	32,94
787,891	-18,26
788,073	-38,74
788,254	59,56
788,435	43,18
788,616	26,79
788,797	8,36
788,978	32,94
789,159	18,6
789,34	67,75
789,522	32,94
789,703	2,22
789,884	-16,21
790,065	4,27
790,246	41,13
790,427	24,75
790,607	61,61
790,788	77,99
790,969	-32,6
791,15	69,8
791,331	-16,21
791,512	8,36
791,693	-42,84
791,874	22,7
792,054	100,52
792,235	106,67
792,416	-112,47
792,597	49,32
792,778	28,84
792,958	-30,55
793,139	47,27
793,32	24,75
793,5	53,42
793,681	24,75
793,862	61,61
794,042	32,94
794,223	-38,74
794,404	16,55
794,584	16,55
794,765	-16,21
794,945	-24,4
795,126	55,47
795,306	45,23
795,487	0,17
795,667	28,84
795,848	10,41
796,028	28,84
796,209	102,57
796,389	-10,07
796,57	73,9
796,75	-24,4
796,93	-32,6
797,111	57,51
797,291	24,75
797,471	24,75
797,652	-20,31
797,832	-55,12
798,012	51,37
798,192	-32,6
798,373	-5,97
798,553	32,94
798,733	55,47
798,913	49,32
799,093	57,51
799,274	-1,88
799,454	22,7
799,634	-65,36
799,814	45,23
799,994	57,51
800,174	57,51
800,354	2,22
800,534	-22,36
800,714	43,18
800,894	-63,32
801,074	-32,6
801,254	12,46
801,434	75,95
801,614	8,36
801,794	32,94
801,974	407,72
802,154	-32,6
802,334	90,28
802,514	12,46
802,693	-12,12
802,873	2,22
803,053	106,67
803,233	77,99
803,413	104,62
803,592	59,56
803,772	-5,97
803,952	-20,31
804,131	8,36
804,311	-14,17
804,491	53,42
804,67	-30,55
804,85	51,37
805,03	32,94
805,209	-8,02
805,389	65,71
805,568	-14,17
805,748	49,32
805,928	22,7
806,107	34,99
806,287	32,94
806,466	67,75
806,646	-12,12
806,825	-32,6
807,004	-16,21
807,184	24,75
807,363	41,13
807,543	55,47
807,722	73,9
807,901	59,56
808,081	63,66
808,26	0,17
808,439	69,8
808,619	39,08
808,798	65,71
808,977	94,38
809,156	51,37
809,336	-36,69
809,515	-46,93
809,694	-1,88
809,873	0,17
810,052	51,37
810,231	-5,97
810,411	24,75
810,59	-51,03
810,769	10,41
810,948	4,27
811,127	-36,69
811,306	12,46
811,485	-44,88
811,664	37,03
811,843	-18,26
812,022	34,99
812,201	14,51
812,38	-28,5
812,559	-20,31
812,737	14,51
812,916	-24,4
813,095	-14,17
813,274	-32,6
813,453	22,7
813,632	-26,45
813,811	-12,12
813,989	-22,36
814,168	90,28
814,347	0,17
814,526	41,13
814,704	-20,31
814,883	-8,02
815,062	51,37
815,24	92,33
815,419	30,89
815,598	0,17
815,776	34,99
815,955	24,75
816,133	-51,03
816,312	43,18
816,49	34,99
816,669	0,17
816,847	32,94
817,026	77,99
817,204	43,18
817,383	-48,98
817,561	57,51
817,74	45,23
817,918	10,41
818,097	24,75
818,275	32,94
818,453	10,41
818,632	39,08
818,81	41,13
818,988	32,94
819,167	16,55
819,345	82,09
819,523	63,66
819,701	20,65
819,879	2,22
820,058	-22,36
820,236	-38,74
820,414	53,42
820,592	-3,93
820,77	-30,55
820,948	0,17
821,127	-22,36
821,305	30,89
821,483	-8,02
821,661	24,75
821,839	77,99
822,017	80,04
822,195	10,41
822,373	57,51
822,551	16,55
822,729	59,56
822,907	34,99
823,085	43,18
823,262	45,23
823,44	131,24
823,618	16,55
823,796	57,51
823,974	22,7
824,152	57,51
824,329	57,51
824,507	-14,17
824,685	-44,88
824,863	-3,93
825,04	53,42
825,218	-8,02
825,396	92,33
825,574	43,18
825,751	-24,4
825,929	90,28
826,107	-8,02
826,284	-12,12
826,462	98,47
826,639	8,36
826,817	-59,22
826,994	41,13
827,172	-3,93
827,349	59,56
827,527	39,08
827,704	65,71
827,882	12,46
828,059	20,65
828,237	34,99
828,414	-34,64
828,591	-34,64
828,769	61,61
828,946	65,71
829,124	57,51
829,301	22,7
829,478	75,95
829,655	28,84
829,833	24,75
830,01	-69,46
830,187	-16,21
830,364	47,27
830,542	8,36
830,719	12,46
830,896	12,46
831,073	49,32
831,25	26,79
831,427	32,94
831,604	22,7
831,782	37,03
831,959	57,51
832,136	-28,5
832,313	123,05
832,49	49,32
832,667	82,09
832,844	4,27
833,021	51,37
833,198	37,03
833,374	8,36
833,551	-26,45
833,728	84,14
833,905	65,71
834,082	-12,12
834,259	34,99
834,436	63,66
834,612	-26,45
834,789	16,55
834,966	-16,21
835,143	49,32
835,319	51,37
835,496	-55,12
835,673	6,31
835,85	82,09
836,026	6,31
836,203	20,65
836,38	2,22
836,556	47,27
836,733	30,89
836,909	-16,21
837,086	43,18
837,262	34,99
837,439	30,89
837,616	12,46
837,792	-20,31
837,968	24,75
838,145	63,66
838,321	-46,93
838,498	22,7
838,674	92,33
838,851	45,23
839,027	106,67
839,203	18,6
839,38	-16,21
839,556	6,31
839,732	24,75
839,909	26,79
840,085	114,86
840,261	0,17
840,437	14,51
840,614	77,99
840,79	4,27
840,966	90,28
841,142	0,17
841,318	-24,4
841,494	49,32
841,671	65,71
841,847	12,46
842,023	110,76
842,199	24,75
842,375	28,84
842,551	45,23
842,727	34,99
842,903	-10,07
843,079	-32,6
843,255	20,65
843,431	55,47
843,607	-53,08
843,783	43,18
843,959	63,66
844,134	32,94
844,31	82,09
844,486	-36,69
844,662	-20,31
844,838	-8,02
845,013	131,24
845,189	32,94
845,365	65,71
845,541	2,22
845,716	16,55
845,892	8,36
846,068	24,75
846,244	65,71
846,419	24,75
846,595	28,84
846,77	-3,93
846,946	26,79
847,122	4,27
847,297	90,28
847,473	41,13
847,648	-53,08
847,824	8,36
847,999	-81,75
848,175	2,22
848,35	112,81
848,526	98,47
848,701	41,13
848,876	32,94
849,052	41,13
849,227	-55,12
849,403	28,84
849,578	41,13
849,753	43,18
849,929	-28,5
850,104	26,79
850,279	26,79
850,454	10,41
850,63	41,13
850,805	67,75
850,98	106,67
851,155	-24,4
851,33	43,18
851,505	-8,02
851,681	63,66
851,856	32,94
852,031	-30,55
852,206	82,09
852,381	30,89
852,556	8,36
852,731	49,32
852,906	43,18
853,081	90,28
853,256	73,9
853,431	100,52
853,606	-44,88
853,781	22,7
853,956	12,46
854,131	-8,02
854,305	0,17
854,48	45,23
854,655	-5,97
854,83	49,32
855,005	51,37
855,18	43,18
855,354	47,27
855,529	-3,93
855,704	30,89
855,879	18,6
856,053	24,75
856,228	32,94
856,403	-24,4
856,577	-30,55
856,752	-1,88
856,926	110,76
857,101	8,36
857,276	30,89
857,45	-63,32
857,625	45,23
857,799	14,51
857,974	-42,84
858,148	63,66
858,323	-8,02
858,497	41,13
858,672	20,65
858,846	18,6
859,02	67,75
859,195	-3,93
859,369	45,23
859,543	-14,17
859,718	51,37
859,892	-46,93
860,066	24,75
860,241	-32,6
860,415	26,79
860,589	61,61
860,763	-38,74
860,938	-36,69
861,112	6,31
861,286	49,32
861,46	37,03
861,634	45,23
861,808	114,86
861,982	-48,98
862,157	-28,5
862,331	51,37
862,505	-18,26
862,679	-8,02
862,853	43,18
863,027	-16,21
863,201	41,13
863,375	2,22
863,549	98,47
863,722	84,14
863,896	106,67
864,07	8,36
864,244	12,46
864,418	41,13
864,592	65,71
864,766	41,13
864,939	59,56
865,113	-42,84
865,287	86,19
865,461	-3,93
865,634	-30,55
865,808	32,94
865,982	16,55
866,156	-89,94
866,329	-14,17
866,503	16,55
866,676	59,56
866,85	24,75
867,024	45,23
867,197	-12,12
867,371	49,32
867,544	20,65
867,718	26,79
867,891	69,8
868,065	-46,93
868,238	10,41
868,412	-1,88
868,585	-40,79
868,759	61,61
868,932	-14,17
869,105	53,42
869,279	0,17
869,452	-46,93
869,625	-44,88
869,799	-24,4
869,972	-8,02
870,145	84,14
870,319	65,71
870,492	82,09
870,665	30,89
870,838	-14,17
871,011	-48,98
871,185	90,28
871,358	-8,02
871,531	-3,93
871,704	16,55
871,877	-38,74
872,05	63,66
872,223	67,75
872,396	16,55
872,569	51,37
872,742	90,28
872,915	94,38
873,088	26,79
873,261	-30,55
873,434	12,46
873,607	-5,97
873,78	-8,02
873,953	-14,17
874,126	80,04
874,299	49,32
874,471	-38,74
874,644	8,36
874,817	77,99
874,99	73,9
875,163	-30,55
875,335	43,18
875,508	22,7
875,681	88,23
875,853	37,03
876,026	28,84
876,199	39,08
876,371	57,51
876,544	30,89
876,717	-1,88
876,889	-3,93
877,062	39,08
877,234	6,31
877,407	0,17
877,579	-10,07
877,752	32,94
877,924	-61,27
878,097	61,61
878,269	90,28
878,442	6,31
878,614	82,09
878,786	92,33
878,959	6,31
879,131	-30,55
879,303	-14,17
879,476	-57,17
879,648	34,99
879,82	-40,79
879,993	39,08
880,165	37,03
880,337	10,41
880,509	-3,93
880,681	-14,17
880,854	12,46
881,026	-14,17
881,198	43,18
881,37	22,7
881,542	26,79
881,714	0,17
881,886	-10,07
882,058	43,18
882,23	20,65
882,402	-28,5
882,574	18,6
882,746	28,84
882,918	108,71
883,09	73,9
883,262	-12,12
883,434	24,75
883,606	16,55
883,778	0,17
883,95	59,56
884,122	-10,07
884,293	45,23
884,465	-30,55
884,637	24,75
884,809	16,55
884,98	16,55
885,152	-63,32
885,324	39,08
885,496	-40,79
885,667	4,27
885,839	32,94
886,011	59,56
886,182	45,23
886,354	20,65
886,525	18,6
886,697	18,6
886,869	-16,21
887,04	51,37
887,212	41,13
887,383	41,13
887,555	65,71
887,726	-5,97
887,897	51,37
888,069	24,75
888,24	8,36
888,412	71,85
888,583	-48,98
888,754	-16,21
888,926	-14,17
889,097	14,51
889,268	-40,79
889,44	24,75
889,611	-69,46
889,782	73,9
889,953	8,36
890,125	43,18
890,296	6,31
890,467	-14,17
890,638	2,22
890,809	53,42
890,98	-8,02
891,151	16,55
891,323	77,99
891,494	80,04
891,665	-16,21
891,836	65,71
892,007	2,22
892,178	86,19
892,349	39,08
892,52	47,27
892,691	26,79
892,862	-5,97
893,032	-32,6
893,203	43,18
893,374	80,04
893,545	114,86
893,716	30,89
893,887	-16,21
894,057	14,51
894,228	-48,98
894,399	16,55
894,57	-14,17
894,74	18,6
894,911	24,75
895,082	2,22
895,253	4,27
895,423	4,27
895,594	71,85
895,764	34,99
895,935	18,6
896,106	0,17
896,276	73,9
896,447	45,23
896,617	-1,88
896,788	22,7
896,958	41,13
897,129	-46,93
897,299	59,56
897,47	-14,17
897,64	51,37
897,81	-22,36
897,981	32,94
898,151	-44,88
898,322	45,23
898,492	-8,02
898,662	24,75
898,832	-20,31
899,003	26,79
899,173	45,23
899,343	-40,79
899,513	-24,4
