Data from h2o_USB4F104161__3__11-48-46-351.txt Node

Date: Tue Apr 14 11:48:46 EDT 2026
User: LaboPhy
Spectrometer: USB4F10416
Trigger mode: 4
Integration Time (sec): 1,000000E-1
Scans to average: 1
Electric dark correction enabled: true
Nonlinearity correction enabled: false
Boxcar width: 0
XAxis mode: Wavelengths
Number of Pixels in Spectrum: 3648
>>>>>Begin Spectral Data<<<<<
177,847	-134,14
178,066	-134,14
178,284	-134,14
178,502	-175,1
178,72	-166,91
178,939	46,08
179,157	-3,07
179,375	-56,32
179,593	13,31
179,812	64,51
180,03	-21,5
180,248	25,6
180,466	-17,41
180,685	37,89
180,903	-35,84
181,121	-99,33
181,339	46,08
181,557	-58,37
181,775	13,31
181,994	31,74
182,212	-50,18
182,43	-50,18
182,648	-15,36
182,866	46,08
183,084	29,7
183,302	-50,18
183,52	-19,46
183,739	-1,02
183,957	58,37
184,175	9,22
184,393	-9,22
184,611	64,51
184,829	50,18
185,047	37,89
185,265	84,99
185,483	39,94
185,701	37,89
185,919	89,09
186,137	56,32
186,355	-1,02
186,573	9,22
186,791	119,81
187,009	5,12
187,227	50,18
187,445	-1,02
187,663	-21,5
187,881	-35,84
188,098	13,31
188,316	62,46
188,534	119,81
188,752	-3,07
188,97	-27,65
189,188	-56,32
189,406	62,46
189,624	95,23
189,841	-93,18
190,059	-125,95
190,277	9,22
190,495	-50,18
190,713	64,51
190,931	99,33
191,148	95,23
191,366	17,41
191,584	31,74
191,802	23,55
192,019	119,81
192,237	-25,6
192,455	-11,26
192,673	62,46
192,89	-72,7
193,108	-35,84
193,326	3,07
193,543	70,65
193,761	21,5
193,979	33,79
194,196	-9,22
194,414	68,61
194,632	78,85
194,849	9,22
195,067	-60,42
195,285	56,32
195,502	-60,42
195,72	15,36
195,937	78,85
196,155	87,04
196,373	-17,41
196,59	5,12
196,808	29,7
197,025	66,56
197,243	201,72
197,46	56,32
197,678	35,84
197,895	62,46
198,113	-58,37
198,33	-41,98
198,548	-23,55
198,765	-3,07
198,983	21,5
199,2	-84,99
199,418	46,08
199,635	-9,22
199,853	23,55
200,07	29,7
200,288	-13,31
200,505	-41,98
200,722	29,7
200,94	23,55
201,157	78,85
201,375	68,61
201,592	1,02
201,809	37,89
202,027	103,42
202,244	7,17
202,461	-35,84
202,679	54,27
202,896	89,09
203,113	-76,8
203,331	7,17
203,548	-27,65
203,765	-25,6
203,982	97,28
204,2	-25,6
204,417	-52,22
204,634	218,11
204,851	-52,22
205,069	56,32
205,286	9,22
205,503	5,12
205,72	41,98
205,937	46,08
206,155	-37,89
206,372	78,85
206,589	-41,98
206,806	105,47
207,023	48,13
207,24	5,12
207,458	62,46
207,675	-27,65
207,892	9,22
208,109	5,12
208,326	50,18
208,543	-21,5
208,76	-39,94
208,977	152,57
209,194	5,12
209,411	-52,22
209,628	-56,32
209,845	48,13
210,062	-56,32
210,279	-93,18
210,496	-1,02
210,713	-21,5
210,93	-27,65
211,147	9,22
211,364	-64,51
211,581	-17,41
211,798	168,96
212,015	-60,42
212,232	13,31
212,449	15,36
212,666	21,5
212,883	-3,07
213,1	48,13
213,317	-11,26
213,533	-17,41
213,75	29,7
213,967	15,36
214,184	-41,98
214,401	44,03
214,618	-89,09
214,835	13,31
215,051	62,46
215,268	119,81
215,485	-33,79
215,702	5,12
215,919	-101,37
216,135	193,53
216,352	-60,42
216,569	21,5
216,786	29,7
217,002	13,31
217,219	21,5
217,436	82,94
217,652	-11,26
217,869	-33,79
218,086	27,65
218,302	-9,22
218,519	62,46
218,736	-35,84
218,952	-15,36
219,169	39,94
219,386	1,02
219,602	9,22
219,819	48,13
220,036	-11,26
220,252	48,13
220,469	-25,6
220,685	95,23
220,902	23,55
221,118	17,41
221,335	7,17
221,552	-125,95
221,768	48,13
221,985	-17,41
222,201	-13,31
222,418	7,17
222,634	105,47
222,851	7,17
223,067	-27,65
223,284	-11,26
223,5	23,55
223,716	62,46
223,933	89,09
224,149	31,74
224,366	-39,94
224,582	7,17
224,799	-35,84
225,015	-68,61
225,231	29,7
225,448	-58,37
225,664	15,36
225,88	-19,46
226,097	-27,65
226,313	-60,42
226,529	21,5
226,746	25,6
226,962	-3,07
227,178	-39,94
227,395	-11,26
227,611	-9,22
227,827	54,27
228,044	31,74
228,26	64,51
228,476	23,55
228,692	95,23
228,909	-35,84
229,125	-46,08
229,341	7,17
229,557	-80,89
229,773	-84,99
229,99	72,7
230,206	-46,08
230,422	-11,26
230,638	-99,33
230,854	5,12
231,07	-89,09
231,286	23,55
231,503	64,51
231,719	-27,65
231,935	52,22
232,151	-29,7
232,367	111,61
232,583	103,42
232,799	48,13
233,015	87,04
233,231	-3,07
233,447	48,13
233,663	-27,65
233,879	-9,22
234,095	-11,26
234,311	15,36
234,527	31,74
234,743	66,56
234,959	9,22
235,175	-1,02
235,391	-52,22
235,607	1,02
235,823	1,02
236,039	31,74
236,255	17,41
236,471	15,36
236,687	15,36
236,903	82,94
237,118	66,56
237,334	-39,94
237,55	11,26
237,766	-58,37
237,982	78,85
238,198	72,7
238,413	-9,22
238,629	99,33
238,845	17,41
239,061	-23,55
239,277	-62,46
239,492	5,12
239,708	1,02
239,924	-52,22
240,14	-50,18
240,355	72,7
240,571	-27,65
240,787	-27,65
241,003	78,85
241,218	-48,13
241,434	21,5
241,65	-13,31
241,865	-3,07
242,081	132,09
242,297	-91,13
242,512	50,18
242,728	-44,03
242,944	21,5
243,159	-27,65
243,375	-68,61
243,59	5,12
243,806	39,94
244,022	46,08
244,237	25,6
244,453	46,08
244,668	54,27
244,884	87,04
245,099	-70,65
245,315	136,19
245,53	58,37
245,746	128
245,961	74,75
246,177	64,51
246,392	103,42
246,608	64,51
246,823	-87,04
247,039	-19,46
247,254	-41,98
247,47	39,94
247,685	-58,37
247,9	5,12
248,116	-3,07
248,331	37,89
248,547	33,79
248,762	-48,13
248,977	23,55
249,193	37,89
249,408	66,56
249,623	-7,17
249,839	-101,37
250,054	-46,08
250,269	-52,22
250,485	-19,46
250,7	21,5
250,915	156,67
251,13	-27,65
251,346	5,12
251,561	70,65
251,776	33,79
251,991	-107,52
252,207	70,65
252,422	-68,61
252,637	-1,02
252,852	5,12
253,067	1,02
253,283	11,26
253,498	-3,07
253,713	5,12
253,928	-17,41
254,143	-23,55
254,358	54,27
254,573	-60,42
254,788	-89,09
255,004	7,17
255,219	-1,02
255,434	-1,02
255,649	-9,22
255,864	5,12
256,079	-1,02
256,294	50,18
256,509	-56,32
256,724	48,13
256,939	-101,37
257,154	46,08
257,369	-11,26
257,584	50,18
257,799	-17,41
258,014	-41,98
258,229	29,7
258,444	15,36
258,659	-19,46
258,874	78,85
259,089	50,18
259,304	-27,65
259,518	17,41
259,733	21,5
259,948	25,6
260,163	-33,79
260,378	60,42
260,593	95,23
260,808	103,42
261,022	-84,99
261,237	13,31
261,452	5,12
261,667	29,7
261,882	78,85
262,096	50,18
262,311	46,08
262,526	3,07
262,741	21,5
262,955	-27,65
263,17	99,33
263,385	13,31
263,6	-48,13
263,814	46,08
264,029	-44,03
264,244	64,51
264,458	25,6
264,673	-11,26
264,888	70,65
265,102	1,02
265,317	-3,07
265,532	17,41
265,746	64,51
265,961	87,04
266,175	103,42
266,39	70,65
266,605	-7,17
266,819	56,32
267,034	62,46
267,248	-9,22
267,463	37,89
267,677	-76,8
267,892	-80,89
268,106	-44,03
268,321	15,36
268,535	13,31
268,75	111,61
268,964	-15,36
269,179	39,94
269,393	50,18
269,608	62,46
269,822	-64,51
270,036	-93,18
270,251	13,31
270,465	103,42
270,68	21,5
270,894	9,22
271,108	128
271,323	21,5
271,537	-21,5
271,752	46,08
271,966	72,7
272,18	-66,56
272,394	-11,26
272,609	23,55
272,823	62,46
273,037	-19,46
273,252	-35,84
273,466	11,26
273,68	58,37
273,894	-52,22
274,109	-52,22
274,323	35,84
274,537	70,65
274,751	-35,84
274,966	15,36
275,18	-35,84
275,394	-41,98
275,608	-80,89
275,822	-113,66
276,036	-13,31
276,25	37,89
276,465	72,7
276,679	87,04
276,893	-39,94
277,107	74,75
277,321	-3,07
277,535	54,27
277,749	35,84
277,963	13,31
278,177	-41,98
278,391	13,31
278,605	-50,18
278,819	17,41
279,033	-109,57
279,247	9,22
279,461	15,36
279,675	-9,22
279,889	-21,5
280,103	78,85
280,317	70,65
280,531	-27,65
280,745	39,94
280,959	-99,33
281,173	9,22
281,387	-17,41
281,601	87,04
281,815	78,85
282,029	-50,18
282,242	-52,22
282,456	-3,07
282,67	17,41
282,884	-115,71
283,098	37,89
283,312	70,65
283,525	-35,84
283,739	72,7
283,953	-27,65
284,167	76,8
284,381	-7,17
284,594	-35,84
284,808	-15,36
285,022	-27,65
285,235	-1,02
285,449	-27,65
285,663	-3,07
285,877	70,65
286,09	41,98
286,304	37,89
286,518	-11,26
286,731	-58,37
286,945	62,46
287,159	-60,42
287,372	-19,46
287,586	-3,07
287,799	44,03
288,013	-80,89
288,227	-17,41
288,44	281,6
288,654	56,32
288,867	29,7
289,081	41,98
289,294	46,08
289,508	23,55
289,721	-52,22
289,935	-11,26
290,148	54,27
290,362	91,13
290,575	95,23
290,789	21,5
291,002	-35,84
291,216	56,32
291,429	15,36
291,643	-19,46
291,856	5,12
292,069	-52,22
292,283	-125,95
292,496	-23,55
292,71	46,08
292,923	33,79
293,136	-41,98
293,35	-44,03
293,563	-50,18
293,776	5,12
293,99	37,89
294,203	115,71
294,416	11,26
294,63	50,18
294,843	-37,89
295,056	64,51
295,269	-3,07
295,483	21,5
295,696	-37,89
295,909	31,74
296,122	66,56
296,335	13,31
296,549	-7,17
296,762	5,12
296,975	56,32
297,188	-52,22
297,401	31,74
297,615	-11,26
297,828	21,5
298,041	-1,02
298,254	-33,79
298,467	-58,37
298,68	7,17
298,893	-39,94
299,106	35,84
299,319	7,17
299,532	70,65
299,745	48,13
299,958	-93,18
300,171	-15,36
300,384	60,42
300,598	-107,52
300,81	-7,17
301,023	-109,57
301,236	-27,65
301,449	-19,46
301,662	-27,65
301,875	37,89
302,088	-21,5
302,301	-44,03
302,514	-60,42
302,727	17,41
302,94	-91,13
303,153	41,98
303,366	70,65
303,579	-91,13
303,791	-3,07
304,004	-5,12
304,217	33,79
304,43	-17,41
304,643	-7,17
304,855	-138,24
305,068	54,27
305,281	13,31
305,494	60,42
305,707	-48,13
305,919	128
306,132	3,07
306,345	13,31
306,558	95,23
306,77	-15,36
306,983	-60,42
307,196	37,89
307,408	-48,13
307,621	35,84
307,834	7,17
308,046	9,22
308,259	-5,12
308,472	87,04
308,684	78,85
308,897	7,17
309,109	-68,61
309,322	-68,61
309,535	15,36
309,747	115,71
309,96	62,46
310,172	76,8
310,385	168,96
310,597	-5,12
310,81	-17,41
311,022	95,23
311,235	-27,65
311,447	9,22
311,66	9,22
311,872	130,05
312,085	-13,31
312,297	-9,22
312,51	48,13
312,722	15,36
312,934	-7,17
313,147	-19,46
313,359	37,89
313,572	25,6
313,784	99,33
313,996	15,36
314,209	80,89
314,421	23,55
314,633	41,98
314,846	93,18
315,058	95,23
315,27	1,02
315,483	-15,36
315,695	125,95
315,907	46,08
316,119	13,31
316,332	46,08
316,544	89,09
316,756	70,65
316,968	29,7
317,181	-48,13
317,393	54,27
317,605	-25,6
317,817	58,37
318,029	62,46
318,241	5,12
318,454	25,6
318,666	5,12
318,878	-54,27
319,09	-17,41
319,302	121,85
319,514	-17,41
319,726	-1,02
319,938	152,57
320,15	119,81
320,362	89,09
320,574	-119,81
320,786	31,74
320,999	-17,41
321,211	62,46
321,423	25,6
321,635	-70,65
321,847	33,79
322,058	-25,6
322,27	87,04
322,482	-1,02
322,694	62,46
322,906	70,65
323,118	-1,02
323,33	103,42
323,542	-11,26
323,754	56,32
323,966	-35,84
324,178	29,7
324,389	58,37
324,601	35,84
324,813	-37,89
325,025	-33,79
325,237	-15,36
325,449	21,5
325,66	9,22
325,872	27,65
326,084	13,31
326,296	60,42
326,507	41,98
326,719	50,18
326,931	-82,94
327,143	54,27
327,354	187,39
327,566	35,84
327,778	54,27
327,989	87,04
328,201	21,5
328,413	15,36
328,624	154,62
328,836	50,18
329,048	-33,79
329,259	9,22
329,471	56,32
329,682	5,12
329,894	-9,22
330,106	-60,42
330,317	-48,13
330,529	31,74
330,74	-39,94
330,952	-33,79
331,163	15,36
331,375	70,65
331,586	78,85
331,798	41,98
332,009	-19,46
332,221	9,22
332,432	66,56
332,644	-35,84
332,855	-33,79
333,067	64,51
333,278	13,31
333,489	103,42
333,701	3,07
333,912	-1,02
334,124	-41,98
334,335	-44,03
334,546	-25,6
334,758	7,17
334,969	201,72
335,18	111,61
335,392	78,85
335,603	146,43
335,814	89,09
336,025	3,07
336,237	95,23
336,448	15,36
336,659	128
336,87	177,15
337,082	228,35
337,293	48,13
337,504	87,04
337,715	64,51
337,926	72,7
338,138	13,31
338,349	17,41
338,56	62,46
338,771	-58,37
338,982	5,12
339,193	-52,22
339,404	64,51
339,616	9,22
339,827	89,09
340,038	-17,41
340,249	-9,22
340,46	-58,37
340,671	54,27
340,882	95,23
341,093	29,7
341,304	-60,42
341,515	-27,65
341,726	91,13
341,937	-48,13
342,148	74,75
342,359	-37,89
342,57	-35,84
342,781	23,55
342,992	33,79
343,203	-1,02
343,414	46,08
343,624	29,7
343,835	-27,65
344,046	7,17
344,257	-1,02
344,468	-17,41
344,679	-60,42
344,89	-19,46
345,1	-52,22
345,311	-35,84
345,522	-27,65
345,733	39,94
345,944	-15,36
346,154	35,84
346,365	103,42
346,576	-3,07
346,787	-44,03
346,997	37,89
347,208	5,12
347,419	-121,85
347,629	48,13
347,84	82,94
348,051	-27,65
348,261	23,55
348,472	-19,46
348,683	27,65
348,893	-29,7
349,104	-27,65
349,315	-35,84
349,525	23,55
349,736	29,7
349,946	46,08
350,157	123,9
350,368	123,9
350,578	17,41
350,789	46,08
350,999	21,5
351,21	48,13
351,42	-123,9
351,631	9,22
351,841	-50,18
352,052	54,27
352,262	136,19
352,472	23,55
352,683	17,41
352,893	82,94
353,104	-3,07
353,314	97,28
353,525	463,86
353,735	5,12
353,945	56,32
354,156	-25,6
354,366	29,7
354,576	121,85
354,787	68,61
354,997	-19,46
355,207	31,74
355,418	21,5
355,628	39,94
355,838	41,98
356,048	111,61
356,259	97,28
356,469	125,95
356,679	103,42
356,889	193,53
357,1	66,56
357,31	103,42
357,52	136,19
357,73	119,81
357,94	84,99
358,15	7,17
358,361	54,27
358,571	52,22
358,781	23,55
358,991	-84,99
359,201	-1,02
359,411	-15,36
359,621	39,94
359,831	99,33
360,041	5,12
360,251	-39,94
360,461	62,46
360,672	-37,89
360,882	-15,36
361,092	-1,02
361,302	-3,07
361,512	54,27
361,721	-21,5
361,931	-44,03
362,141	101,37
362,351	-48,13
362,561	58,37
362,771	-1,02
362,981	134,14
363,191	-41,98
363,401	13,31
363,611	21,5
363,821	3,07
364,03	-64,51
364,24	50,18
364,45	66,56
364,66	254,97
364,87	39,94
365,08	48,13
365,289	-39,94
365,499	-7,17
365,709	37,89
365,919	19,46
366,128	1,02
366,338	74,75
366,548	-11,26
366,758	-11,26
366,967	29,7
367,177	111,61
367,387	33,79
367,596	54,27
367,806	37,89
368,016	87,04
368,225	154,62
368,435	103,42
368,644	17,41
368,854	-76,8
369,064	111,61
369,273	89,09
369,483	48,13
369,692	13,31
369,902	33,79
370,111	121,85
370,321	7,17
370,53	46,08
370,74	35,84
370,949	27,65
371,159	119,81
371,368	121,85
371,578	33,79
371,787	74,75
371,997	13,31
372,206	117,76
372,416	66,56
372,625	87,04
372,834	80,89
373,044	-1,02
373,253	95,23
373,462	166,91
373,672	5,12
373,881	99,33
374,09	7,17
374,3	62,46
374,509	62,46
374,718	13,31
374,928	193,53
375,137	130,05
375,346	113,66
375,555	181,25
375,765	130,05
375,974	173,05
376,183	29,7
376,392	3,07
376,601	70,65
376,811	29,7
377,02	148,48
377,229	70,65
377,438	107,52
377,647	54,27
377,856	41,98
378,065	29,7
378,275	70,65
378,484	58,37
378,693	107,52
378,902	93,18
379,111	66,56
379,32	87,04
379,529	115,71
379,738	52,22
379,947	168,96
380,156	168,96
380,365	117,76
380,574	214,01
380,783	56,32
380,992	62,46
381,201	-78,85
381,41	-64,51
381,619	15,36
381,828	13,31
382,037	-33,79
382,245	109,57
382,454	97,28
382,663	44,03
382,872	13,31
383,081	-17,41
383,29	138,24
383,499	23,55
383,707	132,09
383,916	107,52
384,125	66,56
384,334	113,66
384,542	168,96
384,751	91,13
384,96	15,36
385,169	-7,17
385,377	-60,42
385,586	50,18
385,795	111,61
386,004	138,24
386,212	39,94
386,421	15,36
386,63	48,13
386,838	82,94
387,047	54,27
387,255	25,6
387,464	84,99
387,673	29,7
387,881	89,09
388,09	130,05
388,298	173,05
388,507	99,33
388,715	173,05
388,924	152,57
389,133	1,02
389,341	70,65
389,55	46,08
389,758	46,08
389,967	21,5
390,175	115,71
390,383	91,13
390,592	121,85
390,8	17,41
391,009	60,42
391,217	87,04
391,426	121,85
391,634	-11,26
391,842	91,13
392,051	50,18
392,259	95,23
392,467	-27,65
392,676	19,46
392,884	9,22
393,092	41,98
393,301	87,04
393,509	31,74
393,717	156,67
393,925	140,29
394,134	103,42
394,342	199,68
394,55	214,01
394,758	154,62
394,967	78,85
395,175	76,8
395,383	21,5
395,591	21,5
395,799	17,41
396,007	13,31
396,216	226,3
396,424	95,23
396,632	74,75
396,84	1,02
397,048	78,85
397,256	72,7
397,464	37,89
397,672	64,51
397,88	15,36
398,088	91,13
398,296	56,32
398,504	70,65
398,712	121,85
398,92	177,15
399,128	89,09
399,336	78,85
399,544	97,28
399,752	107,52
399,96	146,43
400,168	50,18
400,376	48,13
400,584	46,08
400,792	13,31
401	66,56
401,207	-3,07
401,415	54,27
401,623	37,89
401,831	74,75
402,039	140,29
402,247	21,5
402,454	41,98
402,662	89,09
402,87	107,52
403,078	87,04
403,285	136,19
403,493	33,79
403,701	46,08
403,909	5,12
404,116	72,7
404,324	46,08
404,532	29,7
404,739	17,41
404,947	101,37
405,155	74,75
405,362	128
405,57	62,46
405,778	89,09
405,985	89,09
406,193	29,7
406,4	7,17
406,608	9,22
406,816	181,25
407,023	103,42
407,231	48,13
407,438	56,32
407,646	64,51
407,853	95,23
408,061	52,22
408,268	111,61
408,476	58,37
408,683	140,29
408,89	156,67
409,098	187,39
409,305	99,33
409,513	214,01
409,72	101,37
409,927	252,92
410,135	293,88
410,342	144,38
410,55	234,49
410,757	267,26
410,964	177,15
411,172	111,61
411,379	125,95
411,586	66,56
411,793	46,08
412,001	66,56
412,208	128
412,415	87,04
412,622	27,65
412,83	-3,07
413,037	50,18
413,244	37,89
413,451	177,15
413,658	171,01
413,866	60,42
414,073	152,57
414,28	66,56
414,487	-9,22
414,694	41,98
414,901	50,18
415,108	-9,22
415,315	-48,13
415,522	95,23
415,73	29,7
415,937	-44,03
416,144	-33,79
416,351	-3,07
416,558	39,94
416,765	103,42
416,972	5,12
417,179	35,84
417,386	72,7
417,593	87,04
417,8	41,98
418,006	84,99
418,213	37,89
418,42	21,5
418,627	148,48
418,834	5,12
419,041	15,36
419,248	89,09
419,455	138,24
419,661	166,91
419,868	1,02
420,075	130,05
420,282	-3,07
420,489	60,42
420,696	31,74
420,902	152,57
421,109	87,04
421,316	1,02
421,523	54,27
421,729	15,36
421,936	29,7
422,143	109,57
422,349	-23,55
422,556	-91,13
422,763	103,42
422,969	13,31
423,176	27,65
423,383	76,8
423,589	324,6
423,796	5,12
424,002	-31,74
424,209	-21,5
424,416	46,08
424,622	-17,41
424,829	-44,03
425,035	-52,22
425,242	91,13
425,448	-25,6
425,655	140,29
425,861	-33,79
426,068	93,18
426,274	99,33
426,481	46,08
426,687	136,19
426,894	97,28
427,1	89,09
427,306	5,12
427,513	105,47
427,719	-7,17
427,926	50,18
428,132	66,56
428,338	54,27
428,545	72,7
428,751	19,46
428,957	136,19
429,163	-23,55
429,37	54,27
429,576	17,41
429,782	60,42
429,989	-25,6
430,195	33,79
430,401	39,94
430,607	46,08
430,813	-58,37
431,02	105,47
431,226	29,7
431,432	80,89
431,638	-11,26
431,844	17,41
432,05	1,02
432,257	-7,17
432,463	244,73
432,669	275,45
432,875	250,88
433,081	351,23
433,287	480,25
433,493	545,78
433,699	889,84
433,905	979,95
434,111	967,67
434,317	973,81
434,523	883,7
434,729	930,8
434,935	588,79
435,141	635,89
435,347	359,42
435,553	285,69
435,759	164,86
435,965	181,25
436,171	152,57
436,377	87,04
436,582	185,34
436,788	54,27
436,994	156,67
437,2	37,89
437,406	121,85
437,612	113,66
437,818	160,77
438,023	48,13
438,229	130,05
438,435	78,85
438,641	13,31
438,846	13,31
439,052	62,46
439,258	29,7
439,464	21,5
439,669	119,81
439,875	177,15
440,081	3,07
440,286	1,02
440,492	-19,46
440,698	-29,7
440,903	99,33
441,109	160,77
441,314	-123,9
441,52	31,74
441,726	119,81
441,931	25,6
442,137	136,19
442,342	27,65
442,548	48,13
442,753	87,04
442,959	-17,41
443,164	29,7
443,37	29,7
443,575	27,65
443,781	46,08
443,986	78,85
444,192	-33,79
444,397	-1,02
444,602	-11,26
444,808	41,98
445,013	-23,55
445,219	-25,6
445,424	-3,07
445,629	5,12
445,835	103,42
446,04	95,23
446,245	-19,46
446,451	-56,32
446,656	27,65
446,861	-5,12
447,066	103,42
447,272	78,85
447,477	80,89
447,682	13,31
447,887	33,79
448,093	101,37
448,298	111,61
448,503	46,08
448,708	-3,07
448,913	-35,84
449,118	23,55
449,324	101,37
449,529	121,85
449,734	39,94
449,939	29,7
450,144	37,89
450,349	48,13
450,554	23,55
450,759	46,08
450,964	25,6
451,169	-3,07
451,374	-31,74
451,579	146,43
451,784	-1,02
451,989	62,46
452,194	39,94
452,399	15,36
452,604	13,31
452,809	-11,26
453,014	-21,5
453,219	56,32
453,424	72,7
453,629	-5,12
453,833	-78,85
454,038	33,79
454,243	21,5
454,448	97,28
454,653	136,19
454,858	-33,79
455,062	-21,5
455,267	17,41
455,472	87,04
455,677	7,17
455,882	56,32
456,086	128
456,291	-23,55
456,496	-84,99
456,7	105,47
456,905	107,52
457,11	31,74
457,314	-27,65
457,519	17,41
457,724	95,23
457,928	13,31
458,133	-27,65
458,338	33,79
458,542	-23,55
458,747	-19,46
458,951	48,13
459,156	87,04
459,36	-89,09
459,565	97,28
459,769	23,55
459,974	87,04
460,178	-27,65
460,383	-74,75
460,587	-29,7
460,792	97,28
460,996	-58,37
461,201	95,23
461,405	-60,42
461,61	78,85
461,814	78,85
462,018	-3,07
462,223	-9,22
462,427	-27,65
462,631	89,09
462,836	41,98
463,04	48,13
463,244	136,19
463,449	-3,07
463,653	97,28
463,857	-52,22
464,062	89,09
464,266	-19,46
464,47	29,7
464,674	-23,55
464,878	136,19
465,083	-11,26
465,287	130,05
465,491	-44,03
465,695	21,5
465,899	50,18
466,104	119,81
466,308	78,85
466,512	5,12
466,716	89,09
466,92	5,12
467,124	119,81
467,328	15,36
467,532	72,7
467,736	62,46
467,94	97,28
468,144	58,37
468,348	-11,26
468,552	70,65
468,756	-31,74
468,96	5,12
469,164	-11,26
469,368	-17,41
469,572	29,7
469,776	82,94
469,98	-3,07
470,184	-11,26
470,388	39,94
470,591	72,7
470,795	54,27
470,999	41,98
471,203	21,5
471,407	1,02
471,611	50,18
471,814	62,46
472,018	-11,26
472,222	95,23
472,426	58,37
472,63	62,46
472,833	171,01
473,037	103,42
473,241	48,13
473,444	50,18
473,648	490,49
473,852	21,5
474,055	-1,02
474,259	21,5
474,463	39,94
474,666	50,18
474,87	21,5
475,074	97,28
475,277	72,7
475,481	87,04
475,684	5,12
475,888	-52,22
476,091	-31,74
476,295	-27,65
476,498	-72,7
476,702	56,32
476,905	91,13
477,109	89,09
477,312	33,79
477,516	-97,28
477,719	52,22
477,923	-3,07
478,126	-11,26
478,329	87,04
478,533	7,17
478,736	87,04
478,94	48,13
479,143	62,46
479,346	39,94
479,55	160,77
479,753	3,07
479,956	-76,8
480,159	-19,46
480,363	46,08
480,566	41,98
480,769	62,46
480,972	29,7
481,176	-54,27
481,379	121,85
481,582	119,81
481,785	-11,26
481,988	97,28
482,192	54,27
482,395	64,51
482,598	80,89
482,801	1,02
483,004	152,57
483,207	95,23
483,41	99,33
483,613	121,85
483,817	121,85
484,02	33,79
484,223	218,11
484,426	738,29
484,629	1176,56
484,832	1985,51
485,035	2698,2
485,238	3687,37
485,441	4764,6
485,644	6288,29
485,846	7642
486,049	9057,14
486,252	10212,2
486,455	10433,38
486,658	9925,48
486,861	8649,6
487,064	7349,14
487,267	5454,76
487,47	4051,91
487,672	2921,43
487,875	1866,72
488,078	1235,95
488,281	891,89
488,484	408,57
488,686	312,32
488,889	78,85
489,092	87,04
489,295	29,7
489,497	107,52
489,7	78,85
489,903	66,56
490,105	13,31
490,308	-27,65
490,511	5,12
490,713	-17,41
490,916	29,7
491,118	56,32
491,321	56,32
491,524	-3,07
491,726	-3,07
491,929	-91,13
492,131	39,94
492,334	21,5
492,536	39,94
492,739	70,65
492,941	62,46
493,144	35,84
493,346	21,5
493,549	70,65
493,751	70,65
493,954	-11,26
494,156	29,7
494,359	80,89
494,561	-99,33
494,763	31,74
494,966	29,7
495,168	138,24
495,37	-41,98
495,573	-35,84
495,775	29,7
495,977	31,74
496,18	62,46
496,382	191,49
496,584	19,46
496,787	130,05
496,989	-25,6
497,191	46,08
497,393	54,27
497,595	23,55
497,798	31,74
498	31,74
498,202	-66,56
498,404	7,17
498,606	7,17
498,808	101,37
499,011	41,98
499,213	95,23
499,415	13,31
499,617	70,65
499,819	84,99
500,021	121,85
500,223	17,41
500,425	23,55
500,627	15,36
500,829	-3,07
501,031	37,89
501,233	-25,6
501,435	91,13
501,637	29,7
501,839	95,23
502,041	37,89
502,243	105,47
502,445	-50,18
502,647	87,04
502,848	15,36
503,05	-11,26
503,252	66,56
503,454	46,08
503,656	60,42
503,858	29,7
504,059	46,08
504,261	-7,17
504,463	136,19
504,665	78,85
504,867	-11,26
505,068	17,41
505,27	-39,94
505,472	46,08
505,673	31,74
505,875	-7,17
506,077	1,02
506,278	-33,79
506,48	13,31
506,682	39,94
506,883	48,13
507,085	-3,07
507,287	64,51
507,488	37,89
507,69	95,23
507,891	-50,18
508,093	242,68
508,294	-52,22
508,496	25,6
508,697	52,22
508,899	23,55
509,1	29,7
509,302	-17,41
509,503	1,02
509,705	62,46
509,906	62,46
510,108	-44,03
510,309	37,89
510,51	66,56
510,712	15,36
510,913	-9,22
511,114	-19,46
511,316	-13,31
511,517	105,47
511,718	33,79
511,92	-56,32
512,121	29,7
512,322	80,89
512,524	74,75
512,725	50,18
512,926	35,84
513,127	11,26
513,329	13,31
513,53	87,04
513,731	-19,46
513,932	64,51
514,133	-27,65
514,334	1,02
514,536	37,89
514,737	89,09
514,938	-25,6
515,139	17,41
515,34	-27,65
515,541	119,81
515,742	54,27
515,943	48,13
516,144	50,18
516,345	93,18
516,546	15,36
516,747	87,04
516,948	13,31
517,149	-15,36
517,35	13,31
517,551	-52,22
517,752	58,37
517,953	99,33
518,154	68,61
518,355	130,05
518,556	58,37
518,756	70,65
518,957	103,42
519,158	146,43
519,359	78,85
519,56	13,31
519,761	68,61
519,961	105,47
520,162	185,34
520,363	-11,26
520,564	5,12
520,764	179,2
520,965	5,12
521,166	109,57
521,366	-23,55
521,567	68,61
521,768	46,08
521,968	-17,41
522,169	-66,56
522,37	64,51
522,57	37,89
522,771	15,36
522,972	-52,22
523,172	103,42
523,373	39,94
523,573	1,02
523,774	72,7
523,974	62,46
524,175	48,13
524,375	21,5
524,576	-27,65
524,776	33,79
524,977	-64,51
525,177	95,23
525,378	-9,22
525,578	56,32
525,778	31,74
525,979	66,56
526,179	105,47
526,38	56,32
526,58	-27,65
526,78	70,65
526,981	130,05
527,181	78,85
527,381	37,89
527,582	1,02
527,782	95,23
527,982	74,75
528,182	-33,79
528,383	52,22
528,583	91,13
528,783	103,42
528,983	87,04
529,183	-31,74
529,384	5,12
529,584	66,56
529,784	140,29
529,984	158,72
530,184	3,07
530,384	-27,65
530,584	11,26
530,784	56,32
530,984	21,5
531,185	78,85
531,385	72,7
531,585	66,56
531,785	13,31
531,985	-25,6
532,185	-19,46
532,385	87,04
532,585	128
532,785	89,09
532,984	103,42
533,184	78,85
533,384	-50,18
533,584	33,79
533,784	95,23
533,984	35,84
534,184	-25,6
534,384	33,79
534,583	87,04
534,783	-33,79
534,983	46,08
535,183	-35,84
535,383	-33,79
535,582	62,46
535,782	-17,41
535,982	97,28
536,182	5,12
536,381	39,94
536,581	-35,84
536,781	52,22
536,98	62,46
537,18	29,7
537,38	91,13
537,579	39,94
537,779	15,36
537,979	82,94
538,178	-25,6
538,378	136,19
538,577	70,65
538,777	-76,8
538,976	56,32
539,176	76,8
539,376	50,18
539,575	5,12
539,774	46,08
539,974	-52,22
540,173	37,89
540,373	62,46
540,572	-9,22
540,772	80,89
540,971	-58,37
541,171	13,31
541,37	21,5
541,569	17,41
541,769	13,31
541,968	-91,13
542,167	39,94
542,367	128
542,566	-19,46
542,765	152,57
542,965	99,33
543,164	13,31
543,363	-27,65
543,562	-35,84
543,761	-1,02
543,961	60,42
544,16	-58,37
544,359	87,04
544,558	128
544,757	-11,26
544,957	136,19
545,156	72,7
545,355	13,31
545,554	5,12
545,753	-33,79
545,952	-58,37
546,151	15,36
546,35	58,37
546,549	105,47
546,748	70,65
546,947	-35,84
547,146	-11,26
547,345	23,55
547,544	-31,74
547,743	-99,33
547,942	-9,22
548,141	17,41
548,34	62,46
548,539	5,12
548,738	-29,7
548,937	48,13
549,135	37,89
549,334	-1,02
549,533	72,7
549,732	78,85
549,931	130,05
550,13	5,12
550,328	29,7
550,527	-9,22
550,726	54,27
550,925	-44,03
551,123	62,46
551,322	13,31
551,521	87,04
551,72	37,89
551,918	-1,02
552,117	130,05
552,315	5,12
552,514	58,37
552,713	-64,51
552,911	5,12
553,11	46,08
553,309	-19,46
553,507	21,5
553,706	29,7
553,904	-15,36
554,103	-46,08
554,301	39,94
554,5	23,55
554,698	46,08
554,897	1,02
555,095	62,46
555,294	-35,84
555,492	-23,55
555,69	50,18
555,889	-31,74
556,087	87,04
556,286	111,61
556,484	31,74
556,682	21,5
556,881	29,7
557,079	97,28
557,277	-74,75
557,476	-19,46
557,674	29,7
557,872	31,74
558,07	70,65
558,269	1,02
558,467	58,37
558,665	130,05
558,863	58,37
559,062	-7,17
559,26	-11,26
559,458	-82,94
559,656	70,65
559,854	37,89
560,052	27,65
560,25	146,43
560,449	359,42
560,647	80,89
560,845	-9,22
561,043	113,66
561,241	160,77
561,439	87,04
561,637	29,7
561,835	78,85
562,033	111,61
562,231	-27,65
562,429	29,7
562,627	37,89
562,825	-35,84
563,023	46,08
563,221	-52,22
563,418	68,61
563,616	39,94
563,814	119,81
564,012	46,08
564,21	5,12
564,408	41,98
564,605	41,98
564,803	87,04
565,001	359,42
565,199	-23,55
565,397	50,18
565,594	48,13
565,792	121,85
565,99	-13,31
566,188	72,7
566,385	54,27
566,583	-33,79
566,781	19,46
566,978	-41,98
567,176	9,22
567,373	54,27
567,571	78,85
567,769	-76,8
567,966	-74,75
568,164	5,12
568,361	1,02
568,559	-3,07
568,756	-66,56
568,954	87,04
569,151	37,89
569,349	111,61
569,546	7,17
569,744	87,04
569,941	5,12
570,139	-5,12
570,336	89,09
570,534	95,23
570,731	13,31
570,928	-21,5
571,126	91,13
571,323	89,09
571,52	-35,84
571,718	-9,22
571,915	60,42
572,112	7,17
572,31	72,7
572,507	136,19
572,704	-68,61
572,901	-7,17
573,099	48,13
573,296	87,04
573,493	64,51
573,69	-31,74
573,887	29,7
574,085	134,14
574,282	23,55
574,479	-7,17
574,676	17,41
574,873	107,52
575,07	37,89
575,267	5,12
575,464	56,32
575,661	91,13
575,858	-48,13
576,055	50,18
576,252	60,42
576,449	29,7
576,646	13,31
576,843	13,31
577,04	39,94
577,237	93,18
577,434	60,42
577,631	13,31
577,828	91,13
578,025	-15,36
578,222	111,61
578,419	89,09
578,615	87,04
578,812	87,04
579,009	5,12
579,206	29,7
579,403	-3,07
579,599	95,23
579,796	41,98
579,993	113,66
580,19	-39,94
580,386	109,57
580,583	48,13
580,78	56,32
580,976	54,27
581,173	-7,17
581,37	95,23
581,566	3,07
581,763	-15,36
581,96	78,85
582,156	-9,22
582,353	21,5
582,549	78,85
582,746	52,22
582,942	-1,02
583,139	74,75
583,335	-5,12
583,532	78,85
583,728	50,18
583,925	-3,07
584,121	23,55
584,318	140,29
584,514	-1,02
584,711	111,61
584,907	29,7
585,103	-19,46
585,3	46,08
585,496	41,98
585,693	-17,41
585,889	29,7
586,085	13,31
586,281	50,18
586,478	64,51
586,674	21,5
586,87	113,66
587,067	-29,7
587,263	23,55
587,459	95,23
587,655	-5,12
587,851	46,08
588,048	181,25
588,244	-3,07
588,44	128
588,636	29,7
588,832	87,04
589,028	205,82
589,224	33,79
589,42	-19,46
589,617	21,5
589,813	97,28
590,009	54,27
590,205	66,56
590,401	-3,07
590,597	-11,26
590,793	87,04
590,989	-3,07
591,185	-5,12
591,38	19,46
591,576	78,85
591,772	-15,36
591,968	103,42
592,164	74,75
592,36	-41,98
592,556	-11,26
592,752	203,77
592,948	1,02
593,143	48,13
593,339	5,12
593,535	-41,98
593,731	-3,07
593,926	128
594,122	72,7
594,318	58,37
594,514	99,33
594,709	-52,22
594,905	9,22
595,101	72,7
595,296	-23,55
595,492	31,74
595,688	5,12
595,883	72,7
596,079	41,98
596,275	-15,36
596,47	13,31
596,666	-41,98
596,861	27,65
597,057	-9,22
597,252	9,22
597,448	46,08
597,643	62,46
597,839	97,28
598,034	31,74
598,23	1,02
598,425	103,42
598,621	56,32
598,816	-33,79
599,011	-27,65
599,207	-11,26
599,402	37,89
599,597	107,52
599,793	37,89
599,988	13,31
600,183	-23,55
600,379	111,61
600,574	103,42
600,769	119,81
600,965	37,89
601,16	-31,74
601,355	29,7
601,55	13,31
601,745	21,5
601,941	142,33
602,136	37,89
602,331	66,56
602,526	33,79
602,721	56,32
602,916	1,02
603,111	29,7
603,307	31,74
603,502	21,5
603,697	78,85
603,892	29,7
604,087	93,18
604,282	199,68
604,477	97,28
604,672	74,75
604,867	46,08
605,062	46,08
605,257	95,23
605,452	152,57
605,646	105,47
605,841	-13,31
606,036	95,23
606,231	13,31
606,426	70,65
606,621	-19,46
606,816	5,12
607,01	95,23
607,205	-1,02
607,4	87,04
607,595	97,28
607,79	48,13
607,984	33,79
608,179	13,31
608,374	-11,26
608,569	5,12
608,763	-44,03
608,958	21,5
609,153	13,31
609,347	78,85
609,542	48,13
609,736	119,81
609,931	-17,41
610,126	-82,94
610,32	27,65
610,515	-74,75
610,709	267,26
610,904	33,79
611,098	-9,22
611,293	-58,37
611,487	-11,26
611,682	-29,7
611,876	-52,22
612,071	-1,02
612,265	-9,22
612,46	5,12
612,654	97,28
612,848	-1,02
613,043	23,55
613,237	-11,26
613,432	15,36
613,626	-19,46
613,82	-52,22
614,014	115,71
614,209	89,09
614,403	9,22
614,597	103,42
614,792	142,33
614,986	152,57
615,18	193,53
615,374	250,88
615,568	236,54
615,763	234,49
615,957	234,49
616,151	295,93
616,345	259,07
616,539	162,81
616,733	205,82
616,927	197,63
617,121	146,43
617,316	156,67
617,51	132,09
617,704	82,94
617,898	128
618,092	33,79
618,286	23,55
618,48	-52,22
618,674	54,27
618,868	103,42
619,061	-39,94
619,255	97,28
619,449	-9,22
619,643	-99,33
619,837	195,58
620,031	17,41
620,225	146,43
620,419	-66,56
620,612	105,47
620,806	29,7
621	46,08
621,194	54,27
621,388	-35,84
621,581	-7,17
621,775	31,74
621,969	17,41
622,162	-27,65
622,356	119,81
622,55	146,43
622,743	13,31
622,937	-41,98
623,131	7,17
623,324	97,28
623,518	7,17
623,712	-64,51
623,905	-31,74
624,099	125,95
624,292	50,18
624,486	46,08
624,679	44,03
624,873	-35,84
625,066	56,32
625,26	72,7
625,453	-80,89
625,647	-41,98
625,84	-11,26
626,034	95,23
626,227	56,32
626,42	70,65
626,614	87,04
626,807	64,51
627	29,7
627,194	31,74
627,387	60,42
627,58	-74,75
627,774	-76,8
627,967	121,85
628,16	72,7
628,353	64,51
628,547	154,62
628,74	152,57
628,933	3,07
629,126	117,76
629,319	37,89
629,513	-3,07
629,706	35,84
629,899	78,85
630,092	-33,79
630,285	-84,99
630,478	-25,6
630,671	5,12
630,864	136,19
631,057	-27,65
631,25	148,48
631,443	35,84
631,636	1,02
631,829	97,28
632,022	37,89
632,215	74,75
632,408	62,46
632,601	148,48
632,794	62,46
632,987	-25,6
633,18	50,18
633,373	37,89
633,566	5,12
633,758	-19,46
633,951	103,42
634,144	58,37
634,337	31,74
634,53	52,22
634,722	113,66
634,915	-21,5
635,108	-19,46
635,301	27,65
635,493	111,61
635,686	195,58
635,879	-9,22
636,071	-60,42
636,264	111,61
636,457	130,05
636,649	68,61
636,842	-3,07
637,034	119,81
637,227	-41,98
637,42	9,22
637,612	103,42
637,805	-3,07
637,997	105,47
638,19	72,7
638,382	-35,84
638,575	-93,18
638,767	50,18
638,96	82,94
639,152	97,28
639,344	146,43
639,537	33,79
639,729	5,12
639,922	37,89
640,114	66,56
640,306	7,17
640,499	41,98
640,691	5,12
640,883	46,08
641,075	76,8
641,268	56,32
641,46	11,26
641,652	9,22
641,844	-19,46
642,037	-11,26
642,229	13,31
642,421	21,5
642,613	103,42
642,805	91,13
642,998	58,37
643,19	72,7
643,382	89,09
643,574	179,2
643,766	3,07
643,958	46,08
644,15	58,37
644,342	177,15
644,534	101,37
644,726	50,18
644,918	123,9
645,11	-39,94
645,302	115,71
645,494	132,09
645,686	72,7
645,878	39,94
646,07	89,09
646,262	115,71
646,453	39,94
646,645	48,13
646,837	107,52
647,029	21,5
647,221	89,09
647,413	113,66
647,604	138,24
647,796	130,05
647,988	105,47
648,18	56,32
648,371	58,37
648,563	-44,03
648,755	23,55
648,947	56,32
649,138	-17,41
649,33	70,65
649,521	-11,26
649,713	41,98
649,905	58,37
650,096	113,66
650,288	56,32
650,479	33,79
650,671	168,96
650,863	5,12
651,054	27,65
651,246	201,72
651,437	111,61
651,629	244,73
651,82	160,77
652,011	189,44
652,203	228,35
652,394	209,92
652,586	138,24
652,777	74,75
652,968	140,29
653,16	136,19
653,351	250,88
653,542	177,15
653,734	185,34
653,925	203,77
654,116	242,68
654,308	340,99
654,499	490,49
654,69	1471,47
654,881	4666,3
655,073	9886,57
655,264	16997,12
655,455	25762,42
655,646	36020,7
655,837	46991,67
656,028	55511,22
656,219	62005,33
656,411	64188,46
656,602	64188,46
656,793	64188,46
656,984	63832,11
657,175	57755,79
657,366	51972,33
657,557	44499,29
657,748	37773,76
657,939	32756,24
658,13	27523,68
658,321	23151,26
658,512	17726,19
658,703	12817,21
658,894	8108,93
659,084	5200,82
659,275	3337,17
659,466	2208,73
659,657	1496,04
659,848	1057,78
660,039	865,27
660,23	496,63
660,42	355,32
660,611	373,75
660,802	285,69
660,993	318,46
661,183	234,49
661,374	199,68
661,565	283,64
661,755	269,31
661,946	66,56
662,137	132,09
662,327	177,15
662,518	64,51
662,709	111,61
662,899	41,98
663,09	62,46
663,28	21,5
663,471	-15,36
663,662	132,09
663,852	95,23
664,043	-3,07
664,233	-15,36
664,424	13,31
664,614	46,08
664,804	46,08
664,995	183,29
665,185	107,52
665,376	-25,6
665,566	31,74
665,756	-19,46
665,947	41,98
666,137	70,65
666,328	132,09
666,518	7,17
666,708	41,98
666,898	-31,74
667,089	189,44
667,279	103,42
667,469	70,65
667,659	-3,07
667,85	199,68
668,04	46,08
668,23	-35,84
668,42	29,7
668,61	-19,46
668,8	58,37
668,991	54,27
669,181	187,39
669,371	89,09
669,561	56,32
669,751	105,47
669,941	-9,22
670,131	44,03
670,321	87,04
670,511	31,74
670,701	9,22
670,891	72,7
671,081	7,17
671,271	-1,02
671,461	29,7
671,651	103,42
671,841	13,31
672,03	60,42
672,22	-74,75
672,41	95,23
672,6	58,37
672,79	29,7
672,98	-1,02
673,169	70,65
673,359	-3,07
673,549	87,04
673,739	11,26
673,928	50,18
674,118	54,27
674,308	23,55
674,497	29,7
674,687	-50,18
674,877	29,7
675,066	-19,46
675,256	-5,12
675,446	-23,55
675,635	7,17
675,825	-9,22
676,014	54,27
676,204	-3,07
676,393	39,94
676,583	-23,55
676,772	44,03
676,962	-48,13
677,151	33,79
677,341	-25,6
677,53	29,7
677,72	48,13
677,909	78,85
678,099	-44,03
678,288	-1,02
678,477	-11,26
678,667	78,85
678,856	84,99
679,045	56,32
679,235	58,37
679,424	68,61
679,613	130,05
679,802	9,22
679,992	41,98
680,181	-27,65
680,37	123,9
680,559	7,17
680,748	29,7
680,938	48,13
681,127	21,5
681,316	35,84
681,505	70,65
681,694	-93,18
681,883	78,85
682,072	-74,75
682,261	91,13
682,45	-89,09
682,639	-74,75
682,828	-11,26
683,017	-39,94
683,206	-29,7
683,395	-15,36
683,584	74,75
683,773	113,66
683,962	74,75
684,151	-39,94
684,34	50,18
684,529	21,5
684,718	29,7
684,907	-1,02
685,095	105,47
685,284	44,03
685,473	37,89
685,662	-3,07
685,851	119,81
686,039	-31,74
686,228	21,5
686,417	-109,57
686,606	136,19
686,794	5,12
686,983	-121,85
687,172	64,51
687,36	46,08
687,549	-119,81
687,738	-15,36
687,926	-58,37
688,115	15,36
688,303	-35,84
688,492	29,7
688,68	-66,56
688,869	-80,89
689,057	13,31
689,246	-76,8
689,434	-5,12
689,623	-11,26
689,811	13,31
690	-21,5
690,188	-64,51
690,377	54,27
690,565	48,13
690,753	99,33
690,942	62,46
691,13	78,85
691,318	-1,02
691,507	-25,6
691,695	119,81
691,883	41,98
692,072	-60,42
692,26	52,22
692,448	62,46
692,636	-33,79
692,824	-101,37
693,013	41,98
693,201	31,74
693,389	-60,42
693,577	-41,98
693,765	54,27
693,953	37,89
694,141	-52,22
694,329	-44,03
694,518	21,5
694,706	29,7
694,894	13,31
695,082	-48,13
695,27	29,7
695,458	13,31
695,646	54,27
695,834	191,49
696,022	-48,13
696,209	-17,41
696,397	-3,07
696,585	25,6
696,773	25,6
696,961	89,09
697,149	5,12
697,337	25,6
697,525	27,65
697,712	9,22
697,9	29,7
698,088	41,98
698,276	111,61
698,463	21,5
698,651	-25,6
698,839	-52,22
699,027	7,17
699,214	58,37
699,402	1,02
699,59	21,5
699,777	-56,32
699,965	13,31
700,152	5,12
700,34	1,02
700,528	27,65
700,715	-7,17
700,903	72,7
701,09	89,09
701,278	56,32
701,465	52,22
701,653	-19,46
701,84	-7,17
702,028	87,04
702,215	70,65
702,402	-19,46
702,59	54,27
702,777	17,41
702,965	1,02
703,152	15,36
703,339	-13,31
703,527	13,31
703,714	-3,07
703,901	46,08
704,088	52,22
704,276	-25,6
704,463	9,22
704,65	-11,26
704,837	11,26
705,025	62,46
705,212	-62,46
705,399	13,31
705,586	-84,99
705,773	64,51
705,96	-56,32
706,147	-58,37
706,335	-56,32
706,522	46,08
706,709	-31,74
706,896	-17,41
707,083	46,08
707,27	5,12
707,457	105,47
707,644	37,89
707,831	13,31
708,018	-35,84
708,205	-5,12
708,392	-37,89
708,578	152,57
708,765	-50,18
708,952	-72,7
709,139	62,46
709,326	-1,02
709,513	25,6
709,7	91,13
709,886	87,04
710,073	80,89
710,26	93,18
710,447	-1,02
710,633	-27,65
710,82	-52,22
711,007	54,27
711,193	-37,89
711,38	33,79
711,567	64,51
711,753	-19,46
711,94	93,18
712,127	31,74
712,313	-11,26
712,5	54,27
712,686	-11,26
712,873	37,89
713,059	5,12
713,246	33,79
713,432	46,08
713,619	-84,99
713,805	-5,12
713,992	132,09
714,178	-74,75
714,365	95,23
714,551	128
714,737	31,74
714,924	-9,22
715,11	74,75
715,297	23,55
715,483	-58,37
715,669	-27,65
715,855	56,32
716,042	31,74
716,228	-9,22
716,414	87,04
716,6	7,17
716,787	113,66
716,973	66,56
717,159	31,74
717,345	33,79
717,531	-15,36
717,718	-3,07
717,904	39,94
718,09	-46,08
718,276	21,5
718,462	-93,18
718,648	23,55
718,834	-9,22
719,02	31,74
719,206	5,12
719,392	-41,98
719,578	13,31
719,764	-27,65
719,95	-115,71
720,136	115,71
720,322	7,17
720,508	-1,02
720,694	-31,74
720,879	1,02
721,065	87,04
721,251	15,36
721,437	17,41
721,623	89,09
721,809	7,17
721,994	91,13
722,18	-48,13
722,366	-72,7
722,552	-1,02
722,737	-17,41
722,923	70,65
723,109	99,33
723,294	-15,36
723,48	50,18
723,666	25,6
723,851	11,26
724,037	82,94
724,222	80,89
724,408	62,46
724,593	107,52
724,779	9,22
724,965	11,26
725,15	80,89
725,336	140,29
725,521	66,56
725,706	46,08
725,892	-19,46
726,077	-27,65
726,263	27,65
726,448	87,04
726,634	-1,02
726,819	46,08
727,004	78,85
727,19	1,02
727,375	80,89
727,56	-3,07
727,745	-41,98
727,931	46,08
728,116	-80,89
728,301	103,42
728,486	39,94
728,672	-66,56
728,857	39,94
729,042	15,36
729,227	-7,17
729,412	-25,6
729,597	-3,07
729,783	-19,46
729,968	13,31
730,153	78,85
730,338	-44,03
730,523	-1,02
730,708	25,6
730,893	-68,61
731,078	-48,13
731,263	87,04
731,448	-3,07
731,633	-82,94
731,818	-60,42
732,003	-66,56
732,187	27,65
732,372	-66,56
732,557	7,17
732,742	-93,18
732,927	-15,36
733,112	130,05
733,297	39,94
733,481	27,65
733,666	-27,65
733,851	21,5
734,036	1,02
734,22	27,65
734,405	162,81
734,59	-19,46
734,774	25,6
734,959	-84,99
735,144	76,8
735,328	19,46
735,513	21,5
735,698	15,36
735,882	103,42
736,067	136,19
736,251	37,89
736,436	54,27
736,62	15,36
736,805	-1,02
736,989	29,7
737,174	-39,94
737,358	-62,46
737,543	97,28
737,727	78,85
737,911	70,65
738,096	-3,07
738,28	-44,03
738,465	39,94
738,649	50,18
738,833	41,98
739,018	-25,6
739,202	-123,9
739,386	-27,65
739,57	-11,26
739,755	93,18
739,939	82,94
740,123	-33,79
740,307	62,46
740,491	37,89
740,676	-3,07
740,86	-13,31
741,044	21,5
741,228	21,5
741,412	-3,07
741,596	-29,7
741,78	-93,18
741,964	19,46
742,148	-60,42
742,332	1,02
742,516	-52,22
742,7	46,08
742,884	21,5
743,068	15,36
743,252	-9,22
743,436	-5,12
743,62	-91,13
743,804	121,85
743,988	152,57
744,172	70,65
744,356	9,22
744,539	-7,17
744,723	-15,36
744,907	-66,56
745,091	-25,6
745,275	-11,26
745,458	-3,07
745,642	-17,41
745,826	37,89
746,009	82,94
746,193	46,08
746,377	27,65
746,56	48,13
746,744	189,44
746,928	-7,17
747,111	103,42
747,295	-5,12
747,478	13,31
747,662	31,74
747,846	113,66
748,029	37,89
748,213	134,14
748,396	27,65
748,58	-11,26
748,763	25,6
748,946	-82,94
749,13	-3,07
749,313	27,65
749,497	128
749,68	19,46
749,863	115,71
750,047	29,7
750,23	29,7
750,413	54,27
750,597	5,12
750,78	76,8
750,963	37,89
751,146	56,32
751,33	29,7
751,513	72,7
751,696	74,75
751,879	15,36
752,062	-84,99
752,246	29,7
752,429	33,79
752,612	78,85
752,795	48,13
752,978	13,31
753,161	21,5
753,344	-35,84
753,527	41,98
753,71	-3,07
753,893	1,02
754,076	-7,17
754,259	74,75
754,442	31,74
754,625	-19,46
754,808	132,09
754,991	58,37
755,174	-76,8
755,357	-58,37
755,539	60,42
755,722	56,32
755,905	27,65
756,088	-44,03
756,271	-1,02
756,453	13,31
756,636	-89,09
756,819	29,7
757,002	-109,57
757,184	99,33
757,367	156,67
757,55	-3,07
757,732	39,94
757,915	-37,89
758,098	-9,22
758,28	31,74
758,463	-15,36
758,645	-1,02
758,828	-3,07
759,011	144,38
759,193	21,5
759,376	54,27
759,558	-48,13
759,741	56,32
759,923	21,5
760,105	7,17
760,288	-1,02
760,47	-19,46
760,653	-19,46
760,835	-41,98
761,017	-29,7
761,2	-39,94
761,382	99,33
761,564	-13,31
761,747	91,13
761,929	66,56
762,111	13,31
762,294	62,46
762,476	193,53
762,658	-1,02
762,84	156,67
763,022	54,27
763,205	76,8
763,387	70,65
763,569	87,04
763,751	-93,18
763,933	-11,26
764,115	-3,07
764,297	-39,94
764,479	99,33
764,661	46,08
764,843	78,85
765,025	56,32
765,207	13,31
765,389	-27,65
765,571	-80,89
765,753	13,31
765,935	37,89
766,117	7,17
766,299	138,24
766,481	117,76
766,663	-41,98
766,845	-25,6
767,026	29,7
767,208	-17,41
767,39	-29,7
767,572	13,31
767,753	144,38
767,935	-7,17
768,117	25,6
768,299	78,85
768,48	54,27
768,662	130,05
768,844	-60,42
769,025	52,22
769,207	-52,22
769,389	31,74
769,57	105,47
769,752	84,99
769,933	33,79
770,115	105,47
770,296	29,7
770,478	70,65
770,659	-27,65
770,841	209,92
771,022	29,7
771,204	54,27
771,385	37,89
771,567	74,75
771,748	56,32
771,929	-7,17
772,111	39,94
772,292	115,71
772,473	-44,03
772,655	-48,13
772,836	52,22
773,017	95,23
773,199	13,31
773,38	37,89
773,561	78,85
773,742	37,89
773,923	-58,37
774,105	58,37
774,286	99,33
774,467	-39,94
774,648	-21,5
774,829	121,85
775,01	-35,84
775,191	-46,08
775,372	23,55
775,553	48,13
775,734	70,65
775,915	119,81
776,096	367,61
776,277	975,86
776,458	1643,49
776,639	2560,98
776,82	3347,4
777,001	4242,37
777,182	4883,38
777,363	5381,04
777,544	5596,07
777,725	5452,72
777,906	4748,22
778,086	4051,91
778,267	3701,7
778,448	2935,76
778,629	2407,39
778,809	1911,78
778,99	1776,61
779,171	1367,02
779,352	1356,78
779,532	1135,6
779,713	1123,31
779,894	941,04
780,074	1094,64
780,255	1053,68
780,435	832,5
780,616	660,47
780,797	451,58
780,977	340,99
781,158	177,15
781,338	168,96
781,519	136,19
781,699	168,96
781,88	68,61
782,06	224,25
782,241	5,12
782,421	-103,42
782,601	-25,6
782,782	115,71
782,962	-23,55
783,142	-113,66
783,323	17,41
783,503	70,65
783,683	48,13
783,864	29,7
784,044	54,27
784,224	93,18
784,404	5,12
784,585	103,42
784,765	-13,31
784,945	132,09
785,125	-9,22
785,305	54,27
785,485	62,46
785,666	78,85
785,846	-1,02
786,026	111,61
786,206	-52,22
786,386	-39,94
786,566	13,31
786,746	21,5
786,926	70,65
787,106	13,31
787,286	7,17
787,466	62,46
787,646	1,02
787,826	103,42
788,006	89,09
788,185	15,36
788,365	-27,65
788,545	132,09
788,725	13,31
788,905	41,98
789,085	41,98
789,264	-7,17
789,444	-52,22
789,624	54,27
789,804	33,79
789,983	66,56
790,163	46,08
790,343	35,84
790,522	25,6
790,702	21,5
790,882	7,17
791,061	58,37
791,241	70,65
791,42	-25,6
791,6	-33,79
791,78	54,27
791,959	-148,48
792,139	-21,5
792,318	-17,41
792,498	68,61
792,677	37,89
792,856	-68,61
793,036	-33,79
793,215	-66,56
793,395	150,53
793,574	46,08
793,753	46,08
793,933	177,15
794,112	117,76
794,291	74,75
794,471	140,29
794,65	25,6
794,829	33,79
795,008	-44,03
795,188	62,46
795,367	132,09
795,546	103,42
795,725	29,7
795,904	-46,08
796,084	95,23
796,263	123,9
796,442	111,61
796,621	23,55
796,8	103,42
796,979	80,89
797,158	-33,79
797,337	27,65
797,516	41,98
797,695	66,56
797,874	39,94
798,053	89,09
798,232	64,51
798,411	23,55
798,59	-1,02
798,769	21,5
798,947	5,12
799,126	9,22
799,305	56,32
799,484	80,89
799,663	21,5
799,842	31,74
800,02	-1,02
800,199	-84,99
800,378	29,7
800,557	-7,17
800,735	-15,36
800,914	27,65
801,093	44,03
801,271	62,46
801,45	19,46
801,628	46,08
801,807	29,7
801,986	-41,98
802,164	46,08
802,343	-48,13
802,521	-101,37
802,7	80,89
802,878	54,27
803,057	31,74
803,235	-19,46
803,414	72,7
803,592	78,85
803,771	48,13
803,949	5,12
804,127	37,89
804,306	3,07
804,484	-23,55
804,662	95,23
804,841	-84,99
805,019	37,89
805,197	7,17
805,375	-68,61
805,554	17,41
805,732	13,31
805,91	33,79
806,088	29,7
806,266	-11,26
806,445	1,02
806,623	17,41
806,801	41,98
806,979	17,41
807,157	62,46
807,335	-64,51
807,513	-60,42
807,691	70,65
807,869	-60,42
808,047	-27,65
808,225	27,65
808,403	-15,36
808,581	21,5
808,759	162,81
808,937	-3,07
809,115	101,37
809,293	78,85
809,471	-25,6
809,649	60,42
809,826	46,08
810,004	33,79
810,182	37,89
810,36	-56,32
810,538	-3,07
810,715	7,17
810,893	-1,02
811,071	-3,07
811,248	33,79
811,426	-3,07
811,604	-11,26
811,781	46,08
811,959	21,5
812,137	-3,07
812,314	-19,46
812,492	64,51
812,669	7,17
812,847	-54,27
813,024	-52,22
813,202	121,85
813,379	-17,41
813,557	-33,79
813,734	87,04
813,912	37,89
814,089	31,74
814,267	66,56
814,444	-21,5
814,621	-15,36
814,799	-41,98
814,976	82,94
815,153	-15,36
815,331	50,18
815,508	25,6
815,685	-121,85
815,862	46,08
816,04	-66,56
816,217	13,31
816,394	48,13
816,571	-19,46
816,748	70,65
816,926	56,32
817,103	328,7
817,28	9,22
817,457	-39,94
817,634	166,91
817,811	15,36
817,988	-11,26
818,165	21,5
818,342	-31,74
818,519	130,05
818,696	50,18
818,873	5,12
819,05	95,23
819,227	9,22
819,404	87,04
819,581	62,46
819,758	5,12
819,934	33,79
820,111	-17,41
820,288	-54,27
820,465	37,89
820,642	-9,22
820,818	39,94
820,995	-44,03
821,172	29,7
821,349	48,13
821,525	72,7
821,702	113,66
821,879	-84,99
822,055	15,36
822,232	-33,79
822,409	7,17
822,585	72,7
822,762	138,24
822,938	115,71
823,115	62,46
823,291	-44,03
823,468	50,18
823,644	97,28
823,821	7,17
823,997	-19,46
824,174	-11,26
824,35	48,13
824,527	39,94
824,703	21,5
824,879	-33,79
825,056	-1,02
825,232	78,85
825,408	37,89
825,585	11,26
825,761	5,12
825,937	31,74
826,113	78,85
826,29	105,47
826,466	-52,22
826,642	408,57
826,818	-3,07
826,994	-7,17
827,17	41,98
827,347	-44,03
827,523	3,07
827,699	64,51
827,875	-27,65
828,051	-19,46
828,227	-27,65
828,403	7,17
828,579	95,23
828,755	64,51
828,931	-33,79
829,107	76,8
829,283	91,13
829,459	-11,26
829,635	-33,79
829,811	19,46
829,986	-3,07
830,162	13,31
830,338	9,22
830,514	9,22
830,69	13,31
830,865	11,26
831,041	17,41
831,217	-7,17
831,393	-66,56
831,568	-19,46
831,744	37,89
831,92	17,41
832,095	21,5
832,271	-27,65
832,447	54,27
832,622	111,61
832,798	-17,41
832,973	46,08
833,149	62,46
833,325	41,98
833,5	91,13
833,676	62,46
833,851	56,32
834,027	-97,28
834,202	64,51
834,377	70,65
834,553	-9,22
834,728	105,47
834,904	15,36
835,079	58,37
835,254	1,02
835,43	21,5
835,605	-125,95
835,78	-23,55
835,955	62,46
836,131	-7,17
836,306	27,65
836,481	-9,22
836,656	29,7
836,832	70,65
837,007	-50,18
837,182	-89,09
837,357	23,55
837,532	-5,12
837,707	-44,03
837,882	-39,94
838,057	78,85
838,232	103,42
838,407	3,07
838,582	-1,02
838,757	50,18
838,932	9,22
839,107	-52,22
839,282	-76,8
839,457	50,18
839,632	119,81
839,807	31,74
839,982	-35,84
840,157	29,7
840,332	48,13
840,506	-3,07
840,681	-23,55
840,856	-1,02
841,031	-11,26
841,205	-27,65
841,38	-44,03
841,555	21,5
841,73	-1,02
841,904	-17,41
842,079	-89,09
842,254	62,46
842,428	52,22
842,603	-93,18
842,777	-13,31
842,952	13,31
843,126	13,31
843,301	95,23
843,476	119,81
843,65	465,91
843,825	777,2
843,999	1115,12
844,173	1176,56
844,348	1326,06
844,522	1643,49
844,697	1463,27
844,871	1532,9
845,045	1477,61
845,22	1147,89
845,394	1111,02
845,568	906,23
845,743	918,51
845,917	672,76
846,091	660,47
846,265	652,28
846,44	687,09
846,614	590,84
846,788	529,4
846,962	562,17
847,136	601,08
847,31	431,1
847,485	533,5
847,659	332,79
847,833	463,86
848,007	418,81
848,181	408,57
848,355	252,92
848,529	349,18
848,703	271,36
848,877	41,98
849,051	115,71
849,225	31,74
849,399	23,55
849,573	-44,03
849,746	23,55
849,92	62,46
850,094	119,81
850,268	7,17
850,442	91,13
850,616	-9,22
850,789	-25,6
850,963	-44,03
851,137	-60,42
851,311	107,52
851,484	54,27
851,658	-44,03
851,832	41,98
852,005	-27,65
852,179	-48,13
852,352	-80,89
852,526	1,02
852,7	1,02
852,873	-25,6
853,047	-19,46
853,22	31,74
853,394	72,7
853,567	31,74
853,741	-64,51
853,914	93,18
854,088	17,41
854,261	1,02
854,434	-31,74
854,608	-44,03
854,781	-52,22
854,955	41,98
855,128	39,94
855,301	39,94
855,475	9,22
855,648	-72,7
855,821	-13,31
855,994	74,75
856,168	78,85
856,341	64,51
856,514	-58,37
856,687	29,7
856,86	-1,02
857,033	37,89
857,207	39,94
857,38	-44,03
857,553	123,9
857,726	-44,03
857,899	123,9
858,072	-35,84
858,245	-17,41
858,418	-60,42
858,591	-52,22
858,764	35,84
858,937	78,85
859,11	72,7
859,283	62,46
859,455	-60,42
859,628	9,22
859,801	82,94
859,974	91,13
860,147	-109,57
860,32	7,17
860,492	41,98
860,665	-48,13
860,838	74,75
861,011	60,42
861,183	171,01
861,356	58,37
861,529	15,36
861,701	-41,98
861,874	-27,65
862,047	46,08
862,219	-60,42
862,392	-11,26
862,564	1,02
862,737	-44,03
862,909	58,37
863,082	-11,26
863,254	39,94
863,427	70,65
863,599	119,81
863,772	5,12
863,944	48,13
864,117	62,46
864,289	74,75
864,461	-76,8
864,634	-35,84
864,806	-31,74
864,978	13,31
865,151	-9,22
865,323	64,51
865,495	80,89
865,667	5,12
865,84	95,23
866,012	-76,8
866,184	87,04
866,356	-50,18
866,528	7,17
866,7	-62,46
866,873	-52,22
867,045	-23,55
867,217	-39,94
867,389	91,13
867,561	21,5
867,733	-50,18
867,905	-11,26
868,077	-5,12
868,249	9,22
868,421	13,31
868,593	-19,46
868,765	154,62
868,936	-60,42
869,108	25,6
869,28	62,46
869,452	-80,89
869,624	-76,8
869,796	46,08
869,968	31,74
870,139	168,96
870,311	-3,07
870,483	95,23
870,654	-27,65
870,826	37,89
870,998	-50,18
871,17	7,17
871,341	-13,31
871,513	1,02
871,684	-62,46
871,856	-60,42
872,028	-44,03
872,199	-35,84
872,371	-44,03
872,542	48,13
872,714	-17,41
872,885	111,61
873,057	50,18
873,228	54,27
873,4	62,46
873,571	105,47
873,742	-21,5
873,914	13,31
874,085	-31,74
874,256	46,08
874,428	-44,03
874,599	-21,5
874,77	78,85
874,942	-5,12
875,113	78,85
875,284	-19,46
875,455	-78,85
875,626	31,74
875,798	-31,74
875,969	17,41
876,14	46,08
876,311	70,65
876,482	62,46
876,653	58,37
876,824	5,12
876,995	54,27
877,166	62,46
877,337	50,18
877,508	-11,26
877,679	-39,94
877,85	-9,22
878,021	-101,37
878,192	123,9
878,363	5,12
878,534	-52,22
878,705	-64,51
878,876	-27,65
879,047	-19,46
879,217	-19,46
879,388	-1,02
879,559	-25,6
879,73	41,98
879,9	-31,74
880,071	70,65
880,242	5,12
880,413	-19,46
880,583	-9,22
880,754	23,55
880,924	-23,55
881,095	-11,26
881,266	7,17
881,436	5,12
881,607	119,81
881,777	33,79
881,948	-60,42
882,118	56,32
882,289	-19,46
882,459	-13,31
882,63	87,04
882,8	48,13
882,971	56,32
883,141	31,74
883,311	50,18
883,482	103,42
883,652	-19,46
883,822	-27,65
883,993	-3,07
884,163	107,52
884,333	37,89
884,504	25,6
884,674	72,7
884,844	-41,98
885,014	-25,6
885,184	-11,26
885,355	-76,8
885,525	-52,22
885,695	50,18
885,865	13,31
886,035	41,98
886,205	48,13
886,375	41,98
886,545	13,31
886,715	-68,61
886,885	29,7
887,055	-19,46
887,225	-1,02
887,395	70,65
887,565	41,98
887,735	7,17
887,905	48,13
888,075	41,98
888,244	125,95
888,414	-27,65
888,584	9,22
888,754	-31,74
888,924	37,89
889,093	183,29
889,263	64,51
889,433	-19,46
889,603	54,27
889,772	-11,26
889,942	29,7
890,111	33,79
890,281	29,7
890,451	-27,65
890,62	33,79
890,79	-3,07
890,959	95,23
891,129	78,85
891,298	-9,22
891,468	-27,65
891,637	70,65
891,807	99,33
891,976	15,36
892,146	-29,7
892,315	13,31
892,485	78,85
892,654	-25,6
892,823	-11,26
892,993	-11,26
893,162	31,74
893,331	-3,07
893,501	-9,22
893,67	46,08
893,839	5,12
894,008	50,18
894,177	125,95
894,347	13,31
894,516	78,85
894,685	-3,07
894,854	21,5
895,023	-23,55
895,192	29,7
