Data from h2o_USB4F104161__2__11-48-46-263.txt Node

Date: Tue Apr 14 11:48:46 EDT 2026
User: LaboPhy
Spectrometer: USB4F10416
Trigger mode: 4
Integration Time (sec): 1,000000E-1
Scans to average: 1
Electric dark correction enabled: true
Nonlinearity correction enabled: false
Boxcar width: 0
XAxis mode: Wavelengths
Number of Pixels in Spectrum: 3648
>>>>>Begin Spectral Data<<<<<
177,847	-201,72
178,066	-201,72
178,284	-201,72
178,502	-195,58
178,72	-218,11
178,939	44,03
179,157	46,08
179,375	-9,22
179,593	29,7
179,812	17,41
180,03	48,13
180,248	-41,98
180,466	48,13
180,685	-62,46
180,903	-89,09
181,121	-56,32
181,339	25,6
181,557	21,5
181,775	-5,12
181,994	1,02
182,212	17,41
182,43	-97,28
182,648	-37,89
182,866	56,32
183,084	66,56
183,302	52,22
183,52	-25,6
183,739	-29,7
183,957	60,42
184,175	-31,74
184,393	-70,65
184,611	70,65
184,829	-87,04
185,047	-23,55
185,265	54,27
185,483	13,31
185,701	41,98
185,919	15,36
186,137	27,65
186,355	33,79
186,573	19,46
186,791	95,23
187,009	-56,32
187,227	82,94
187,445	-15,36
187,663	-13,31
187,881	-78,85
188,098	-29,7
188,316	-23,55
188,534	148,48
188,752	-80,89
188,97	11,26
189,188	-64,51
189,406	44,03
189,624	-29,7
189,841	-13,31
190,059	-62,46
190,277	-93,18
190,495	9,22
190,713	87,04
190,931	132,09
191,148	17,41
191,366	-23,55
191,584	-31,74
191,802	74,75
192,019	-7,17
192,237	113,66
192,455	-70,65
192,673	101,37
192,89	-3,07
193,108	-52,22
193,326	-56,32
193,543	48,13
193,761	54,27
193,979	9,22
194,196	58,37
194,414	15,36
194,632	3,07
194,849	-105,47
195,067	-72,7
195,285	21,5
195,502	-103,42
195,72	5,12
195,937	-3,07
196,155	60,42
196,373	-7,17
196,59	-21,5
196,808	29,7
197,025	74,75
197,243	263,16
197,46	29,7
197,678	9,22
197,895	1,02
198,113	-31,74
198,33	-9,22
198,548	13,31
198,765	-52,22
198,983	50,18
199,2	-56,32
199,418	13,31
199,635	19,46
199,853	-48,13
200,07	37,89
200,288	25,6
200,505	-35,84
200,722	142,33
200,94	13,31
201,157	82,94
201,375	93,18
201,592	9,22
201,809	46,08
202,027	52,22
202,244	15,36
202,461	-44,03
202,679	41,98
202,896	25,6
203,113	-31,74
203,331	5,12
203,548	9,22
203,765	1,02
203,982	50,18
204,2	52,22
204,417	9,22
204,634	168,96
204,851	9,22
205,069	39,94
205,286	66,56
205,503	17,41
205,72	29,7
205,937	-23,55
206,155	-72,7
206,372	37,89
206,589	-56,32
206,806	3,07
207,023	-35,84
207,24	31,74
207,458	-119,81
207,675	25,6
207,892	-44,03
208,109	-105,47
208,326	-46,08
208,543	-1,02
208,76	-39,94
208,977	84,99
209,194	46,08
209,411	-78,85
209,628	-72,7
209,845	78,85
210,062	23,55
210,279	-31,74
210,496	-37,89
210,713	-21,5
210,93	-68,61
211,147	111,61
211,364	-15,36
211,581	-41,98
211,798	50,18
212,015	-154,62
212,232	48,13
212,449	13,31
212,666	-31,74
212,883	-44,03
213,1	-48,13
213,317	1,02
213,533	27,65
213,75	-3,07
213,967	66,56
214,184	-54,27
214,401	76,8
214,618	-37,89
214,835	17,41
215,051	95,23
215,268	-9,22
215,485	54,27
215,702	29,7
215,919	-62,46
216,135	166,91
216,352	-7,17
216,569	27,65
216,786	13,31
217,002	11,26
217,219	7,17
217,436	66,56
217,652	-68,61
217,869	9,22
218,086	140,29
218,302	17,41
218,519	99,33
218,736	-60,42
218,952	-70,65
219,169	52,22
219,386	78,85
219,602	25,6
219,819	-3,07
220,036	-80,89
220,252	37,89
220,469	-27,65
220,685	9,22
220,902	11,26
221,118	-35,84
221,335	44,03
221,552	-7,17
221,768	99,33
221,985	25,6
222,201	-39,94
222,418	138,24
222,634	-39,94
222,851	-27,65
223,067	13,31
223,284	-13,31
223,5	5,12
223,716	-23,55
223,933	132,09
224,149	-13,31
224,366	9,22
224,582	-48,13
224,799	-7,17
225,015	-7,17
225,231	35,84
225,448	-80,89
225,664	33,79
225,88	-39,94
226,097	64,51
226,313	-37,89
226,529	66,56
226,746	23,55
226,962	-19,46
227,178	44,03
227,395	-74,75
227,611	11,26
227,827	3,07
228,044	95,23
228,26	7,17
228,476	29,7
228,692	130,05
228,909	52,22
229,125	-37,89
229,341	-87,04
229,557	-72,7
229,773	1,02
229,99	3,07
230,206	-62,46
230,422	33,79
230,638	-39,94
230,854	-7,17
231,07	-123,9
231,286	70,65
231,503	-27,65
231,719	11,26
231,935	-11,26
232,151	-11,26
232,367	158,72
232,583	103,42
232,799	52,22
233,015	74,75
233,231	41,98
233,447	-15,36
233,663	21,5
233,879	35,84
234,095	-95,23
234,311	41,98
234,527	33,79
234,743	95,23
234,959	33,79
235,175	44,03
235,391	-97,28
235,607	44,03
235,823	101,37
236,039	-80,89
236,255	-70,65
236,471	-19,46
236,687	17,41
236,903	25,6
237,118	41,98
237,334	-27,65
237,55	50,18
237,766	-87,04
237,982	58,37
238,198	109,57
238,413	31,74
238,629	52,22
238,845	17,41
239,061	-13,31
239,277	-41,98
239,492	9,22
239,708	-23,55
239,924	-31,74
240,14	-11,26
240,355	173,05
240,571	9,22
240,787	60,42
241,003	44,03
241,218	-25,6
241,434	-48,13
241,65	76,8
241,865	-58,37
242,081	66,56
242,297	-72,7
242,512	11,26
242,728	9,22
242,944	-50,18
243,159	17,41
243,375	-5,12
243,59	-39,94
243,806	41,98
244,022	87,04
244,237	9,22
244,453	23,55
244,668	58,37
244,884	99,33
245,099	-5,12
245,315	52,22
245,53	107,52
245,746	150,53
245,961	-13,31
246,177	17,41
246,392	54,27
246,608	58,37
246,823	-72,7
247,039	-7,17
247,254	-70,65
247,47	125,95
247,685	35,84
247,9	-50,18
248,116	1,02
248,331	-117,76
248,547	66,56
248,762	-84,99
248,977	33,79
249,193	29,7
249,408	41,98
249,623	44,03
249,839	-37,89
250,054	-162,81
250,269	21,5
250,485	54,27
250,7	-31,74
250,915	-13,31
251,13	27,65
251,346	9,22
251,561	50,18
251,776	115,71
251,991	-25,6
252,207	82,94
252,422	-52,22
252,637	25,6
252,852	-62,46
253,067	25,6
253,283	41,98
253,498	52,22
253,713	50,18
253,928	-87,04
254,143	-56,32
254,358	-5,12
254,573	-54,27
254,788	-72,7
255,004	15,36
255,219	-64,51
255,434	29,7
255,649	-80,89
255,864	93,18
256,079	-21,5
256,294	9,22
256,509	68,61
256,724	-25,6
256,939	-62,46
257,154	-39,94
257,369	19,46
257,584	3,07
257,799	-52,22
258,014	-54,27
258,229	37,89
258,444	91,13
258,659	-39,94
258,874	58,37
259,089	52,22
259,304	19,46
259,518	-48,13
259,733	25,6
259,948	-7,17
260,163	89,09
260,378	-13,31
260,593	-7,17
260,808	-7,17
261,022	-128
261,237	89,09
261,452	62,46
261,667	-11,26
261,882	44,03
262,096	50,18
262,311	115,71
262,526	-44,03
262,741	-72,7
262,955	-7,17
263,17	87,04
263,385	44,03
263,6	15,36
263,814	-48,13
264,029	13,31
264,244	33,79
264,458	27,65
264,673	82,94
264,888	82,94
265,102	-52,22
265,317	-27,65
265,532	-37,89
265,746	66,56
265,961	17,41
266,175	33,79
266,39	-56,32
266,605	11,26
266,819	50,18
267,034	50,18
267,248	13,31
267,463	29,7
267,677	17,41
267,892	27,65
268,106	-66,56
268,321	-29,7
268,535	25,6
268,75	70,65
268,964	-101,37
269,179	35,84
269,393	41,98
269,608	44,03
269,822	-7,17
270,036	-89,09
270,251	-27,65
270,465	-9,22
270,68	-46,08
270,894	-37,89
271,108	146,43
271,323	-31,74
271,537	-27,65
271,752	46,08
271,966	56,32
272,18	-82,94
272,394	66,56
272,609	35,84
272,823	17,41
273,037	46,08
273,252	-25,6
273,466	-29,7
273,68	11,26
273,894	-3,07
274,109	-5,12
274,323	9,22
274,537	62,46
274,751	-7,17
274,966	44,03
275,18	-31,74
275,394	-5,12
275,608	-62,46
275,822	-1,02
276,036	-37,89
276,25	52,22
276,465	13,31
276,679	-56,32
276,893	-64,51
277,107	111,61
277,321	-87,04
277,535	9,22
277,749	78,85
277,963	37,89
278,177	-93,18
278,391	19,46
278,605	-72,7
278,819	109,57
279,033	-56,32
279,247	-7,17
279,461	74,75
279,675	44,03
279,889	31,74
280,103	41,98
280,317	144,38
280,531	74,75
280,745	68,61
280,959	-7,17
281,173	58,37
281,387	91,13
281,601	119,81
281,815	84,99
282,029	-56,32
282,242	-31,74
282,456	17,41
282,67	21,5
282,884	-72,7
283,098	-15,36
283,312	9,22
283,525	-15,36
283,739	21,5
283,953	-111,61
284,167	64,51
284,381	9,22
284,594	-3,07
284,808	11,26
285,022	-35,84
285,235	54,27
285,449	7,17
285,663	91,13
285,877	-41,98
286,09	17,41
286,304	123,9
286,518	13,31
286,731	-105,47
286,945	-27,65
287,159	-62,46
287,372	-5,12
287,586	50,18
287,799	66,56
288,013	7,17
288,227	46,08
288,44	252,92
288,654	-7,17
288,867	29,7
289,081	-89,09
289,294	27,65
289,508	111,61
289,721	17,41
289,935	-76,8
290,148	72,7
290,362	91,13
290,575	31,74
290,789	-7,17
291,002	-56,32
291,216	66,56
291,429	9,22
291,643	80,89
291,856	9,22
292,069	-113,66
292,283	7,17
292,496	-50,18
292,71	17,41
292,923	3,07
293,136	-7,17
293,35	-78,85
293,563	41,98
293,776	44,03
293,99	107,52
294,203	-37,89
294,416	-39,94
294,63	54,27
294,843	-33,79
295,056	111,61
295,269	29,7
295,483	-111,61
295,696	-66,56
295,909	-27,65
296,122	-7,17
296,335	3,07
296,549	41,98
296,762	-25,6
296,975	31,74
297,188	19,46
297,401	-46,08
297,615	41,98
297,828	-52,22
298,041	78,85
298,254	-41,98
298,467	52,22
298,68	-9,22
298,893	9,22
299,106	25,6
299,319	-39,94
299,532	78,85
299,745	11,26
299,958	-15,36
300,171	-64,51
300,384	23,55
300,598	-19,46
300,81	19,46
301,023	-23,55
301,236	19,46
301,449	1,02
301,662	-80,89
301,875	-56,32
302,088	33,79
302,301	19,46
302,514	-46,08
302,727	15,36
302,94	-25,6
303,153	17,41
303,366	33,79
303,579	-84,99
303,791	-39,94
304,004	-5,12
304,217	74,75
304,43	58,37
304,643	35,84
304,855	-23,55
305,068	70,65
305,281	3,07
305,494	50,18
305,707	-37,89
305,919	175,1
306,132	25,6
306,345	39,94
306,558	27,65
306,77	-89,09
306,983	-13,31
307,196	74,75
307,408	-3,07
307,621	-15,36
307,834	-3,07
308,046	17,41
308,259	-3,07
308,472	58,37
308,684	87,04
308,897	-37,89
309,109	-15,36
309,322	-50,18
309,535	-11,26
309,747	136,19
309,96	99,33
310,172	54,27
310,385	87,04
310,597	-62,46
310,81	60,42
311,022	11,26
311,235	19,46
311,447	58,37
311,66	58,37
311,872	9,22
312,085	21,5
312,297	62,46
312,51	-13,31
312,722	68,61
312,934	95,23
313,147	9,22
313,359	-13,31
313,572	27,65
313,784	-3,07
313,996	78,85
314,209	52,22
314,421	-11,26
314,633	1,02
314,846	-15,36
315,058	68,61
315,27	99,33
315,483	13,31
315,695	17,41
315,907	25,6
316,119	41,98
316,332	-3,07
316,544	99,33
316,756	66,56
316,968	-15,36
317,181	-37,89
317,393	35,84
317,605	119,81
317,817	95,23
318,029	66,56
318,241	46,08
318,454	70,65
318,666	101,37
318,878	-105,47
319,09	7,17
319,302	27,65
319,514	35,84
319,726	-80,89
319,938	93,18
320,15	76,8
320,362	74,75
320,574	-39,94
320,786	-7,17
320,999	-21,5
321,211	70,65
321,423	62,46
321,635	-54,27
321,847	80,89
322,058	17,41
322,27	76,8
322,482	50,18
322,694	107,52
322,906	-46,08
323,118	29,7
323,33	105,47
323,542	-48,13
323,754	-15,36
323,966	-128
324,178	33,79
324,389	33,79
324,601	50,18
324,813	-91,13
325,025	58,37
325,237	9,22
325,449	95,23
325,66	7,17
325,872	19,46
326,084	-80,89
326,296	-39,94
326,507	-31,74
326,719	41,98
326,931	-31,74
327,143	41,98
327,354	62,46
327,566	15,36
327,778	74,75
327,989	62,46
328,201	13,31
328,413	68,61
328,624	123,9
328,836	1,02
329,048	-54,27
329,259	-48,13
329,471	13,31
329,682	-29,7
329,894	11,26
330,106	-70,65
330,317	13,31
330,529	-23,55
330,74	1,02
330,952	27,65
331,163	-25,6
331,375	44,03
331,586	91,13
331,798	-7,17
332,009	-31,74
332,221	-1,02
332,432	115,71
332,644	29,7
332,855	33,79
333,067	33,79
333,278	11,26
333,489	35,84
333,701	13,31
333,912	-46,08
334,124	-41,98
334,335	-46,08
334,546	-15,36
334,758	68,61
334,969	207,87
335,18	74,75
335,392	46,08
335,603	148,48
335,814	84,99
336,025	78,85
336,237	107,52
336,448	58,37
336,659	164,86
336,87	183,29
337,082	263,16
337,293	29,7
337,504	158,72
337,715	70,65
337,926	9,22
338,138	134,14
338,349	80,89
338,56	60,42
338,771	-58,37
338,982	68,61
339,193	-5,12
339,404	44,03
339,616	29,7
339,827	58,37
340,038	-48,13
340,249	-31,74
340,46	-62,46
340,671	58,37
340,882	132,09
341,093	-15,36
341,304	-35,84
341,515	-54,27
341,726	-15,36
341,937	-31,74
342,148	-5,12
342,359	-52,22
342,57	-105,47
342,781	58,37
342,992	-21,5
343,203	-80,89
343,414	82,94
343,624	3,07
343,835	-39,94
344,046	17,41
344,257	35,84
344,468	-54,27
344,679	-31,74
344,89	-13,31
345,1	-60,42
345,311	-56,32
345,522	11,26
345,733	64,51
345,944	-31,74
346,154	-44,03
346,365	-3,07
346,576	9,22
346,787	-56,32
346,997	19,46
347,208	-7,17
347,419	-19,46
347,629	41,98
347,84	74,75
348,051	29,7
348,261	-23,55
348,472	1,02
348,683	103,42
348,893	-68,61
349,104	19,46
349,315	35,84
349,525	35,84
349,736	78,85
349,946	35,84
350,157	87,04
350,368	41,98
350,578	-39,94
350,789	27,65
350,999	-31,74
351,21	70,65
351,42	-29,7
351,631	-50,18
351,841	-15,36
352,052	62,46
352,262	41,98
352,472	17,41
352,683	72,7
352,893	37,89
353,104	25,6
353,314	168,96
353,525	406,52
353,735	37,89
353,945	93,18
354,156	27,65
354,366	134,14
354,576	148,48
354,787	115,71
354,997	-19,46
355,207	-23,55
355,418	101,37
355,628	-3,07
355,838	134,14
356,048	76,8
356,259	166,91
356,469	70,65
356,679	177,15
356,889	148,48
357,1	150,53
357,31	109,57
357,52	158,72
357,73	95,23
357,94	205,82
358,15	33,79
358,361	52,22
358,571	11,26
358,781	52,22
358,991	-93,18
359,201	-7,17
359,411	-56,32
359,621	-35,84
359,831	70,65
360,041	66,56
360,251	123,9
360,461	21,5
360,672	68,61
360,882	21,5
361,092	31,74
361,302	19,46
361,512	-17,41
361,721	17,41
361,931	74,75
362,141	66,56
362,351	-7,17
362,561	60,42
362,771	-29,7
362,981	35,84
363,191	52,22
363,401	17,41
363,611	-37,89
363,821	-37,89
364,03	-7,17
364,24	5,12
364,45	87,04
364,66	250,88
364,87	-27,65
365,08	82,94
365,289	3,07
365,499	41,98
365,709	3,07
365,919	39,94
366,128	-11,26
366,338	146,43
366,548	-64,51
366,758	-7,17
366,967	54,27
367,177	72,7
367,387	-23,55
367,596	101,37
367,806	7,17
368,016	-31,74
368,225	99,33
368,435	156,67
368,644	11,26
368,854	7,17
369,064	58,37
369,273	-1,02
369,483	-15,36
369,692	-56,32
369,902	46,08
370,111	52,22
370,321	99,33
370,53	58,37
370,74	74,75
370,949	128
371,159	74,75
371,368	99,33
371,578	54,27
371,787	74,75
371,997	35,84
372,206	115,71
372,416	21,5
372,625	82,94
372,834	66,56
373,044	25,6
373,253	19,46
373,462	99,33
373,672	17,41
373,881	158,72
374,09	58,37
374,3	105,47
374,509	99,33
374,718	60,42
374,928	173,05
375,137	82,94
375,346	56,32
375,555	199,68
375,765	41,98
375,974	54,27
376,183	68,61
376,392	54,27
376,601	109,57
376,811	109,57
377,02	140,29
377,229	99,33
377,438	148,48
377,647	-21,5
377,856	44,03
378,065	-19,46
378,275	-21,5
378,484	62,46
378,693	103,42
378,902	95,23
379,111	29,7
379,32	78,85
379,529	-56,32
379,738	103,42
379,947	115,71
380,156	138,24
380,365	107,52
380,574	181,25
380,783	74,75
380,992	82,94
381,201	-11,26
381,41	1,02
381,619	56,32
381,828	-15,36
382,037	29,7
382,245	115,71
382,454	84,99
382,663	31,74
382,872	35,84
383,081	66,56
383,29	74,75
383,499	-44,03
383,707	148,48
383,916	50,18
384,125	107,52
384,334	74,75
384,542	101,37
384,751	29,7
384,96	72,7
385,169	35,84
385,377	35,84
385,586	9,22
385,795	78,85
386,004	119,81
386,212	-105,47
386,421	-15,36
386,63	74,75
386,838	35,84
387,047	132,09
387,255	74,75
387,464	76,8
387,673	105,47
387,881	99,33
388,09	136,19
388,298	140,29
388,507	123,9
388,715	111,61
388,924	91,13
389,133	-15,36
389,341	82,94
389,55	60,42
389,758	17,41
389,967	82,94
390,175	29,7
390,383	175,1
390,592	60,42
390,8	-39,94
391,009	33,79
391,217	41,98
391,426	156,67
391,634	7,17
391,842	132,09
392,051	-52,22
392,259	80,89
392,467	25,6
392,676	3,07
392,884	25,6
393,092	21,5
393,301	82,94
393,509	74,75
393,717	123,9
393,925	156,67
394,134	119,81
394,342	123,9
394,55	140,29
394,758	103,42
394,967	-19,46
395,175	1,02
395,383	84,99
395,591	-7,17
395,799	117,76
396,007	5,12
396,216	117,76
396,424	91,13
396,632	68,61
396,84	91,13
397,048	123,9
397,256	41,98
397,464	78,85
397,672	156,67
397,88	52,22
398,088	66,56
398,296	1,02
398,504	13,31
398,712	82,94
398,92	109,57
399,128	74,75
399,336	123,9
399,544	93,18
399,752	58,37
399,96	113,66
400,168	148,48
400,376	52,22
400,584	52,22
400,792	-39,94
401	66,56
401,207	9,22
401,415	66,56
401,623	-7,17
401,831	115,71
402,039	9,22
402,247	5,12
402,454	109,57
402,662	50,18
402,87	-7,17
403,078	168,96
403,285	142,33
403,493	-3,07
403,701	109,57
403,909	66,56
404,116	119,81
404,324	64,51
404,532	82,94
404,739	91,13
404,947	66,56
405,155	91,13
405,362	140,29
405,57	70,65
405,778	25,6
405,985	117,76
406,193	9,22
406,4	-15,36
406,608	76,8
406,816	50,18
407,023	70,65
407,231	35,84
407,438	117,76
407,646	70,65
407,853	-3,07
408,061	-11,26
408,268	117,76
408,476	64,51
408,683	119,81
408,89	115,71
409,098	117,76
409,305	103,42
409,513	148,48
409,72	115,71
409,927	175,1
410,135	199,68
410,342	156,67
410,55	312,32
410,757	175,1
410,964	142,33
411,172	168,96
411,379	115,71
411,586	78,85
411,793	46,08
412,001	9,22
412,208	37,89
412,415	74,75
412,622	64,51
412,83	17,41
413,037	62,46
413,244	9,22
413,451	1,02
413,658	134,14
413,866	-9,22
414,073	44,03
414,28	80,89
414,487	7,17
414,694	9,22
414,901	173,05
415,108	-3,07
415,315	-52,22
415,522	140,29
415,73	60,42
415,937	-62,46
416,144	-21,5
416,351	3,07
416,558	-72,7
416,765	-58,37
416,972	50,18
417,179	25,6
417,386	25,6
417,593	70,65
417,8	27,65
418,006	121,85
418,213	78,85
418,42	3,07
418,627	132,09
418,834	-25,6
419,041	60,42
419,248	23,55
419,455	19,46
419,661	68,61
419,868	3,07
420,075	70,65
420,282	19,46
420,489	9,22
420,696	9,22
420,902	52,22
421,109	148,48
421,316	25,6
421,523	52,22
421,729	82,94
421,936	-7,17
422,143	50,18
422,349	37,89
422,556	-31,74
422,763	17,41
422,969	66,56
423,176	-15,36
423,383	-37,89
423,589	289,79
423,796	66,56
424,002	9,22
424,209	41,98
424,416	-23,55
424,622	19,46
424,829	-15,36
425,035	-19,46
425,242	68,61
425,448	-23,55
425,655	95,23
425,861	48,13
426,068	84,99
426,274	142,33
426,481	-15,36
426,687	132,09
426,894	-37,89
427,1	140,29
427,306	9,22
427,513	1,02
427,719	87,04
427,926	41,98
428,132	-35,84
428,338	-7,17
428,545	-3,07
428,751	-56,32
428,957	37,89
429,163	25,6
429,37	95,23
429,576	5,12
429,782	11,26
429,989	13,31
430,195	33,79
430,401	33,79
430,607	-21,5
430,813	-23,55
431,02	-3,07
431,226	27,65
431,432	13,31
431,638	60,42
431,844	-72,7
432,05	82,94
432,257	95,23
432,463	173,05
432,669	246,78
432,875	279,55
433,081	369,66
433,287	427
433,493	545,78
433,699	771,06
433,905	934,9
434,111	1012,72
434,317	1004,53
434,523	992,24
434,729	859,12
434,935	599,03
435,141	599,03
435,347	281,6
435,553	214,01
435,759	189,44
435,965	154,62
436,171	150,53
436,377	205,82
436,582	91,13
436,788	33,79
436,994	173,05
437,2	107,52
437,406	191,49
437,612	84,99
437,818	111,61
438,023	-72,7
438,229	197,63
438,435	97,28
438,641	-3,07
438,846	9,22
439,052	58,37
439,258	76,8
439,464	17,41
439,669	91,13
439,875	158,72
440,081	19,46
440,286	-111,61
440,492	41,98
440,698	-7,17
440,903	9,22
441,109	91,13
441,314	-19,46
441,52	50,18
441,726	93,18
441,931	27,65
442,137	99,33
442,342	52,22
442,548	-29,7
442,753	99,33
442,959	-11,26
443,164	-7,17
443,37	1,02
443,575	-29,7
443,781	-7,17
443,986	84,99
444,192	19,46
444,397	37,89
444,602	-68,61
444,808	33,79
445,013	-13,31
445,219	-39,94
445,424	107,52
445,629	-78,85
445,835	140,29
446,04	5,12
446,245	1,02
446,451	-31,74
446,656	-70,65
446,861	1,02
447,066	-31,74
447,272	50,18
447,477	25,6
447,682	-37,89
447,887	15,36
448,093	-7,17
448,298	87,04
448,503	-7,17
448,708	33,79
448,913	-31,74
449,118	33,79
449,324	50,18
449,529	99,33
449,734	1,02
449,939	-37,89
450,144	93,18
450,349	109,57
450,554	-31,74
450,759	41,98
450,964	41,98
451,169	74,75
451,374	66,56
451,579	-58,37
451,784	41,98
451,989	21,5
452,194	115,71
452,399	58,37
452,604	52,22
452,809	-25,6
453,014	-31,74
453,219	68,61
453,424	60,42
453,629	9,22
453,833	-19,46
454,038	-7,17
454,243	-13,31
454,448	-13,31
454,653	91,13
454,858	-7,17
455,062	-23,55
455,267	-13,31
455,472	58,37
455,677	-68,61
455,882	52,22
456,086	87,04
456,291	48,13
456,496	-15,36
456,7	-25,6
456,905	33,79
457,11	66,56
457,314	-70,65
457,519	-27,65
457,724	17,41
457,928	-13,31
458,133	62,46
458,338	64,51
458,542	68,61
458,747	-80,89
458,951	76,8
459,156	37,89
459,36	-17,41
459,565	91,13
459,769	-23,55
459,974	103,42
460,178	58,37
460,383	-134,14
460,587	-39,94
460,792	107,52
460,996	33,79
461,201	-25,6
461,405	-39,94
461,61	-68,61
461,814	41,98
462,018	-113,66
462,223	19,46
462,427	-23,55
462,631	-7,17
462,836	17,41
463,04	54,27
463,244	136,19
463,449	19,46
463,653	115,71
463,857	58,37
464,062	101,37
464,266	109,57
464,47	27,65
464,674	27,65
464,878	46,08
465,083	29,7
465,287	119,81
465,491	9,22
465,695	54,27
465,899	29,7
466,104	64,51
466,308	72,7
466,512	60,42
466,716	9,22
466,92	31,74
467,124	78,85
467,328	19,46
467,532	128
467,736	5,12
467,94	99,33
468,144	70,65
468,348	72,7
468,552	80,89
468,756	66,56
468,96	46,08
469,164	-27,65
469,368	-13,31
469,572	15,36
469,776	128
469,98	50,18
470,184	-13,31
470,388	70,65
470,591	-39,94
470,795	58,37
470,999	9,22
471,203	54,27
471,407	60,42
471,611	66,56
471,814	-48,13
472,018	-74,75
472,222	17,41
472,426	74,75
472,63	-5,12
472,833	35,84
473,037	44,03
473,241	-7,17
473,444	123,9
473,648	455,67
473,852	27,65
474,055	-11,26
474,259	101,37
474,463	-7,17
474,666	84,99
474,87	35,84
475,074	9,22
475,277	44,03
475,481	142,33
475,684	-21,5
475,888	11,26
476,091	68,61
476,295	-11,26
476,498	-23,55
476,702	7,17
476,905	50,18
477,109	136,19
477,312	-87,04
477,516	48,13
477,719	74,75
477,923	52,22
478,126	60,42
478,329	-23,55
478,533	-19,46
478,736	121,85
478,94	44,03
479,143	-35,84
479,346	54,27
479,55	37,89
479,753	76,8
479,956	-89,09
480,159	1,02
480,363	84,99
480,566	33,79
480,769	60,42
480,972	9,22
481,176	62,46
481,379	101,37
481,582	173,05
481,785	9,22
481,988	33,79
482,192	115,71
482,395	52,22
482,598	132,09
482,801	54,27
483,004	66,56
483,207	1,02
483,41	35,84
483,613	123,9
483,817	164,86
484,02	84,99
484,223	281,6
484,426	676,85
484,629	1078,26
484,832	2048,99
485,035	2550,75
485,238	3705,8
485,441	4731,83
485,644	6362,01
485,846	7914,38
486,049	9290,61
486,252	10228,58
486,455	10576,73
486,658	10023,78
486,861	8799,1
487,064	7351,18
487,267	5153,71
487,47	4271,04
487,672	2974,67
487,875	1934,31
488,078	1270,76
488,281	902,13
488,484	472,06
488,686	265,21
488,889	189,44
489,092	117,76
489,295	103,42
489,497	156,67
489,7	64,51
489,903	91,13
490,105	-52,22
490,308	101,37
490,511	87,04
490,713	89,09
490,916	50,18
491,118	64,51
491,321	25,6
491,524	-7,17
491,726	25,6
491,929	-7,17
492,131	21,5
492,334	-101,37
492,536	1,02
492,739	46,08
492,941	91,13
493,144	82,94
493,346	109,57
493,549	123,9
493,751	82,94
493,954	54,27
494,156	50,18
494,359	66,56
494,561	-23,55
494,763	1,02
494,966	11,26
495,168	76,8
495,37	-19,46
495,573	-21,5
495,775	-1,02
495,977	134,14
496,18	68,61
496,382	99,33
496,584	74,75
496,787	68,61
496,989	58,37
497,191	-21,5
497,393	115,71
497,595	-29,7
497,798	76,8
498	101,37
498,202	35,84
498,404	1,02
498,606	-80,89
498,808	27,65
499,011	37,89
499,213	-31,74
499,415	66,56
499,617	76,8
499,819	11,26
500,021	111,61
500,223	-25,6
500,425	41,98
500,627	9,22
500,829	21,5
501,031	-15,36
501,233	25,6
501,435	58,37
501,637	125,95
501,839	84,99
502,041	-5,12
502,243	-44,03
502,445	27,65
502,647	60,42
502,848	33,79
503,05	-5,12
503,252	99,33
503,454	-46,08
503,656	9,22
503,858	21,5
504,059	33,79
504,261	35,84
504,463	58,37
504,665	50,18
504,867	-13,31
505,068	17,41
505,27	25,6
505,472	134,14
505,673	-15,36
505,875	11,26
506,077	-31,74
506,278	46,08
506,48	37,89
506,682	5,12
506,883	25,6
507,085	-3,07
507,287	-29,7
507,488	41,98
507,69	17,41
507,891	-37,89
508,093	78,85
508,294	-15,36
508,496	3,07
508,697	-13,31
508,899	-35,84
509,1	1,02
509,302	25,6
509,503	-58,37
509,705	48,13
509,906	50,18
510,108	-23,55
510,309	-5,12
510,51	68,61
510,712	1,02
510,913	41,98
511,114	91,13
511,316	-95,23
511,517	82,94
511,718	-54,27
511,92	-11,26
512,121	58,37
512,322	-3,07
512,524	58,37
512,725	66,56
512,926	33,79
513,127	1,02
513,329	70,65
513,53	-74,75
513,731	46,08
513,932	3,07
514,133	13,31
514,334	-39,94
514,536	60,42
514,737	54,27
514,938	68,61
515,139	-5,12
515,34	-11,26
515,541	134,14
515,742	-70,65
515,943	15,36
516,144	37,89
516,345	27,65
516,546	50,18
516,747	68,61
516,948	62,46
517,149	-80,89
517,35	1,02
517,551	-27,65
517,752	68,61
517,953	107,52
518,154	35,84
518,355	9,22
518,556	17,41
518,756	25,6
518,957	50,18
519,158	82,94
519,359	84,99
519,56	35,84
519,761	109,57
519,961	58,37
520,162	164,86
520,363	-15,36
520,564	-11,26
520,764	230,4
520,965	-64,51
521,166	87,04
521,366	3,07
521,567	93,18
521,768	29,7
521,968	-23,55
522,169	-19,46
522,37	-76,8
522,57	13,31
522,771	50,18
522,972	-52,22
523,172	119,81
523,373	19,46
523,573	11,26
523,774	21,5
523,974	148,48
524,175	7,17
524,375	5,12
524,576	-13,31
524,776	48,13
524,977	64,51
525,177	128
525,378	-23,55
525,578	82,94
525,778	107,52
525,979	70,65
526,179	27,65
526,38	-13,31
526,58	-1,02
526,78	-80,89
526,981	173,05
527,181	-15,36
527,381	41,98
527,582	101,37
527,782	101,37
527,982	101,37
528,182	50,18
528,383	-27,65
528,583	33,79
528,783	58,37
528,983	82,94
529,183	-70,65
529,384	9,22
529,584	91,13
529,784	173,05
529,984	33,79
530,184	-11,26
530,384	74,75
530,584	-31,74
530,784	-7,17
530,984	33,79
531,185	99,33
531,385	74,75
531,585	80,89
531,785	25,6
531,985	25,6
532,185	-48,13
532,385	-27,65
532,585	87,04
532,785	103,42
532,984	74,75
533,184	140,29
533,384	66,56
533,584	-56,32
533,784	74,75
533,984	134,14
534,184	-23,55
534,384	-31,74
534,583	82,94
534,783	58,37
534,983	33,79
535,183	-56,32
535,383	-37,89
535,582	93,18
535,782	66,56
535,982	21,5
536,182	27,65
536,381	109,57
536,581	21,5
536,781	9,22
536,98	56,32
537,18	99,33
537,38	82,94
537,579	23,55
537,779	9,22
537,979	-1,02
538,178	21,5
538,378	46,08
538,577	-84,99
538,777	-1,02
538,976	13,31
539,176	19,46
539,376	-31,74
539,575	9,22
539,774	-3,07
539,974	-7,17
540,173	99,33
540,373	78,85
540,572	44,03
540,772	58,37
540,971	-70,65
541,171	33,79
541,37	-48,13
541,569	66,56
541,769	-48,13
541,968	58,37
542,167	25,6
542,367	-11,26
542,566	62,46
542,765	41,98
542,965	-1,02
543,164	-1,02
543,363	27,65
543,562	35,84
543,761	23,55
543,961	58,37
544,16	-37,89
544,359	156,67
544,558	17,41
544,757	-23,55
544,957	41,98
545,156	21,5
545,355	70,65
545,554	60,42
545,753	-105,47
545,952	54,27
546,151	46,08
546,35	46,08
546,549	54,27
546,748	87,04
546,947	13,31
547,146	-78,85
547,345	33,79
547,544	-52,22
547,743	-3,07
547,942	-33,79
548,141	44,03
548,34	84,99
548,539	37,89
548,738	13,31
548,937	46,08
549,135	41,98
549,334	35,84
549,533	-29,7
549,732	58,37
549,931	74,75
550,13	13,31
550,328	33,79
550,527	-3,07
550,726	11,26
550,925	-29,7
551,123	91,13
551,322	-7,17
551,521	41,98
551,72	-3,07
551,918	33,79
552,117	101,37
552,315	13,31
552,514	-15,36
552,713	-21,5
552,911	9,22
553,11	-119,81
553,309	41,98
553,507	25,6
553,706	21,5
553,904	66,56
554,103	13,31
554,301	123,9
554,5	-29,7
554,698	1,02
554,897	-39,94
555,095	5,12
555,294	-56,32
555,492	-1,02
555,69	27,65
555,889	-39,94
556,087	23,55
556,286	144,38
556,484	-13,31
556,682	50,18
556,881	44,03
557,079	33,79
557,277	3,07
557,476	68,61
557,674	52,22
557,872	68,61
558,07	19,46
558,269	-21,5
558,467	-3,07
558,665	35,84
558,863	29,7
559,062	31,74
559,26	-27,65
559,458	-37,89
559,656	25,6
559,854	-64,51
560,052	29,7
560,25	9,22
560,449	242,68
560,647	35,84
560,845	68,61
561,043	58,37
561,241	128
561,439	115,71
561,637	33,79
561,835	25,6
562,033	39,94
562,231	-27,65
562,429	-31,74
562,627	82,94
562,825	-93,18
563,023	68,61
563,221	-37,89
563,418	19,46
563,616	-7,17
563,814	142,33
564,012	11,26
564,21	82,94
564,408	19,46
564,605	-7,17
564,803	-62,46
565,001	164,86
565,199	-46,08
565,397	87,04
565,594	50,18
565,792	130,05
565,99	25,6
566,188	-3,07
566,385	68,61
566,583	-48,13
566,781	62,46
566,978	93,18
567,176	101,37
567,373	66,56
567,571	50,18
567,769	-41,98
567,966	-95,23
568,164	50,18
568,361	-48,13
568,559	-5,12
568,756	-11,26
568,954	84,99
569,151	1,02
569,349	166,91
569,546	-52,22
569,744	-33,79
569,941	3,07
570,139	115,71
570,336	19,46
570,534	101,37
570,731	-7,17
570,928	-37,89
571,126	97,28
571,323	39,94
571,52	-68,61
571,718	1,02
571,915	17,41
572,112	-52,22
572,31	-9,22
572,507	29,7
572,704	19,46
572,901	-23,55
573,099	41,98
573,296	132,09
573,493	-21,5
573,69	-7,17
573,887	-13,31
574,085	93,18
574,282	46,08
574,479	-27,65
574,676	97,28
574,873	35,84
575,07	115,71
575,267	31,74
575,464	15,36
575,661	123,9
575,858	3,07
576,055	5,12
576,252	74,75
576,449	9,22
576,646	1,02
576,843	-13,31
577,04	132,09
577,237	125,95
577,434	74,75
577,631	9,22
577,828	99,33
578,025	9,22
578,222	52,22
578,419	60,42
578,615	58,37
578,812	-11,26
579,009	19,46
579,206	11,26
579,403	62,46
579,599	132,09
579,796	-48,13
579,993	74,75
580,19	35,84
580,386	54,27
580,583	62,46
580,78	-1,02
580,976	17,41
581,173	89,09
581,37	76,8
581,566	11,26
581,763	11,26
581,96	-46,08
582,156	23,55
582,353	74,75
582,549	76,8
582,746	50,18
582,942	-19,46
583,139	62,46
583,335	9,22
583,532	56,32
583,728	15,36
583,925	17,41
584,121	56,32
584,318	37,89
584,514	33,79
584,711	66,56
584,907	27,65
585,103	-7,17
585,3	117,76
585,496	87,04
585,693	-56,32
585,889	109,57
586,085	60,42
586,281	17,41
586,478	95,23
586,674	44,03
586,87	46,08
587,067	-13,31
587,263	64,51
587,459	111,61
587,655	-15,36
587,851	177,15
588,048	107,52
588,244	37,89
588,44	117,76
588,636	95,23
588,832	25,6
589,028	226,3
589,224	66,56
589,42	5,12
589,617	58,37
589,813	66,56
590,009	29,7
590,205	44,03
590,401	-15,36
590,597	-44,03
590,793	64,51
590,989	31,74
591,185	21,5
591,38	3,07
591,576	66,56
591,772	33,79
591,968	82,94
592,164	84,99
592,36	11,26
592,556	-13,31
592,752	99,33
592,948	9,22
593,143	25,6
593,339	-7,17
593,535	54,27
593,731	-11,26
593,926	52,22
594,122	-21,5
594,318	41,98
594,514	82,94
594,709	-60,42
594,905	-5,12
595,101	-7,17
595,296	-31,74
595,492	46,08
595,688	66,56
595,883	58,37
596,079	58,37
596,275	134,14
596,47	50,18
596,666	1,02
596,861	25,6
597,057	21,5
597,252	-13,31
597,448	44,03
597,643	91,13
597,839	95,23
598,034	-15,36
598,23	21,5
598,425	17,41
598,621	74,75
598,816	84,99
599,011	-39,94
599,207	-7,17
599,402	23,55
599,597	97,28
599,793	33,79
599,988	-48,13
600,183	35,84
600,379	37,89
600,574	17,41
600,769	95,23
600,965	9,22
601,16	41,98
601,355	-5,12
601,55	91,13
601,745	101,37
601,941	68,61
602,136	44,03
602,331	99,33
602,526	9,22
602,721	52,22
602,916	41,98
603,111	-7,17
603,307	17,41
603,502	93,18
603,697	-13,31
603,892	91,13
604,087	29,7
604,282	134,14
604,477	93,18
604,672	72,7
604,867	128
605,062	17,41
605,257	128
605,452	111,61
605,646	82,94
605,841	52,22
606,036	35,84
606,231	-5,12
606,426	74,75
606,621	5,12
606,816	17,41
607,01	144,38
607,205	60,42
607,4	-15,36
607,595	119,81
607,79	35,84
607,984	74,75
608,179	-27,65
608,374	66,56
608,569	-27,65
608,763	33,79
608,958	23,55
609,153	25,6
609,347	70,65
609,542	115,71
609,736	119,81
609,931	74,75
610,126	44,03
610,32	54,27
610,515	-1,02
610,709	222,2
610,904	19,46
611,098	17,41
611,293	-80,89
611,487	-19,46
611,682	-15,36
611,876	-7,17
612,071	46,08
612,265	58,37
612,46	44,03
612,654	46,08
612,848	1,02
613,043	-39,94
613,237	109,57
613,432	41,98
613,626	-29,7
613,82	5,12
614,014	117,76
614,209	111,61
614,403	-15,36
614,597	82,94
614,792	99,33
614,986	87,04
615,18	232,44
615,374	246,78
615,568	216,06
615,763	183,29
615,957	287,74
616,151	302,08
616,345	297,98
616,539	128
616,733	142,33
616,927	154,62
617,121	156,67
617,316	160,77
617,51	226,3
617,704	58,37
617,898	123,9
618,092	99,33
618,286	62,46
618,48	-72,7
618,674	119,81
618,868	29,7
619,061	-23,55
619,255	117,76
619,449	25,6
619,643	-3,07
619,837	103,42
620,031	37,89
620,225	95,23
620,419	-13,31
620,612	66,56
620,806	25,6
621	-48,13
621,194	-52,22
621,388	1,02
621,581	33,79
621,775	78,85
621,969	58,37
622,162	13,31
622,356	17,41
622,55	74,75
622,743	-5,12
622,937	-72,7
623,131	-72,7
623,324	99,33
623,518	-39,94
623,712	-37,89
623,905	-21,5
624,099	1,02
624,292	-15,36
624,486	50,18
624,679	27,65
624,873	25,6
625,066	82,94
625,26	70,65
625,453	-7,17
625,647	-1,02
625,84	27,65
626,034	46,08
626,227	33,79
626,42	-11,26
626,614	-7,17
626,807	134,14
627	1,02
627,194	68,61
627,387	-46,08
627,58	1,02
627,774	-11,26
627,967	48,13
628,16	70,65
628,353	35,84
628,547	99,33
628,74	105,47
628,933	13,31
629,126	109,57
629,319	17,41
629,513	-46,08
629,706	-39,94
629,899	70,65
630,092	-11,26
630,285	-80,89
630,478	-56,32
630,671	58,37
630,864	74,75
631,057	9,22
631,25	173,05
631,443	25,6
631,636	123,9
631,829	72,7
632,022	95,23
632,215	41,98
632,408	91,13
632,601	66,56
632,794	-9,22
632,987	-17,41
633,18	-15,36
633,373	50,18
633,566	62,46
633,758	-52,22
633,951	-31,74
634,144	52,22
634,337	-35,84
634,53	111,61
634,722	76,8
634,915	93,18
635,108	-31,74
635,301	46,08
635,493	52,22
635,686	181,25
635,879	-3,07
636,071	-7,17
636,264	78,85
636,457	9,22
636,649	35,84
636,842	31,74
637,034	160,77
637,227	99,33
637,42	-19,46
637,612	13,31
637,805	-44,03
637,997	74,75
638,19	44,03
638,382	9,22
638,575	78,85
638,767	52,22
638,96	164,86
639,152	68,61
639,344	115,71
639,537	-15,36
639,729	-31,74
639,922	-17,41
640,114	50,18
640,306	58,37
640,499	52,22
640,691	115,71
640,883	41,98
641,075	84,99
641,268	62,46
641,46	58,37
641,652	50,18
641,844	54,27
642,037	-70,65
642,229	1,02
642,421	189,44
642,613	66,56
642,805	58,37
642,998	70,65
643,19	21,5
643,382	111,61
643,574	25,6
643,766	25,6
643,958	21,5
644,15	35,84
644,342	121,85
644,534	33,79
644,726	37,89
644,918	111,61
645,11	-5,12
645,302	121,85
645,494	173,05
645,686	-15,36
645,878	-7,17
646,07	144,38
646,262	117,76
646,453	111,61
646,645	13,31
646,837	117,76
647,029	109,57
647,221	41,98
647,413	11,26
647,604	107,52
647,796	107,52
647,988	93,18
648,18	41,98
648,371	1,02
648,563	3,07
648,755	-5,12
648,947	25,6
649,138	21,5
649,33	50,18
649,521	140,29
649,713	66,56
649,905	17,41
650,096	64,51
650,288	76,8
650,479	50,18
650,671	29,7
650,863	150,53
651,054	121,85
651,246	173,05
651,437	109,57
651,629	263,16
651,82	173,05
652,011	197,63
652,203	203,77
652,394	263,16
652,586	189,44
652,777	132,09
652,968	128
653,16	91,13
653,351	164,86
653,542	240,64
653,734	181,25
653,925	164,86
654,116	297,98
654,308	373,75
654,499	558,07
654,69	1442,79
654,881	4752,31
655,073	9991,02
655,264	17009,4
655,455	25846,39
655,646	36540,88
655,837	47675,69
656,028	55902,38
656,219	62163,02
656,411	64184,36
656,602	64184,36
656,793	64184,36
656,984	63451,19
657,175	57720,98
657,366	52074,73
657,557	44403,03
657,748	37624,26
657,939	32950,79
658,13	27546,2
658,321	22868,64
658,512	17980,14
658,703	12827,45
658,894	8323,97
659,084	5227,44
659,275	3265,49
659,466	2171,87
659,657	1457,13
659,848	1014,77
660,039	812,02
660,23	603,13
660,42	361,47
660,611	390,14
660,802	297,98
660,993	273,4
661,183	222,2
661,374	189,44
661,565	295,93
661,755	160,77
661,946	140,29
662,137	91,13
662,327	50,18
662,518	11,26
662,709	93,18
662,899	9,22
663,09	68,61
663,28	70,65
663,471	3,07
663,662	164,86
663,852	107,52
664,043	84,99
664,233	-15,36
664,424	62,46
664,614	-21,5
664,804	109,57
664,995	107,52
665,185	74,75
665,376	-5,12
665,566	171,01
665,756	27,65
665,947	115,71
666,137	84,99
666,328	56,32
666,518	19,46
666,708	70,65
666,898	31,74
667,089	107,52
667,279	66,56
667,469	84,99
667,659	76,8
667,85	115,71
668,04	-23,55
668,23	-23,55
668,42	19,46
668,61	46,08
668,8	58,37
668,991	60,42
669,181	125,95
669,371	-13,31
669,561	62,46
669,751	134,14
669,941	58,37
670,131	105,47
670,321	25,6
670,511	25,6
670,701	91,13
670,891	99,33
671,081	-17,41
671,271	-15,36
671,461	-72,7
671,651	37,89
671,841	17,41
672,03	50,18
672,22	-7,17
672,41	37,89
672,6	31,74
672,79	37,89
672,98	17,41
673,169	13,31
673,359	-72,7
673,549	54,27
673,739	-68,61
673,928	-7,17
674,118	25,6
674,308	-13,31
674,497	-15,36
674,687	-13,31
674,877	103,42
675,066	-31,74
675,256	-46,08
675,446	138,24
675,635	-5,12
675,825	-3,07
676,014	-72,7
676,204	60,42
676,393	-21,5
676,583	66,56
676,772	46,08
676,962	33,79
677,151	33,79
677,341	15,36
677,53	41,98
677,72	44,03
677,909	50,18
678,099	9,22
678,288	-9,22
678,477	35,84
678,667	48,13
678,856	-1,02
679,045	50,18
679,235	9,22
679,424	25,6
679,613	60,42
679,802	15,36
679,992	1,02
680,181	-31,74
680,37	3,07
680,559	21,5
680,748	44,03
680,938	35,84
681,127	41,98
681,316	99,33
681,505	41,98
681,694	-29,7
681,883	25,6
682,072	17,41
682,261	68,61
682,45	-48,13
682,639	-80,89
682,828	35,84
683,017	56,32
683,206	74,75
683,395	1,02
683,584	9,22
683,773	23,55
683,962	-48,13
684,151	-93,18
684,34	-7,17
684,529	58,37
684,718	-37,89
684,907	-48,13
685,095	93,18
685,284	140,29
685,473	91,13
685,662	-50,18
685,851	35,84
686,039	35,84
686,228	50,18
686,417	-87,04
686,606	82,94
686,794	13,31
686,983	-48,13
687,172	17,41
687,36	35,84
687,549	-39,94
687,738	-29,7
687,926	52,22
688,115	-21,5
688,303	29,7
688,492	58,37
688,68	-29,7
688,869	-87,04
689,057	-41,98
689,246	-37,89
689,434	-11,26
689,623	-48,13
689,811	-15,36
690	-46,08
690,188	-5,12
690,377	44,03
690,565	41,98
690,753	41,98
690,942	-74,75
691,13	93,18
691,318	54,27
691,507	23,55
691,695	17,41
691,883	46,08
692,072	3,07
692,26	74,75
692,448	-3,07
692,636	3,07
692,824	-70,65
693,013	46,08
693,201	9,22
693,389	-31,74
693,577	-52,22
693,765	21,5
693,953	17,41
694,141	-56,32
694,329	-13,31
694,518	-78,85
694,706	-19,46
694,894	1,02
695,082	-39,94
695,27	33,79
695,458	17,41
695,646	58,37
695,834	107,52
696,022	-105,47
696,209	-48,13
696,397	52,22
696,585	9,22
696,773	-35,84
696,961	44,03
697,149	-23,55
697,337	-21,5
697,525	21,5
697,712	-3,07
697,9	58,37
698,088	60,42
698,276	48,13
698,463	17,41
698,651	-5,12
698,839	9,22
699,027	52,22
699,214	17,41
699,402	-72,7
699,59	-15,36
699,777	-11,26
699,965	56,32
700,152	17,41
700,34	-39,94
700,528	-54,27
700,715	1,02
700,903	-39,94
701,09	46,08
701,278	66,56
701,465	-19,46
701,653	-56,32
701,84	-58,37
702,028	33,79
702,215	-39,94
702,402	-5,12
702,59	48,13
702,777	95,23
702,965	41,98
703,152	-11,26
703,339	27,65
703,527	-13,31
703,714	11,26
703,901	29,7
704,088	-68,61
704,276	19,46
704,463	1,02
704,65	-58,37
704,837	5,12
705,025	74,75
705,212	-23,55
705,399	-3,07
705,586	-31,74
705,773	-5,12
705,96	-5,12
706,147	3,07
706,335	-13,31
706,522	101,37
706,709	-50,18
706,896	-31,74
707,083	11,26
707,27	1,02
707,457	33,79
707,644	-29,7
707,831	37,89
708,018	-125,95
708,205	-44,03
708,392	-31,74
708,578	-5,12
708,765	-27,65
708,952	-29,7
709,139	-5,12
709,326	58,37
709,513	-29,7
709,7	-113,66
709,886	44,03
710,073	50,18
710,26	72,7
710,447	-27,65
710,633	17,41
710,82	-56,32
711,007	19,46
711,193	105,47
711,38	-27,65
711,567	9,22
711,753	66,56
711,94	93,18
712,127	19,46
712,313	46,08
712,5	-7,17
712,686	17,41
712,873	-60,42
713,059	-15,36
713,246	41,98
713,432	-33,79
713,619	-29,7
713,805	-64,51
713,992	64,51
714,178	21,5
714,365	91,13
714,551	132,09
714,737	-3,07
714,924	-64,51
715,11	-15,36
715,297	17,41
715,483	-130,05
715,669	33,79
715,855	-29,7
716,042	-5,12
716,228	-72,7
716,414	66,56
716,6	25,6
716,787	-27,65
716,973	-78,85
717,159	58,37
717,345	27,65
717,531	25,6
717,718	60,42
717,904	37,89
718,09	11,26
718,276	41,98
718,462	17,41
718,648	66,56
718,834	9,22
719,02	39,94
719,206	91,13
719,392	62,46
719,578	-3,07
719,764	-89,09
719,95	-54,27
720,136	160,77
720,322	-27,65
720,508	21,5
720,694	-54,27
720,879	-46,08
721,065	99,33
721,251	46,08
721,437	-13,31
721,623	134,14
721,809	78,85
721,994	-37,89
722,18	-76,8
722,366	1,02
722,552	-60,42
722,737	1,02
722,923	132,09
723,109	107,52
723,294	-27,65
723,48	50,18
723,666	91,13
723,851	56,32
724,037	-5,12
724,222	93,18
724,408	5,12
724,593	1,02
724,779	13,31
724,965	56,32
725,15	74,75
725,336	54,27
725,521	82,94
725,706	13,31
725,892	-5,12
726,077	95,23
726,263	19,46
726,448	144,38
726,634	23,55
726,819	-21,5
727,004	78,85
727,19	-33,79
727,375	78,85
727,56	-27,65
727,745	-44,03
727,931	17,41
728,116	-91,13
728,301	46,08
728,486	60,42
728,672	-7,17
728,857	46,08
729,042	-39,94
729,227	-48,13
729,412	5,12
729,597	-56,32
729,783	50,18
729,968	-3,07
730,153	78,85
730,338	-48,13
730,523	17,41
730,708	-35,84
730,893	-15,36
731,078	-7,17
731,263	9,22
731,448	-41,98
731,633	54,27
731,818	-19,46
732,003	-39,94
732,187	60,42
732,372	-33,79
732,557	78,85
732,742	-54,27
732,927	-97,28
733,112	103,42
733,297	-23,55
733,481	-29,7
733,666	27,65
733,851	41,98
734,036	-72,7
734,22	11,26
734,405	156,67
734,59	58,37
734,774	19,46
734,959	33,79
735,144	101,37
735,328	17,41
735,513	-3,07
735,698	-31,74
735,882	119,81
736,067	197,63
736,251	19,46
736,436	-27,65
736,62	33,79
736,805	-23,55
736,989	101,37
737,174	-62,46
737,358	-68,61
737,543	54,27
737,727	-13,31
737,911	41,98
738,096	3,07
738,28	68,61
738,465	-15,36
738,649	87,04
738,833	84,99
739,018	-9,22
739,202	-72,7
739,386	-89,09
739,57	33,79
739,755	-3,07
739,939	17,41
740,123	-46,08
740,307	37,89
740,491	46,08
740,676	-97,28
740,86	37,89
741,044	64,51
741,228	5,12
741,412	-80,89
741,596	-5,12
741,78	-31,74
741,964	-31,74
742,148	33,79
742,332	37,89
742,516	-44,03
742,7	82,94
742,884	19,46
743,068	-23,55
743,252	25,6
743,436	52,22
743,62	-78,85
743,804	142,33
743,988	9,22
744,172	11,26
744,356	33,79
744,539	-21,5
744,723	-52,22
744,907	-125,95
745,091	11,26
745,275	25,6
745,458	58,37
745,642	-37,89
745,826	15,36
746,009	91,13
746,193	50,18
746,377	44,03
746,56	44,03
746,744	54,27
746,928	7,17
747,111	91,13
747,295	-39,94
747,478	56,32
747,662	58,37
747,846	111,61
748,029	99,33
748,213	15,36
748,396	37,89
748,58	58,37
748,763	-7,17
748,946	-41,98
749,13	-44,03
749,313	35,84
749,497	60,42
749,68	93,18
749,863	21,5
750,047	-72,7
750,23	1,02
750,413	46,08
750,597	-3,07
750,78	-13,31
750,963	68,61
751,146	11,26
751,33	111,61
751,513	33,79
751,696	87,04
751,879	7,17
752,062	-89,09
752,246	13,31
752,429	50,18
752,612	1,02
752,795	-13,31
752,978	58,37
753,161	-136,19
753,344	-29,7
753,527	-48,13
753,71	-11,26
753,893	91,13
754,076	9,22
754,259	46,08
754,442	-35,84
754,625	9,22
754,808	66,56
754,991	29,7
755,174	-7,17
755,357	1,02
755,539	-29,7
755,722	58,37
755,905	-11,26
756,088	-89,09
756,271	-11,26
756,453	37,89
756,636	-52,22
756,819	111,61
757,002	-23,55
757,184	115,71
757,367	105,47
757,55	-13,31
757,732	107,52
757,915	-48,13
758,098	-35,84
758,28	80,89
758,463	37,89
758,645	101,37
758,828	9,22
759,011	68,61
759,193	-66,56
759,376	29,7
759,558	-62,46
759,741	-76,8
759,923	-29,7
760,105	-64,51
760,288	48,13
760,47	-46,08
760,653	-56,32
760,835	-39,94
761,017	27,65
761,2	1,02
761,382	58,37
761,564	1,02
761,747	50,18
761,929	-46,08
762,111	-15,36
762,294	-11,26
762,476	177,15
762,658	68,61
762,84	50,18
763,022	37,89
763,205	119,81
763,387	123,9
763,569	109,57
763,751	-121,85
763,933	15,36
764,115	-72,7
764,297	58,37
764,479	66,56
764,661	-37,89
764,843	33,79
765,025	9,22
765,207	27,65
765,389	-74,75
765,571	-136,19
765,753	74,75
765,935	17,41
766,117	27,65
766,299	35,84
766,481	136,19
766,663	11,26
766,845	-93,18
767,026	9,22
767,208	-37,89
767,39	-48,13
767,572	-15,36
767,753	68,61
767,935	25,6
768,117	-13,31
768,299	-13,31
768,48	-15,36
768,662	9,22
768,844	-44,03
769,025	93,18
769,207	19,46
769,389	-37,89
769,57	5,12
769,752	48,13
769,933	52,22
770,115	9,22
770,296	15,36
770,478	74,75
770,659	-64,51
770,841	89,09
771,022	17,41
771,204	46,08
771,385	9,22
771,567	50,18
771,748	41,98
771,929	-3,07
772,111	82,94
772,292	52,22
772,473	-44,03
772,655	101,37
772,836	50,18
773,017	44,03
773,199	46,08
773,38	-7,17
773,561	91,13
773,742	60,42
773,923	-39,94
774,105	107,52
774,286	58,37
774,467	9,22
774,648	35,84
774,829	29,7
775,01	-56,32
775,191	-1,02
775,372	5,12
775,553	58,37
775,734	50,18
775,915	93,18
776,096	394,23
776,277	945,14
776,458	1790,95
776,639	2657,24
776,82	3564,49
777,001	4344,77
777,182	4989,88
777,363	5422
777,544	5854,12
777,725	5481,39
777,906	4934,58
778,086	4271,04
778,267	3537,87
778,448	3013,59
778,629	2331,61
778,809	1999,84
778,99	1706,98
779,171	1483,75
779,352	1272,81
779,532	1215,47
779,713	1027,06
779,894	1061,87
780,074	1053,68
780,255	988,14
780,435	787,44
780,616	697,33
780,797	484,34
780,977	230,4
781,158	214,01
781,338	117,76
781,519	115,71
781,699	224,25
781,88	-23,55
782,06	119,81
782,241	27,65
782,421	-13,31
782,601	9,22
782,782	93,18
782,962	109,57
783,142	27,65
783,323	13,31
783,503	64,51
783,683	68,61
783,864	-7,17
784,044	107,52
784,224	111,61
784,404	37,89
784,585	66,56
784,765	19,46
784,945	132,09
785,125	58,37
785,305	1,02
785,485	66,56
785,666	82,94
785,846	-64,51
786,026	-66,56
786,206	-15,36
786,386	11,26
786,566	3,07
786,746	-7,17
786,926	-39,94
787,106	-7,17
787,286	68,61
787,466	-11,26
787,646	50,18
787,826	-31,74
788,006	70,65
788,185	-15,36
788,365	-7,17
788,545	99,33
788,725	-21,5
788,905	54,27
789,085	1,02
789,264	-46,08
789,444	-1,02
789,624	35,84
789,804	-50,18
789,983	56,32
790,163	-31,74
790,343	7,17
790,522	11,26
790,702	41,98
790,882	-3,07
791,061	39,94
791,241	3,07
791,42	21,5
791,6	142,33
791,78	46,08
791,959	7,17
792,139	-99,33
792,318	17,41
792,498	58,37
792,677	1,02
792,856	29,7
793,036	-44,03
793,215	1,02
793,395	84,99
793,574	9,22
793,753	-46,08
793,933	140,29
794,112	41,98
794,291	25,6
794,471	183,29
794,65	25,6
794,829	13,31
795,008	25,6
795,188	82,94
795,367	82,94
795,546	41,98
795,725	5,12
795,904	-23,55
796,084	9,22
796,263	52,22
796,442	66,56
796,621	17,41
796,8	54,27
796,979	21,5
797,158	-48,13
797,337	-52,22
797,516	84,99
797,695	101,37
797,874	58,37
798,053	99,33
798,232	1,02
798,411	-52,22
798,59	-62,46
798,769	-52,22
798,947	33,79
799,126	19,46
799,305	54,27
799,484	84,99
799,663	-70,65
799,842	1,02
800,02	41,98
800,199	-68,61
800,378	13,31
800,557	25,6
800,735	-52,22
800,914	-5,12
801,093	115,71
801,271	-23,55
801,45	-9,22
801,628	82,94
801,807	91,13
801,986	-13,31
802,164	-23,55
802,343	-74,75
802,521	-33,79
802,7	46,08
802,878	58,37
803,057	25,6
803,235	-37,89
803,414	50,18
803,592	50,18
803,771	19,46
803,949	17,41
804,127	41,98
804,306	-7,17
804,484	-7,17
804,662	48,13
804,841	-121,85
805,019	68,61
805,197	9,22
805,375	35,84
805,554	15,36
805,732	-56,32
805,91	70,65
806,088	-31,74
806,266	-19,46
806,445	-5,12
806,623	-21,5
806,801	-7,17
806,979	41,98
807,157	154,62
807,335	-101,37
807,513	44,03
807,691	41,98
807,869	-62,46
808,047	-64,51
808,225	-62,46
808,403	-5,12
808,581	56,32
808,759	33,79
808,937	41,98
809,115	109,57
809,293	76,8
809,471	5,12
809,649	15,36
809,826	117,76
810,004	66,56
810,182	9,22
810,36	-60,42
810,538	-15,36
810,715	23,55
810,893	-70,65
811,071	-29,7
811,248	19,46
811,426	13,31
811,604	35,84
811,781	58,37
811,959	-13,31
812,137	15,36
812,314	-13,31
812,492	-48,13
812,669	70,65
812,847	-19,46
813,024	-39,94
813,202	76,8
813,379	-84,99
813,557	89,09
813,734	11,26
813,912	11,26
814,089	29,7
814,267	-7,17
814,444	41,98
814,621	33,79
814,799	-48,13
814,976	58,37
815,153	41,98
815,331	74,75
815,508	23,55
815,685	25,6
815,862	74,75
816,04	-68,61
816,217	-23,55
816,394	27,65
816,571	-15,36
816,748	99,33
816,926	132,09
817,103	230,4
817,28	91,13
817,457	3,07
817,634	91,13
817,811	-44,03
817,988	-23,55
818,165	41,98
818,342	1,02
818,519	17,41
818,696	-48,13
818,873	-7,17
819,05	58,37
819,227	27,65
819,404	35,84
819,581	33,79
819,758	29,7
819,934	35,84
820,111	-89,09
820,288	-48,13
820,465	84,99
820,642	-13,31
820,818	109,57
820,995	25,6
821,172	74,75
821,349	68,61
821,525	17,41
821,702	27,65
821,879	-11,26
822,055	27,65
822,232	-27,65
822,409	70,65
822,585	91,13
822,762	70,65
822,938	9,22
823,115	9,22
823,291	58,37
823,468	76,8
823,644	58,37
823,821	44,03
823,997	-31,74
824,174	-128
824,35	13,31
824,527	58,37
824,703	1,02
824,879	35,84
825,056	1,02
825,232	93,18
825,408	-21,5
825,585	-7,17
825,761	41,98
825,937	27,65
826,113	33,79
826,29	54,27
826,466	-62,46
826,642	388,09
826,818	99,33
826,994	9,22
827,17	-125,95
827,347	-52,22
827,523	-72,7
827,699	33,79
827,875	9,22
828,051	17,41
828,227	-39,94
828,403	91,13
828,579	74,75
828,755	58,37
828,931	21,5
829,107	50,18
829,283	107,52
829,459	-87,04
829,635	-48,13
829,811	58,37
829,986	-68,61
830,162	29,7
830,338	39,94
830,514	-66,56
830,69	11,26
830,865	5,12
831,041	-33,79
831,217	-64,51
831,393	-68,61
831,568	-29,7
831,744	74,75
831,92	58,37
832,095	-23,55
832,271	70,65
832,447	-23,55
832,622	82,94
832,798	3,07
832,973	-1,02
833,149	60,42
833,325	-72,7
833,5	39,94
833,676	39,94
833,851	66,56
834,027	-46,08
834,202	91,13
834,377	95,23
834,553	1,02
834,728	-46,08
834,904	-23,55
835,079	37,89
835,254	-72,7
835,43	-23,55
835,605	54,27
835,78	-7,17
835,955	19,46
836,131	76,8
836,306	-62,46
836,481	-7,17
836,656	123,9
836,832	76,8
837,007	-103,42
837,182	-23,55
837,357	-13,31
837,532	13,31
837,707	3,07
837,882	58,37
838,057	99,33
838,232	93,18
838,407	-7,17
838,582	58,37
838,757	-19,46
838,932	27,65
839,107	-13,31
839,282	-60,42
839,457	-19,46
839,632	82,94
839,807	37,89
839,982	-7,17
840,157	-23,55
840,332	17,41
840,506	-7,17
840,681	-23,55
840,856	-64,51
841,031	-70,65
841,205	-29,7
841,38	39,94
841,555	33,79
841,73	13,31
841,904	41,98
842,079	29,7
842,254	17,41
842,428	52,22
842,603	-37,89
842,777	-62,46
842,952	41,98
843,126	33,79
843,301	125,95
843,476	191,49
843,65	488,44
843,825	814,07
843,999	1074,16
844,173	1192,94
844,348	1283,05
844,522	1467,37
844,697	1471,47
844,871	1450,99
845,045	1450,99
845,22	1102,83
845,394	1213,42
845,568	961,52
845,743	861,17
845,917	828,4
846,091	656,37
846,265	639,99
846,44	680,95
846,614	582,65
846,788	574,46
846,962	570,36
847,136	543,74
847,31	445,43
847,485	472,06
847,659	396,28
847,833	451,58
848,007	402,43
848,181	324,6
848,355	267,26
848,529	359,42
848,703	246,78
848,877	66,56
849,051	146,43
849,225	109,57
849,399	27,65
849,573	-44,03
849,746	-7,17
849,92	25,6
850,094	80,89
850,268	-19,46
850,442	-13,31
850,616	-15,36
850,789	-72,7
850,963	-37,89
851,137	-48,13
851,311	103,42
851,484	17,41
851,658	70,65
851,832	-72,7
852,005	19,46
852,179	-35,84
852,352	-89,09
852,526	-56,32
852,7	58,37
852,873	-56,32
853,047	23,55
853,22	-11,26
853,394	58,37
853,567	62,46
853,741	-33,79
853,914	35,84
854,088	107,52
854,261	9,22
854,434	-48,13
854,608	-78,85
854,781	-56,32
854,955	-19,46
855,128	66,56
855,301	-17,41
855,475	1,02
855,648	5,12
855,821	-7,17
855,994	87,04
856,168	-21,5
856,341	105,47
856,514	-111,61
856,687	-9,22
856,86	99,33
857,033	76,8
857,207	-35,84
857,38	-72,7
857,553	109,57
857,726	25,6
857,899	76,8
858,072	-48,13
858,245	-19,46
858,418	-39,94
858,591	-27,65
858,764	62,46
858,937	21,5
859,11	41,98
859,283	70,65
859,455	-39,94
859,628	-21,5
859,801	33,79
859,974	99,33
860,147	-48,13
860,32	33,79
860,492	50,18
860,665	-70,65
860,838	66,56
861,011	-15,36
861,183	33,79
861,356	25,6
861,529	17,41
861,701	11,26
861,874	50,18
862,047	142,33
862,219	46,08
862,392	25,6
862,564	74,75
862,737	-31,74
862,909	82,94
863,082	-37,89
863,254	87,04
863,427	21,5
863,599	13,31
863,772	-70,65
863,944	1,02
864,117	-29,7
864,289	25,6
864,461	-89,09
864,634	-7,17
864,806	-21,5
864,978	128
865,151	9,22
865,323	166,91
865,495	115,71
865,667	3,07
865,84	103,42
866,012	-89,09
866,184	46,08
866,356	-37,89
866,528	-11,26
866,7	9,22
866,873	1,02
867,045	-31,74
867,217	-5,12
867,389	-17,41
867,561	-21,5
867,733	-3,07
867,905	25,6
868,077	-97,28
868,249	52,22
868,421	-1,02
868,593	-15,36
868,765	146,43
868,936	-56,32
869,108	52,22
869,28	54,27
869,452	-25,6
869,624	-21,5
869,796	58,37
869,968	-35,84
870,139	93,18
870,311	-72,7
870,483	15,36
870,654	-62,46
870,826	11,26
870,998	-39,94
871,17	41,98
871,341	-78,85
871,513	66,56
871,684	-23,55
871,856	11,26
872,028	25,6
872,199	-39,94
872,371	-70,65
872,542	25,6
872,714	33,79
872,885	185,34
873,057	25,6
873,228	91,13
873,4	35,84
873,571	74,75
873,742	11,26
873,914	66,56
874,085	-7,17
874,256	70,65
874,428	-56,32
874,599	3,07
874,77	91,13
874,942	-84,99
875,113	33,79
875,284	3,07
875,455	-39,94
875,626	-44,03
875,798	21,5
875,969	17,41
876,14	17,41
876,311	74,75
876,482	132,09
876,653	52,22
876,824	70,65
876,995	-7,17
877,166	87,04
877,337	17,41
877,508	-56,32
877,679	-7,17
877,85	-29,7
878,021	-21,5
878,192	70,65
878,363	29,7
878,534	-68,61
878,705	1,02
878,876	-39,94
879,047	74,75
879,217	-93,18
879,388	21,5
879,559	-1,02
879,73	74,75
879,9	-39,94
880,071	91,13
880,242	84,99
880,413	1,02
880,583	9,22
880,754	60,42
880,924	-54,27
881,095	-72,7
881,266	21,5
881,436	25,6
881,607	74,75
881,777	-44,03
881,948	-3,07
882,118	58,37
882,289	-56,32
882,459	54,27
882,63	25,6
882,8	-17,41
882,971	54,27
883,141	7,17
883,311	41,98
883,482	109,57
883,652	-31,74
883,822	-33,79
883,993	17,41
884,163	25,6
884,333	19,46
884,504	66,56
884,674	54,27
884,844	25,6
885,014	-39,94
885,184	-31,74
885,355	-130,05
885,525	5,12
885,695	44,03
885,865	41,98
886,035	9,22
886,205	-80,89
886,375	66,56
886,545	25,6
886,715	-25,6
886,885	11,26
887,055	41,98
887,225	3,07
887,395	5,12
887,565	125,95
887,735	-68,61
887,905	33,79
888,075	-35,84
888,244	115,71
888,414	52,22
888,584	25,6
888,754	-5,12
888,924	-52,22
889,093	140,29
889,263	-44,03
889,433	17,41
889,603	-50,18
889,772	25,6
889,942	50,18
890,111	44,03
890,281	48,13
890,451	9,22
890,62	50,18
890,79	-99,33
890,959	1,02
891,129	11,26
891,298	46,08
891,468	103,42
891,637	3,07
891,807	103,42
891,976	58,37
892,146	37,89
892,315	70,65
892,485	33,79
892,654	-21,5
892,823	66,56
892,993	-15,36
893,162	39,94
893,331	115,71
893,501	-5,12
893,67	-9,22
893,839	17,41
894,008	25,6
894,177	48,13
894,347	50,18
894,516	62,46
894,685	11,26
894,854	25,6
895,023	21,5
895,192	-23,55
