Data from h2o_USB4F104161__8__11-48-46-823.txt Node

Date: Tue Apr 14 11:48:46 EDT 2026
User: LaboPhy
Spectrometer: USB4F10416
Trigger mode: 4
Integration Time (sec): 1,000000E-1
Scans to average: 1
Electric dark correction enabled: true
Nonlinearity correction enabled: false
Boxcar width: 0
XAxis mode: Wavelengths
Number of Pixels in Spectrum: 3648
>>>>>Begin Spectral Data<<<<<
177,847	-201,9
178,066	-201,9
178,284	-201,9
178,502	-167,08
178,72	-216,23
178,939	-40,11
179,157	103,25
179,375	21,33
179,593	-25,77
179,812	-23,72
180,03	7
180,248	21,33
180,466	-27,82
180,685	-25,77
180,903	23,38
181,121	-23,72
181,339	-9,39
181,557	-19,63
181,775	-31,91
181,994	-97,45
182,212	-21,67
182,43	11,09
182,648	23,38
182,866	90,96
183,084	-38,06
183,302	9,05
183,52	-7,34
183,739	-1,19
183,957	62,29
184,175	-9,39
184,393	37,72
184,611	13,14
184,829	7
185,047	-50,35
185,265	39,76
185,483	-13,48
185,701	113,49
185,919	21,33
186,137	4,95
186,355	78,68
186,573	23,38
186,791	21,33
187,009	62,29
187,227	-15,53
187,445	29,52
187,663	17,24
187,881	-21,67
188,098	54,1
188,316	0,85
188,534	88,92
188,752	-11,43
188,97	-33,96
189,188	15,19
189,406	-11,43
189,624	119,64
189,841	39,76
190,059	-101,55
190,277	-50,35
190,495	15,19
190,713	119,64
190,931	119,64
191,148	86,87
191,366	29,52
191,584	29,52
191,802	78,68
192,019	193,36
192,237	70,48
192,455	21,33
192,673	56,15
192,89	-68,78
193,108	11,09
193,326	-33,96
193,543	9,05
193,761	45,91
193,979	0,85
194,196	4,95
194,414	82,77
194,632	88,92
194,849	-19,63
195,067	-62,63
195,285	-7,34
195,502	-122,02
195,72	31,57
195,937	45,91
196,155	74,58
196,373	21,33
196,59	54,1
196,808	62,29
197,025	45,91
197,243	226,13
197,46	29,52
197,678	62,29
197,895	95,06
198,113	-74,92
198,33	31,57
198,548	13,14
198,765	-40,11
198,983	74,58
199,2	-3,24
199,418	78,68
199,635	-27,82
199,853	29,52
200,07	17,24
200,288	54,1
200,505	-33,96
200,722	144,21
200,94	70,48
201,157	72,53
201,375	9,05
201,592	-31,91
201,809	21,33
202,027	62,29
202,244	27,48
202,461	21,33
202,679	0,85
202,896	78,68
203,113	15,19
203,331	-1,19
203,548	15,19
203,765	17,24
203,982	109,4
204,2	-56,49
204,417	-36,01
204,634	195,41
204,851	43,86
205,069	15,19
205,286	7
205,503	0,85
205,72	13,14
205,937	62,29
206,155	-29,87
206,372	144,21
206,589	-48,3
206,806	-11,43
207,023	45,91
207,24	60,24
207,458	33,62
207,675	-66,73
207,892	54,1
208,109	-95,4
208,326	21,33
208,543	-52,39
208,76	-17,58
208,977	107,35
209,194	70,48
209,411	-66,73
209,628	7
209,845	70,48
210,062	70,48
210,279	-93,35
210,496	-48,3
210,713	-3,24
210,93	-36,01
211,147	86,87
211,364	13,14
211,581	23,38
211,798	136,02
212,015	-87,21
212,232	-19,63
212,449	47,96
212,666	119,64
212,883	41,81
213,1	29,52
213,317	4,95
213,533	45,91
213,75	-50,35
213,967	50
214,184	4,95
214,401	0,85
214,618	-1,19
214,835	33,62
215,051	56,15
215,268	45,91
215,485	62,29
215,702	4,95
215,919	-68,78
216,135	133,97
216,352	-25,77
216,569	-9,39
216,786	4,95
217,002	70,48
217,219	13,14
217,436	66,39
217,652	-1,19
217,869	0,85
218,086	113,49
218,302	-1,19
218,519	90,96
218,736	-36,01
218,952	-68,78
219,169	21,33
219,386	90,96
219,602	4,95
219,819	25,43
220,036	7
220,252	45,91
220,469	-25,77
220,685	56,15
220,902	78,68
221,118	-19,63
221,335	-72,87
221,552	15,19
221,768	101,2
221,985	-44,2
222,201	54,1
222,418	54,1
222,634	-3,24
222,851	78,68
223,067	-58,54
223,284	-23,72
223,5	29,52
223,716	-44,2
223,933	7
224,149	-60,59
224,366	103,25
224,582	-33,96
224,799	-11,43
225,015	-31,91
225,231	-9,39
225,448	-17,58
225,664	-58,54
225,88	-40,11
226,097	13,14
226,313	-17,58
226,529	78,68
226,746	88,92
226,962	29,52
227,178	-44,2
227,395	-33,96
227,611	13,14
227,827	23,38
228,044	97,11
228,26	62,29
228,476	86,87
228,692	119,64
228,909	31,57
229,125	39,76
229,341	-1,19
229,557	-23,72
229,773	-9,39
229,99	45,91
230,206	-44,2
230,422	37,72
230,638	-44,2
230,854	-27,82
231,07	-72,87
231,286	129,88
231,503	13,14
231,719	-25,77
231,935	23,38
232,151	29,52
232,367	17,24
232,583	11,09
232,799	144,21
233,015	119,64
233,231	-7,34
233,447	23,38
233,663	-17,58
233,879	78,68
234,095	-60,59
234,311	33,62
234,527	21,33
234,743	76,63
234,959	70,48
235,175	70,48
235,391	-52,39
235,607	-107,69
235,823	29,52
236,039	27,48
236,255	4,95
236,471	50
236,687	54,1
236,903	-15,53
237,118	-15,53
237,334	23,38
237,55	80,72
237,766	-27,82
237,982	58,2
238,198	80,72
238,413	39,76
238,629	66,39
238,845	33,62
239,061	-68,78
239,277	15,19
239,492	-44,2
239,708	23,38
239,924	7
240,14	-3,24
240,355	68,44
240,571	13,14
240,787	-109,74
241,003	82,77
241,218	-9,39
241,434	54,1
241,65	37,72
241,865	-52,39
242,081	86,87
242,297	-62,63
242,512	21,33
242,728	9,05
242,944	-11,43
243,159	95,06
243,375	-1,19
243,59	45,91
243,806	39,76
244,022	-36,01
244,237	-29,87
244,453	35,67
244,668	97,11
244,884	115,54
245,099	-29,87
245,315	103,25
245,53	-11,43
245,746	113,49
245,961	29,52
246,177	50
246,392	131,92
246,608	29,52
246,823	-46,25
247,039	-19,63
247,254	-9,39
247,47	33,62
247,685	21,33
247,9	0,85
248,116	-36,01
248,331	-13,48
248,547	7
248,762	0,85
248,977	0,85
249,193	41,81
249,408	39,76
249,623	0,85
249,839	33,62
250,054	-66,73
250,269	7
250,485	78,68
250,7	-33,96
250,915	-76,97
251,13	66,39
251,346	23,38
251,561	95,06
251,776	58,2
251,991	-11,43
252,207	86,87
252,422	-52,39
252,637	-3,24
252,852	-46,25
253,067	4,95
253,283	88,92
253,498	31,57
253,713	-9,39
253,928	-1,19
254,143	-15,53
254,358	-11,43
254,573	-58,54
254,788	-48,3
255,004	39,76
255,219	-44,2
255,434	13,14
255,649	33,62
255,864	37,72
256,079	17,24
256,294	-17,58
256,509	-58,54
256,724	-1,19
256,939	29,52
257,154	90,96
257,369	15,19
257,584	56,15
257,799	-36,01
258,014	-11,43
258,229	58,2
258,444	21,33
258,659	-3,24
258,874	54,1
259,089	105,3
259,304	13,14
259,518	-33,96
259,733	17,24
259,948	39,76
260,163	21,33
260,378	39,76
260,593	-5,29
260,808	-1,19
261,022	-160,94
261,237	74,58
261,452	7
261,667	23,38
261,882	9,05
262,096	123,73
262,311	72,53
262,526	-62,63
262,741	-9,39
262,955	-11,43
263,17	88,92
263,385	9,05
263,6	-5,29
263,814	25,43
264,029	-74,92
264,244	9,05
264,458	86,87
264,673	88,92
264,888	-15,53
265,102	-23,72
265,317	-68,78
265,532	-42,15
265,746	62,29
265,961	119,64
266,175	66,39
266,39	-3,24
266,605	62,29
266,819	4,95
267,034	82,77
267,248	-60,59
267,463	82,77
267,677	21,33
267,892	13,14
268,106	-1,19
268,321	88,92
268,535	95,06
268,75	21,33
268,964	-7,34
269,179	-11,43
269,393	-9,39
269,608	78,68
269,822	-146,6
270,036	-19,63
270,251	13,14
270,465	-23,72
270,68	-9,39
270,894	-7,34
271,108	97,11
271,323	-36,01
271,537	-3,24
271,752	70,48
271,966	41,81
272,18	-83,11
272,394	37,72
272,609	58,2
272,823	103,25
273,037	-52,39
273,252	-17,58
273,466	37,72
273,68	82,77
273,894	70,48
274,109	15,19
274,323	31,57
274,537	86,87
274,751	25,43
274,966	-9,39
275,18	-60,59
275,394	-5,29
275,608	-85,16
275,822	-48,3
276,036	-36,01
276,25	56,15
276,465	70,48
276,679	-50,35
276,893	-17,58
277,107	70,48
277,321	-126,12
277,535	121,68
277,749	127,83
277,963	17,24
278,177	-79,02
278,391	29,52
278,605	-111,78
278,819	-7,34
279,033	-25,77
279,247	-15,53
279,461	45,91
279,675	21,33
279,889	136,02
280,103	7
280,317	90,96
280,531	-31,91
280,745	-15,53
280,959	-44,2
281,173	45,91
281,387	21,33
281,601	95,06
281,815	72,53
282,029	-81,07
282,242	4,95
282,456	-36,01
282,67	29,52
282,884	-15,53
283,098	0,85
283,312	-3,24
283,525	-1,19
283,739	86,87
283,953	-21,67
284,167	78,68
284,381	-17,58
284,594	-31,91
284,808	-79,02
285,022	-33,96
285,235	-1,19
285,449	37,72
285,663	25,43
285,877	-17,58
286,09	70,48
286,304	72,53
286,518	-5,29
286,731	-76,97
286,945	58,2
287,159	-27,82
287,372	37,72
287,586	0,85
287,799	7
288,013	-66,73
288,227	58,2
288,44	246,61
288,654	23,38
288,867	29,52
289,081	58,2
289,294	-15,53
289,508	127,83
289,721	-9,39
289,935	11,09
290,148	54,1
290,362	86,87
290,575	39,76
290,789	-3,24
291,002	7
291,216	41,81
291,429	58,2
291,643	17,24
291,856	-11,43
292,069	4,95
292,283	0,85
292,496	-19,63
292,71	-3,24
292,923	-56,49
293,136	-19,63
293,35	-11,43
293,563	4,95
293,776	-19,63
293,99	0,85
294,203	-52,39
294,416	37,72
294,63	-19,63
294,843	70,48
295,056	78,68
295,269	7
295,483	-93,35
295,696	25,43
295,909	-44,2
296,122	64,34
296,335	21,33
296,549	45,91
296,762	-3,24
296,975	21,33
297,188	76,63
297,401	41,81
297,615	111,44
297,828	-33,96
298,041	21,33
298,254	-40,11
298,467	29,52
298,68	25,43
298,893	29,52
299,106	-58,54
299,319	70,48
299,532	13,14
299,745	-1,19
299,958	-52,39
300,171	-33,96
300,384	17,24
300,598	-93,35
300,81	66,39
301,023	-23,72
301,236	-46,25
301,449	-27,82
301,662	39,76
301,875	-9,39
302,088	-15,53
302,301	-3,24
302,514	-36,01
302,727	64,34
302,94	35,67
303,153	-42,15
303,366	17,24
303,579	9,05
303,791	86,87
304,004	-9,39
304,217	58,2
304,43	-11,43
304,643	19,29
304,855	-44,2
305,068	41,81
305,281	-19,63
305,494	62,29
305,707	-31,91
305,919	136,02
306,132	4,95
306,345	54,1
306,558	66,39
306,77	-31,91
306,983	-15,53
307,196	41,81
307,408	2,9
307,621	37,72
307,834	-3,24
308,046	62,29
308,259	19,29
308,472	11,09
308,684	82,77
308,897	15,19
309,109	-72,87
309,322	7
309,535	33,62
309,747	119,64
309,96	66,39
310,172	88,92
310,385	146,26
310,597	-29,87
310,81	-36,01
311,022	58,2
311,235	52,05
311,447	70,48
311,66	45,91
311,872	84,82
312,085	39,76
312,297	45,91
312,51	-50,35
312,722	-36,01
312,934	72,53
313,147	-79,02
313,359	15,19
313,572	7
313,784	119,64
313,996	58,2
314,209	90,96
314,421	-60,59
314,633	37,72
314,846	13,14
315,058	121,68
315,27	21,33
315,483	80,72
315,695	25,43
315,907	23,38
316,119	86,87
316,332	58,2
316,544	54,1
316,756	15,19
316,968	70,48
317,181	88,92
317,393	41,81
317,605	41,81
317,817	70,48
318,029	-29,87
318,241	47,96
318,454	-29,87
318,666	29,52
318,878	-113,83
319,09	-1,19
319,302	78,68
319,514	70,48
319,726	17,24
319,938	97,11
320,15	0,85
320,362	-19,63
320,574	-15,53
320,786	-44,2
320,999	-17,58
321,211	13,14
321,423	70,48
321,635	50
321,847	60,24
322,058	-31,91
322,27	90,96
322,482	25,43
322,694	7
322,906	-25,77
323,118	56,15
323,33	21,33
323,542	13,14
323,754	35,67
323,966	-54,44
324,178	97,11
324,389	15,19
324,601	103,25
324,813	-25,77
325,025	37,72
325,237	11,09
325,449	54,1
325,66	0,85
325,872	62,29
326,084	31,57
326,296	29,52
326,507	37,72
326,719	64,34
326,931	-64,68
327,143	160,59
327,354	219,99
327,566	-23,72
327,778	50
327,989	99,16
328,201	129,88
328,413	70,48
328,624	29,52
328,836	37,72
329,048	-9,39
329,259	56,15
329,471	127,83
329,682	-36,01
329,894	0,85
330,106	-85,16
330,317	9,05
330,529	54,1
330,74	15,19
330,952	15,19
331,163	-52,39
331,375	74,58
331,586	76,63
331,798	39,76
332,009	27,48
332,221	62,29
332,432	13,14
332,644	35,67
332,855	0,85
333,067	66,39
333,278	15,19
333,489	113,49
333,701	13,14
333,912	-54,44
334,124	-27,82
334,335	-42,15
334,546	-19,63
334,758	21,33
334,969	217,94
335,18	142,16
335,392	101,2
335,603	99,16
335,814	127,83
336,025	66,39
336,237	88,92
336,448	82,77
336,659	88,92
336,87	174,93
337,082	226,13
337,293	119,64
337,504	152,4
337,715	29,52
337,926	0,85
338,138	78,68
338,349	88,92
338,56	103,25
338,771	-44,2
338,982	90,96
339,193	-7,34
339,404	93,01
339,616	39,76
339,827	33,62
340,038	-40,11
340,249	23,38
340,46	-9,39
340,671	29,52
340,882	113,49
341,093	-60,59
341,304	-44,2
341,515	29,52
341,726	-40,11
341,937	27,48
342,148	37,72
342,359	-19,63
342,57	-68,78
342,781	136,02
342,992	37,72
343,203	-19,63
343,414	119,64
343,624	9,05
343,835	9,05
344,046	41,81
344,257	-15,53
344,468	29,52
344,679	-23,72
344,89	-15,53
345,1	-101,55
345,311	-76,97
345,522	54,1
345,733	-17,58
345,944	43,86
346,154	54,1
346,365	45,91
346,576	-27,82
346,787	7
346,997	37,72
347,208	115,54
347,419	0,85
347,629	99,16
347,84	70,48
348,051	-11,43
348,261	21,33
348,472	54,1
348,683	54,1
348,893	-83,11
349,104	-42,15
349,315	-1,19
349,525	-19,63
349,736	-11,43
349,946	43,86
350,157	105,3
350,368	54,1
350,578	-23,72
350,789	-25,77
350,999	64,34
351,21	74,58
351,42	-105,64
351,631	-23,72
351,841	31,57
352,052	109,4
352,262	99,16
352,472	37,72
352,683	0,85
352,893	56,15
353,104	37,72
353,314	203,6
353,525	514,89
353,735	174,93
353,945	86,87
354,156	80,72
354,366	103,25
354,576	170,83
354,787	95,06
354,997	15,19
355,207	43,86
355,418	-27,82
355,628	64,34
355,838	64,34
356,048	74,58
356,259	201,55
356,469	47,96
356,679	150,36
356,889	228,18
357,1	64,34
357,31	88,92
357,52	140,12
357,73	154,45
357,94	43,86
358,15	64,34
358,361	109,4
358,571	54,1
358,781	127,83
358,991	-40,11
359,201	0,85
359,411	-25,77
359,621	-23,72
359,831	168,79
360,041	80,72
360,251	33,62
360,461	11,09
360,672	13,14
360,882	-33,96
361,092	4,95
361,302	76,63
361,512	54,1
361,721	-17,58
361,931	31,57
362,141	88,92
362,351	41,81
362,561	-1,19
362,771	80,72
362,981	88,92
363,191	-13,48
363,401	37,72
363,611	13,14
363,821	-1,19
364,03	-27,82
364,24	7
364,45	58,2
364,66	279,38
364,87	70,48
365,08	68,44
365,289	-33,96
365,499	29,52
365,709	78,68
365,919	121,68
366,128	13,14
366,338	41,81
366,548	-23,72
366,758	37,72
366,967	45,91
367,177	37,72
367,387	107,35
367,596	23,38
367,806	17,24
368,016	72,53
368,225	160,59
368,435	156,5
368,644	35,67
368,854	-11,43
369,064	80,72
369,273	66,39
369,483	-9,39
369,692	39,76
369,902	70,48
370,111	52,05
370,321	37,72
370,53	97,11
370,74	-31,91
370,949	78,68
371,159	201,55
371,368	64,34
371,578	37,72
371,787	86,87
371,997	56,15
372,206	74,58
372,416	86,87
372,625	97,11
372,834	125,78
373,044	25,43
373,253	160,59
373,462	74,58
373,672	21,33
373,881	95,06
374,09	123,73
374,3	154,45
374,509	101,2
374,718	103,25
374,928	226,13
375,137	150,36
375,346	37,72
375,555	226,13
375,765	127,83
375,974	80,72
376,183	86,87
376,392	74,58
376,601	15,19
376,811	15,19
377,02	181,07
377,229	54,1
377,438	54,1
377,647	58,2
377,856	29,52
378,065	-13,48
378,275	29,52
378,484	0,85
378,693	127,83
378,902	101,2
379,111	99,16
379,32	156,5
379,529	31,57
379,738	68,44
379,947	95,06
380,156	168,79
380,365	60,24
380,574	176,98
380,783	21,33
380,992	64,34
381,201	37,72
381,41	-15,53
381,619	-19,63
381,828	60,24
382,037	17,24
382,245	154,45
382,454	45,91
382,663	54,1
382,872	62,29
383,081	39,76
383,29	201,55
383,499	60,24
383,707	111,44
383,916	23,38
384,125	99,16
384,334	78,68
384,542	103,25
384,751	4,95
384,96	19,29
385,169	-64,68
385,377	31,57
385,586	27,48
385,795	99,16
386,004	170,83
386,212	27,48
386,421	-33,96
386,63	115,54
386,838	62,29
387,047	41,81
387,255	121,68
387,464	164,69
387,673	64,34
387,881	189,27
388,09	111,44
388,298	146,26
388,507	127,83
388,715	82,77
388,924	140,12
389,133	-3,24
389,341	13,14
389,55	103,25
389,758	152,4
389,967	45,91
390,175	68,44
390,383	144,21
390,592	222,03
390,8	101,2
391,009	33,62
391,217	88,92
391,426	162,64
391,634	-40,11
391,842	64,34
392,051	80,72
392,259	37,72
392,467	-3,24
392,676	-19,63
392,884	45,91
393,092	86,87
393,301	78,68
393,509	9,05
393,717	136,02
393,925	127,83
394,134	56,15
394,342	201,55
394,55	189,27
394,758	168,79
394,967	72,53
395,175	66,39
395,383	58,2
395,591	-44,2
395,799	121,68
396,007	136,02
396,216	123,73
396,424	27,48
396,632	56,15
396,84	76,63
397,048	101,2
397,256	127,83
397,464	37,72
397,672	187,22
397,88	-11,43
398,088	72,53
398,296	88,92
398,504	105,3
398,712	54,1
398,92	80,72
399,128	31,57
399,336	129,88
399,544	97,11
399,752	54,1
399,96	129,88
400,168	115,54
400,376	37,72
400,584	111,44
400,792	23,38
401	45,91
401,207	45,91
401,415	54,1
401,623	37,72
401,831	101,2
402,039	45,91
402,247	23,38
402,454	64,34
402,662	60,24
402,87	-27,82
403,078	195,41
403,285	174,93
403,493	54,1
403,701	119,64
403,909	35,67
404,116	228,18
404,324	15,19
404,532	-29,87
404,739	74,58
404,947	35,67
405,155	111,44
405,362	111,44
405,57	95,06
405,778	72,53
405,985	60,24
406,193	78,68
406,4	7
406,608	93,01
406,816	-3,24
407,023	62,29
407,231	54,1
407,438	31,57
407,646	101,2
407,853	54,1
408,061	13,14
408,268	115,54
408,476	50
408,683	146,26
408,89	179,03
409,098	111,44
409,305	133,97
409,513	179,03
409,72	187,22
409,927	242,51
410,135	324,43
410,342	189,27
410,55	332,62
410,757	258,9
410,964	133,97
411,172	80,72
411,379	84,82
411,586	86,87
411,793	37,72
412,001	74,58
412,208	-3,24
412,415	15,19
412,622	74,58
412,83	76,63
413,037	95,06
413,244	39,76
413,451	201,55
413,658	97,11
413,866	119,64
414,073	78,68
414,28	142,16
414,487	9,05
414,694	7
414,901	29,52
415,108	58,2
415,315	4,95
415,522	70,48
415,73	121,68
415,937	54,1
416,144	-89,26
416,351	-25,77
416,558	-1,19
416,765	-64,68
416,972	33,62
417,179	-19,63
417,386	97,11
417,593	78,68
417,8	37,72
418,006	62,29
418,213	4,95
418,42	78,68
418,627	74,58
418,834	103,25
419,041	129,88
419,248	127,83
419,455	136,02
419,661	13,14
419,868	-27,82
420,075	144,21
420,282	50
420,489	45,91
420,696	86,87
420,902	107,35
421,109	80,72
421,316	-25,77
421,523	54,1
421,729	82,77
421,936	70,48
422,143	88,92
422,349	54,1
422,556	-25,77
422,763	95,06
422,969	78,68
423,176	-42,15
423,383	41,81
423,589	295,76
423,796	33,62
424,002	70,48
424,209	82,77
424,416	74,58
424,622	7
424,829	-3,24
425,035	-17,58
425,242	33,62
425,448	35,67
425,655	45,91
425,861	21,33
426,068	88,92
426,274	181,07
426,481	47,96
426,687	158,55
426,894	-7,34
427,1	86,87
427,306	-60,59
427,513	107,35
427,719	54,1
427,926	13,14
428,132	-25,77
428,338	37,72
428,545	19,29
428,751	-9,39
428,957	80,72
429,163	33,62
429,37	80,72
429,576	-19,63
429,782	66,39
429,989	56,15
430,195	21,33
430,401	45,91
430,607	29,52
430,813	-36,01
431,02	66,39
431,226	47,96
431,432	70,48
431,638	13,14
431,844	-21,67
432,05	39,76
432,257	129,88
432,463	201,55
432,669	209,75
432,875	269,14
433,081	373,58
433,287	566,09
433,493	549,71
433,699	760,65
433,905	1014,6
434,111	889,67
434,317	1080,13
434,523	1028,93
434,729	873,29
434,935	701,26
435,141	596,81
435,347	349,01
435,553	283,47
435,759	209,75
435,965	170,83
436,171	54,1
436,377	148,31
436,582	68,44
436,788	-17,58
436,994	185,17
437,2	62,29
437,406	86,87
437,612	76,63
437,818	72,53
438,023	-126,12
438,229	207,7
438,435	115,54
438,641	23,38
438,846	7
439,052	-42,15
439,258	29,52
439,464	50
439,669	82,77
439,875	138,07
440,081	70,48
440,286	-11,43
440,492	35,67
440,698	64,34
440,903	13,14
441,109	111,44
441,314	-3,24
441,52	-68,78
441,726	43,86
441,931	62,29
442,137	74,58
442,342	21,33
442,548	152,4
442,753	115,54
442,959	-44,2
443,164	7
443,37	47,96
443,575	4,95
443,781	4,95
443,986	127,83
444,192	-48,3
444,397	23,38
444,602	-7,34
444,808	-27,82
445,013	-13,48
445,219	-9,39
445,424	52,05
445,629	17,24
445,835	64,34
446,04	0,85
446,245	-58,54
446,451	29,52
446,656	7
446,861	-52,39
447,066	93,01
447,272	70,48
447,477	78,68
447,682	-9,39
447,887	-3,24
448,093	74,58
448,298	133,97
448,503	58,2
448,708	99,16
448,913	-1,19
449,118	95,06
449,324	72,53
449,529	82,77
449,734	90,96
449,939	9,05
450,144	121,68
450,349	47,96
450,554	-36,01
450,759	74,58
450,964	29,52
451,169	82,77
451,374	52,05
451,579	109,4
451,784	60,24
451,989	27,48
452,194	17,24
452,399	45,91
452,604	9,05
452,809	-9,39
453,014	23,38
453,219	23,38
453,424	70,48
453,629	-76,97
453,833	-89,26
454,038	-25,77
454,243	-48,3
454,448	56,15
454,653	78,68
454,858	-3,24
455,062	-60,59
455,267	15,19
455,472	13,14
455,677	-3,24
455,882	37,72
456,086	176,98
456,291	50
456,496	-44,2
456,7	136,02
456,905	21,33
457,11	-64,68
457,314	13,14
457,519	64,34
457,724	72,53
457,928	58,2
458,133	-11,43
458,338	4,95
458,542	-33,96
458,747	60,24
458,951	15,19
459,156	136,02
459,36	-62,63
459,565	95,06
459,769	-1,19
459,974	80,72
460,178	-101,55
460,383	-79,02
460,587	15,19
460,792	29,52
460,996	29,52
461,201	52,05
461,405	-93,35
461,61	-36,01
461,814	62,29
462,018	-19,63
462,223	-25,77
462,427	97,11
462,631	-31,91
462,836	95,06
463,04	45,91
463,244	144,21
463,449	23,38
463,653	119,64
463,857	-7,34
464,062	115,54
464,266	7
464,47	47,96
464,674	2,9
464,878	62,29
465,083	37,72
465,287	148,31
465,491	7
465,695	86,87
465,899	13,14
466,104	95,06
466,308	-13,48
466,512	70,48
466,716	50
466,92	45,91
467,124	45,91
467,328	82,77
467,532	15,19
467,736	-99,5
467,94	70,48
468,144	52,05
468,348	13,14
468,552	90,96
468,756	17,24
468,96	37,72
469,164	4,95
469,368	-29,87
469,572	56,15
469,776	107,35
469,98	29,52
470,184	45,91
470,388	86,87
470,591	62,29
470,795	119,64
470,999	127,83
471,203	62,29
471,407	33,62
471,611	4,95
471,814	-36,01
472,018	21,33
472,222	97,11
472,426	121,68
472,63	-13,48
472,833	56,15
473,037	119,64
473,241	50
473,444	39,76
473,648	492,37
473,852	41,81
474,055	62,29
474,259	45,91
474,463	-3,24
474,666	78,68
474,87	70,48
475,074	64,34
475,277	13,14
475,481	119,64
475,684	13,14
475,888	-11,43
476,091	64,34
476,295	13,14
476,498	58,2
476,702	88,92
476,905	123,73
477,109	99,16
477,312	21,33
477,516	0,85
477,719	78,68
477,923	31,57
478,126	41,81
478,329	47,96
478,533	21,33
478,736	72,53
478,94	78,68
479,143	99,16
479,346	88,92
479,55	138,07
479,753	17,24
479,956	90,96
480,159	45,91
480,363	113,49
480,566	-9,39
480,769	21,33
480,972	19,29
481,176	107,35
481,379	146,26
481,582	47,96
481,785	21,33
481,988	66,39
482,192	111,44
482,395	82,77
482,598	86,87
482,801	99,16
483,004	105,3
483,207	-52,39
483,41	209,75
483,613	119,64
483,817	162,64
484,02	131,92
484,223	228,18
484,426	709,45
484,629	1282,88
484,832	2032,44
485,035	2652,97
485,238	3724,06
485,441	4817,68
485,644	6290,17
485,846	7787,23
486,049	9155,27
486,252	10302,14
486,455	10549,94
486,658	10156,73
486,861	8624,85
487,064	7271,14
487,267	5354,24
487,47	4121,37
487,672	2962,22
487,875	1932,09
488,078	1235,78
488,281	736,07
488,484	496,46
488,686	271,19
488,889	95,06
489,092	78,68
489,295	152,4
489,497	107,35
489,7	62,29
489,903	93,01
490,105	4,95
490,308	103,25
490,511	156,5
490,713	17,24
490,916	33,62
491,118	86,87
491,321	70,48
491,524	-48,3
491,726	60,24
491,929	-117,93
492,131	107,35
492,334	54,1
492,536	13,14
492,739	-9,39
492,941	86,87
493,144	4,95
493,346	21,33
493,549	58,2
493,751	62,29
493,954	74,58
494,156	115,54
494,359	107,35
494,561	-11,43
494,763	25,43
494,966	105,3
495,168	158,55
495,37	-48,3
495,573	41,81
495,775	37,72
495,977	111,44
496,18	99,16
496,382	129,88
496,584	86,87
496,787	68,44
496,989	37,72
497,191	-27,82
497,393	105,3
497,595	43,86
497,798	154,45
498	76,63
498,202	19,29
498,404	23,38
498,606	-44,2
498,808	15,19
499,011	21,33
499,213	70,48
499,415	25,43
499,617	70,48
499,819	201,55
500,021	170,83
500,223	13,14
500,425	17,24
500,627	45,91
500,829	37,72
501,031	13,14
501,233	15,19
501,435	15,19
501,637	152,4
501,839	41,81
502,041	-23,72
502,243	45,91
502,445	-42,15
502,647	43,86
502,848	37,72
503,05	29,52
503,252	56,15
503,454	62,29
503,656	109,4
503,858	0,85
504,059	13,14
504,261	86,87
504,463	62,29
504,665	31,57
504,867	-27,82
505,068	115,54
505,27	45,91
505,472	37,72
505,673	129,88
505,875	25,43
506,077	15,19
506,278	-25,77
506,48	52,05
506,682	-11,43
506,883	54,1
507,085	29,52
507,287	-25,77
507,488	103,25
507,69	82,77
507,891	-40,11
508,093	95,06
508,294	21,33
508,496	-7,34
508,697	25,43
508,899	58,2
509,1	39,76
509,302	54,1
509,503	50
509,705	62,29
509,906	45,91
510,108	-7,34
510,309	23,38
510,51	78,68
510,712	4,95
510,913	17,24
511,114	95,06
511,316	-19,63
511,517	97,11
511,718	-7,34
511,92	33,62
512,121	64,34
512,322	54,1
512,524	84,82
512,725	56,15
512,926	-11,43
513,127	-52,39
513,329	107,35
513,53	-11,43
513,731	29,52
513,932	121,68
514,133	21,33
514,334	-97,45
514,536	66,39
514,737	64,34
514,938	45,91
515,139	-44,2
515,34	-17,58
515,541	127,83
515,742	-3,24
515,943	107,35
516,144	-3,24
516,345	35,67
516,546	9,05
516,747	15,19
516,948	-19,63
517,149	17,24
517,35	33,62
517,551	-23,72
517,752	52,05
517,953	39,76
518,154	21,33
518,355	103,25
518,556	115,54
518,756	23,38
518,957	4,95
519,158	144,21
519,359	125,78
519,56	70,48
519,761	4,95
519,961	152,4
520,162	170,83
520,363	23,38
520,564	29,52
520,764	217,94
520,965	-27,82
521,166	17,24
521,366	-3,24
521,567	70,48
521,768	50
521,968	-27,82
522,169	-15,53
522,37	-3,24
522,57	21,33
522,771	-42,15
522,972	-60,59
523,172	140,12
523,373	41,81
523,573	37,72
523,774	21,33
523,974	168,79
524,175	88,92
524,375	72,53
524,576	41,81
524,776	-27,82
524,977	-19,63
525,177	86,87
525,378	35,67
525,578	119,64
525,778	37,72
525,979	62,29
526,179	-11,43
526,38	15,19
526,58	4,95
526,78	-9,39
526,981	50
527,181	41,81
527,381	78,68
527,582	56,15
527,782	82,77
527,982	78,68
528,182	-1,19
528,383	56,15
528,583	29,52
528,783	80,72
528,983	86,87
529,183	19,29
529,384	70,48
529,584	140,12
529,784	160,59
529,984	82,77
530,184	9,05
530,384	47,96
530,584	78,68
530,784	64,34
530,984	-48,3
531,185	138,07
531,385	121,68
531,585	86,87
531,785	101,2
531,985	-54,44
532,185	-11,43
532,385	72,53
532,585	88,92
532,785	117,59
532,984	99,16
533,184	154,45
533,384	58,2
533,584	13,14
533,784	103,25
533,984	39,76
534,184	-27,82
534,384	56,15
534,583	97,11
534,783	4,95
534,983	78,68
535,183	-11,43
535,383	-68,78
535,582	76,63
535,782	21,33
535,982	74,58
536,182	9,05
536,381	-23,72
536,581	111,44
536,781	33,62
536,98	29,52
537,18	17,24
537,38	74,58
537,579	54,1
537,779	21,33
537,979	54,1
538,178	62,29
538,378	70,48
538,577	21,33
538,777	45,91
538,976	-9,39
539,176	62,29
539,376	25,43
539,575	37,72
539,774	43,86
539,974	-17,58
540,173	86,87
540,373	105,3
540,572	-11,43
540,772	23,38
540,971	-11,43
541,171	56,15
541,37	-21,67
541,569	31,57
541,769	17,24
541,968	-11,43
542,167	21,33
542,367	37,72
542,566	-52,39
542,765	17,24
542,965	-70,83
543,164	58,2
543,363	88,92
543,562	-9,39
543,761	88,92
543,961	129,88
544,16	-19,63
544,359	172,88
544,558	103,25
544,757	70,48
544,957	72,53
545,156	113,49
545,355	80,72
545,554	62,29
545,753	-68,78
545,952	56,15
546,151	119,64
546,35	107,35
546,549	119,64
546,748	37,72
546,947	17,24
547,146	-11,43
547,345	86,87
547,544	13,14
547,743	-21,67
547,942	-3,24
548,141	31,57
548,34	66,39
548,539	78,68
548,738	7
548,937	99,16
549,135	76,63
549,334	7
549,533	23,38
549,732	-36,01
549,931	86,87
550,13	-48,3
550,328	-15,53
550,527	39,76
550,726	86,87
550,925	-17,58
551,123	17,24
551,322	50
551,521	97,11
551,72	23,38
551,918	-11,43
552,117	103,25
552,315	41,81
552,514	66,39
552,713	78,68
552,911	-23,72
553,11	-19,63
553,309	-27,82
553,507	-36,01
553,706	13,14
553,904	37,72
554,103	76,63
554,301	90,96
554,5	37,72
554,698	-27,82
554,897	13,14
555,095	9,05
555,294	-109,74
555,492	54,1
555,69	-3,24
555,889	-52,39
556,087	56,15
556,286	111,44
556,484	117,59
556,682	29,52
556,881	-17,58
557,079	-60,59
557,277	7
557,476	119,64
557,674	21,33
557,872	74,58
558,07	-31,91
558,269	-5,29
558,467	74,58
558,665	13,14
558,863	-23,72
559,062	31,57
559,26	88,92
559,458	-83,11
559,656	62,29
559,854	78,68
560,052	58,2
560,25	72,53
560,449	291,66
560,647	-9,39
560,845	29,52
561,043	37,72
561,241	136,02
561,439	131,92
561,637	31,57
561,835	60,24
562,033	62,29
562,231	-27,82
562,429	-19,63
562,627	58,2
562,825	-52,39
563,023	47,96
563,221	54,1
563,418	-89,26
563,616	31,57
563,814	103,25
564,012	-44,2
564,21	27,48
564,408	72,53
564,605	-11,43
564,803	-50,35
565,001	191,31
565,199	-58,54
565,397	11,09
565,594	90,96
565,792	121,68
565,99	-36,01
566,188	4,95
566,385	70,48
566,583	-25,77
566,781	131,92
566,978	76,63
567,176	95,06
567,373	17,24
567,571	45,91
567,769	56,15
567,966	-19,63
568,164	-1,19
568,361	-27,82
568,559	127,83
568,756	4,95
568,954	41,81
569,151	4,95
569,349	9,05
569,546	-19,63
569,744	2,9
569,941	129,88
570,139	66,39
570,336	15,19
570,534	72,53
570,731	4,95
570,928	2,9
571,126	144,21
571,323	142,16
571,52	7
571,718	-68,78
571,915	70,48
572,112	-81,07
572,31	39,76
572,507	99,16
572,704	-1,19
572,901	-7,34
573,099	17,24
573,296	23,38
573,493	-11,43
573,69	-31,91
573,887	-17,58
574,085	97,11
574,282	70,48
574,479	62,29
574,676	9,05
574,873	58,2
575,07	95,06
575,267	4,95
575,464	56,15
575,661	43,86
575,858	-72,87
576,055	74,58
576,252	117,59
576,449	-42,15
576,646	25,43
576,843	-3,24
577,04	78,68
577,237	115,54
577,434	172,88
577,631	68,44
577,828	70,48
578,025	-40,11
578,222	23,38
578,419	131,92
578,615	-48,3
578,812	-1,19
579,009	41,81
579,206	70,48
579,403	64,34
579,599	105,3
579,796	-56,49
579,993	111,44
580,19	-44,2
580,386	45,91
580,583	33,62
580,78	-44,2
580,976	35,67
581,173	7
581,37	56,15
581,566	29,52
581,763	33,62
581,96	45,91
582,156	23,38
582,353	127,83
582,549	136,02
582,746	62,29
582,942	-23,72
583,139	66,39
583,335	37,72
583,532	103,25
583,728	-11,43
583,925	95,06
584,121	15,19
584,318	158,55
584,514	119,64
584,711	103,25
584,907	-9,39
585,103	-42,15
585,3	103,25
585,496	37,72
585,693	-36,01
585,889	47,96
586,085	54,1
586,281	72,53
586,478	31,57
586,674	37,72
586,87	181,07
587,067	37,72
587,263	70,48
587,459	17,24
587,655	-1,19
587,851	78,68
588,048	185,17
588,244	11,09
588,44	62,29
588,636	15,19
588,832	-1,19
589,028	168,79
589,224	37,72
589,42	54,1
589,617	50
589,813	80,72
590,009	33,62
590,205	58,2
590,401	86,87
590,597	4,95
590,793	54,1
590,989	72,53
591,185	54,1
591,38	15,19
591,576	-58,54
591,772	111,44
591,968	54,1
592,164	45,91
592,36	-1,19
592,556	-31,91
592,752	127,83
592,948	-19,63
593,143	23,38
593,339	45,91
593,535	78,68
593,731	84,82
593,926	45,91
594,122	76,63
594,318	-15,53
594,514	113,49
594,709	-13,48
594,905	23,38
595,101	-36,01
595,296	17,24
595,492	111,44
595,688	70,48
595,883	41,81
596,079	45,91
596,275	21,33
596,47	39,76
596,666	13,14
596,861	35,67
597,057	15,19
597,252	19,29
597,448	70,48
597,643	86,87
597,839	70,48
598,034	21,33
598,23	-9,39
598,425	105,3
598,621	70,48
598,816	25,43
599,011	-1,19
599,207	13,14
599,402	17,24
599,597	140,12
599,793	60,24
599,988	21,33
600,183	39,76
600,379	45,91
600,574	-33,96
600,769	119,64
600,965	95,06
601,16	78,68
601,355	39,76
601,55	82,77
601,745	70,48
601,941	127,83
602,136	144,21
602,331	146,26
602,526	17,24
602,721	133,97
602,916	62,29
603,111	58,2
603,307	29,52
603,502	33,62
603,697	-36,01
603,892	97,11
604,087	39,76
604,282	101,2
604,477	111,44
604,672	0,85
604,867	62,29
605,062	0,85
605,257	58,2
605,452	168,79
605,646	97,11
605,841	33,62
606,036	54,1
606,231	31,57
606,426	54,1
606,621	-11,43
606,816	86,87
607,01	99,16
607,205	99,16
607,4	31,57
607,595	160,59
607,79	-23,72
607,984	37,72
608,179	13,14
608,374	45,91
608,569	13,14
608,763	23,38
608,958	-17,58
609,153	23,38
609,347	82,77
609,542	90,96
609,736	80,72
609,931	64,34
610,126	-17,58
610,32	97,11
610,515	-11,43
610,709	303,95
610,904	74,58
611,098	15,19
611,293	21,33
611,487	25,43
611,682	-33,96
611,876	25,43
612,071	45,91
612,265	21,33
612,46	-68,78
612,654	103,25
612,848	4,95
613,043	41,81
613,237	29,52
613,432	0,85
613,626	-3,24
613,82	13,14
614,014	70,48
614,209	219,99
614,403	-87,21
614,597	84,82
614,792	105,3
614,986	74,58
615,18	242,51
615,374	230,23
615,568	265,04
615,763	295,76
615,957	318,29
616,151	351,06
616,345	349,01
616,539	164,69
616,733	258,9
616,927	267,09
617,121	166,74
617,316	195,41
617,51	219,99
617,704	136,02
617,898	168,79
618,092	4,95
618,286	35,67
618,48	-44,2
618,674	111,44
618,868	99,16
619,061	37,72
619,255	-3,24
619,449	21,33
619,643	0,85
619,837	127,83
620,031	39,76
620,225	127,83
620,419	0,85
620,612	56,15
620,806	95,06
621	123,73
621,194	45,91
621,388	43,86
621,581	4,95
621,775	39,76
621,969	97,11
622,162	15,19
622,356	37,72
622,55	21,33
622,743	-76,97
622,937	90,96
623,131	21,33
623,324	162,64
623,518	-19,63
623,712	-17,58
623,905	58,2
624,099	-15,53
624,292	23,38
624,486	23,38
624,679	-29,87
624,873	41,81
625,066	25,43
625,26	54,1
625,453	7
625,647	-25,77
625,84	66,39
626,034	160,59
626,227	11,09
626,42	90,96
626,614	15,19
626,807	50
627	47,96
627,194	39,76
627,387	47,96
627,58	29,52
627,774	58,2
627,967	123,73
628,16	80,72
628,353	39,76
628,547	66,39
628,74	187,22
628,933	-31,91
629,126	113,49
629,319	13,14
629,513	33,62
629,706	-19,63
629,899	93,01
630,092	25,43
630,285	-52,39
630,478	21,33
630,671	103,25
630,864	82,77
631,057	25,43
631,25	140,12
631,443	58,2
631,636	-52,39
631,829	109,4
632,022	101,2
632,215	33,62
632,408	-27,82
632,601	86,87
632,794	41,81
632,987	-11,43
633,18	45,91
633,373	74,58
633,566	13,14
633,758	-54,44
633,951	56,15
634,144	54,1
634,337	-1,19
634,53	86,87
634,722	62,29
634,915	-15,53
635,108	-64,68
635,301	62,29
635,493	156,5
635,686	127,83
635,879	-19,63
636,071	-27,82
636,264	84,82
636,457	70,48
636,649	-40,11
636,842	78,68
637,034	133,97
637,227	125,78
637,42	88,92
637,612	64,34
637,805	54,1
637,997	45,91
638,19	17,24
638,382	41,81
638,575	66,39
638,767	74,58
638,96	35,67
639,152	56,15
639,344	80,72
639,537	-17,58
639,729	19,29
639,922	105,3
640,114	-9,39
640,306	13,14
640,499	45,91
640,691	72,53
640,883	-1,19
641,075	21,33
641,268	121,68
641,46	72,53
641,652	54,1
641,844	39,76
642,037	56,15
642,229	21,33
642,421	119,64
642,613	109,4
642,805	-15,53
642,998	-15,53
643,19	99,16
643,382	168,79
643,574	74,58
643,766	-1,19
643,958	70,48
644,15	86,87
644,342	99,16
644,534	70,48
644,726	90,96
644,918	152,4
645,11	7
645,302	136,02
645,494	86,87
645,686	-23,72
645,878	172,88
646,07	160,59
646,262	119,64
646,453	127,83
646,645	119,64
646,837	113,49
647,029	95,06
647,221	164,69
647,413	56,15
647,604	45,91
647,796	142,16
647,988	86,87
648,18	39,76
648,371	-11,43
648,563	21,33
648,755	62,29
648,947	-54,44
649,138	72,53
649,33	113,49
649,521	86,87
649,713	21,33
649,905	103,25
650,096	129,88
650,288	111,44
650,479	-23,72
650,671	9,05
650,863	86,87
651,054	56,15
651,246	123,73
651,437	105,3
651,629	203,6
651,82	160,59
652,011	152,4
652,203	217,94
652,394	131,92
652,586	170,83
652,777	107,35
652,968	181,07
653,16	113,49
653,351	205,65
653,542	230,23
653,734	209,75
653,925	127,83
654,116	267,09
654,308	357,2
654,499	523,09
654,69	1631,04
654,881	4719,37
655,073	10123,96
655,264	17003,09
655,455	25790,92
655,646	36280,62
655,837	47491,2
656,028	55904,26
656,219	61802,41
656,411	64196,48
656,602	64196,48
656,793	64196,48
656,984	63354,77
657,175	57649,13
657,366	51972,16
657,557	44581,04
657,748	37820,69
657,939	32713,06
658,13	27441,59
658,321	22702,59
658,512	17748,55
658,703	12694,16
658,894	8221,4
659,084	5085,96
659,275	3261,22
659,466	2097,97
659,657	1481,53
659,848	1012,55
660,039	774,99
660,23	541,52
660,42	418,64
660,611	430,93
660,802	303,95
660,993	258,9
661,183	340,82
661,374	146,26
661,565	312,14
661,755	166,74
661,946	160,59
662,137	193,36
662,327	158,55
662,518	201,55
662,709	72,53
662,899	43,86
663,09	115,54
663,28	95,06
663,471	-11,43
663,662	205,65
663,852	156,5
664,043	50
664,233	13,14
664,424	111,44
664,614	76,63
664,804	50
664,995	129,88
665,185	160,59
665,376	93,01
665,566	97,11
665,756	7
665,947	33,62
666,137	37,72
666,328	136,02
666,518	99,16
666,708	0,85
666,898	-58,54
667,089	111,44
667,279	31,57
667,469	35,67
667,659	52,05
667,85	152,4
668,04	86,87
668,23	25,43
668,42	54,1
668,61	-27,82
668,8	-40,11
668,991	0,85
669,181	189,27
669,371	-11,43
669,561	-17,58
669,751	146,26
669,941	23,38
670,131	78,68
670,321	76,63
670,511	-48,3
670,701	62,29
670,891	45,91
671,081	4,95
671,271	-11,43
671,461	29,52
671,651	78,68
671,841	-3,24
672,03	127,83
672,22	-11,43
672,41	56,15
672,6	72,53
672,79	21,33
672,98	-19,63
673,169	-7,34
673,359	37,72
673,549	17,24
673,739	-25,77
673,928	-40,11
674,118	-36,01
674,308	-31,91
674,497	66,39
674,687	-21,67
674,877	45,91
675,066	64,34
675,256	-5,29
675,446	160,59
675,635	21,33
675,825	-11,43
676,014	62,29
676,204	-58,54
676,393	119,64
676,583	78,68
676,772	64,34
676,962	-1,19
677,151	33,62
677,341	-48,3
677,53	62,29
677,72	-52,39
677,909	95,06
678,099	-68,78
678,288	15,19
678,477	-3,24
678,667	95,06
678,856	111,44
679,045	78,68
679,235	-9,39
679,424	90,96
679,613	140,12
679,802	52,05
679,992	13,14
680,181	13,14
680,37	62,29
680,559	31,57
680,748	62,29
680,938	23,38
681,127	-3,24
681,316	56,15
681,505	27,48
681,694	-15,53
681,883	62,29
682,072	-62,63
682,261	86,87
682,45	-3,24
682,639	41,81
682,828	74,58
683,017	95,06
683,206	-33,96
683,395	9,05
683,584	95,06
683,773	33,62
683,962	31,57
684,151	4,95
684,34	-1,19
684,529	-1,19
684,718	37,72
684,907	-19,63
685,095	62,29
685,284	66,39
685,473	56,15
685,662	-36,01
685,851	-3,24
686,039	56,15
686,228	54,1
686,417	-27,82
686,606	140,12
686,794	-52,39
686,983	-19,63
687,172	39,76
687,36	58,2
687,549	62,29
687,738	13,14
687,926	-33,96
688,115	13,14
688,303	-11,43
688,492	4,95
688,68	-36,01
688,869	-36,01
689,057	-52,39
689,246	-60,59
689,434	41,81
689,623	4,95
689,811	41,81
690	-27,82
690,188	-27,82
690,377	-33,96
690,565	86,87
690,753	103,25
690,942	29,52
691,13	136,02
691,318	27,48
691,507	19,29
691,695	78,68
691,883	72,53
692,072	21,33
692,26	56,15
692,448	29,52
692,636	-25,77
692,824	25,43
693,013	54,1
693,201	62,29
693,389	-3,24
693,577	41,81
693,765	-7,34
693,953	-1,19
694,141	-50,35
694,329	-107,69
694,518	-9,39
694,706	56,15
694,894	72,53
695,082	37,72
695,27	7
695,458	-101,55
695,646	64,34
695,834	119,64
696,022	-36,01
696,209	58,2
696,397	0,85
696,585	64,34
696,773	39,76
696,961	29,52
697,149	13,14
697,337	21,33
697,525	17,24
697,712	27,48
697,9	58,2
698,088	82,77
698,276	-52,39
698,463	78,68
698,651	62,29
698,839	37,72
699,027	99,16
699,214	119,64
699,402	-3,24
699,59	-36,01
699,777	82,77
699,965	86,87
700,152	-11,43
700,34	103,25
700,528	66,39
700,715	-7,34
700,903	-3,24
701,09	127,83
701,278	31,57
701,465	76,63
701,653	-27,82
701,84	-17,58
702,028	119,64
702,215	70,48
702,402	19,29
702,59	54,1
702,777	62,29
702,965	0,85
703,152	29,52
703,339	103,25
703,527	-3,24
703,714	4,95
703,901	47,96
704,088	-31,91
704,276	13,14
704,463	-1,19
704,65	-27,82
704,837	-5,29
705,025	62,29
705,212	-5,29
705,399	13,14
705,586	4,95
705,773	47,96
705,96	37,72
706,147	0,85
706,335	-3,24
706,522	37,72
706,709	-7,34
706,896	64,34
707,083	56,15
707,27	54,1
707,457	21,33
707,644	45,91
707,831	23,38
708,018	-97,45
708,205	-44,2
708,392	47,96
708,578	50
708,765	-60,59
708,952	-46,25
709,139	-29,87
709,326	-27,82
709,513	64,34
709,7	-36,01
709,886	156,5
710,073	90,96
710,26	133,97
710,447	23,38
710,633	66,39
710,82	33,62
711,007	13,14
711,193	7
711,38	31,57
711,567	17,24
711,753	21,33
711,94	2,9
712,127	-44,2
712,313	144,21
712,5	-3,24
712,686	7
712,873	-19,63
713,059	29,52
713,246	31,57
713,432	-11,43
713,619	-19,63
713,805	66,39
713,992	107,35
714,178	21,33
714,365	56,15
714,551	56,15
714,737	68,44
714,924	-15,53
715,11	56,15
715,297	33,62
715,483	43,86
715,669	-1,19
715,855	21,33
716,042	19,29
716,228	-1,19
716,414	-3,24
716,6	97,11
716,787	37,72
716,973	-27,82
717,159	144,21
717,345	45,91
717,531	-44,2
717,718	97,11
717,904	37,72
718,09	-11,43
718,276	-5,29
718,462	7
718,648	56,15
718,834	9,05
719,02	76,63
719,206	-33,96
719,392	7
719,578	25,43
719,764	60,24
719,95	-9,39
720,136	86,87
720,322	7
720,508	-36,01
720,694	-11,43
720,879	-38,06
721,065	62,29
721,251	72,53
721,437	23,38
721,623	117,59
721,809	9,05
721,994	50
722,18	-56,49
722,366	9,05
722,552	-44,2
722,737	-17,58
722,923	31,57
723,109	50
723,294	33,62
723,48	123,73
723,666	86,87
723,851	-56,49
724,037	164,69
724,222	107,35
724,408	45,91
724,593	54,1
724,779	13,14
724,965	23,38
725,15	13,14
725,336	72,53
725,521	160,59
725,706	60,24
725,892	45,91
726,077	4,95
726,263	-19,63
726,448	158,55
726,634	56,15
726,819	144,21
727,004	62,29
727,19	-62,63
727,375	45,91
727,56	4,95
727,745	-70,83
727,931	90,96
728,116	-1,19
728,301	13,14
728,486	80,72
728,672	4,95
728,857	70,48
729,042	9,05
729,227	-3,24
729,412	25,43
729,597	-76,97
729,783	-31,91
729,968	-27,82
730,153	105,3
730,338	-25,77
730,523	-7,34
730,708	4,95
730,893	-23,72
731,078	13,14
731,263	47,96
731,448	-48,3
731,633	45,91
731,818	-9,39
732,003	-3,24
732,187	-36,01
732,372	13,14
732,557	64,34
732,742	-60,59
732,927	-27,82
733,112	95,06
733,297	-17,58
733,481	19,29
733,666	78,68
733,851	9,05
734,036	-50,35
734,22	23,38
734,405	189,27
734,59	-40,11
734,774	72,53
734,959	-27,82
735,144	74,58
735,328	-19,63
735,513	45,91
735,698	43,86
735,882	97,11
736,067	90,96
736,251	62,29
736,436	-46,25
736,62	66,39
736,805	31,57
736,989	115,54
737,174	-111,78
737,358	29,52
737,543	-19,63
737,727	95,06
737,911	127,83
738,096	33,62
738,28	17,24
738,465	25,43
738,649	-38,06
738,833	2,9
739,018	-27,82
739,202	4,95
739,386	-21,67
739,57	4,95
739,755	45,91
739,939	60,24
740,123	7
740,307	74,58
740,491	37,72
740,676	-3,24
740,86	39,76
741,044	-23,72
741,228	23,38
741,412	-148,65
741,596	-70,83
741,78	39,76
741,964	54,1
742,148	-15,53
742,332	7
742,516	-66,73
742,7	29,52
742,884	45,91
743,068	-25,77
743,252	107,35
743,436	4,95
743,62	-122,02
743,804	99,16
743,988	127,83
744,172	-29,87
744,356	15,19
744,539	13,14
744,723	15,19
744,907	-36,01
745,091	72,53
745,275	105,3
745,458	80,72
745,642	-5,29
745,826	-7,34
746,009	54,1
746,193	62,29
746,377	70,48
746,56	29,52
746,744	152,4
746,928	66,39
747,111	111,44
747,295	29,52
747,478	101,2
747,662	47,96
747,846	113,49
748,029	97,11
748,213	-5,29
748,396	-17,58
748,58	37,72
748,763	-27,82
748,946	66,39
749,13	35,67
749,313	-11,43
749,497	80,72
749,68	29,52
749,863	25,43
750,047	-68,78
750,23	21,33
750,413	70,48
750,597	37,72
750,78	-3,24
750,963	84,82
751,146	45,91
751,33	62,29
751,513	97,11
751,696	41,81
751,879	-11,43
752,062	4,95
752,246	7
752,429	86,87
752,612	54,1
752,795	54,1
752,978	37,72
753,161	-50,35
753,344	-36,01
753,527	-3,24
753,71	-1,19
753,893	78,68
754,076	-25,77
754,259	136,02
754,442	13,14
754,625	-122,02
754,808	66,39
754,991	9,05
755,174	-25,77
755,357	21,33
755,539	29,52
755,722	95,06
755,905	-1,19
756,088	-1,19
756,271	39,76
756,453	105,3
756,636	-111,78
756,819	58,2
757,002	7
757,184	129,88
757,367	76,63
757,55	45,91
757,732	7
757,915	-101,55
758,098	7
758,28	45,91
758,463	-13,48
758,645	41,81
758,828	86,87
759,011	103,25
759,193	29,52
759,376	125,78
759,558	-36,01
759,741	-7,34
759,923	-9,39
760,105	-17,58
760,288	21,33
760,47	-44,2
760,653	-25,77
760,835	97,11
761,017	-9,39
761,2	11,09
761,382	58,2
761,564	31,57
761,747	39,76
761,929	13,14
762,111	72,53
762,294	78,68
762,476	160,59
762,658	29,52
762,84	133,97
763,022	-29,87
763,205	54,1
763,387	119,64
763,569	-17,58
763,751	-101,55
763,933	-27,82
764,115	37,72
764,297	95,06
764,479	4,95
764,661	19,29
764,843	105,3
765,025	17,24
765,207	43,86
765,389	52,05
765,571	-54,44
765,753	9,05
765,935	-56,49
766,117	54,1
766,299	56,15
766,481	115,54
766,663	-72,87
766,845	-85,16
767,026	-31,91
767,208	37,72
767,39	-19,63
767,572	-27,82
767,753	103,25
767,935	60,24
768,117	9,05
768,299	45,91
768,48	62,29
768,662	97,11
768,844	-31,91
769,025	164,69
769,207	62,29
769,389	-36,01
769,57	11,09
769,752	54,1
769,933	-17,58
770,115	148,31
770,296	-9,39
770,478	78,68
770,659	31,57
770,841	201,55
771,022	-11,43
771,204	148,31
771,385	-36,01
771,567	136,02
771,748	168,79
771,929	-52,39
772,111	56,15
772,292	113,49
772,473	45,91
772,655	39,76
772,836	62,29
773,017	88,92
773,199	-33,96
773,38	117,59
773,561	58,2
773,742	29,52
773,923	13,14
774,105	43,86
774,286	103,25
774,467	11,09
774,648	90,96
774,829	176,98
775,01	7
775,191	17,24
775,372	70,48
775,553	37,72
775,734	4,95
775,915	86,87
776,096	455,5
776,277	965,45
776,458	1758,01
776,639	2642,73
776,82	3433,25
777,001	4129,56
777,182	5137,16
777,363	5583,62
777,544	5731,07
777,725	5325,57
777,906	4879,11
778,086	4279,06
778,267	3906,33
778,448	2853,67
778,629	2364,21
778,809	2034,49
778,99	1653,56
779,171	1479,49
779,352	1325,89
779,532	1125,19
779,713	1080,13
779,894	1117
780,074	1137,48
780,255	914,25
780,435	824,14
780,616	629,58
780,797	521,04
780,977	250,71
781,158	226,13
781,338	146,26
781,519	119,64
781,699	222,03
781,88	103,25
782,06	60,24
782,241	-1,19
782,421	-36,01
782,601	54,1
782,782	78,68
782,962	74,58
783,142	-15,53
783,323	62,29
783,503	119,64
783,683	66,39
783,864	105,3
784,044	74,58
784,224	50
784,404	-56,49
784,585	62,29
784,765	25,43
784,945	136,02
785,125	4,95
785,305	27,48
785,485	97,11
785,666	99,16
785,846	-44,2
786,026	21,33
786,206	-66,73
786,386	15,19
786,566	119,64
786,746	-19,63
786,926	41,81
787,106	-52,39
787,286	70,48
787,466	-60,59
787,646	93,01
787,826	-9,39
788,006	41,81
788,185	21,33
788,365	13,14
788,545	103,25
788,725	-29,87
788,905	105,3
789,085	7
789,264	-19,63
789,444	131,92
789,624	15,19
789,804	-11,43
789,983	62,29
790,163	62,29
790,343	45,91
790,522	64,34
790,702	25,43
790,882	-36,01
791,061	162,64
791,241	37,72
791,42	52,05
791,6	-11,43
791,78	25,43
791,959	-31,91
792,139	-46,25
792,318	45,91
792,498	72,53
792,677	80,72
792,856	47,96
793,036	15,19
793,215	-93,35
793,395	43,86
793,574	-7,34
793,753	0,85
793,933	37,72
794,112	74,58
794,291	17,24
794,471	156,5
794,65	15,19
794,829	37,72
795,008	7
795,188	127,83
795,367	80,72
795,546	15,19
795,725	29,52
795,904	54,1
796,084	62,29
796,263	29,52
796,442	99,16
796,621	-3,24
796,8	72,53
796,979	95,06
797,158	43,86
797,337	13,14
797,516	45,91
797,695	97,11
797,874	74,58
798,053	111,44
798,232	37,72
798,411	-13,48
798,59	-1,19
798,769	-1,19
798,947	-5,29
799,126	-19,63
799,305	-36,01
799,484	56,15
799,663	-117,93
799,842	62,29
800,02	82,77
800,199	-36,01
800,378	109,4
800,557	-44,2
800,735	0,85
800,914	-1,19
801,093	21,33
801,271	86,87
801,45	33,62
801,628	29,52
801,807	-46,25
801,986	21,33
802,164	113,49
802,343	4,95
802,521	-33,96
802,7	70,48
802,878	97,11
803,057	23,38
803,235	50
803,414	33,62
803,592	93,01
803,771	45,91
803,949	86,87
804,127	80,72
804,306	144,21
804,484	-19,63
804,662	37,72
804,841	-142,5
805,019	45,91
805,197	37,72
805,375	-27,82
805,554	15,19
805,732	62,29
805,91	97,11
806,088	-19,63
806,266	-31,91
806,445	-42,15
806,623	-19,63
806,801	37,72
806,979	45,91
807,157	101,2
807,335	-72,87
807,513	21,33
807,691	21,33
807,869	29,52
808,047	-38,06
808,225	-85,16
808,403	123,73
808,581	0,85
808,759	140,12
808,937	93,01
809,115	54,1
809,293	72,53
809,471	-19,63
809,649	54,1
809,826	66,39
810,004	37,72
810,182	43,86
810,36	9,05
810,538	23,38
810,715	45,91
810,893	-33,96
811,071	74,58
811,248	66,39
811,426	54,1
811,604	58,2
811,781	45,91
811,959	70,48
812,137	-7,34
812,314	-58,54
812,492	37,72
812,669	-68,78
812,847	-58,54
813,024	-25,77
813,202	103,25
813,379	31,57
813,557	11,09
813,734	62,29
813,912	37,72
814,089	-31,91
814,267	97,11
814,444	25,43
814,621	56,15
814,799	-44,2
814,976	105,3
815,153	35,67
815,331	74,58
815,508	9,05
815,685	21,33
815,862	58,2
816,04	-31,91
816,217	4,95
816,394	45,91
816,571	64,34
816,748	176,98
816,926	138,07
817,103	297,81
817,28	-3,24
817,457	13,14
817,634	4,95
817,811	54,1
817,988	56,15
818,165	29,52
818,342	70,48
818,519	54,1
818,696	-66,73
818,873	-1,19
819,05	103,25
819,227	45,91
819,404	58,2
819,581	41,81
819,758	-29,87
819,934	45,91
820,111	-76,97
820,288	97,11
820,465	113,49
820,642	31,57
820,818	101,2
820,995	-58,54
821,172	43,86
821,349	45,91
821,525	70,48
821,702	7
821,879	-23,72
822,055	7
822,232	31,57
822,409	25,43
822,585	37,72
822,762	41,81
822,938	88,92
823,115	105,3
823,291	70,48
823,468	224,08
823,644	21,33
823,821	105,3
823,997	-27,82
824,174	-36,01
824,35	-25,77
824,527	29,52
824,703	-23,72
824,879	60,24
825,056	-46,25
825,232	86,87
825,408	-33,96
825,585	13,14
825,761	27,48
825,937	-56,49
826,113	15,19
826,29	80,72
826,466	4,95
826,642	394,06
826,818	25,43
826,994	31,57
827,17	-52,39
827,347	-33,96
827,523	-81,07
827,699	47,96
827,875	-64,68
828,051	54,1
828,227	64,34
828,403	80,72
828,579	17,24
828,755	86,87
828,931	-27,82
829,107	21,33
829,283	144,21
829,459	-11,43
829,635	54,1
829,811	-33,96
829,986	-19,63
830,162	95,06
830,338	-36,01
830,514	-15,53
830,69	23,38
830,865	-66,73
831,041	-19,63
831,217	4,95
831,393	-1,19
831,568	60,24
831,744	95,06
831,92	-19,63
832,095	-11,43
832,271	-58,54
832,447	43,86
832,622	138,07
832,798	-11,43
832,973	4,95
833,149	45,91
833,325	-15,53
833,5	-3,24
833,676	-19,63
833,851	72,53
834,027	0,85
834,202	23,38
834,377	15,19
834,553	-60,59
834,728	31,57
834,904	2,9
835,079	37,72
835,254	-19,63
835,43	33,62
835,605	56,15
835,78	13,14
835,955	21,33
836,131	-19,63
836,306	0,85
836,481	23,38
836,656	39,76
836,832	86,87
837,007	-83,11
837,182	4,95
837,357	54,1
837,532	31,57
837,707	-44,2
837,882	58,2
838,057	15,19
838,232	103,25
838,407	72,53
838,582	-72,87
838,757	45,91
838,932	119,64
839,107	37,72
839,282	-79,02
839,457	54,1
839,632	62,29
839,807	21,33
839,982	37,72
840,157	54,1
840,332	-5,29
840,506	-25,77
840,681	-27,82
840,856	7
841,031	-17,58
841,205	-81,07
841,38	72,53
841,555	47,96
841,73	-9,39
841,904	-3,24
842,079	-60,59
842,254	33,62
842,428	-21,67
842,603	-17,58
842,777	-25,77
842,952	95,06
843,126	0,85
843,301	127,83
843,476	191,31
843,65	506,7
843,825	830,28
843,999	1033,03
844,173	1188,68
844,348	1295,17
844,522	1588,03
844,697	1538,88
844,871	1471,29
845,045	1413,95
845,22	1151,81
845,394	1170,24
845,568	897,86
845,743	971,59
845,917	783,18
846,091	727,88
846,265	668,49
846,44	623,44
846,614	566,09
846,788	619,34
846,962	590,67
847,136	594,76
847,31	484,17
847,485	504,65
847,659	430,93
847,833	490,32
848,007	416,59
848,181	455,5
848,355	310,1
848,529	381,78
848,703	289,62
848,877	82,77
849,051	215,89
849,225	72,53
849,399	13,14
849,573	-7,34
849,746	-19,63
849,92	29,52
850,094	-27,82
850,268	29,52
850,442	86,87
850,616	41,81
850,789	-17,58
850,963	-66,73
851,137	0,85
851,311	111,44
851,484	119,64
851,658	43,86
851,832	-31,91
852,005	37,72
852,179	41,81
852,352	-36,01
852,526	-31,91
852,7	50
852,873	-76,97
853,047	-1,19
853,22	13,14
853,394	193,36
853,567	41,81
853,741	88,92
853,914	15,19
854,088	23,38
854,261	37,72
854,434	2,9
854,608	4,95
854,781	37,72
854,955	-31,91
855,128	27,48
855,301	56,15
855,475	21,33
855,648	-36,01
855,821	4,95
855,994	111,44
856,168	50
856,341	119,64
856,514	54,1
856,687	13,14
856,86	80,72
857,033	82,77
857,207	4,95
857,38	-56,49
857,553	205,65
857,726	27,48
857,899	105,3
858,072	-74,92
858,245	-19,63
858,418	58,2
858,591	-27,82
858,764	-17,58
858,937	-3,24
859,11	68,44
859,283	9,05
859,455	23,38
859,628	47,96
859,801	78,68
859,974	133,97
860,147	-58,54
860,32	78,68
860,492	-15,53
860,665	-68,78
860,838	78,68
861,011	-27,82
861,183	56,15
861,356	43,86
861,529	74,58
861,701	56,15
861,874	4,95
862,047	113,49
862,219	-36,01
862,392	56,15
862,564	27,48
862,737	54,1
862,909	54,1
863,082	-27,82
863,254	54,1
863,427	86,87
863,599	56,15
863,772	17,24
863,944	4,95
864,117	31,57
864,289	-29,87
864,461	-21,67
864,634	23,38
864,806	-40,11
864,978	7
865,151	-91,31
865,323	66,39
865,495	74,58
865,667	-3,24
865,84	160,59
866,012	-27,82
866,184	60,24
866,356	-1,19
866,528	21,33
866,7	-36,01
866,873	9,05
867,045	62,29
867,217	-17,58
867,389	41,81
867,561	-38,06
867,733	-27,82
867,905	-19,63
868,077	-27,82
868,249	-7,34
868,421	64,34
868,593	-5,29
868,765	82,77
868,936	-99,5
869,108	62,29
869,28	54,1
869,452	-81,07
869,624	-36,01
869,796	70,48
869,968	29,52
870,139	58,2
870,311	-36,01
870,483	129,88
870,654	-83,11
870,826	-19,63
870,998	4,95
871,17	37,72
871,341	-60,59
871,513	68,44
871,684	-19,63
871,856	-11,43
872,028	52,05
872,199	-17,58
872,371	-44,2
872,542	-36,01
872,714	45,91
872,885	41,81
873,057	25,43
873,228	56,15
873,4	54,1
873,571	111,44
873,742	-19,63
873,914	105,3
874,085	76,63
874,256	13,14
874,428	31,57
874,599	-5,29
874,77	107,35
874,942	82,77
875,113	33,62
875,284	-31,91
875,455	21,33
875,626	-11,43
875,798	-27,82
875,969	-31,91
876,14	23,38
876,311	13,14
876,482	50
876,653	21,33
876,824	168,79
876,995	72,53
877,166	39,76
877,337	127,83
877,508	-42,15
877,679	-15,53
877,85	-52,39
878,021	4,95
878,192	80,72
878,363	4,95
878,534	-50,35
878,705	-74,92
878,876	33,62
879,047	56,15
879,217	-85,16
879,388	47,96
879,559	17,24
879,73	117,59
879,9	15,19
880,071	-31,91
880,242	-66,73
880,413	9,05
880,583	119,64
880,754	62,29
880,924	33,62
881,095	-44,2
881,266	-27,82
881,436	111,44
881,607	80,72
881,777	-31,91
881,948	29,52
882,118	29,52
882,289	9,05
882,459	13,14
882,63	-23,72
882,8	47,96
882,971	103,25
883,141	29,52
883,311	78,68
883,482	107,35
883,652	66,39
883,822	31,57
883,993	-13,48
884,163	37,72
884,333	15,19
884,504	95,06
884,674	80,72
884,844	-36,01
885,014	-52,39
885,184	-27,82
885,355	-48,3
885,525	-60,59
885,695	47,96
885,865	111,44
886,035	21,33
886,205	-33,96
886,375	39,76
886,545	-19,63
886,715	-44,2
886,885	17,24
887,055	15,19
887,225	-27,82
887,395	4,95
887,565	68,44
887,735	70,48
887,905	56,15
888,075	-36,01
888,244	105,3
888,414	13,14
888,584	84,82
888,754	-3,24
888,924	-17,58
889,093	199,51
889,263	-50,35
889,433	-3,24
889,603	2,9
889,772	-36,01
889,942	129,88
890,111	80,72
890,281	47,96
890,451	37,72
890,62	47,96
890,79	54,1
890,959	-21,67
891,129	21,33
891,298	29,52
891,468	25,43
891,637	95,06
891,807	-21,67
891,976	-19,63
892,146	-3,24
892,315	-11,43
892,485	101,2
892,654	-11,43
892,823	-19,63
892,993	56,15
893,162	31,57
893,331	56,15
893,501	70,48
893,67	56,15
893,839	54,1
894,008	47,96
894,177	15,19
894,347	15,19
894,516	144,21
894,685	41,81
894,854	66,39
895,023	74,58
895,192	21,33
