Data from h2o_USB4F104161__12__11-48-47-208.txt Node

Date: Tue Apr 14 11:48:47 EDT 2026
User: LaboPhy
Spectrometer: USB4F10416
Trigger mode: 4
Integration Time (sec): 1,000000E-1
Scans to average: 1
Electric dark correction enabled: true
Nonlinearity correction enabled: false
Boxcar width: 0
XAxis mode: Wavelengths
Number of Pixels in Spectrum: 3648
>>>>>Begin Spectral Data<<<<<
177,847	-164,18
178,066	-164,18
178,284	-164,18
178,502	-141,65
178,72	-135,51
178,939	48,81
179,157	-0,34
179,375	20,14
179,593	44,71
179,812	-12,63
180,03	75,43
180,248	-4,44
180,466	-49,49
180,685	-20,82
180,903	28,33
181,121	-94,55
181,339	-35,16
181,557	-20,82
181,775	36,52
181,994	52,91
182,212	-26,96
182,43	-24,92
182,648	20,14
182,866	20,14
183,084	63,15
183,302	-49,49
183,52	32,43
183,739	85,67
183,957	52,91
184,175	28,33
184,393	-22,87
184,611	-12,63
184,829	36,52
185,047	-16,73
185,265	77,48
185,483	-24,92
185,701	61,1
185,919	36,52
186,137	22,19
186,355	-84,31
186,573	143,02
186,791	161,45
187,009	20,14
187,227	38,57
187,445	-8,53
187,663	7,85
187,881	-2,39
188,098	102,06
188,316	81,58
188,534	147,11
188,752	28,33
188,97	-45,4
189,188	95,91
189,406	106,15
189,624	106,15
189,841	28,33
190,059	-12,63
190,277	40,62
190,495	-18,77
190,713	138,92
190,931	208,55
191,148	81,58
191,366	-0,34
191,584	22,19
191,802	85,67
192,019	122,54
192,237	5,8
192,455	57
192,673	122,54
192,89	-92,5
193,108	24,23
193,326	-20,82
193,543	67,24
193,761	-2,39
193,979	104,11
194,196	-29,01
194,414	102,06
194,632	-26,96
194,849	-49,49
195,067	-65,88
195,285	73,39
195,502	-76,12
195,72	-20,82
195,937	30,38
196,155	87,72
196,373	-0,34
196,59	-4,44
196,808	-61,78
197,025	118,44
197,243	290,47
197,46	40,62
197,678	-10,58
197,895	-12,63
198,113	-0,34
198,33	9,9
198,548	81,58
198,765	11,95
198,983	-61,78
199,2	-65,88
199,418	26,28
199,635	-10,58
199,853	52,91
200,07	-100,69
200,288	1,71
200,505	-2,39
200,722	89,77
200,94	-10,58
201,157	7,85
201,375	93,87
201,592	28,33
201,809	28,33
202,027	61,1
202,244	81,58
202,461	-0,34
202,679	11,95
202,896	44,71
203,113	-43,35
203,331	-2,39
203,548	48,81
203,765	81,58
203,982	57
204,2	36,52
204,417	-43,35
204,634	196,26
204,851	11,95
205,069	7,85
205,286	81,58
205,503	-2,39
205,72	28,33
205,937	20,14
206,155	44,71
206,372	71,34
206,589	-61,78
206,806	63,15
207,023	106,15
207,24	65,19
207,458	-72,02
207,675	22,19
207,892	-39,25
208,109	-33,11
208,326	30,38
208,543	32,43
208,76	-18,77
208,977	46,76
209,194	186,02
209,411	57
209,628	-39,25
209,845	89,77
210,062	-43,35
210,279	-26,96
210,496	-26,96
210,713	-63,83
210,93	61,1
211,147	44,71
211,364	5,8
211,581	3,75
211,798	122,54
212,015	-61,78
212,232	13,99
212,449	36,52
212,666	54,95
212,883	63,15
213,1	11,95
213,317	22,19
213,533	-16,73
213,75	36,52
213,967	63,15
214,184	-41,3
214,401	36,52
214,618	-59,73
214,835	26,28
215,051	9,9
215,268	95,91
215,485	63,15
215,702	18,09
215,919	-29,01
216,135	214,7
216,352	18,09
216,569	30,38
216,786	22,19
217,002	77,48
217,219	69,29
217,436	-18,77
217,652	-76,12
217,869	116,39
218,086	151,21
218,302	36,52
218,519	48,81
218,736	16,04
218,952	-69,97
219,169	36,52
219,386	71,34
219,602	112,3
219,819	44,71
220,036	-108,88
220,252	134,82
220,469	48,81
220,685	44,71
220,902	24,23
221,118	71,34
221,335	36,52
221,552	-8,53
221,768	81,58
221,985	54,95
222,201	65,19
222,418	93,87
222,634	-31,06
222,851	42,67
223,067	42,67
223,284	16,04
223,5	-12,63
223,716	52,91
223,933	54,95
224,149	-8,53
224,366	79,53
224,582	7,85
224,799	-12,63
225,015	20,14
225,231	13,99
225,448	91,82
225,664	-18,77
225,88	-43,35
226,097	71,34
226,313	-74,07
226,529	20,14
226,746	44,71
226,962	-4,44
227,178	71,34
227,395	-121,17
227,611	13,99
227,827	67,24
228,044	110,25
228,26	71,34
228,476	3,75
228,692	136,87
228,909	77,48
229,125	46,76
229,341	-110,93
229,557	-24,92
229,773	-0,34
229,99	61,1
230,206	-43,35
230,422	28,33
230,638	-37,2
230,854	5,8
231,07	-172,37
231,286	79,53
231,503	-55,64
231,719	20,14
231,935	77,48
232,151	-76,12
232,367	114,34
232,583	13,99
232,799	28,33
233,015	52,91
233,231	36,52
233,447	-74,07
233,663	-12,63
233,879	-61,78
234,095	20,14
234,311	26,28
234,527	57
234,743	110,25
234,959	5,8
235,175	7,85
235,391	22,19
235,607	-39,25
235,823	118,44
236,039	-43,35
236,255	-29,01
236,471	69,29
236,687	61,1
236,903	87,72
237,118	38,57
237,334	-35,16
237,55	93,87
237,766	-51,54
237,982	44,71
238,198	130,73
238,413	36,52
238,629	36,52
238,845	63,15
239,061	32,43
239,277	-35,16
239,492	-43,35
239,708	79,53
239,924	-14,68
240,14	7,85
240,355	110,25
240,571	20,14
240,787	73,39
241,003	57
241,218	44,71
241,434	-12,63
241,65	85,67
241,865	-57,68
242,081	71,34
242,297	28,33
242,512	-4,44
242,728	-45,4
242,944	-47,44
243,159	143,02
243,375	-10,58
243,59	42,67
243,806	40,62
244,022	95,91
244,237	91,82
244,453	-2,39
244,668	32,43
244,884	147,11
245,099	57
245,315	87,72
245,53	85,67
245,746	114,34
245,961	69,29
246,177	79,53
246,392	79,53
246,608	30,38
246,823	-14,68
247,039	-12,63
247,254	-78,16
247,47	106,15
247,685	-8,53
247,9	-26,96
248,116	-33,11
248,331	44,71
248,547	69,29
248,762	-26,96
248,977	112,3
249,193	44,71
249,408	67,24
249,623	-61,78
249,839	-0,34
250,054	-2,39
250,269	3,75
250,485	11,95
250,7	36,52
250,915	3,75
251,13	69,29
251,346	16,04
251,561	134,82
251,776	128,68
251,991	-84,31
252,207	87,72
252,422	-35,16
252,637	-90,45
252,852	30,38
253,067	-45,4
253,283	36,52
253,498	34,47
253,713	13,99
253,928	-4,44
254,143	-41,3
254,358	95,91
254,573	-55,64
254,788	-29,01
255,004	40,62
255,219	-59,73
255,434	-45,4
255,649	-33,11
255,864	69,29
256,079	20,14
256,294	71,34
256,509	-4,44
256,724	-18,77
256,939	-98,64
257,154	57
257,369	91,82
257,584	46,76
257,799	-6,49
258,014	32,43
258,229	97,96
258,444	-14,68
258,659	20,14
258,874	44,71
259,089	50,86
259,304	61,1
259,518	5,8
259,733	3,75
259,948	3,75
260,163	40,62
260,378	83,63
260,593	-14,68
260,808	126,63
261,022	-69,97
261,237	11,95
261,452	38,57
261,667	-24,92
261,882	52,91
262,096	50,86
262,311	120,49
262,526	-61,78
262,741	3,75
262,955	26,28
263,17	63,15
263,385	3,75
263,6	-20,82
263,814	-16,73
264,029	-49,49
264,244	46,76
264,458	11,95
264,673	54,95
264,888	5,8
265,102	44,71
265,317	16,04
265,532	20,14
265,746	48,81
265,961	24,23
266,175	28,33
266,39	-4,44
266,605	48,81
266,819	85,67
267,034	134,82
267,248	-2,39
267,463	77,48
267,677	-67,92
267,892	-20,82
268,106	-26,96
268,321	77,48
268,535	-6,49
268,75	65,19
268,964	-43,35
269,179	54,95
269,393	85,67
269,608	167,59
269,822	-43,35
270,036	-45,4
270,251	-37,2
270,465	20,14
270,68	71,34
270,894	7,85
271,108	200,36
271,323	77,48
271,537	77,48
271,752	57
271,966	65,19
272,18	-51,54
272,394	-49,49
272,609	30,38
272,823	93,87
273,037	54,95
273,252	-4,44
273,466	13,99
273,68	85,67
273,894	77,48
274,109	20,14
274,323	-24,92
274,537	61,1
274,751	-8,53
274,966	77,48
275,18	3,75
275,394	5,8
275,608	-26,96
275,822	-14,68
276,036	40,62
276,25	52,91
276,465	-2,39
276,679	44,71
276,893	-18,77
277,107	114,34
277,321	-20,82
277,535	120,49
277,749	122,54
277,963	44,71
278,177	1,71
278,391	16,04
278,605	-84,31
278,819	38,57
279,033	-20,82
279,247	-12,63
279,461	134,82
279,675	46,76
279,889	-16,73
280,103	52,91
280,317	93,87
280,531	-20,82
280,745	-37,2
280,959	-26,96
281,173	28,33
281,387	48,81
281,601	38,57
281,815	104,11
282,029	-67,92
282,242	-16,73
282,456	7,85
282,67	36,52
282,884	-59,73
283,098	-0,34
283,312	20,14
283,525	3,75
283,739	-26,96
283,953	3,75
284,167	89,77
284,381	-0,34
284,594	44,71
284,808	13,99
285,022	-12,63
285,235	-4,44
285,449	44,71
285,663	-20,82
285,877	13,99
286,09	11,95
286,304	143,02
286,518	28,33
286,731	-166,23
286,945	36,52
287,159	-37,2
287,372	-12,63
287,586	57
287,799	-33,11
288,013	-94,55
288,227	-10,58
288,44	194,22
288,654	7,85
288,867	-26,96
289,081	69,29
289,294	61,1
289,508	151,21
289,721	-0,34
289,935	52,91
290,148	59,05
290,362	1,71
290,575	79,53
290,789	36,52
291,002	-18,77
291,216	114,34
291,429	20,14
291,643	89,77
291,856	-16,73
292,069	11,95
292,283	-4,44
292,496	52,91
292,71	24,23
292,923	-20,82
293,136	20,14
293,35	-53,59
293,563	-20,82
293,776	13,99
293,99	81,58
294,203	24,23
294,416	-18,77
294,63	13,99
294,843	40,62
295,056	61,1
295,269	3,75
295,483	-10,58
295,696	48,81
295,909	32,43
296,122	-2,39
296,335	52,91
296,549	77,48
296,762	-37,2
296,975	44,71
297,188	16,04
297,401	69,29
297,615	20,14
297,828	36,52
298,041	106,15
298,254	-100,69
298,467	9,9
298,68	28,33
298,893	26,28
299,106	-57,68
299,319	95,91
299,532	-0,34
299,745	7,85
299,958	-37,2
300,171	-10,58
300,384	-26,96
300,598	-90,45
300,81	61,1
301,023	-10,58
301,236	-4,44
301,449	38,57
301,662	30,38
301,875	11,95
302,088	57
302,301	-53,59
302,514	32,43
302,727	63,15
302,94	9,9
303,153	-2,39
303,366	-2,39
303,579	-45,4
303,791	5,8
304,004	-24,92
304,217	5,8
304,43	-4,44
304,643	69,29
304,855	-29,01
305,068	-20,82
305,281	73,39
305,494	61,1
305,707	93,87
305,919	147,11
306,132	93,87
306,345	69,29
306,558	77,48
306,77	-0,34
306,983	11,95
307,196	75,43
307,408	20,14
307,621	48,81
307,834	28,33
308,046	54,95
308,259	-20,82
308,472	-14,68
308,684	122,54
308,897	-35,16
309,109	-31,06
309,322	-4,44
309,535	89,77
309,747	65,19
309,96	85,67
310,172	69,29
310,385	46,76
310,597	-20,82
310,81	83,63
311,022	-20,82
311,235	11,95
311,447	54,95
311,66	-10,58
311,872	118,44
312,085	136,87
312,297	-0,34
312,51	-2,39
312,722	-61,78
312,934	61,1
313,147	26,28
313,359	48,81
313,572	-20,82
313,784	73,39
313,996	63,15
314,209	192,17
314,421	16,04
314,633	-4,44
314,846	63,15
315,058	52,91
315,27	52,91
315,483	93,87
315,695	73,39
315,907	-0,34
316,119	81,58
316,332	52,91
316,544	130,73
316,756	87,72
316,968	93,87
317,181	34,47
317,393	-16,73
317,605	79,53
317,817	110,25
318,029	151,21
318,241	50,86
318,454	28,33
318,666	65,19
318,878	-24,92
319,09	16,04
319,302	73,39
319,514	42,67
319,726	57
319,938	132,78
320,15	81,58
320,362	77,48
320,574	-53,59
320,786	-10,58
320,999	71,34
321,211	145,06
321,423	52,91
321,635	-24,92
321,847	22,19
322,058	-0,34
322,27	28,33
322,482	138,92
322,694	36,52
322,906	28,33
323,118	104,11
323,33	77,48
323,542	-2,39
323,754	52,91
323,966	-65,88
324,178	83,63
324,389	-4,44
324,601	108,2
324,813	-4,44
325,025	22,19
325,237	5,8
325,449	73,39
325,66	-4,44
325,872	-53,59
326,084	20,14
326,296	40,62
326,507	13,99
326,719	7,85
326,931	22,19
327,143	54,95
327,354	126,63
327,566	36,52
327,778	151,21
327,989	11,95
328,201	42,67
328,413	63,15
328,624	104,11
328,836	81,58
329,048	-78,16
329,259	11,95
329,471	69,29
329,682	-26,96
329,894	11,95
330,106	-2,39
330,317	-22,87
330,529	36,52
330,74	11,95
330,952	46,76
331,163	-37,2
331,375	138,92
331,586	22,19
331,798	-41,3
332,009	36,52
332,221	36,52
332,432	-12,63
332,644	97,96
332,855	-29,01
333,067	-4,44
333,278	48,81
333,489	151,21
333,701	-61,78
333,912	-4,44
334,124	34,47
334,335	20,14
334,546	20,14
334,758	24,23
334,969	194,22
335,18	32,43
335,392	102,06
335,603	106,15
335,814	175,78
336,025	-10,58
336,237	59,05
336,448	120,49
336,659	145,06
336,87	177,83
337,082	188,07
337,293	48,81
337,504	159,4
337,715	106,15
337,926	52,91
338,138	73,39
338,349	77,48
338,56	50,86
338,771	38,57
338,982	36,52
339,193	3,75
339,404	67,24
339,616	73,39
339,827	40,62
340,038	-37,2
340,249	42,67
340,46	-14,68
340,671	44,71
340,882	114,34
341,093	65,19
341,304	-4,44
341,515	-78,16
341,726	-88,4
341,937	97,96
342,148	52,91
342,359	-24,92
342,57	9,9
342,781	85,67
342,992	-12,63
343,203	11,95
343,414	-20,82
343,624	-65,88
343,835	22,19
344,046	40,62
344,257	-49,49
344,468	-20,82
344,679	-37,2
344,89	40,62
345,1	-0,34
345,311	-43,35
345,522	54,95
345,733	-10,58
345,944	52,91
346,154	38,57
346,365	126,63
346,576	-119,12
346,787	-6,49
346,997	3,75
347,208	50,86
347,419	-76,12
347,629	112,3
347,84	128,68
348,051	-18,77
348,261	73,39
348,472	-26,96
348,683	5,8
348,893	3,75
349,104	-0,34
349,315	85,67
349,525	36,52
349,736	102,06
349,946	-18,77
350,157	95,91
350,368	106,15
350,578	-43,35
350,789	46,76
350,999	-12,63
351,21	126,63
351,42	5,8
351,631	22,19
351,841	69,29
352,052	34,47
352,262	85,67
352,472	28,33
352,683	48,81
352,893	30,38
353,104	63,15
353,314	251,56
353,525	407,2
353,735	145,06
353,945	38,57
354,156	-31,06
354,366	151,21
354,576	175,78
354,787	-4,44
354,997	36,52
355,207	69,29
355,418	52,91
355,628	59,05
355,838	93,87
356,048	126,63
356,259	237,22
356,469	104,11
356,679	110,25
356,889	179,88
357,1	132,78
357,31	69,29
357,52	188,07
357,73	69,29
357,94	157,35
358,15	34,47
358,361	85,67
358,571	81,58
358,781	95,91
358,991	-0,34
359,201	22,19
359,411	-31,06
359,621	48,81
359,831	183,98
360,041	87,72
360,251	110,25
360,461	7,85
360,672	85,67
360,882	-26,96
361,092	-12,63
361,302	93,87
361,512	71,34
361,721	13,99
361,931	-35,16
362,141	-20,82
362,351	-59,73
362,561	20,14
362,771	46,76
362,981	38,57
363,191	32,43
363,401	30,38
363,611	28,33
363,821	3,75
364,03	-43,35
364,24	-18,77
364,45	61,1
364,66	265,89
364,87	28,33
365,08	22,19
365,289	11,95
365,499	63,15
365,709	26,28
365,919	67,24
366,128	-61,78
366,338	71,34
366,548	-4,44
366,758	-12,63
366,967	85,67
367,177	104,11
367,387	128,68
367,596	73,39
367,806	59,05
368,016	28,33
368,225	85,67
368,435	102,06
368,644	20,14
368,854	75,43
369,064	128,68
369,273	104,11
369,483	46,76
369,692	61,1
369,902	38,57
370,111	128,68
370,321	114,34
370,53	36,52
370,74	38,57
370,949	104,11
371,159	136,87
371,368	136,87
371,578	85,67
371,787	85,67
371,997	-26,96
372,206	73,39
372,416	16,04
372,625	130,73
372,834	71,34
373,044	95,91
373,253	143,02
373,462	97,96
373,672	54,95
373,881	102,06
374,09	93,87
374,3	102,06
374,509	118,44
374,718	59,05
374,928	194,22
375,137	89,77
375,346	136,87
375,555	233,13
375,765	159,4
375,974	48,81
376,183	163,5
376,392	61,1
376,601	46,76
376,811	126,63
377,02	134,82
377,229	161,45
377,438	93,87
377,647	104,11
377,856	5,8
378,065	42,67
378,275	42,67
378,484	132,78
378,693	44,71
378,902	102,06
379,111	143,02
379,32	145,06
379,529	3,75
379,738	116,39
379,947	212,65
380,156	106,15
380,365	167,59
380,574	167,59
380,783	-0,34
380,992	81,58
381,201	48,81
381,41	69,29
381,619	38,57
381,828	110,25
382,037	20,14
382,245	59,05
382,454	52,91
382,663	-18,77
382,872	5,8
383,081	130,73
383,29	81,58
383,499	-22,87
383,707	145,06
383,916	159,4
384,125	110,25
384,334	69,29
384,542	136,87
384,751	89,77
384,96	48,81
385,169	-37,2
385,377	151,21
385,586	54,95
385,795	-8,53
386,004	91,82
386,212	-31,06
386,421	36,52
386,63	69,29
386,838	97,96
387,047	85,67
387,255	83,63
387,464	114,34
387,673	91,82
387,881	120,49
388,09	112,3
388,298	151,21
388,507	116,39
388,715	108,2
388,924	130,73
389,133	-12,63
389,341	97,96
389,55	145,06
389,758	46,76
389,967	157,35
390,175	110,25
390,383	175,78
390,592	57
390,8	34,47
391,009	77,48
391,217	108,2
391,426	118,44
391,634	20,14
391,842	36,52
392,051	77,48
392,259	11,95
392,467	69,29
392,676	-61,78
392,884	-0,34
393,092	38,57
393,301	28,33
393,509	93,87
393,717	151,21
393,925	151,21
394,134	24,23
394,342	167,59
394,55	202,41
394,758	204,46
394,967	30,38
395,175	118,44
395,383	44,71
395,591	44,71
395,799	110,25
396,007	22,19
396,216	208,55
396,424	-49,49
396,632	95,91
396,84	-18,77
397,048	126,63
397,256	87,72
397,464	69,29
397,672	114,34
397,88	126,63
398,088	54,95
398,296	65,19
398,504	48,81
398,712	63,15
398,92	104,11
399,128	44,71
399,336	71,34
399,544	134,82
399,752	114,34
399,96	114,34
400,168	83,63
400,376	102,06
400,584	200,36
400,792	32,43
401	-2,39
401,207	63,15
401,415	3,75
401,623	44,71
401,831	26,28
402,039	36,52
402,247	44,71
402,454	87,72
402,662	24,23
402,87	118,44
403,078	79,53
403,285	134,82
403,493	63,15
403,701	93,87
403,909	118,44
404,116	138,92
404,324	65,19
404,532	95,91
404,739	63,15
404,947	61,1
405,155	85,67
405,362	157,35
405,57	93,87
405,778	38,57
405,985	13,99
406,193	28,33
406,4	11,95
406,608	118,44
406,816	52,91
407,023	175,78
407,231	13,99
407,438	81,58
407,646	63,15
407,853	28,33
408,061	93,87
408,268	110,25
408,476	126,63
408,683	163,5
408,89	161,45
409,098	243,37
409,305	192,17
409,513	218,79
409,72	198,31
409,927	267,94
410,135	341,67
410,342	151,21
410,55	333,48
410,757	145,06
410,964	85,67
411,172	200,36
411,379	128,68
411,586	159,4
411,793	22,19
412,001	73,39
412,208	44,71
412,415	-4,44
412,622	69,29
412,83	38,57
413,037	100,01
413,244	-20,82
413,451	89,77
413,658	163,5
413,866	138,92
414,073	-2,39
414,28	149,16
414,487	-12,63
414,694	120,49
414,901	110,25
415,108	61,1
415,315	44,71
415,522	79,53
415,73	54,95
415,937	32,43
416,144	57
416,351	3,75
416,558	3,75
416,765	52,91
416,972	77,48
417,179	46,76
417,386	95,91
417,593	71,34
417,8	46,76
418,006	110,25
418,213	130,73
418,42	97,96
418,627	108,2
418,834	65,19
419,041	61,1
419,248	54,95
419,455	44,71
419,661	126,63
419,868	69,29
420,075	13,99
420,282	40,62
420,489	112,3
420,696	63,15
420,902	77,48
421,109	134,82
421,316	-117,08
421,523	112,3
421,729	61,1
421,936	44,71
422,143	67,24
422,349	65,19
422,556	-69,97
422,763	48,81
422,969	11,95
423,176	-61,78
423,383	97,96
423,589	409,25
423,796	79,53
424,002	3,75
424,209	85,67
424,416	93,87
424,622	-49,49
424,829	36,52
425,035	-78,16
425,242	16,04
425,448	69,29
425,655	112,3
425,861	87,72
426,068	106,15
426,274	173,74
426,481	89,77
426,687	57
426,894	69,29
427,1	110,25
427,306	77,48
427,513	30,38
427,719	143,02
427,926	97,96
428,132	11,95
428,338	24,23
428,545	46,76
428,751	36,52
428,957	61,1
429,163	-16,73
429,37	118,44
429,576	36,52
429,782	77,48
429,989	-98,64
430,195	22,19
430,401	-10,58
430,607	-4,44
430,813	-22,87
431,02	-8,53
431,226	69,29
431,432	52,91
431,638	20,14
431,844	-12,63
432,05	54,95
432,257	112,3
432,463	102,06
432,669	282,28
432,875	290,47
433,081	331,43
433,287	370,34
433,493	523,94
433,699	810,65
433,905	929,44
434,111	927,39
434,317	1085,08
434,523	1001,12
434,729	962,2
434,935	603,81
435,141	593,57
435,347	343,72
435,553	216,74
435,759	210,6
435,965	151,21
436,171	118,44
436,377	112,3
436,582	145,06
436,788	54,95
436,994	179,88
437,2	3,75
437,406	71,34
437,612	69,29
437,818	118,44
438,023	16,04
438,229	143,02
438,435	110,25
438,641	93,87
438,846	48,81
439,052	59,05
439,258	36,52
439,464	-29,01
439,669	61,1
439,875	194,22
440,081	67,24
440,286	3,75
440,492	30,38
440,698	-76,12
440,903	-14,68
441,109	208,55
441,314	3,75
441,52	16,04
441,726	50,86
441,931	52,91
442,137	54,95
442,342	44,71
442,548	95,91
442,753	208,55
442,959	-4,44
443,164	11,95
443,37	87,72
443,575	102,06
443,781	-29,01
443,986	69,29
444,192	-14,68
444,397	-4,44
444,602	-59,73
444,808	81,58
445,013	-26,96
445,219	-26,96
445,424	110,25
445,629	48,81
445,835	118,44
446,04	36,52
446,245	24,23
446,451	28,33
446,656	-74,07
446,861	87,72
447,066	89,77
447,272	63,15
447,477	36,52
447,682	-55,64
447,887	-55,64
448,093	38,57
448,298	140,97
448,503	-4,44
448,708	36,52
448,913	7,85
449,118	63,15
449,324	63,15
449,529	102,06
449,734	13,99
449,939	3,75
450,144	97,96
450,349	102,06
450,554	44,71
450,759	102,06
450,964	97,96
451,169	44,71
451,374	61,1
451,579	52,91
451,784	22,19
451,989	50,86
452,194	20,14
452,399	40,62
452,604	-26,96
452,809	24,23
453,014	89,77
453,219	28,33
453,424	57
453,629	-37,2
453,833	-35,16
454,038	54,95
454,243	67,24
454,448	67,24
454,653	122,54
454,858	28,33
455,062	-24,92
455,267	54,95
455,472	112,3
455,677	20,14
455,882	5,8
456,086	134,82
456,291	102,06
456,496	20,14
456,7	57
456,905	57
457,11	61,1
457,314	69,29
457,519	36,52
457,724	22,19
457,928	118,44
458,133	-45,4
458,338	93,87
458,542	36,52
458,747	-18,77
458,951	-18,77
459,156	106,15
459,36	26,28
459,565	122,54
459,769	83,63
459,974	44,71
460,178	24,23
460,383	30,38
460,587	11,95
460,792	97,96
460,996	63,15
461,201	104,11
461,405	-69,97
461,61	30,38
461,814	112,3
462,018	-0,34
462,223	-18,77
462,427	3,75
462,631	30,38
462,836	83,63
463,04	93,87
463,244	73,39
463,449	-47,44
463,653	214,7
463,857	77,48
464,062	179,88
464,266	75,43
464,47	171,69
464,674	69,29
464,878	32,43
465,083	46,76
465,287	167,59
465,491	22,19
465,695	61,1
465,899	3,75
466,104	102,06
466,308	69,29
466,512	-10,58
466,716	93,87
466,92	52,91
467,124	54,95
467,328	81,58
467,532	183,98
467,736	28,33
467,94	89,77
468,144	-12,63
468,348	57
468,552	192,17
468,756	71,34
468,96	-61,78
469,164	-57,68
469,368	24,23
469,572	38,57
469,776	93,87
469,98	85,67
470,184	93,87
470,388	-12,63
470,591	73,39
470,795	91,82
470,999	48,81
471,203	44,71
471,407	-14,68
471,611	7,85
471,814	-20,82
472,018	-26,96
472,222	13,99
472,426	69,29
472,63	65,19
472,833	30,38
473,037	122,54
473,241	44,71
473,444	95,91
473,648	562,85
473,852	57
474,055	16,04
474,259	-10,58
474,463	85,67
474,666	54,95
474,87	38,57
475,074	9,9
475,277	24,23
475,481	95,91
475,684	-4,44
475,888	3,75
476,091	61,1
476,295	104,11
476,498	-29,01
476,702	52,91
476,905	147,11
477,109	108,2
477,312	42,67
477,516	-8,53
477,719	59,05
477,923	22,19
478,126	65,19
478,329	5,8
478,533	3,75
478,736	-29,01
478,94	124,58
479,143	-4,44
479,346	22,19
479,55	73,39
479,753	104,11
479,956	3,75
480,159	-24,92
480,363	143,02
480,566	85,67
480,769	73,39
480,972	85,67
481,176	11,95
481,379	104,11
481,582	128,68
481,785	11,95
481,988	104,11
482,192	151,21
482,395	38,57
482,598	57
482,801	136,87
483,004	102,06
483,207	71,34
483,41	130,73
483,613	175,78
483,817	167,59
484,02	93,87
484,223	317,09
484,426	663,2
484,629	1203,86
484,832	2152,07
485,035	2690,69
485,238	3714,67
485,441	4816,48
485,644	6297,16
485,846	7974,45
486,049	9010,72
486,252	10315,28
486,455	10620,42
486,658	10063,38
486,861	8750,63
487,064	7351,87
487,267	5510,74
487,47	4224,62
487,672	2944,64
487,875	1963,66
488,078	1240,73
488,281	853,66
488,484	450,21
488,686	243,37
488,889	145,06
489,092	132,78
489,295	95,91
489,497	151,21
489,7	69,29
489,903	118,44
490,105	-10,58
490,308	44,71
490,511	110,25
490,713	-2,39
490,916	-4,44
491,118	44,71
491,321	97,96
491,524	-4,44
491,726	57
491,929	73,39
492,131	81,58
492,334	32,43
492,536	85,67
492,739	54,95
492,941	87,72
493,144	61,1
493,346	122,54
493,549	-0,34
493,751	77,48
493,954	102,06
494,156	100,01
494,359	126,63
494,561	-4,44
494,763	85,67
494,966	116,39
495,168	24,23
495,37	-96,6
495,573	18,09
495,775	-12,63
495,977	38,57
496,18	61,1
496,382	114,34
496,584	61,1
496,787	130,73
496,989	97,96
497,191	130,73
497,393	93,87
497,595	16,04
497,798	40,62
498	-37,2
498,202	52,91
498,404	18,09
498,606	11,95
498,808	102,06
499,011	32,43
499,213	81,58
499,415	-10,58
499,617	89,77
499,819	143,02
500,021	120,49
500,223	5,8
500,425	50,86
500,627	54,95
500,829	50,86
501,031	24,23
501,233	13,99
501,435	132,78
501,637	110,25
501,839	112,3
502,041	73,39
502,243	46,76
502,445	-31,06
502,647	63,15
502,848	95,91
503,05	112,3
503,252	77,48
503,454	26,28
503,656	40,62
503,858	95,91
504,059	73,39
504,261	63,15
504,463	151,21
504,665	59,05
504,867	52,91
505,068	95,91
505,27	48,81
505,472	16,04
505,673	24,23
505,875	-6,49
506,077	11,95
506,278	3,75
506,48	110,25
506,682	13,99
506,883	73,39
507,085	118,44
507,287	11,95
507,488	-4,44
507,69	71,34
507,891	52,91
508,093	145,06
508,294	38,57
508,496	-4,44
508,697	79,53
508,899	-88,4
509,1	57
509,302	106,15
509,503	-45,4
509,705	85,67
509,906	13,99
510,108	11,95
510,309	28,33
510,51	61,1
510,712	40,62
510,913	-10,58
511,114	126,63
511,316	-80,21
511,517	97,96
511,718	24,23
511,92	95,91
512,121	52,91
512,322	30,38
512,524	69,29
512,725	28,33
512,926	118,44
513,127	-41,3
513,329	126,63
513,53	-16,73
513,731	5,8
513,932	52,91
514,133	3,75
514,334	-18,77
514,536	81,58
514,737	118,44
514,938	104,11
515,139	3,75
515,34	-82,26
515,541	194,22
515,742	-29,01
515,943	77,48
516,144	28,33
516,345	61,1
516,546	122,54
516,747	95,91
516,948	73,39
517,149	100,01
517,35	38,57
517,551	24,23
517,752	38,57
517,953	87,72
518,154	77,48
518,355	112,3
518,556	52,91
518,756	69,29
518,957	134,82
519,158	163,5
519,359	128,68
519,56	22,19
519,761	77,48
519,961	73,39
520,162	167,59
520,363	-37,2
520,564	-0,34
520,764	161,45
520,965	110,25
521,166	44,71
521,366	20,14
521,567	50,86
521,768	61,1
521,968	9,9
522,169	46,76
522,37	3,75
522,57	5,8
522,771	59,05
522,972	-69,97
523,172	155,3
523,373	16,04
523,573	46,76
523,774	65,19
523,974	110,25
524,175	91,82
524,375	-69,97
524,576	-8,53
524,776	-26,96
524,977	-4,44
525,177	114,34
525,378	22,19
525,578	65,19
525,778	81,58
525,979	81,58
526,179	81,58
526,38	-0,34
526,58	-16,73
526,78	61,1
526,981	71,34
527,181	61,1
527,381	61,1
527,582	124,58
527,782	100,01
527,982	83,63
528,182	110,25
528,383	-4,44
528,583	54,95
528,783	71,34
528,983	126,63
529,183	20,14
529,384	-37,2
529,584	190,12
529,784	216,74
529,984	89,77
530,184	-8,53
530,384	13,99
530,584	-29,01
530,784	77,48
530,984	46,76
531,185	89,77
531,385	118,44
531,585	79,53
531,785	61,1
531,985	28,33
532,185	118,44
532,385	83,63
532,585	140,97
532,785	48,81
532,984	120,49
533,184	114,34
533,384	48,81
533,584	-51,54
533,784	20,14
533,984	89,77
534,184	16,04
534,384	7,85
534,583	151,21
534,783	61,1
534,983	61,1
535,183	7,85
535,383	20,14
535,582	126,63
535,782	57
535,982	136,87
536,182	-78,16
536,381	20,14
536,581	44,71
536,781	44,71
536,98	5,8
537,18	28,33
537,38	102,06
537,579	28,33
537,779	110,25
537,979	69,29
538,178	-35,16
538,378	194,22
538,577	20,14
538,777	-18,77
538,976	20,14
539,176	112,3
539,376	75,43
539,575	-10,58
539,774	95,91
539,974	-78,16
540,173	77,48
540,373	85,67
540,572	79,53
540,772	69,29
540,971	-35,16
541,171	61,1
541,37	-12,63
541,569	44,71
541,769	-33,11
541,968	52,91
542,167	65,19
542,367	89,77
542,566	63,15
542,765	-51,54
542,965	81,58
543,164	34,47
543,363	20,14
543,562	28,33
543,761	69,29
543,961	122,54
544,16	-49,49
544,359	132,78
544,558	110,25
544,757	61,1
544,957	85,67
545,156	93,87
545,355	79,53
545,554	91,82
545,753	-4,44
545,952	24,23
546,151	69,29
546,35	59,05
546,549	108,2
546,748	167,59
546,947	-16,73
547,146	-26,96
547,345	24,23
547,544	5,8
547,743	-2,39
547,942	5,8
548,141	11,95
548,34	20,14
548,539	-20,82
548,738	-20,82
548,937	65,19
549,135	-20,82
549,334	5,8
549,533	73,39
549,732	50,86
549,931	143,02
550,13	28,33
550,328	-76,12
550,527	-10,58
550,726	7,85
550,925	-108,88
551,123	61,1
551,322	-49,49
551,521	106,15
551,72	-33,11
551,918	89,77
552,117	112,3
552,315	18,09
552,514	-20,82
552,713	106,15
552,911	16,04
553,11	-53,59
553,309	5,8
553,507	13,99
553,706	61,1
553,904	46,76
554,103	24,23
554,301	5,8
554,5	63,15
554,698	20,14
554,897	-6,49
555,095	-4,44
555,294	-10,58
555,492	-33,11
555,69	85,67
555,889	36,52
556,087	20,14
556,286	93,87
556,484	69,29
556,682	20,14
556,881	16,04
557,079	1,71
557,277	16,04
557,476	91,82
557,674	-4,44
557,872	36,52
558,07	13,99
558,269	-2,39
558,467	-8,53
558,665	22,19
558,863	63,15
559,062	36,52
559,26	44,71
559,458	-8,53
559,656	61,1
559,854	77,48
560,052	65,19
560,25	52,91
560,449	356,01
560,647	22,19
560,845	44,71
561,043	11,95
561,241	77,48
561,439	77,48
561,637	-24,92
561,835	-4,44
562,033	77,48
562,231	-12,63
562,429	-29,01
562,627	1,71
562,825	-18,77
563,023	73,39
563,221	32,43
563,418	-18,77
563,616	52,91
563,814	128,68
564,012	28,33
564,21	-0,34
564,408	-18,77
564,605	54,95
564,803	36,52
565,001	216,74
565,199	5,8
565,397	-2,39
565,594	136,87
565,792	91,82
565,99	-6,49
566,188	20,14
566,385	-4,44
566,583	-10,58
566,781	97,96
566,978	36,52
567,176	118,44
567,373	87,72
567,571	-12,63
567,769	44,71
567,966	-106,84
568,164	11,95
568,361	-33,11
568,559	48,81
568,756	-26,96
568,954	63,15
569,151	116,39
569,349	110,25
569,546	63,15
569,744	83,63
569,941	16,04
570,139	79,53
570,336	63,15
570,534	30,38
570,731	-24,92
570,928	-45,4
571,126	192,17
571,323	32,43
571,52	3,75
571,718	95,91
571,915	69,29
572,112	-39,25
572,31	71,34
572,507	151,21
572,704	-10,58
572,901	-18,77
573,099	24,23
573,296	63,15
573,493	46,76
573,69	-29,01
573,887	16,04
574,085	54,95
574,282	-16,73
574,479	57
574,676	102,06
574,873	79,53
575,07	5,8
575,267	-35,16
575,464	-37,2
575,661	77,48
575,858	57
576,055	-10,58
576,252	179,88
576,449	-12,63
576,646	85,67
576,843	11,95
577,04	34,47
577,237	112,3
577,434	28,33
577,631	-37,2
577,828	200,36
578,025	38,57
578,222	3,75
578,419	93,87
578,615	-6,49
578,812	79,53
579,009	28,33
579,206	67,24
579,403	114,34
579,599	91,82
579,796	3,75
579,993	169,64
580,19	-2,39
580,386	-14,68
580,583	122,54
580,78	3,75
580,976	104,11
581,173	71,34
581,37	28,33
581,566	5,8
581,763	-12,63
581,96	73,39
582,156	11,95
582,353	52,91
582,549	212,65
582,746	-8,53
582,942	-10,58
583,139	69,29
583,335	28,33
583,532	110,25
583,728	44,71
583,925	-10,58
584,121	30,38
584,318	120,49
584,514	81,58
584,711	79,53
584,907	93,87
585,103	54,95
585,3	67,24
585,496	-4,44
585,693	36,52
585,889	63,15
586,085	-12,63
586,281	118,44
586,478	20,14
586,674	46,76
586,87	124,58
587,067	-10,58
587,263	28,33
587,459	126,63
587,655	61,1
587,851	118,44
588,048	136,87
588,244	-20,82
588,44	36,52
588,636	52,91
588,832	52,91
589,028	161,45
589,224	46,76
589,42	30,38
589,617	63,15
589,813	106,15
590,009	61,1
590,205	157,35
590,401	81,58
590,597	-24,92
590,793	87,72
590,989	1,71
591,185	16,04
591,38	52,91
591,576	11,95
591,772	69,29
591,968	-74,07
592,164	-6,49
592,36	28,33
592,556	38,57
592,752	85,67
592,948	3,75
593,143	67,24
593,339	-61,78
593,535	-20,82
593,731	102,06
593,926	48,81
594,122	1,71
594,318	52,91
594,514	149,16
594,709	81,58
594,905	93,87
595,101	57
595,296	-67,92
595,492	16,04
595,688	20,14
595,883	128,68
596,079	83,63
596,275	20,14
596,47	79,53
596,666	38,57
596,861	-18,77
597,057	-4,44
597,252	13,99
597,448	54,95
597,643	79,53
597,839	71,34
598,034	3,75
598,23	52,91
598,425	30,38
598,621	130,73
598,816	112,3
599,011	3,75
599,207	-6,49
599,402	-26,96
599,597	104,11
599,793	61,1
599,988	85,67
600,183	85,67
600,379	186,02
600,574	50,86
600,769	102,06
600,965	28,33
601,16	73,39
601,355	57
601,55	46,76
601,745	77,48
601,941	71,34
602,136	138,92
602,331	-2,39
602,526	179,88
602,721	118,44
602,916	95,91
603,111	-41,3
603,307	69,29
603,502	97,96
603,697	85,67
603,892	48,81
604,087	-4,44
604,282	177,83
604,477	124,58
604,672	13,99
604,867	18,09
605,062	118,44
605,257	54,95
605,452	181,93
605,646	159,4
605,841	20,14
606,036	118,44
606,231	13,99
606,426	-26,96
606,621	-53,59
606,816	13,99
607,01	183,98
607,205	102,06
607,4	77,48
607,595	112,3
607,79	93,87
607,984	24,23
608,179	114,34
608,374	-8,53
608,569	34,47
608,763	-55,64
608,958	3,75
609,153	38,57
609,347	52,91
609,542	52,91
609,736	50,86
609,931	93,87
610,126	-31,06
610,32	136,87
610,515	-29,01
610,709	226,98
610,904	44,71
611,098	36,52
611,293	-20,82
611,487	-16,73
611,682	13,99
611,876	61,1
612,071	5,8
612,265	38,57
612,46	63,15
612,654	79,53
612,848	44,71
613,043	-0,34
613,237	38,57
613,432	-69,97
613,626	-43,35
613,82	-37,2
614,014	77,48
614,209	77,48
614,403	26,28
614,597	126,63
614,792	179,88
614,986	161,45
615,18	243,37
615,374	245,41
615,568	310,95
615,763	259,75
615,957	261,8
616,151	335,53
616,345	259,75
616,539	169,64
616,733	233,13
616,927	253,61
617,121	171,69
617,316	183,98
617,51	249,51
617,704	128,68
617,898	143,02
618,092	40,62
618,286	59,05
618,48	-12,63
618,674	167,59
618,868	22,19
619,061	-55,64
619,255	102,06
619,449	-43,35
619,643	-59,73
619,837	97,96
620,031	16,04
620,225	77,48
620,419	3,75
620,612	134,82
620,806	63,15
621	71,34
621,194	48,81
621,388	-67,92
621,581	16,04
621,775	77,48
621,969	5,8
622,162	-4,44
622,356	-0,34
622,55	100,01
622,743	-18,77
622,937	-49,49
623,131	81,58
623,324	79,53
623,518	-37,2
623,712	-47,44
623,905	13,99
624,099	114,34
624,292	69,29
624,486	63,15
624,679	44,71
624,873	67,24
625,066	36,52
625,26	85,67
625,453	11,95
625,647	-24,92
625,84	38,57
626,034	102,06
626,227	112,3
626,42	104,11
626,614	61,1
626,807	102,06
627	42,67
627,194	20,14
627,387	104,11
627,58	61,1
627,774	3,75
627,967	77,48
628,16	85,67
628,353	22,19
628,547	48,81
628,74	190,12
628,933	87,72
629,126	120,49
629,319	85,67
629,513	79,53
629,706	36,52
629,899	61,1
630,092	93,87
630,285	20,14
630,478	3,75
630,671	44,71
630,864	52,91
631,057	36,52
631,25	177,83
631,443	9,9
631,636	77,48
631,829	97,96
632,022	122,54
632,215	85,67
632,408	24,23
632,601	143,02
632,794	50,86
632,987	44,71
633,18	52,91
633,373	22,19
633,566	69,29
633,758	-4,44
633,951	52,91
634,144	40,62
634,337	48,81
634,53	44,71
634,722	151,21
634,915	26,28
635,108	3,75
635,301	69,29
635,493	167,59
635,686	171,69
635,879	85,67
636,071	52,91
636,264	104,11
636,457	118,44
636,649	32,43
636,842	48,81
637,034	75,43
637,227	89,77
637,42	118,44
637,612	-61,78
637,805	108,2
637,997	81,58
638,19	102,06
638,382	87,72
638,575	-39,25
638,767	11,95
638,96	153,26
639,152	36,52
639,344	69,29
639,537	11,95
639,729	57
639,922	140,97
640,114	57
640,306	87,72
640,499	79,53
640,691	63,15
640,883	46,76
641,075	79,53
641,268	93,87
641,46	83,63
641,652	54,95
641,844	-20,82
642,037	3,75
642,229	20,14
642,421	118,44
642,613	3,75
642,805	36,52
642,998	-10,58
643,19	61,1
643,382	138,92
643,574	79,53
643,766	38,57
643,958	44,71
644,15	167,59
644,342	167,59
644,534	28,33
644,726	36,52
644,918	130,73
645,11	28,33
645,302	11,95
645,494	159,4
645,686	36,52
645,878	28,33
646,07	134,82
646,262	110,25
646,453	81,58
646,645	134,82
646,837	143,02
647,029	128,68
647,221	81,58
647,413	85,67
647,604	57
647,796	28,33
647,988	112,3
648,18	69,29
648,371	-53,59
648,563	28,33
648,755	73,39
648,947	11,95
649,138	44,71
649,33	69,29
649,521	181,93
649,713	67,24
649,905	87,72
650,096	110,25
650,288	42,67
650,479	28,33
650,671	-45,4
650,863	110,25
651,054	73,39
651,246	112,3
651,437	128,68
651,629	347,81
651,82	208,55
652,011	233,13
652,203	212,65
652,394	278,18
652,586	69,29
652,777	167,59
652,968	173,74
653,16	169,64
653,351	161,45
653,542	347,81
653,734	192,17
653,925	220,84
654,116	231,08
654,308	376,48
654,499	534,18
654,69	1625,75
654,881	4646,5
655,073	10137,1
655,264	17055,14
655,455	25619,75
655,646	36473,98
655,837	46719,97
656,028	55456,6
656,219	62034,68
656,411	64203,48
656,602	64203,48
656,793	64203,48
656,984	63554,27
657,175	58035
657,366	52181,9
657,557	44323,85
657,748	38130,79
657,939	33137,84
658,13	27667,72
658,321	23096,65
658,512	18216,34
658,703	12973,54
658,894	8330,8
659,084	5207,64
659,275	3294,84
659,466	2070,16
659,657	1527,44
659,848	1005,21
660,039	769,69
660,23	599,71
660,42	439,97
660,611	437,92
660,802	257,7
660,993	294,57
661,183	306,85
661,374	261,8
661,565	300,71
661,755	290,47
661,946	175,78
662,137	210,6
662,327	167,59
662,518	69,29
662,709	110,25
662,899	87,72
663,09	143,02
663,28	85,67
663,471	18,09
663,662	243,37
663,852	134,82
664,043	13,99
664,233	73,39
664,424	114,34
664,614	32,43
664,804	79,53
664,995	183,98
665,185	120,49
665,376	44,71
665,566	126,63
665,756	-29,01
665,947	65,19
666,137	38,57
666,328	159,4
666,518	11,95
666,708	110,25
666,898	-8,53
667,089	81,58
667,279	85,67
667,469	87,72
667,659	-37,2
667,85	175,78
668,04	126,63
668,23	3,75
668,42	38,57
668,61	22,19
668,8	106,15
668,991	5,8
669,181	126,63
669,371	52,91
669,561	5,8
669,751	89,77
669,941	93,87
670,131	69,29
670,321	54,95
670,511	-4,44
670,701	79,53
670,891	65,19
671,081	5,8
671,271	-6,49
671,461	-29,01
671,651	-8,53
671,841	38,57
672,03	143,02
672,22	-10,58
672,41	38,57
672,6	20,14
672,79	59,05
672,98	20,14
673,169	83,63
673,359	24,23
673,549	28,33
673,739	79,53
673,928	24,23
674,118	44,71
674,308	46,76
674,497	102,06
674,687	44,71
674,877	-35,16
675,066	44,71
675,256	36,52
675,446	13,99
675,635	46,76
675,825	24,23
676,014	40,62
676,204	13,99
676,393	85,67
676,583	-12,63
676,772	87,72
676,962	40,62
677,151	-35,16
677,341	-39,25
677,53	71,34
677,72	7,85
677,909	44,71
678,099	-74,07
678,288	-12,63
678,477	110,25
678,667	69,29
678,856	46,76
679,045	110,25
679,235	77,48
679,424	30,38
679,613	118,44
679,802	46,76
679,992	-0,34
680,181	40,62
680,37	61,1
680,559	28,33
680,748	36,52
680,938	24,23
681,127	7,85
681,316	59,05
681,505	63,15
681,694	32,43
681,883	169,64
682,072	-12,63
682,261	5,8
682,45	-26,96
682,639	-12,63
682,828	81,58
683,017	93,87
683,206	44,71
683,395	24,23
683,584	110,25
683,773	102,06
683,962	38,57
684,151	46,76
684,34	-2,39
684,529	46,76
684,718	-22,87
684,907	26,28
685,095	85,67
685,284	122,54
685,473	20,14
685,662	-16,73
685,851	120,49
686,039	44,71
686,228	91,82
686,417	30,38
686,606	69,29
686,794	44,71
686,983	-43,35
687,172	59,05
687,36	22,19
687,549	-106,84
687,738	61,1
687,926	-26,96
688,115	3,75
688,303	59,05
688,492	52,91
688,68	-67,92
688,869	-20,82
689,057	-47,44
689,246	-20,82
689,434	36,52
689,623	54,95
689,811	28,33
690	13,99
690,188	-18,77
690,377	-26,96
690,565	11,95
690,753	93,87
690,942	40,62
691,13	44,71
691,318	67,24
691,507	-12,63
691,695	85,67
691,883	38,57
692,072	67,24
692,26	110,25
692,448	38,57
692,636	22,19
692,824	38,57
693,013	57
693,201	28,33
693,389	-45,4
693,577	-20,82
693,765	3,75
693,953	-4,44
694,141	-47,44
694,329	-53,59
694,518	-41,3
694,706	36,52
694,894	40,62
695,082	11,95
695,27	28,33
695,458	16,04
695,646	20,14
695,834	85,67
696,022	-16,73
696,209	38,57
696,397	44,71
696,585	48,81
696,773	-29,01
696,961	44,71
697,149	-20,82
697,337	36,52
697,525	40,62
697,712	-4,44
697,9	85,67
698,088	-39,25
698,276	28,33
698,463	93,87
698,651	87,72
698,839	-43,35
699,027	71,34
699,214	149,16
699,402	20,14
699,59	-43,35
699,777	34,47
699,965	102,06
700,152	-41,3
700,34	40,62
700,528	-10,58
700,715	30,38
700,903	52,91
701,09	11,95
701,278	102,06
701,465	16,04
701,653	-4,44
701,84	20,14
702,028	67,24
702,215	-18,77
702,402	-20,82
702,59	34,47
702,777	67,24
702,965	73,39
703,152	46,76
703,339	20,14
703,527	20,14
703,714	-2,39
703,901	104,11
704,088	-33,11
704,276	61,1
704,463	22,19
704,65	20,14
704,837	28,33
705,025	83,63
705,212	48,81
705,399	85,67
705,586	20,14
705,773	13,99
705,96	-10,58
706,147	38,57
706,335	3,75
706,522	54,95
706,709	20,14
706,896	83,63
707,083	36,52
707,27	81,58
707,457	52,91
707,644	52,91
707,831	38,57
708,018	-45,4
708,205	-16,73
708,392	71,34
708,578	81,58
708,765	-2,39
708,952	-0,34
709,139	-53,59
709,326	-33,11
709,513	16,04
709,7	-37,2
709,886	28,33
710,073	73,39
710,26	116,39
710,447	36,52
710,633	118,44
710,82	13,99
711,007	-12,63
711,193	38,57
711,38	48,81
711,567	61,1
711,753	48,81
711,94	48,81
712,127	77,48
712,313	50,86
712,5	57
712,686	20,14
712,873	34,47
713,059	-35,16
713,246	97,96
713,432	-10,58
713,619	-35,16
713,805	-20,82
713,992	110,25
714,178	-92,5
714,365	44,71
714,551	147,11
714,737	11,95
714,924	-63,83
715,11	48,81
715,297	20,14
715,483	13,99
715,669	-0,34
715,855	52,91
716,042	16,04
716,228	36,52
716,414	104,11
716,6	50,86
716,787	93,87
716,973	63,15
717,159	52,91
717,345	-47,44
717,531	-12,63
717,718	30,38
717,904	63,15
718,09	-43,35
718,276	11,95
718,462	28,33
718,648	36,52
718,834	-20,82
719,02	126,63
719,206	44,71
719,392	-12,63
719,578	9,9
719,764	1,71
719,95	63,15
720,136	83,63
720,322	-37,2
720,508	-57,68
720,694	9,9
720,879	52,91
721,065	54,95
721,251	-18,77
721,437	73,39
721,623	63,15
721,809	102,06
721,994	138,92
722,18	36,52
722,366	40,62
722,552	-94,55
722,737	-41,3
722,923	61,1
723,109	36,52
723,294	-26,96
723,48	61,1
723,666	95,91
723,851	16,04
724,037	93,87
724,222	95,91
724,408	67,24
724,593	97,96
724,779	36,52
724,965	46,76
725,15	38,57
725,336	79,53
725,521	122,54
725,706	38,57
725,892	63,15
726,077	-16,73
726,263	87,72
726,448	151,21
726,634	36,52
726,819	-37,2
727,004	167,59
727,19	44,71
727,375	167,59
727,56	-22,87
727,745	-35,16
727,931	46,76
728,116	-24,92
728,301	85,67
728,486	3,75
728,672	50,86
728,857	97,96
729,042	7,85
729,227	-76,12
729,412	-20,82
729,597	28,33
729,783	-24,92
729,968	-80,21
730,153	50,86
730,338	-51,54
730,523	22,19
730,708	-31,06
730,893	61,1
731,078	50,86
731,263	36,52
731,448	-43,35
731,633	-4,44
731,818	-151,89
732,003	7,85
732,187	-2,39
732,372	3,75
732,557	-4,44
732,742	-45,4
732,927	-69,97
733,112	13,99
733,297	-4,44
733,481	-0,34
733,666	57
733,851	61,1
734,036	16,04
734,22	54,95
734,405	159,4
734,59	-2,39
734,774	110,25
734,959	13,99
735,144	48,81
735,328	-41,3
735,513	28,33
735,698	18,09
735,882	120,49
736,067	36,52
736,251	30,38
736,436	30,38
736,62	3,75
736,805	-47,44
736,989	93,87
737,174	-69,97
737,358	-74,07
737,543	77,48
737,727	61,1
737,911	114,34
738,096	38,57
738,28	134,82
738,465	-35,16
738,649	-43,35
738,833	-18,77
739,018	22,19
739,202	11,95
739,386	-49,49
739,57	122,54
739,755	93,87
739,939	52,91
740,123	-53,59
740,307	3,75
740,491	52,91
740,676	-20,82
740,86	-51,54
741,044	32,43
741,228	-39,25
741,412	-80,21
741,596	-16,73
741,78	-10,58
741,964	32,43
742,148	36,52
742,332	40,62
742,516	11,95
742,7	57
742,884	-0,34
743,068	24,23
743,252	85,67
743,436	85,67
743,62	-43,35
743,804	110,25
743,988	95,91
744,172	69,29
744,356	52,91
744,539	-10,58
744,723	-37,2
744,907	44,71
745,091	-4,44
745,275	26,28
745,458	61,1
745,642	36,52
745,826	-29,01
746,009	159,4
746,193	71,34
746,377	69,29
746,56	-4,44
746,744	173,74
746,928	61,1
747,111	65,19
747,295	36,52
747,478	69,29
747,662	36,52
747,846	26,28
748,029	36,52
748,213	28,33
748,396	63,15
748,58	16,04
748,763	7,85
748,946	-4,44
749,13	-4,44
749,313	-2,39
749,497	130,73
749,68	44,71
749,863	120,49
750,047	-35,16
750,23	-12,63
750,413	71,34
750,597	87,72
750,78	-12,63
750,963	126,63
751,146	11,95
751,33	112,3
751,513	-43,35
751,696	-0,34
751,879	26,28
752,062	-4,44
752,246	-8,53
752,429	69,29
752,612	44,71
752,795	-4,44
752,978	52,91
753,161	3,75
753,344	40,62
753,527	85,67
753,71	22,19
753,893	-0,34
754,076	46,76
754,259	95,91
754,442	-61,78
754,625	-67,92
754,808	120,49
754,991	28,33
755,174	1,71
755,357	24,23
755,539	7,85
755,722	130,73
755,905	3,75
756,088	81,58
756,271	63,15
756,453	24,23
756,636	-39,25
756,819	48,81
757,002	11,95
757,184	85,67
757,367	104,11
757,55	71,34
757,732	159,4
757,915	48,81
758,098	-12,63
758,28	36,52
758,463	13,99
758,645	-86,36
758,828	118,44
759,011	63,15
759,193	24,23
759,376	36,52
759,558	-10,58
759,741	-43,35
759,923	-49,49
760,105	-4,44
760,288	-20,82
760,47	-94,55
760,653	46,76
760,835	-8,53
761,017	-37,2
761,2	-18,77
761,382	151,21
761,564	44,71
761,747	48,81
761,929	1,71
762,111	61,1
762,294	65,19
762,476	196,26
762,658	118,44
762,84	83,63
763,022	44,71
763,205	1,71
763,387	69,29
763,569	26,28
763,751	-92,5
763,933	13,99
764,115	18,09
764,297	-22,87
764,479	71,34
764,661	38,57
764,843	159,4
765,025	83,63
765,207	79,53
765,389	52,91
765,571	-26,96
765,753	-4,44
765,935	52,91
766,117	-4,44
766,299	97,96
766,481	143,02
766,663	-10,58
766,845	-4,44
767,026	-8,53
767,208	83,63
767,39	81,58
767,572	36,52
767,753	89,77
767,935	16,04
768,117	-31,06
768,299	102,06
768,48	3,75
768,662	59,05
768,844	79,53
769,025	110,25
769,207	36,52
769,389	1,71
769,57	63,15
769,752	24,23
769,933	-2,39
770,115	97,96
770,296	24,23
770,478	163,5
770,659	-8,53
770,841	224,94
771,022	20,14
771,204	112,3
771,385	57
771,567	95,91
771,748	34,47
771,929	-37,2
772,111	28,33
772,292	122,54
772,473	69,29
772,655	57
772,836	48,81
773,017	120,49
773,199	63,15
773,38	59,05
773,561	97,96
773,742	57
773,923	69,29
774,105	89,77
774,286	85,67
774,467	44,71
774,648	-10,58
774,829	102,06
775,01	3,75
775,191	-20,82
775,372	-8,53
775,553	36,52
775,734	32,43
775,915	155,3
776,096	396,96
776,277	962,2
776,458	1621,65
776,639	2629,25
776,82	3513,97
777,001	4183,66
777,182	4965,98
777,363	5387,86
777,544	5668,44
777,725	5369,43
777,906	4888,16
778,086	4306,54
778,267	3714,67
778,448	2952,83
778,629	2412,17
778,809	1934,99
778,99	1693,33
779,171	1439,38
779,352	1349,27
779,532	1080,99
779,713	1128,09
779,894	1101,47
780,074	1136,28
780,255	929,44
780,435	833,18
780,616	728,74
780,797	560,8
780,977	288,42
781,158	147,11
781,338	173,74
781,519	61,1
781,699	249,51
781,88	167,59
782,06	102,06
782,241	-4,44
782,421	-45,4
782,601	69,29
782,782	93,87
782,962	54,95
783,142	-47,44
783,323	77,48
783,503	134,82
783,683	28,33
783,864	77,48
784,044	20,14
784,224	77,48
784,404	48,81
784,585	48,81
784,765	7,85
784,945	134,82
785,125	24,23
785,305	69,29
785,485	110,25
785,666	40,62
785,846	-2,39
786,026	-14,68
786,206	-61,78
786,386	-61,78
786,566	36,52
786,746	44,71
786,926	163,5
787,106	32,43
787,286	-22,87
787,466	-20,82
787,646	63,15
787,826	-39,25
788,006	63,15
788,185	20,14
788,365	-41,3
788,545	-45,4
788,725	-55,64
788,905	46,76
789,085	65,19
789,264	36,52
789,444	44,71
789,624	89,77
789,804	-16,73
789,983	-22,87
790,163	-2,39
790,343	28,33
790,522	102,06
790,702	93,87
790,882	38,57
791,061	126,63
791,241	11,95
791,42	-24,92
791,6	81,58
791,78	48,81
791,959	-24,92
792,139	-37,2
792,318	44,71
792,498	46,76
792,677	73,39
792,856	85,67
793,036	11,95
793,215	-2,39
793,395	163,5
793,574	7,85
793,753	-0,34
793,933	91,82
794,112	93,87
794,291	11,95
794,471	9,9
794,65	-29,01
794,829	-29,01
795,008	54,95
795,188	120,49
795,367	120,49
795,546	13,99
795,725	-31,06
795,904	20,14
796,084	85,67
796,263	36,52
796,442	46,76
796,621	71,34
796,8	151,21
796,979	61,1
797,158	28,33
797,337	5,8
797,516	126,63
797,695	71,34
797,874	85,67
798,053	126,63
798,232	52,91
798,411	-37,2
798,59	-41,3
798,769	-35,16
798,947	61,1
799,126	71,34
799,305	48,81
799,484	-29,01
799,663	-10,58
799,842	114,34
800,02	50,86
800,199	38,57
800,378	106,15
800,557	-16,73
800,735	-26,96
800,914	-49,49
801,093	69,29
801,271	-0,34
801,45	52,91
801,628	97,96
801,807	-4,44
801,986	22,19
802,164	46,76
802,343	-37,2
802,521	-31,06
802,7	18,09
802,878	28,33
803,057	57
803,235	-43,35
803,414	79,53
803,592	57
803,771	-69,97
803,949	-20,82
804,127	48,81
804,306	126,63
804,484	11,95
804,662	73,39
804,841	-57,68
805,019	42,67
805,197	93,87
805,375	-4,44
805,554	-43,35
805,732	50,86
805,91	-12,63
806,088	28,33
806,266	11,95
806,445	-49,49
806,623	-24,92
806,801	46,76
806,979	118,44
807,157	48,81
807,335	-84,31
807,513	46,76
807,691	102,06
807,869	-106,84
808,047	-47,44
808,225	-4,44
808,403	28,33
808,581	52,91
808,759	28,33
808,937	54,95
809,115	61,1
809,293	57
809,471	-10,58
809,649	22,19
809,826	61,1
810,004	89,77
810,182	-31,06
810,36	63,15
810,538	11,95
810,715	11,95
810,893	-4,44
811,071	-2,39
811,248	93,87
811,426	77,48
811,604	108,2
811,781	85,67
811,959	28,33
812,137	3,75
812,314	52,91
812,492	-26,96
812,669	22,19
812,847	65,19
813,024	-29,01
813,202	118,44
813,379	-4,44
813,557	-45,4
813,734	120,49
813,912	63,15
814,089	93,87
814,267	89,77
814,444	77,48
814,621	11,95
814,799	-41,3
814,976	77,48
815,153	32,43
815,331	48,81
815,508	-10,58
815,685	-49,49
815,862	3,75
816,04	7,85
816,217	40,62
816,394	22,19
816,571	32,43
816,748	140,97
816,926	104,11
817,103	282,28
817,28	36,52
817,457	52,91
817,634	61,1
817,811	-18,77
817,988	32,43
818,165	-63,83
818,342	52,91
818,519	48,81
818,696	11,95
818,873	-4,44
819,05	65,19
819,227	-2,39
819,404	104,11
819,581	71,34
819,758	26,28
819,934	91,82
820,111	-37,2
820,288	11,95
820,465	67,24
820,642	24,23
820,818	-33,11
820,995	1,71
821,172	97,96
821,349	11,95
821,525	44,71
821,702	46,76
821,879	61,1
822,055	20,14
822,232	-4,44
822,409	16,04
822,585	38,57
822,762	108,2
822,938	128,68
823,115	83,63
823,291	97,96
823,468	175,78
823,644	11,95
823,821	28,33
823,997	36,52
824,174	20,14
824,35	69,29
824,527	28,33
824,703	44,71
824,879	20,14
825,056	7,85
825,232	69,29
825,408	-2,39
825,585	-24,92
825,761	-4,44
825,937	26,28
826,113	69,29
826,29	20,14
826,466	-20,82
826,642	339,62
826,818	48,81
826,994	-29,01
827,17	16,04
827,347	-82,26
827,523	-18,77
827,699	65,19
827,875	-6,49
828,051	3,75
828,227	5,8
828,403	77,48
828,579	134,82
828,755	52,91
828,931	34,47
829,107	44,71
829,283	224,94
829,459	-39,25
829,635	20,14
829,811	20,14
829,986	71,34
830,162	-4,44
830,338	28,33
830,514	3,75
830,69	16,04
830,865	1,71
831,041	95,91
831,217	28,33
831,393	-10,58
831,568	-67,92
831,744	110,25
831,92	-47,44
832,095	46,76
832,271	85,67
832,447	77,48
832,622	44,71
832,798	20,14
832,973	11,95
833,149	87,72
833,325	32,43
833,5	30,38
833,676	-4,44
833,851	77,48
834,027	3,75
834,202	67,24
834,377	61,1
834,553	57
834,728	30,38
834,904	73,39
835,079	-18,77
835,254	11,95
835,43	54,95
835,605	61,1
835,78	-29,01
835,955	-26,96
836,131	63,15
836,306	-53,59
836,481	18,09
836,656	11,95
836,832	124,58
837,007	16,04
837,182	-59,73
837,357	59,05
837,532	28,33
837,707	38,57
837,882	61,1
838,057	36,52
838,232	110,25
838,407	11,95
838,582	-18,77
838,757	69,29
838,932	153,26
839,107	52,91
839,282	-67,92
839,457	-45,4
839,632	87,72
839,807	102,06
839,982	28,33
840,157	89,77
840,332	110,25
840,506	-10,58
840,681	-26,96
840,856	28,33
841,031	-29,01
841,205	-65,88
841,38	73,39
841,555	93,87
841,73	-12,63
841,904	-18,77
842,079	48,81
842,254	24,23
842,428	-6,49
842,603	3,75
842,777	-61,78
842,952	11,95
843,126	52,91
843,301	65,19
843,476	145,06
843,65	456,36
843,825	851,61
843,999	1080,99
844,173	1214,1
844,348	1414,81
844,522	1683,09
844,697	1674,9
844,871	1472,15
845,045	1414,81
845,22	1250,97
845,394	1158,81
845,568	956,06
845,743	863,9
845,917	790,17
846,091	634,53
846,265	612
846,44	659,1
846,614	677,54
846,788	487,08
846,962	548,51
847,136	554,66
847,31	519,84
847,485	523,94
847,659	405,16
847,833	532,13
848,007	376,48
848,181	421,54
848,355	319,14
848,529	339,62
848,703	200,36
848,877	128,68
849,051	132,78
849,225	11,95
849,399	-20,82
849,573	-2,39
849,746	-47,44
849,92	63,15
850,094	22,19
850,268	-31,06
850,442	110,25
850,616	36,52
850,789	-29,01
850,963	-35,16
851,137	-12,63
851,311	97,96
851,484	138,92
851,658	28,33
851,832	-135,51
852,005	-4,44
852,179	-24,92
852,352	11,95
852,526	-12,63
852,7	69,29
852,873	-4,44
853,047	65,19
853,22	28,33
853,394	118,44
853,567	30,38
853,741	-20,82
853,914	-18,77
854,088	28,33
854,261	-4,44
854,434	87,72
854,608	20,14
854,781	28,33
854,955	38,57
855,128	54,95
855,301	13,99
855,475	44,71
855,648	9,9
855,821	97,96
855,994	54,95
856,168	16,04
856,341	24,23
856,514	30,38
856,687	155,3
856,86	93,87
857,033	13,99
857,207	102,06
857,38	9,9
857,553	147,11
857,726	20,14
857,899	54,95
858,072	-80,21
858,245	-29,01
858,418	9,9
858,591	44,71
858,764	-8,53
858,937	36,52
859,11	-4,44
859,283	61,1
859,455	30,38
859,628	-2,39
859,801	128,68
859,974	110,25
860,147	-51,54
860,32	102,06
860,492	13,99
860,665	-57,68
860,838	44,71
861,011	44,71
861,183	44,71
861,356	110,25
861,529	52,91
861,701	20,14
861,874	-18,77
862,047	36,52
862,219	73,39
862,392	44,71
862,564	-2,39
862,737	81,58
862,909	110,25
863,082	5,8
863,254	32,43
863,427	30,38
863,599	87,72
863,772	-24,92
863,944	65,19
864,117	30,38
864,289	9,9
864,461	-35,16
864,634	26,28
864,806	-29,01
864,978	28,33
865,151	-43,35
865,323	91,82
865,495	118,44
865,667	81,58
865,84	183,98
866,012	11,95
866,184	24,23
866,356	-69,97
866,528	20,14
866,7	11,95
866,873	24,23
867,045	36,52
867,217	52,91
867,389	-0,34
867,561	-2,39
867,733	63,15
867,905	-18,77
868,077	5,8
868,249	-12,63
868,421	-18,77
868,593	-49,49
868,765	110,25
868,936	3,75
869,108	71,34
869,28	11,95
869,452	81,58
869,624	-33,11
869,796	159,4
869,968	83,63
870,139	97,96
870,311	-8,53
870,483	85,67
870,654	-67,92
870,826	9,9
870,998	50,86
871,17	52,91
871,341	-43,35
871,513	52,91
871,684	40,62
871,856	46,76
872,028	77,48
872,199	-26,96
872,371	-74,07
872,542	28,33
872,714	71,34
872,885	93,87
873,057	-12,63
873,228	-35,16
873,4	-10,58
873,571	110,25
873,742	38,57
873,914	69,29
874,085	32,43
874,256	102,06
874,428	-37,2
874,599	-37,2
874,77	85,67
874,942	-12,63
875,113	61,1
875,284	3,75
875,455	-20,82
875,626	-45,4
875,798	-67,92
875,969	5,8
876,14	22,19
876,311	97,96
876,482	38,57
876,653	81,58
876,824	71,34
876,995	69,29
877,166	61,1
877,337	57
877,508	-92,5
877,679	-29,01
877,85	-72,02
878,021	5,8
878,192	79,53
878,363	7,85
878,534	11,95
878,705	9,9
878,876	5,8
879,047	77,48
879,217	28,33
879,388	140,97
879,559	61,1
879,73	87,72
879,9	46,76
880,071	126,63
880,242	102,06
880,413	36,52
880,583	-18,77
880,754	134,82
880,924	61,1
881,095	-26,96
881,266	-86,36
881,436	3,75
881,607	97,96
881,777	32,43
881,948	3,75
882,118	69,29
882,289	3,75
882,459	-57,68
882,63	11,95
882,8	71,34
882,971	13,99
883,141	87,72
883,311	-20,82
883,482	57
883,652	52,91
883,822	-0,34
883,993	-12,63
884,163	-55,64
884,333	30,38
884,504	79,53
884,674	-12,63
884,844	106,15
885,014	-41,3
885,184	16,04
885,355	-37,2
885,525	-37,2
885,695	97,96
885,865	97,96
886,035	79,53
886,205	3,75
886,375	69,29
886,545	69,29
886,715	-29,01
886,885	106,15
887,055	-33,11
887,225	3,75
887,395	-20,82
887,565	159,4
887,735	-4,44
887,905	38,57
888,075	20,14
888,244	69,29
888,414	-10,58
888,584	77,48
888,754	65,19
888,924	104,11
889,093	216,74
889,263	-51,54
889,433	-12,63
889,603	52,91
889,772	38,57
889,942	85,67
890,111	16,04
890,281	134,82
890,451	85,67
890,62	-41,3
890,79	3,75
890,959	-45,4
891,129	-33,11
891,298	38,57
891,468	-0,34
891,637	-33,11
891,807	13,99
891,976	79,53
892,146	-33,11
892,315	48,81
892,485	87,72
892,654	-39,25
892,823	-51,54
892,993	22,19
893,162	69,29
893,331	57
893,501	-59,73
893,67	48,81
893,839	79,53
894,008	-10,58
894,177	32,43
894,347	-12,63
894,516	120,49
894,685	28,33
894,854	16,04
895,023	16,04
895,192	11,95
