Data from h2o_USB4F104161__10__11-48-47-021.txt Node

Date: Tue Apr 14 11:48:47 EDT 2026
User: LaboPhy
Spectrometer: USB4F10416
Trigger mode: 4
Integration Time (sec): 1,000000E-1
Scans to average: 1
Electric dark correction enabled: true
Nonlinearity correction enabled: false
Boxcar width: 0
XAxis mode: Wavelengths
Number of Pixels in Spectrum: 3648
>>>>>Begin Spectral Data<<<<<
177,847	-204,97
178,066	-204,97
178,284	-204,97
178,502	-211,11
178,72	-133,29
178,939	-26,79
179,157	14,17
179,375	26,45
179,593	32,6
179,812	18,26
180,03	10,07
180,248	10,07
180,466	-24,75
180,685	44,88
180,903	-57,51
181,121	-65,71
181,339	18,26
181,557	28,5
181,775	26,45
181,994	-14,51
182,212	-30,89
182,43	-4,27
182,648	18,26
182,866	55,12
183,084	65,36
183,302	5,97
183,52	-6,31
183,739	16,21
183,957	59,22
184,175	73,56
184,393	-10,41
184,611	55,12
184,829	40,79
185,047	-43,18
185,265	14,17
185,483	-43,18
185,701	32,6
185,919	-12,46
186,137	-0,17
186,355	10,07
186,573	44,88
186,791	67,41
187,009	5,97
187,227	89,94
187,445	71,51
187,663	57,17
187,881	5,97
188,098	40,79
188,316	63,32
188,534	96,08
188,752	73,56
188,97	-67,75
189,188	-45,23
189,406	79,7
189,624	120,66
189,841	-6,31
190,059	-16,55
190,277	-53,42
190,495	5,97
190,713	57,17
190,931	161,62
191,148	104,28
191,366	16,21
191,584	48,98
191,802	24,4
192,019	137,04
192,237	-2,22
192,455	63,32
192,673	104,28
192,89	-18,6
193,108	40,79
193,326	-84,14
193,543	-32,94
193,761	-65,71
193,979	77,65
194,196	30,55
194,414	114,52
194,632	75,6
194,849	-28,84
195,067	-2,22
195,285	24,4
195,502	-100,52
195,72	98,13
195,937	53,08
196,155	24,4
196,373	10,07
196,59	-26,79
196,808	-2,22
197,025	139,09
197,243	153,43
197,46	87,89
197,678	-2,22
197,895	61,27
198,113	8,02
198,33	-61,61
198,548	-24,75
198,765	71,51
198,983	108,37
199,2	-65,71
199,418	89,94
199,635	38,74
199,853	3,93
200,07	-67,75
200,288	30,55
200,505	38,74
200,722	104,28
200,94	77,65
201,157	114,52
201,375	155,47
201,592	1,88
201,809	5,97
202,027	104,28
202,244	-6,31
202,461	30,55
202,679	98,13
202,896	46,93
203,113	8,02
203,331	32,6
203,548	-28,84
203,765	55,12
203,982	30,55
204,2	-67,75
204,417	8,02
204,634	192,34
204,851	112,47
205,069	-10,41
205,286	126,8
205,503	-26,79
205,72	51,03
205,937	48,98
206,155	-98,47
206,372	100,18
206,589	-34,99
206,806	71,51
207,023	42,84
207,24	-18,6
207,458	1,88
207,675	-90,28
207,892	-0,17
208,109	-34,99
208,326	51,03
208,543	100,18
208,76	48,98
208,977	155,47
209,194	42,84
209,411	-47,27
209,628	65,36
209,845	14,17
210,062	65,36
210,279	-84,14
210,496	-16,55
210,713	-43,18
210,93	-10,41
211,147	112,47
211,364	1,88
211,581	-8,36
211,798	96,08
212,015	-108,71
212,232	34,64
212,449	-0,17
212,666	44,88
212,883	22,36
213,1	14,17
213,317	-10,41
213,533	24,4
213,75	-51,37
213,967	-22,7
214,184	-2,22
214,401	-2,22
214,618	30,55
214,835	-20,65
215,051	18,26
215,268	51,03
215,485	38,74
215,702	59,22
215,919	5,97
216,135	128,85
216,352	79,7
216,569	36,69
216,786	-6,31
217,002	30,55
217,219	87,89
217,436	8,02
217,652	14,17
217,869	51,03
218,086	91,99
218,302	65,36
218,519	36,69
218,736	16,21
218,952	-49,32
219,169	73,56
219,386	22,36
219,602	34,64
219,819	22,36
220,036	-2,22
220,252	65,36
220,469	8,02
220,685	71,51
220,902	34,64
221,118	16,21
221,335	-51,37
221,552	63,32
221,768	73,56
221,985	-16,55
222,201	22,36
222,418	79,7
222,634	24,4
222,851	26,45
223,067	38,74
223,284	-10,41
223,5	24,4
223,716	-34,99
223,933	18,26
224,149	-57,51
224,366	38,74
224,582	-59,56
224,799	-75,95
225,015	-18,6
225,231	-43,18
225,448	-10,41
225,664	73,56
225,88	-26,79
226,097	-10,41
226,313	-10,41
226,529	5,97
226,746	106,32
226,962	-41,13
227,178	-73,9
227,395	-82,09
227,611	-2,22
227,827	14,17
228,044	46,93
228,26	32,6
228,476	75,6
228,692	53,08
228,909	63,32
229,125	-10,41
229,341	22,36
229,557	-2,22
229,773	5,97
229,99	57,17
230,206	-2,22
230,422	-57,51
230,638	-73,9
230,854	57,17
231,07	-153,77
231,286	-16,55
231,503	-59,56
231,719	-18,6
231,935	-67,75
232,151	55,12
232,367	149,33
232,583	18,26
232,799	89,94
233,015	14,17
233,231	-57,51
233,447	-34,99
233,663	-57,51
233,879	71,51
234,095	38,74
234,311	128,85
234,527	57,17
234,743	87,89
234,959	89,94
235,175	63,32
235,391	-43,18
235,607	-8,36
235,823	94,04
236,039	63,32
236,255	-12,46
236,471	-2,22
236,687	-51,37
236,903	-24,75
237,118	79,7
237,334	16,21
237,55	48,98
237,766	-90,28
237,982	75,6
238,198	63,32
238,413	-0,17
238,629	38,74
238,845	8,02
239,061	-24,75
239,277	-0,17
239,492	-63,66
239,708	-8,36
239,924	-32,94
240,14	-0,17
240,355	96,08
240,571	-49,32
240,787	-63,66
241,003	145,24
241,218	48,98
241,434	3,93
241,65	79,7
241,865	-63,66
242,081	14,17
242,297	-98,47
242,512	26,45
242,728	5,97
242,944	-18,6
243,159	30,55
243,375	8,02
243,59	22,36
243,806	48,98
244,022	22,36
244,237	30,55
244,453	-57,51
244,668	104,28
244,884	71,51
245,099	1,88
245,315	165,71
245,53	-0,17
245,746	79,7
245,961	104,28
246,177	16,21
246,392	145,24
246,608	141,14
246,823	55,12
247,039	-12,46
247,254	-34,99
247,47	96,08
247,685	-59,56
247,9	-67,75
248,116	-0,17
248,331	-51,37
248,547	57,17
248,762	-92,33
248,977	10,07
249,193	-18,6
249,408	-10,41
249,623	30,55
249,839	38,74
250,054	-34,99
250,269	-30,89
250,485	71,51
250,7	14,17
250,915	38,74
251,13	128,85
251,346	79,7
251,561	61,27
251,776	-34,99
251,991	-43,18
252,207	165,71
252,422	34,64
252,637	38,74
252,852	-26,79
253,067	-0,17
253,283	-6,31
253,498	63,32
253,713	18,26
253,928	28,5
254,143	-16,55
254,358	-47,27
254,573	14,17
254,788	-116,9
255,004	5,97
255,219	-24,75
255,434	57,17
255,649	-73,9
255,864	1,88
256,079	-2,22
256,294	-51,37
256,509	-65,71
256,724	18,26
256,939	-80,04
257,154	73,56
257,369	-18,6
257,584	124,76
257,799	-0,17
258,014	-4,27
258,229	34,64
258,444	48,98
258,659	65,36
258,874	1,88
259,089	10,07
259,304	40,79
259,518	-4,27
259,733	-10,41
259,948	46,93
260,163	46,93
260,378	40,79
260,593	89,94
260,808	26,45
261,022	-47,27
261,237	55,12
261,452	24,4
261,667	55,12
261,882	120,66
262,096	38,74
262,311	79,7
262,526	-18,6
262,741	-57,51
262,955	-32,94
263,17	34,64
263,385	-10,41
263,6	-55,47
263,814	-43,18
264,029	22,36
264,244	75,6
264,458	5,97
264,673	65,36
264,888	28,5
265,102	53,08
265,317	-63,66
265,532	-32,94
265,746	73,56
265,961	151,38
266,175	16,21
266,39	16,21
266,605	65,36
266,819	-51,37
267,034	8,02
267,248	-26,79
267,463	81,75
267,677	-82,09
267,892	-2,22
268,106	-133,29
268,321	-24,75
268,535	12,12
268,75	48,98
268,964	-18,6
269,179	-8,36
269,393	8,02
269,608	67,41
269,822	-88,23
270,036	30,55
270,251	-51,37
270,465	18,26
270,68	48,98
270,894	-22,7
271,108	108,37
271,323	48,98
271,537	40,79
271,752	55,12
271,966	-63,66
272,18	-65,71
272,394	5,97
272,609	-41,13
272,823	36,69
273,037	83,8
273,252	55,12
273,466	-2,22
273,68	104,28
273,894	63,32
274,109	-24,75
274,323	44,88
274,537	18,26
274,751	-6,31
274,966	16,21
275,18	-34,99
275,394	-88,23
275,608	-57,51
275,822	-71,85
276,036	65,36
276,25	46,93
276,465	-26,79
276,679	34,64
276,893	-0,17
277,107	104,28
277,321	5,97
277,535	87,89
277,749	116,56
277,963	57,17
278,177	-22,7
278,391	1,88
278,605	-45,23
278,819	55,12
279,033	-18,6
279,247	-43,18
279,461	22,36
279,675	32,6
279,889	42,84
280,103	79,7
280,317	46,93
280,531	-65,71
280,745	-6,31
280,959	-2,22
281,173	-41,13
281,387	65,36
281,601	100,18
281,815	-18,6
282,029	-51,37
282,242	40,79
282,456	-8,36
282,67	87,89
282,884	8,02
283,098	30,55
283,312	20,31
283,525	-55,47
283,739	59,22
283,953	71,51
284,167	48,98
284,381	8,02
284,594	24,4
284,808	-18,6
285,022	14,17
285,235	22,36
285,449	38,74
285,663	1,88
285,877	-34,99
286,09	61,27
286,304	98,13
286,518	14,17
286,731	-59,56
286,945	5,97
287,159	-75,95
287,372	-2,22
287,586	40,79
287,799	18,26
288,013	-51,37
288,227	-55,47
288,44	243,54
288,654	83,8
288,867	44,88
289,081	-80,04
289,294	16,21
289,508	71,51
289,721	16,21
289,935	30,55
290,148	87,89
290,362	91,99
290,575	30,55
290,789	-16,55
291,002	-67,75
291,216	71,51
291,429	8,02
291,643	46,93
291,856	18,26
292,069	48,98
292,283	-16,55
292,496	-6,31
292,71	-2,22
292,923	55,12
293,136	-10,41
293,35	32,6
293,563	-37,03
293,776	65,36
293,99	106,32
294,203	30,55
294,416	-22,7
294,63	16,21
294,843	16,21
295,056	18,26
295,269	14,17
295,483	-16,55
295,696	32,6
295,909	-2,22
296,122	122,71
296,335	73,56
296,549	-41,13
296,762	-39,08
296,975	-26,79
297,188	73,56
297,401	28,5
297,615	26,45
297,828	12,12
298,041	137,04
298,254	-80,04
298,467	51,03
298,68	8,02
298,893	-24,75
299,106	-43,18
299,319	91,99
299,532	114,52
299,745	-26,79
299,958	-133,29
300,171	-51,37
300,384	145,24
300,598	-100,52
300,81	38,74
301,023	-82,09
301,236	-2,22
301,449	96,08
301,662	30,55
301,875	5,97
302,088	-34,99
302,301	114,52
302,514	-2,22
302,727	73,56
302,94	-2,22
303,153	57,17
303,366	-14,51
303,579	-59,56
303,791	57,17
304,004	-39,08
304,217	165,71
304,43	-32,94
304,643	-10,41
304,855	-67,75
305,068	-43,18
305,281	-51,37
305,494	22,36
305,707	-26,79
305,919	237,39
306,132	-41,13
306,345	18,26
306,558	104,28
306,77	-20,65
306,983	8,02
307,196	130,9
307,408	3,93
307,621	46,93
307,834	8,02
308,046	-32,94
308,259	-92,33
308,472	63,32
308,684	32,6
308,897	-39,08
309,109	-10,41
309,322	-34,99
309,535	79,7
309,747	153,43
309,96	124,76
310,172	91,99
310,385	40,79
310,597	-26,79
310,81	75,6
311,022	38,74
311,235	38,74
311,447	3,93
311,66	24,4
311,872	26,45
312,085	63,32
312,297	22,36
312,51	-49,32
312,722	81,75
312,934	55,12
313,147	71,51
313,359	-24,75
313,572	100,18
313,784	14,17
313,996	61,27
314,209	221,01
314,421	55,12
314,633	26,45
314,846	65,36
315,058	24,4
315,27	46,93
315,483	81,75
315,695	55,12
315,907	55,12
316,119	-6,31
316,332	83,8
316,544	196,43
316,756	63,32
316,968	79,7
317,181	1,88
317,393	16,21
317,605	108,37
317,817	100,18
318,029	65,36
318,241	-10,41
318,454	75,6
318,666	-8,36
318,878	-16,55
319,09	-24,75
319,302	75,6
319,514	59,22
319,726	34,64
319,938	126,8
320,15	57,17
320,362	32,6
320,574	-39,08
320,786	-2,22
320,999	10,07
321,211	79,7
321,423	132,95
321,635	-18,6
321,847	-16,55
322,058	102,23
322,27	67,41
322,482	67,41
322,694	108,37
322,906	-18,6
323,118	18,26
323,33	96,08
323,542	-55,47
323,754	-53,42
323,966	-75,95
324,178	75,6
324,389	44,88
324,601	173,91
324,813	-26,79
325,025	22,36
325,237	-0,17
325,449	63,32
325,66	91,99
325,872	10,07
326,084	46,93
326,296	-6,31
326,507	22,36
326,719	-18,6
326,931	-98,47
327,143	128,85
327,354	151,38
327,566	30,55
327,778	85,84
327,989	120,66
328,201	30,55
328,413	14,17
328,624	145,24
328,836	18,26
329,048	-43,18
329,259	-67,75
329,471	38,74
329,682	38,74
329,894	-18,6
330,106	-24,75
330,317	-26,79
330,529	65,36
330,74	-28,84
330,952	85,84
331,163	46,93
331,375	48,98
331,586	-24,75
331,798	-47,27
332,009	1,88
332,221	-41,13
332,432	42,84
332,644	-18,6
332,855	-63,66
333,067	75,6
333,278	12,12
333,489	100,18
333,701	-110,76
333,912	32,6
334,124	14,17
334,335	51,03
334,546	-41,13
334,758	122,71
334,969	194,39
335,18	104,28
335,392	104,28
335,603	139,09
335,814	130,9
336,025	116,56
336,237	128,85
336,448	38,74
336,659	169,81
336,87	149,33
337,082	190,29
337,293	65,36
337,504	67,41
337,715	100,18
337,926	96,08
338,138	24,4
338,349	42,84
338,56	14,17
338,771	42,84
338,982	122,71
339,193	-41,13
339,404	44,88
339,616	-16,55
339,827	30,55
340,038	-18,6
340,249	85,84
340,46	63,32
340,671	-2,22
340,882	124,76
341,093	-39,08
341,304	-96,43
341,515	-26,79
341,726	30,55
341,937	-37,03
342,148	14,17
342,359	-26,79
342,57	-10,41
342,781	87,89
342,992	71,51
343,203	67,41
343,414	71,51
343,624	-16,55
343,835	-39,08
344,046	-55,47
344,257	36,69
344,468	-24,75
344,679	1,88
344,89	30,55
345,1	-92,33
345,311	-84,14
345,522	40,79
345,733	40,79
345,944	26,45
346,154	30,55
346,365	57,17
346,576	-18,6
346,787	-12,46
346,997	18,26
347,208	67,41
347,419	-51,37
347,629	14,17
347,84	104,28
348,051	3,93
348,261	22,36
348,472	-18,6
348,683	-0,17
348,893	-0,17
349,104	-82,09
349,315	-63,66
349,525	48,98
349,736	36,69
349,946	32,6
350,157	91,99
350,368	87,89
350,578	59,22
350,789	112,47
350,999	55,12
351,21	83,8
351,42	-0,17
351,631	81,75
351,841	22,36
352,052	-26,79
352,262	42,84
352,472	-18,6
352,683	61,27
352,893	89,94
353,104	-32,94
353,314	175,95
353,525	491,34
353,735	98,13
353,945	89,94
354,156	118,61
354,366	186,19
354,576	169,81
354,787	22,36
354,997	22,36
355,207	51,03
355,418	24,4
355,628	55,12
355,838	57,17
356,048	55,12
356,259	161,62
356,469	169,81
356,679	157,52
356,889	87,89
357,1	73,56
357,31	163,67
357,52	91,99
357,73	149,33
357,94	194,39
358,15	104,28
358,361	48,98
358,571	32,6
358,781	96,08
358,991	-43,18
359,201	3,93
359,411	-80,04
359,621	22,36
359,831	169,81
360,041	-37,03
360,251	14,17
360,461	55,12
360,672	-2,22
360,882	-18,6
361,092	-30,89
361,302	79,7
361,512	65,36
361,721	-98,47
361,931	63,32
362,141	118,61
362,351	-104,62
362,561	110,42
362,771	-18,6
362,981	59,22
363,191	-73,9
363,401	85,84
363,611	46,93
363,821	-10,41
364,03	-71,85
364,24	71,51
364,45	28,5
364,66	223,06
364,87	-22,7
365,08	59,22
365,289	5,97
365,499	1,88
365,709	132,95
365,919	5,97
366,128	30,55
366,338	139,09
366,548	91,99
366,758	57,17
366,967	42,84
367,177	65,36
367,387	83,8
367,596	22,36
367,806	57,17
368,016	112,47
368,225	22,36
368,435	145,24
368,644	46,93
368,854	-6,31
369,064	75,6
369,273	57,17
369,483	57,17
369,692	-43,18
369,902	48,98
370,111	91,99
370,321	57,17
370,53	59,22
370,74	55,12
370,949	65,36
371,159	182,1
371,368	157,52
371,578	116,56
371,787	106,32
371,997	-22,7
372,206	14,17
372,416	30,55
372,625	55,12
372,834	16,21
373,044	-28,84
373,253	128,85
373,462	87,89
373,672	104,28
373,881	161,62
374,09	-18,6
374,3	135
374,509	28,5
374,718	42,84
374,928	245,59
375,137	188,24
375,346	38,74
375,555	227,15
375,765	98,13
375,974	163,67
376,183	128,85
376,392	71,51
376,601	65,36
376,811	81,75
377,02	87,89
377,229	91,99
377,438	71,51
377,647	26,45
377,856	71,51
378,065	40,79
378,275	32,6
378,484	-8,36
378,693	112,47
378,902	71,51
379,111	149,33
379,32	124,76
379,529	16,21
379,738	55,12
379,947	155,47
380,156	120,66
380,365	137,04
380,574	233,3
380,783	40,79
380,992	108,37
381,201	32,6
381,41	8,02
381,619	40,79
381,828	73,56
382,037	51,03
382,245	67,41
382,454	81,75
382,663	8,02
382,872	46,93
383,081	89,94
383,29	145,24
383,499	36,69
383,707	118,61
383,916	137,04
384,125	104,28
384,334	55,12
384,542	149,33
384,751	128,85
384,96	16,21
385,169	30,55
385,377	128,85
385,586	96,08
385,795	153,43
386,004	122,71
386,212	-88,23
386,421	34,64
386,63	55,12
386,838	71,51
387,047	14,17
387,255	112,47
387,464	137,04
387,673	46,93
387,881	63,32
388,09	223,06
388,298	108,37
388,507	163,67
388,715	22,36
388,924	198,48
389,133	24,4
389,341	22,36
389,55	61,27
389,758	137,04
389,967	122,71
390,175	132,95
390,383	157,52
390,592	112,47
390,8	104,28
391,009	87,89
391,217	46,93
391,426	163,67
391,634	26,45
391,842	-51,37
392,051	120,66
392,259	55,12
392,467	65,36
392,676	114,52
392,884	73,56
393,092	40,79
393,301	94,04
393,509	14,17
393,717	145,24
393,925	147,28
394,134	38,74
394,342	132,95
394,55	153,43
394,758	235,35
394,967	116,56
395,175	71,51
395,383	73,56
395,591	42,84
395,799	46,93
396,007	106,32
396,216	98,13
396,424	161,62
396,632	122,71
396,84	34,64
397,048	167,76
397,256	171,86
397,464	18,26
397,672	192,34
397,88	87,89
398,088	171,86
398,296	114,52
398,504	-28,84
398,712	-6,31
398,92	112,47
399,128	77,65
399,336	130,9
399,544	128,85
399,752	30,55
399,96	81,75
400,168	118,61
400,376	118,61
400,584	106,32
400,792	14,17
401	55,12
401,207	135
401,415	38,74
401,623	57,17
401,831	14,17
402,039	137,04
402,247	1,88
402,454	128,85
402,662	-4,27
402,87	63,32
403,078	100,18
403,285	128,85
403,493	-4,27
403,701	79,7
403,909	73,56
404,116	122,71
404,324	5,97
404,532	63,32
404,739	42,84
404,947	-2,22
405,155	171,86
405,362	153,43
405,57	106,32
405,778	104,28
405,985	91,99
406,193	87,89
406,4	22,36
406,608	51,03
406,816	14,17
407,023	124,76
407,231	71,51
407,438	79,7
407,646	79,7
407,853	8,02
408,061	63,32
408,268	108,37
408,476	57,17
408,683	137,04
408,89	153,43
409,098	112,47
409,305	153,43
409,513	257,87
409,72	112,47
409,927	190,29
410,135	354,13
410,342	210,77
410,55	333,65
410,757	180,05
410,964	122,71
411,172	223,06
411,379	22,36
411,586	-8,36
411,793	38,74
412,001	53,08
412,208	-6,31
412,415	186,19
412,622	57,17
412,83	96,08
413,037	40,79
413,244	38,74
413,451	139,09
413,658	61,27
413,866	40,79
414,073	38,74
414,28	73,56
414,487	-18,6
414,694	87,89
414,901	98,13
415,108	67,41
415,315	8,02
415,522	188,24
415,73	73,56
415,937	-65,71
416,144	-10,41
416,351	-39,08
416,558	-34,99
416,765	14,17
416,972	65,36
417,179	24,4
417,386	122,71
417,593	36,69
417,8	26,45
418,006	87,89
418,213	96,08
418,42	85,84
418,627	46,93
418,834	30,55
419,041	96,08
419,248	98,13
419,455	98,13
419,661	202,58
419,868	32,6
420,075	71,51
420,282	14,17
420,489	96,08
420,696	57,17
420,902	114,52
421,109	71,51
421,316	22,36
421,523	26,45
421,729	75,6
421,936	-22,7
422,143	106,32
422,349	10,07
422,556	-2,22
422,763	26,45
422,969	-47,27
423,176	-121
423,383	73,56
423,589	194,39
423,796	48,98
424,002	-26,79
424,209	8,02
424,416	85,84
424,622	-104,62
424,829	-59,56
425,035	-51,37
425,242	59,22
425,448	59,22
425,655	51,03
425,861	91,99
426,068	1,88
426,274	141,14
426,481	-16,55
426,687	71,51
426,894	75,6
427,1	89,94
427,306	-18,6
427,513	38,74
427,719	34,64
427,926	81,75
428,132	1,88
428,338	91,99
428,545	104,28
428,751	-55,47
428,957	-24,75
429,163	-65,71
429,37	55,12
429,576	5,97
429,782	30,55
429,989	5,97
430,195	63,32
430,401	1,88
430,607	5,97
430,813	46,93
431,02	87,89
431,226	63,32
431,432	-16,55
431,638	40,79
431,844	3,93
432,05	46,93
432,257	104,28
432,463	235,35
432,669	278,35
432,875	286,54
433,081	350,03
433,287	528,21
433,493	540,49
433,699	831,3
433,905	974,66
434,111	956,23
434,317	1128,26
434,523	995,14
434,729	827,21
434,935	714,57
435,141	567,12
435,347	350,03
435,553	286,54
435,759	163,67
435,965	91,99
436,171	124,76
436,377	112,47
436,582	30,55
436,788	30,55
436,994	96,08
437,2	42,84
437,406	18,26
437,612	137,04
437,818	104,28
438,023	-30,89
438,229	153,43
438,435	96,08
438,641	-24,75
438,846	91,99
439,052	8,02
439,258	81,75
439,464	38,74
439,669	14,17
439,875	104,28
440,081	10,07
440,286	96,08
440,492	30,55
440,698	77,65
440,903	-16,55
441,109	147,28
441,314	-22,7
441,52	-26,79
441,726	63,32
441,931	77,65
442,137	67,41
442,342	-51,37
442,548	98,13
442,753	130,9
442,959	-24,75
443,164	5,97
443,37	114,52
443,575	16,21
443,781	-0,17
443,986	69,46
444,192	-24,75
444,397	-84,14
444,602	-2,22
444,808	22,36
445,013	32,6
445,219	26,45
445,424	63,32
445,629	40,79
445,835	130,9
446,04	79,7
446,245	-22,7
446,451	38,74
446,656	-24,75
446,861	5,97
447,066	16,21
447,272	18,26
447,477	-10,41
447,682	-43,18
447,887	79,7
448,093	48,98
448,298	186,19
448,503	-14,51
448,708	-18,6
448,913	-32,94
449,118	59,22
449,324	83,8
449,529	104,28
449,734	30,55
449,939	-0,17
450,144	161,62
450,349	61,27
450,554	14,17
450,759	155,47
450,964	59,22
451,169	96,08
451,374	32,6
451,579	104,28
451,784	55,12
451,989	-18,6
452,194	87,89
452,399	51,03
452,604	34,64
452,809	-26,79
453,014	57,17
453,219	48,98
453,424	48,98
453,629	5,97
453,833	-75,95
454,038	32,6
454,243	30,55
454,448	51,03
454,653	55,12
454,858	-12,46
455,062	-0,17
455,267	-75,95
455,472	124,76
455,677	44,88
455,882	46,93
456,086	147,28
456,291	57,17
456,496	-10,41
456,7	96,08
456,905	40,79
457,11	59,22
457,314	-8,36
457,519	34,64
457,724	10,07
457,928	100,18
458,133	96,08
458,338	104,28
458,542	55,12
458,747	22,36
458,951	-51,37
459,156	18,26
459,36	-75,95
459,565	73,56
459,769	59,22
459,974	63,32
460,178	59,22
460,383	-30,89
460,587	-18,6
460,792	20,31
460,996	-30,89
461,201	32,6
461,405	-30,89
461,61	-2,22
461,814	65,36
462,018	-20,65
462,223	-18,6
462,427	102,23
462,631	-41,13
462,836	108,37
463,04	114,52
463,244	135
463,449	57,17
463,653	137,04
463,857	5,97
464,062	104,28
464,266	42,84
464,47	57,17
464,674	40,79
464,878	69,46
465,083	32,6
465,287	126,8
465,491	57,17
465,695	16,21
465,899	57,17
466,104	18,26
466,308	83,8
466,512	-24,75
466,716	14,17
466,92	46,93
467,124	63,32
467,328	14,17
467,532	137,04
467,736	51,03
467,94	57,17
468,144	63,32
468,348	63,32
468,552	114,52
468,756	112,47
468,96	55,12
469,164	-10,41
469,368	63,32
469,572	1,88
469,776	89,94
469,98	48,98
470,184	30,55
470,388	79,7
470,591	65,36
470,795	106,32
470,999	42,84
471,203	91,99
471,407	55,12
471,611	1,88
471,814	30,55
472,018	-37,03
472,222	32,6
472,426	137,04
472,63	-18,6
472,833	63,32
473,037	51,03
473,241	40,79
473,444	46,93
473,648	456,53
473,852	-30,89
474,055	20,31
474,259	79,7
474,463	40,79
474,666	-2,22
474,87	-18,6
475,074	67,41
475,277	83,8
475,481	102,23
475,684	-24,75
475,888	-47,27
476,091	-39,08
476,295	-26,79
476,498	-24,75
476,702	46,93
476,905	163,67
477,109	124,76
477,312	120,66
477,516	-30,89
477,719	59,22
477,923	61,27
478,126	14,17
478,329	8,02
478,533	-6,31
478,736	65,36
478,94	71,51
479,143	-32,94
479,346	122,71
479,55	40,79
479,753	38,74
479,956	22,36
480,159	-18,6
480,363	38,74
480,566	22,36
480,769	57,17
480,972	-28,84
481,176	-10,41
481,379	87,89
481,582	139,09
481,785	5,97
481,988	73,56
482,192	169,81
482,395	-2,22
482,598	128,85
482,801	79,7
483,004	149,33
483,207	91,99
483,41	83,8
483,613	132,95
483,817	145,24
484,02	122,71
484,223	374,61
484,426	724,81
484,629	1144,64
484,832	2088,76
485,035	2668,33
485,238	3749,66
485,441	4937,48
485,644	6381,3
485,846	8025,82
486,049	9211,59
486,252	10305,21
486,455	10219,19
486,658	9938,62
486,861	8711,89
487,064	7206,63
487,267	5428,99
487,47	4142,87
487,672	3006,25
487,875	1918,78
488,078	1236,8
488,281	829,26
488,484	456,53
488,686	204,63
488,889	163,67
489,092	114,52
489,295	79,7
489,497	137,04
489,7	104,28
489,903	1,88
490,105	1,88
490,308	53,08
490,511	85,84
490,713	10,07
490,916	18,26
491,118	81,75
491,321	83,8
491,524	8,02
491,726	28,5
491,929	-10,41
492,131	38,74
492,334	10,07
492,536	24,4
492,739	-16,55
492,941	79,7
493,144	16,21
493,346	65,36
493,549	59,22
493,751	65,36
493,954	-10,41
494,156	26,45
494,359	46,93
494,561	-43,18
494,763	46,93
494,966	34,64
495,168	124,76
495,37	42,84
495,573	36,69
495,775	14,17
495,977	157,52
496,18	34,64
496,382	104,28
496,584	100,18
496,787	104,28
496,989	-0,17
497,191	40,79
497,393	124,76
497,595	10,07
497,798	55,12
498	106,32
498,202	10,07
498,404	3,93
498,606	28,5
498,808	89,94
499,011	57,17
499,213	108,37
499,415	24,4
499,617	145,24
499,819	51,03
500,021	116,56
500,223	1,88
500,425	-0,17
500,627	14,17
500,829	71,51
501,031	-2,22
501,233	-2,22
501,435	5,97
501,637	128,85
501,839	130,9
502,041	-18,6
502,243	44,88
502,445	55,12
502,647	55,12
502,848	57,17
503,05	38,74
503,252	63,32
503,454	79,7
503,656	36,69
503,858	34,64
504,059	53,08
504,261	147,28
504,463	79,7
504,665	38,74
504,867	-45,23
505,068	51,03
505,27	-8,36
505,472	67,41
505,673	59,22
505,875	14,17
506,077	-18,6
506,278	-30,89
506,48	108,37
506,682	5,97
506,883	75,6
507,085	20,31
507,287	14,17
507,488	51,03
507,69	67,41
507,891	-10,41
508,093	139,09
508,294	-12,46
508,496	-47,27
508,697	-12,46
508,899	-18,6
509,1	87,89
509,302	34,64
509,503	16,21
509,705	48,98
509,906	-16,55
510,108	-55,47
510,309	-16,55
510,51	89,94
510,712	-63,66
510,913	-51,37
511,114	-41,13
511,316	-77,99
511,517	63,32
511,718	-53,42
511,92	-41,13
512,121	14,17
512,322	32,6
512,524	71,51
512,725	130,9
512,926	16,21
513,127	-43,18
513,329	-34,99
513,53	-55,47
513,731	55,12
513,932	30,55
514,133	81,75
514,334	-96,43
514,536	79,7
514,737	87,89
514,938	22,36
515,139	-2,22
515,34	-32,94
515,541	173,91
515,742	-43,18
515,943	118,61
516,144	73,56
516,345	94,04
516,546	8,02
516,747	61,27
516,948	55,12
517,149	55,12
517,35	-37,03
517,551	-51,37
517,752	71,51
517,953	120,66
518,154	67,41
518,355	114,52
518,556	132,95
518,756	67,41
518,957	91,99
519,158	155,47
519,359	112,47
519,56	18,26
519,761	63,32
519,961	128,85
520,162	87,89
520,363	-8,36
520,564	18,26
520,764	137,04
520,965	-2,22
521,166	75,6
521,366	44,88
521,567	130,9
521,768	79,7
521,968	57,17
522,169	73,56
522,37	-49,32
522,57	38,74
522,771	87,89
522,972	10,07
523,172	202,58
523,373	48,98
523,573	-6,31
523,774	63,32
523,974	137,04
524,175	46,93
524,375	36,69
524,576	-14,51
524,776	1,88
524,977	-0,17
525,177	89,94
525,378	10,07
525,578	40,79
525,778	46,93
525,979	89,94
526,179	-16,55
526,38	71,51
526,58	42,84
526,78	-51,37
526,981	71,51
527,181	75,6
527,381	104,28
527,582	40,79
527,782	112,47
527,982	112,47
528,182	75,6
528,383	32,6
528,583	14,17
528,783	46,93
528,983	5,97
529,183	1,88
529,384	-10,41
529,584	132,95
529,784	190,29
529,984	124,76
530,184	3,93
530,384	30,55
530,584	-67,75
530,784	48,98
530,984	-18,6
531,185	155,47
531,385	135
531,585	38,74
531,785	51,03
531,985	30,55
532,185	-6,31
532,385	30,55
532,585	114,52
532,785	12,12
532,984	38,74
533,184	63,32
533,384	55,12
533,584	-2,22
533,784	114,52
533,984	163,67
534,184	22,36
534,384	-2,22
534,583	48,98
534,783	55,12
534,983	57,17
535,183	-65,71
535,383	-24,75
535,582	94,04
535,782	-84,14
535,982	8,02
536,182	79,7
536,381	46,93
536,581	-14,51
536,781	46,93
536,98	48,98
537,18	79,7
537,38	128,85
537,579	-51,37
537,779	46,93
537,979	91,99
538,178	-6,31
538,378	65,36
538,577	-26,79
538,777	-6,31
538,976	53,08
539,176	106,32
539,376	30,55
539,575	20,31
539,774	34,64
539,974	-28,84
540,173	30,55
540,373	65,36
540,572	5,97
540,772	71,51
540,971	-24,75
541,171	112,47
541,37	22,36
541,569	16,21
541,769	42,84
541,968	42,84
542,167	55,12
542,367	63,32
542,566	30,55
542,765	1,88
542,965	-18,6
543,164	77,65
543,363	42,84
543,562	-2,22
543,761	30,55
543,961	96,08
544,16	-26,79
544,359	98,13
544,558	128,85
544,757	-2,22
544,957	79,7
545,156	147,28
545,355	51,03
545,554	38,74
545,753	-84,14
545,952	63,32
546,151	38,74
546,35	96,08
546,549	59,22
546,748	73,56
546,947	-2,22
547,146	-55,47
547,345	75,6
547,544	10,07
547,743	-6,31
547,942	63,32
548,141	42,84
548,34	87,89
548,539	100,18
548,738	-18,6
548,937	87,89
549,135	57,17
549,334	1,88
549,533	75,6
549,732	-16,55
549,931	106,32
550,13	18,26
550,328	-30,89
550,527	-8,36
550,726	5,97
550,925	22,36
551,123	81,75
551,322	67,41
551,521	87,89
551,72	-16,55
551,918	63,32
552,117	71,51
552,315	22,36
552,514	-100,52
552,713	-24,75
552,911	16,21
553,11	-96,43
553,309	-30,89
553,507	40,79
553,706	79,7
553,904	75,6
554,103	71,51
554,301	61,27
554,5	-14,51
554,698	34,64
554,897	87,89
555,095	32,6
555,294	-51,37
555,492	38,74
555,69	75,6
555,889	-53,42
556,087	22,36
556,286	137,04
556,484	71,51
556,682	-2,22
556,881	5,97
557,079	16,21
557,277	38,74
557,476	91,99
557,674	63,32
557,872	108,37
558,07	-51,37
558,269	34,64
558,467	38,74
558,665	-47,27
558,863	22,36
559,062	94,04
559,26	79,7
559,458	-75,95
559,656	-24,75
559,854	-6,31
560,052	30,55
560,25	71,51
560,449	302,93
560,647	55,12
560,845	65,36
561,043	40,79
561,241	73,56
561,439	38,74
561,637	22,36
561,835	10,07
562,033	96,08
562,231	5,97
562,429	8,02
562,627	26,45
562,825	-34,99
563,023	38,74
563,221	59,22
563,418	-49,32
563,616	-34,99
563,814	65,36
564,012	14,17
564,21	46,93
564,408	32,6
564,605	-67,75
564,803	-10,41
565,001	280,4
565,199	-65,71
565,397	48,98
565,594	120,66
565,792	30,55
565,99	-67,75
566,188	-22,7
566,385	48,98
566,583	-100,52
566,781	77,65
566,978	104,28
567,176	155,47
567,373	73,56
567,571	26,45
567,769	57,17
567,966	-43,18
568,164	18,26
568,361	18,26
568,559	42,84
568,756	5,97
568,954	-14,51
569,151	8,02
569,349	106,32
569,546	24,4
569,744	73,56
569,941	30,55
570,139	-4,27
570,336	-16,55
570,534	91,99
570,731	-88,23
570,928	59,22
571,126	143,19
571,323	65,36
571,52	22,36
571,718	30,55
571,915	16,21
572,112	-18,6
572,31	38,74
572,507	208,72
572,704	-6,31
572,901	-16,55
573,099	48,98
573,296	139,09
573,493	14,17
573,69	-12,46
573,887	42,84
574,085	130,9
574,282	38,74
574,479	81,75
574,676	-26,79
574,873	137,04
575,07	26,45
575,267	10,07
575,464	-0,17
575,661	96,08
575,858	-18,6
576,055	38,74
576,252	71,51
576,449	-14,51
576,646	-26,79
576,843	85,84
577,04	46,93
577,237	94,04
577,434	79,7
577,631	10,07
577,828	73,56
578,025	-49,32
578,222	-2,22
578,419	8,02
578,615	65,36
578,812	104,28
579,009	57,17
579,206	-10,41
579,403	59,22
579,599	175,95
579,796	-84,14
579,993	169,81
580,19	22,36
580,386	28,5
580,583	120,66
580,78	42,84
580,976	87,89
581,173	94,04
581,37	51,03
581,566	55,12
581,763	32,6
581,96	55,12
582,156	38,74
582,353	149,33
582,549	87,89
582,746	-34,99
582,942	-10,41
583,139	79,7
583,335	46,93
583,532	106,32
583,728	-34,99
583,925	69,46
584,121	67,41
584,318	128,85
584,514	79,7
584,711	120,66
584,907	87,89
585,103	38,74
585,3	130,9
585,496	40,79
585,693	-43,18
585,889	5,97
586,085	30,55
586,281	44,88
586,478	40,79
586,674	-6,31
586,87	51,03
587,067	-32,94
587,263	30,55
587,459	-14,51
587,655	-43,18
587,851	116,56
588,048	153,43
588,244	-2,22
588,44	83,8
588,636	51,03
588,832	81,75
589,028	161,62
589,224	-51,37
589,42	-32,94
589,617	8,02
589,813	-6,31
590,009	16,21
590,205	34,64
590,401	98,13
590,597	-32,94
590,793	75,6
590,989	14,17
591,185	55,12
591,38	30,55
591,576	63,32
591,772	-32,94
591,968	65,36
592,164	-30,89
592,36	63,32
592,556	55,12
592,752	98,13
592,948	106,32
593,143	-10,41
593,339	20,31
593,535	71,51
593,731	55,12
593,926	122,71
594,122	55,12
594,318	30,55
594,514	132,95
594,709	-39,08
594,905	128,85
595,101	8,02
595,296	30,55
595,492	108,37
595,688	10,07
595,883	48,98
596,079	81,75
596,275	28,5
596,47	85,84
596,666	98,13
596,861	-2,22
597,057	1,88
597,252	22,36
597,448	71,51
597,643	141,14
597,839	98,13
598,034	55,12
598,23	-39,08
598,425	67,41
598,621	14,17
598,816	106,32
599,011	38,74
599,207	40,79
599,402	-57,51
599,597	106,32
599,793	-0,17
599,988	75,6
600,183	-22,7
600,379	34,64
600,574	-26,79
600,769	1,88
600,965	8,02
601,16	48,98
601,355	-16,55
601,55	63,32
601,745	42,84
601,941	126,8
602,136	79,7
602,331	120,66
602,526	89,94
602,721	63,32
602,916	18,26
603,111	79,7
603,307	14,17
603,502	83,8
603,697	38,74
603,892	77,65
604,087	89,94
604,282	112,47
604,477	116,56
604,672	5,97
604,867	32,6
605,062	36,69
605,257	102,23
605,452	137,04
605,646	104,28
605,841	89,94
606,036	98,13
606,231	24,4
606,426	98,13
606,621	26,45
606,816	10,07
607,01	137,04
607,205	87,89
607,4	24,4
607,595	104,28
607,79	-8,36
607,984	100,18
608,179	51,03
608,374	106,32
608,569	100,18
608,763	-26,79
608,958	24,4
609,153	135
609,347	79,7
609,542	28,5
609,736	55,12
609,931	81,75
610,126	89,94
610,32	71,51
610,515	-30,89
610,709	264,02
610,904	10,07
611,098	-41,13
611,293	-69,8
611,487	12,12
611,682	-32,94
611,876	63,32
612,071	116,56
612,265	38,74
612,46	-75,95
612,654	87,89
612,848	5,97
613,043	-34,99
613,237	48,98
613,432	-55,47
613,626	14,17
613,82	-67,75
614,014	167,76
614,209	178
614,403	32,6
614,597	63,32
614,792	124,76
614,986	120,66
615,18	255,83
615,374	286,54
615,568	284,5
615,763	206,67
615,957	229,2
616,151	333,65
616,345	341,84
616,539	210,77
616,733	223,06
616,927	149,33
617,121	145,24
617,316	235,35
617,51	175,95
617,704	141,14
617,898	137,04
618,092	-18,6
618,286	87,89
618,48	-10,41
618,674	96,08
618,868	46,93
619,061	-55,47
619,255	57,17
619,449	-8,36
619,643	-39,08
619,837	145,24
620,031	48,98
620,225	63,32
620,419	-2,22
620,612	63,32
620,806	55,12
621	71,51
621,194	-0,17
621,388	22,36
621,581	32,6
621,775	26,45
621,969	65,36
622,162	87,89
622,356	22,36
622,55	61,27
622,743	55,12
622,937	-14,51
623,131	91,99
623,324	122,71
623,518	10,07
623,712	-59,56
623,905	34,64
624,099	120,66
624,292	32,6
624,486	14,17
624,679	16,21
624,873	22,36
625,066	124,76
625,26	40,79
625,453	-30,89
625,647	-26,79
625,84	106,32
626,034	22,36
626,227	63,32
626,42	143,19
626,614	-30,89
626,807	46,93
627	73,56
627,194	-2,22
627,387	-6,31
627,58	-8,36
627,774	79,7
627,967	46,93
628,16	81,75
628,353	79,7
628,547	104,28
628,74	112,47
628,933	-26,79
629,126	83,8
629,319	38,74
629,513	79,7
629,706	10,07
629,899	104,28
630,092	10,07
630,285	-65,71
630,478	8,02
630,671	79,7
630,864	81,75
631,057	38,74
631,25	42,84
631,443	57,17
631,636	96,08
631,829	65,36
632,022	96,08
632,215	79,7
632,408	26,45
632,601	120,66
632,794	87,89
632,987	46,93
633,18	10,07
633,373	55,12
633,566	18,26
633,758	-86,19
633,951	42,84
634,144	104,28
634,337	-10,41
634,53	-10,41
634,722	110,42
634,915	8,02
635,108	24,4
635,301	91,99
635,493	145,24
635,686	167,76
635,879	51,03
636,071	-55,47
636,264	81,75
636,457	71,51
636,649	-30,89
636,842	63,32
637,034	83,8
637,227	112,47
637,42	42,84
637,612	18,26
637,805	1,88
637,997	75,6
638,19	108,37
638,382	8,02
638,575	8,02
638,767	55,12
638,96	38,74
639,152	104,28
639,344	157,52
639,537	48,98
639,729	32,6
639,922	137,04
640,114	59,22
640,306	18,26
640,499	79,7
640,691	-24,75
640,883	75,6
641,075	67,41
641,268	137,04
641,46	75,6
641,652	57,17
641,844	71,51
642,037	100,18
642,229	5,97
642,421	73,56
642,613	22,36
642,805	16,21
642,998	-26,79
643,19	104,28
643,382	141,14
643,574	122,71
643,766	65,36
643,958	79,7
644,15	155,47
644,342	155,47
644,534	96,08
644,726	98,13
644,918	42,84
645,11	55,12
645,302	157,52
645,494	120,66
645,686	94,04
645,878	91,99
646,07	196,43
646,262	14,17
646,453	128,85
646,645	75,6
646,837	96,08
647,029	124,76
647,221	106,32
647,413	40,79
647,604	98,13
647,796	87,89
647,988	65,36
648,18	-2,22
648,371	63,32
648,563	85,84
648,755	104,28
648,947	40,79
649,138	116,56
649,33	71,51
649,521	1,88
649,713	32,6
649,905	108,37
650,096	83,8
650,288	79,7
650,479	16,21
650,671	87,89
650,863	-2,22
651,054	75,6
651,246	143,19
651,437	87,89
651,629	186,19
651,82	243,54
652,011	186,19
652,203	186,19
652,394	173,91
652,586	155,47
652,777	124,76
652,968	188,24
653,16	200,53
653,351	284,5
653,542	229,2
653,734	128,85
653,925	270,16
654,116	221,01
654,308	358,22
654,499	491,34
654,69	1632,06
654,881	4814,6
655,073	10004,16
655,264	17452,62
655,455	26140,1
655,646	36662,57
655,837	47395,97
656,028	55919,62
656,219	62135,2
656,411	64197,51
656,602	64197,51
656,793	64197,51
656,984	63636,36
657,175	58221,53
657,366	52257,85
657,557	44514,48
657,748	37922,07
657,939	32748,9
658,13	27311,54
658,321	23002,61
658,512	17937,99
658,703	12613,27
658,894	8187,61
659,084	4980,49
659,275	3221,28
659,466	2119,48
659,657	1439,55
659,848	1054,53
660,039	735,05
660,23	540,49
660,42	327,5
660,611	325,46
660,802	360,27
660,993	237,39
661,183	278,35
661,374	171,86
661,565	325,46
661,755	212,82
661,946	178
662,137	120,66
662,327	147,28
662,518	108,37
662,709	55,12
662,899	1,88
663,09	91,99
663,28	96,08
663,471	10,07
663,662	196,43
663,852	112,47
664,043	79,7
664,233	46,93
664,424	79,7
664,614	46,93
664,804	-18,6
664,995	112,47
665,185	71,51
665,376	112,47
665,566	63,32
665,756	40,79
665,947	130,9
666,137	30,55
666,328	182,1
666,518	59,22
666,708	1,88
666,898	46,93
667,089	161,62
667,279	48,98
667,469	-18,6
667,659	65,36
667,85	161,62
668,04	24,4
668,23	-24,75
668,42	-8,36
668,61	30,55
668,8	55,12
668,991	108,37
669,181	143,19
669,371	10,07
669,561	-16,55
669,751	171,86
669,941	147,28
670,131	65,36
670,321	22,36
670,511	28,5
670,701	14,17
670,891	91,99
671,081	18,26
671,271	28,5
671,461	20,31
671,651	46,93
671,841	38,74
672,03	79,7
672,22	30,55
672,41	61,27
672,6	71,51
672,79	40,79
672,98	14,17
673,169	10,07
673,359	77,65
673,549	-22,7
673,739	10,07
673,928	-6,31
674,118	40,79
674,308	30,55
674,497	161,62
674,687	18,26
674,877	-43,18
675,066	32,6
675,256	71,51
675,446	-2,22
675,635	96,08
675,825	16,21
676,014	48,98
676,204	26,45
676,393	71,51
676,583	83,8
676,772	94,04
676,962	112,47
677,151	22,36
677,341	46,93
677,53	-39,08
677,72	46,93
677,909	38,74
678,099	-22,7
678,288	5,97
678,477	128,85
678,667	75,6
678,856	122,71
679,045	46,93
679,235	108,37
679,424	34,64
679,613	137,04
679,802	53,08
679,992	30,55
680,181	-32,94
680,37	89,94
680,559	96,08
680,748	178
680,938	63,32
681,127	44,88
681,316	59,22
681,505	40,79
681,694	-39,08
681,883	26,45
682,072	46,93
682,261	-49,32
682,45	1,88
682,639	8,02
682,828	38,74
683,017	89,94
683,206	79,7
683,395	40,79
683,584	71,51
683,773	106,32
683,962	63,32
684,151	46,93
684,34	96,08
684,529	96,08
684,718	-41,13
684,907	28,5
685,095	59,22
685,284	69,46
685,473	32,6
685,662	5,97
685,851	75,6
686,039	28,5
686,228	-34,99
686,417	42,84
686,606	59,22
686,794	65,36
686,983	-37,03
687,172	-2,22
687,36	-51,37
687,549	-34,99
687,738	-43,18
687,926	-65,71
688,115	-49,32
688,303	14,17
688,492	22,36
688,68	-73,9
688,869	-14,51
689,057	-57,51
689,246	-80,04
689,434	104,28
689,623	-84,14
689,811	1,88
690	22,36
690,188	1,88
690,377	34,64
690,565	126,8
690,753	75,6
690,942	130,9
691,13	38,74
691,318	-10,41
691,507	-69,8
691,695	26,45
691,883	22,36
692,072	51,03
692,26	32,6
692,448	59,22
692,636	-121
692,824	-47,27
693,013	32,6
693,201	30,55
693,389	-67,75
693,577	-47,27
693,765	98,13
693,953	10,07
694,141	-10,41
694,329	24,4
694,518	-0,17
694,706	34,64
694,894	-2,22
695,082	-69,8
695,27	51,03
695,458	22,36
695,646	106,32
695,834	67,41
696,022	-18,6
696,209	-18,6
696,397	57,17
696,585	-6,31
696,773	12,12
696,961	63,32
697,149	5,97
697,337	57,17
697,525	51,03
697,712	30,55
697,9	-32,94
698,088	63,32
698,276	100,18
698,463	-41,13
698,651	18,26
698,839	1,88
699,027	51,03
699,214	116,56
699,402	22,36
699,59	48,98
699,777	42,84
699,965	24,4
700,152	-39,08
700,34	-10,41
700,528	20,31
700,715	20,31
700,903	55,12
701,09	71,51
701,278	22,36
701,465	96,08
701,653	-0,17
701,84	24,4
702,028	87,89
702,215	65,36
702,402	120,66
702,59	34,64
702,777	-10,41
702,965	16,21
703,152	10,07
703,339	-8,36
703,527	-67,75
703,714	26,45
703,901	55,12
704,088	14,17
704,276	-18,6
704,463	96,08
704,65	22,36
704,837	10,07
705,025	139,09
705,212	-16,55
705,399	5,97
705,586	-18,6
705,773	-10,41
705,96	-39,08
706,147	-0,17
706,335	-2,22
706,522	5,97
706,709	-10,41
706,896	-51,37
707,083	-6,31
707,27	81,75
707,457	137,04
707,644	-32,94
707,831	-10,41
708,018	-84,14
708,205	-57,51
708,392	51,03
708,578	55,12
708,765	-26,79
708,952	-65,71
709,139	-41,13
709,326	-104,62
709,513	22,36
709,7	-0,17
709,886	24,4
710,073	1,88
710,26	106,32
710,447	-53,42
710,633	51,03
710,82	24,4
711,007	-10,41
711,193	26,45
711,38	14,17
711,567	79,7
711,753	-69,8
711,94	71,51
712,127	63,32
712,313	55,12
712,5	-22,7
712,686	46,93
712,873	-84,14
713,059	38,74
713,246	65,36
713,432	42,84
713,619	-75,95
713,805	38,74
713,992	32,6
714,178	-32,94
714,365	-39,08
714,551	96,08
714,737	32,6
714,924	-57,51
715,11	51,03
715,297	1,88
715,483	-2,22
715,669	53,08
715,855	38,74
716,042	104,28
716,228	-75,95
716,414	85,84
716,6	30,55
716,787	16,21
716,973	-32,94
717,159	122,71
717,345	-18,6
717,531	10,07
717,718	73,56
717,904	48,98
718,09	22,36
718,276	-10,41
718,462	57,17
718,648	79,7
718,834	-18,6
719,02	75,6
719,206	51,03
719,392	-53,42
719,578	20,31
719,764	-43,18
719,95	5,97
720,136	85,84
720,322	40,79
720,508	-8,36
720,694	38,74
720,879	-8,36
721,065	145,24
721,251	-34,99
721,437	-51,37
721,623	112,47
721,809	85,84
721,994	5,97
722,18	-55,47
722,366	30,55
722,552	26,45
722,737	-20,65
722,923	44,88
723,109	-34,99
723,294	-34,99
723,48	61,27
723,666	57,17
723,851	-59,56
724,037	83,8
724,222	124,76
724,408	63,32
724,593	53,08
724,779	26,45
724,965	32,6
725,15	48,98
725,336	89,94
725,521	104,28
725,706	14,17
725,892	10,07
726,077	87,89
726,263	30,55
726,448	149,33
726,634	55,12
726,819	89,94
727,004	89,94
727,19	24,4
727,375	91,99
727,56	-18,6
727,745	-10,41
727,931	100,18
728,116	-30,89
728,301	48,98
728,486	79,7
728,672	-10,41
728,857	83,8
729,042	-14,51
729,227	-26,79
729,412	32,6
729,597	-24,75
729,783	16,21
729,968	-2,22
730,153	8,02
730,338	-6,31
730,523	8,02
730,708	30,55
730,893	34,64
731,078	18,26
731,263	-12,46
731,448	-32,94
731,633	34,64
731,818	5,97
732,003	-24,75
732,187	-49,32
732,372	-51,37
732,557	30,55
732,742	48,98
732,927	-88,23
733,112	120,66
733,297	24,4
733,481	55,12
733,666	-51,37
733,851	48,98
734,036	-10,41
734,22	-18,6
734,405	214,87
734,59	-2,22
734,774	57,17
734,959	-8,36
735,144	24,4
735,328	-10,41
735,513	-43,18
735,698	18,26
735,882	114,52
736,067	65,36
736,251	104,28
736,436	34,64
736,62	-24,75
736,805	34,64
736,989	79,7
737,174	55,12
737,358	16,21
737,543	16,21
737,727	18,26
737,911	112,47
738,096	46,93
738,28	57,17
738,465	5,97
738,649	34,64
738,833	100,18
739,018	-0,17
739,202	1,88
739,386	30,55
739,57	-26,79
739,755	32,6
739,939	46,93
740,123	-51,37
740,307	55,12
740,491	-10,41
740,676	-34,99
740,86	65,36
741,044	-0,17
741,228	42,84
741,412	-106,67
741,596	-37,03
741,78	26,45
741,964	-18,6
742,148	-2,22
742,332	-53,42
742,516	-43,18
742,7	87,89
742,884	1,88
743,068	-26,79
743,252	26,45
743,436	75,6
743,62	-84,14
743,804	91,99
743,988	165,71
744,172	14,17
744,356	26,45
744,539	-26,79
744,723	-43,18
744,907	-18,6
745,091	-73,9
745,275	75,6
745,458	-41,13
745,642	8,02
745,826	38,74
746,009	96,08
746,193	48,98
746,377	79,7
746,56	100,18
746,744	79,7
746,928	-14,51
747,111	85,84
747,295	30,55
747,478	8,02
747,662	-41,13
747,846	128,85
748,029	87,89
748,213	46,93
748,396	22,36
748,58	10,07
748,763	44,88
748,946	-49,32
749,13	-10,41
749,313	-26,79
749,497	108,37
749,68	63,32
749,863	128,85
750,047	18,26
750,23	18,26
750,413	106,32
750,597	65,36
750,78	51,03
750,963	55,12
751,146	-6,31
751,33	-10,41
751,513	-0,17
751,696	-18,6
751,879	-34,99
752,062	-65,71
752,246	89,94
752,429	59,22
752,612	87,89
752,795	30,55
752,978	18,26
753,161	-32,94
753,344	-16,55
753,527	63,32
753,71	-18,6
753,893	55,12
754,076	-73,9
754,259	46,93
754,442	-39,08
754,625	20,31
754,808	71,51
754,991	34,64
755,174	-12,46
755,357	-43,18
755,539	-26,79
755,722	55,12
755,905	65,36
756,088	44,88
756,271	-34,99
756,453	63,32
756,636	-39,08
756,819	71,51
757,002	-47,27
757,184	206,67
757,367	22,36
757,55	22,36
757,732	98,13
757,915	22,36
758,098	36,69
758,28	67,41
758,463	14,17
758,645	22,36
758,828	130,9
759,011	75,6
759,193	34,64
759,376	104,28
759,558	14,17
759,741	-2,22
759,923	-34,99
760,105	-16,55
760,288	34,64
760,47	-34,99
760,653	-16,55
760,835	24,4
761,017	-67,75
761,2	-0,17
761,382	106,32
761,564	14,17
761,747	-10,41
761,929	-102,57
762,111	16,21
762,294	65,36
762,476	218,96
762,658	22,36
762,84	155,47
763,022	75,6
763,205	51,03
763,387	104,28
763,569	71,51
763,751	-67,75
763,933	-75,95
764,115	30,55
764,297	-6,31
764,479	87,89
764,661	3,93
764,843	155,47
765,025	-14,51
765,207	89,94
765,389	71,51
765,571	-26,79
765,753	83,8
765,935	-10,41
766,117	22,36
766,299	204,63
766,481	114,52
766,663	-2,22
766,845	67,41
767,026	-12,46
767,208	73,56
767,39	18,26
767,572	1,88
767,753	120,66
767,935	22,36
768,117	73,56
768,299	75,6
768,48	-2,22
768,662	55,12
768,844	-34,99
769,025	104,28
769,207	48,98
769,389	-10,41
769,57	-24,75
769,752	96,08
769,933	38,74
770,115	59,22
770,296	67,41
770,478	42,84
770,659	-84,14
770,841	237,39
771,022	65,36
771,204	-6,31
771,385	108,37
771,567	139,09
771,748	55,12
771,929	-10,41
772,111	106,32
772,292	186,19
772,473	22,36
772,655	22,36
772,836	120,66
773,017	137,04
773,199	53,08
773,38	67,41
773,561	63,32
773,742	55,12
773,923	-26,79
774,105	38,74
774,286	130,9
774,467	67,41
774,648	30,55
774,829	104,28
775,01	10,07
775,191	-30,89
775,372	79,7
775,553	30,55
775,734	36,69
775,915	48,98
776,096	407,38
776,277	999,24
776,458	1607,48
776,639	2742,06
776,82	3700,51
777,001	4175,64
777,182	4890,38
777,363	5338,88
777,544	5764,86
777,725	5443,33
777,906	4921,1
778,086	4167,45
778,267	3786,52
778,448	2873,13
778,629	2357,04
778,809	2045,75
778,99	1781,56
779,171	1406,78
779,352	1361,73
779,532	1179,46
779,713	1105,73
779,894	1038,15
780,074	1120,07
780,255	941,89
780,435	786,25
780,616	702,28
780,797	507,73
780,977	311,12
781,158	171,86
781,338	159,57
781,519	161,62
781,699	266,07
781,88	128,85
782,06	55,12
782,241	10,07
782,421	18,26
782,601	24,4
782,782	30,55
782,962	94,04
783,142	-32,94
783,323	-16,55
783,503	112,47
783,683	120,66
783,864	87,89
784,044	-43,18
784,224	26,45
784,404	24,4
784,585	-8,36
784,765	-51,37
784,945	63,32
785,125	-6,31
785,305	104,28
785,485	178
785,666	18,26
785,846	-16,55
786,026	51,03
786,206	38,74
786,386	-0,17
786,566	55,12
786,746	34,64
786,926	100,18
787,106	87,89
787,286	79,7
787,466	34,64
787,646	34,64
787,826	65,36
788,006	96,08
788,185	30,55
788,365	-71,85
788,545	96,08
788,725	-2,22
788,905	34,64
789,085	8,02
789,264	24,4
789,444	71,51
789,624	96,08
789,804	44,88
789,983	106,32
790,163	-16,55
790,343	38,74
790,522	-0,17
790,702	26,45
790,882	-2,22
791,061	51,03
791,241	-34,99
791,42	-41,13
791,6	73,56
791,78	38,74
791,959	1,88
792,139	-67,75
792,318	-32,94
792,498	112,47
792,677	-10,41
792,856	24,4
793,036	20,31
793,215	5,97
793,395	124,76
793,574	-49,32
793,753	-2,22
793,933	120,66
794,112	22,36
794,291	8,02
794,471	98,13
794,65	87,89
794,829	16,21
795,008	-26,79
795,188	112,47
795,367	137,04
795,546	-10,41
795,725	71,51
795,904	48,98
796,084	71,51
796,263	55,12
796,442	114,52
796,621	55,12
796,8	81,75
796,979	5,97
797,158	51,03
797,337	5,97
797,516	20,31
797,695	145,24
797,874	81,75
798,053	87,89
798,232	5,97
798,411	46,93
798,59	14,17
798,769	-10,41
798,947	5,97
799,126	38,74
799,305	143,19
799,484	38,74
799,663	30,55
799,842	81,75
800,02	130,9
800,199	-86,19
800,378	71,51
800,557	-18,6
800,735	-53,42
800,914	14,17
801,093	135
801,271	48,98
801,45	46,93
801,628	34,64
801,807	63,32
801,986	26,45
802,164	77,65
802,343	-30,89
802,521	-73,9
802,7	14,17
802,878	26,45
803,057	16,21
803,235	1,88
803,414	8,02
803,592	100,18
803,771	14,17
803,949	46,93
804,127	-8,36
804,306	83,8
804,484	57,17
804,662	73,56
804,841	-100,52
805,019	42,84
805,197	-0,17
805,375	24,4
805,554	-6,31
805,732	34,64
805,91	-4,27
806,088	-0,17
806,266	5,97
806,445	-16,55
806,623	-12,46
806,801	22,36
806,979	120,66
807,157	67,41
807,335	-73,9
807,513	75,6
807,691	42,84
807,869	14,17
808,047	32,6
808,225	-47,27
808,403	57,17
808,581	10,07
808,759	128,85
808,937	-0,17
809,115	46,93
809,293	63,32
809,471	-2,22
809,649	24,4
809,826	-26,79
810,004	108,37
810,182	-18,6
810,36	-51,37
810,538	46,93
810,715	-34,99
810,893	14,17
811,071	30,55
811,248	139,09
811,426	5,97
811,604	130,9
811,781	112,47
811,959	32,6
812,137	71,51
812,314	-2,22
812,492	5,97
812,669	-43,18
812,847	-22,7
813,024	-71,85
813,202	81,75
813,379	8,02
813,557	18,26
813,734	77,65
813,912	57,17
814,089	1,88
814,267	79,7
814,444	71,51
814,621	-22,7
814,799	-26,79
814,976	153,43
815,153	-26,79
815,331	30,55
815,508	-55,47
815,685	24,4
815,862	38,74
816,04	22,36
816,217	-18,6
816,394	1,88
816,571	71,51
816,748	237,39
816,926	79,7
817,103	227,15
817,28	16,21
817,457	-26,79
817,634	120,66
817,811	48,98
817,988	-24,75
818,165	46,93
818,342	28,5
818,519	46,93
818,696	-16,55
818,873	-24,75
819,05	149,33
819,227	-63,66
819,404	10,07
819,581	112,47
819,758	-0,17
819,934	5,97
820,111	-67,75
820,288	71,51
820,465	153,43
820,642	14,17
820,818	69,46
820,995	-16,55
821,172	87,89
821,349	106,32
821,525	63,32
821,702	51,03
821,879	-14,51
822,055	57,17
822,232	22,36
822,409	81,75
822,585	112,47
822,762	120,66
822,938	48,98
823,115	102,23
823,291	38,74
823,468	73,56
823,644	-2,22
823,821	116,56
823,997	48,98
824,174	-18,6
824,35	-10,41
824,527	1,88
824,703	22,36
824,879	46,93
825,056	-65,71
825,232	200,53
825,408	71,51
825,585	85,84
825,761	16,21
825,937	-59,56
826,113	-34,99
826,29	10,07
826,466	-51,37
826,642	343,89
826,818	22,36
826,994	-2,22
827,17	-6,31
827,347	-84,14
827,523	-0,17
827,699	46,93
827,875	14,17
828,051	48,98
828,227	-0,17
828,403	173,91
828,579	104,28
828,755	110,42
828,931	-55,47
829,107	65,36
829,283	77,65
829,459	-88,23
829,635	34,64
829,811	-0,17
829,986	5,97
830,162	-8,36
830,338	59,22
830,514	22,36
830,69	38,74
830,865	-39,08
831,041	24,4
831,217	-43,18
831,393	-2,22
831,568	34,64
831,744	-32,94
831,92	40,79
832,095	-18,6
832,271	-24,75
832,447	24,4
832,622	137,04
832,798	-41,13
832,973	8,02
833,149	81,75
833,325	-8,36
833,5	94,04
833,676	14,17
833,851	34,64
834,027	-57,51
834,202	89,94
834,377	14,17
834,553	94,04
834,728	40,79
834,904	10,07
835,079	20,31
835,254	28,5
835,43	32,6
835,605	-2,22
835,78	-32,94
835,955	91,99
836,131	71,51
836,306	-22,7
836,481	-51,37
836,656	48,98
836,832	98,13
837,007	-16,55
837,182	-59,56
837,357	14,17
837,532	-47,27
837,707	48,98
837,882	81,75
838,057	32,6
838,232	65,36
838,407	59,22
838,582	18,26
838,757	30,55
838,932	-16,55
839,107	63,32
839,282	-106,67
839,457	14,17
839,632	100,18
839,807	65,36
839,982	18,26
840,157	-14,51
840,332	55,12
840,506	-10,41
840,681	8,02
840,856	30,55
841,031	-30,89
841,205	-10,41
841,38	55,12
841,555	98,13
841,73	38,74
841,904	-51,37
842,079	67,41
842,254	22,36
842,428	-6,31
842,603	-6,31
842,777	-75,95
842,952	48,98
843,126	46,93
843,301	139,09
843,476	124,76
843,65	485,2
843,825	849,74
843,999	1169,22
844,173	1130,31
844,348	1402,69
844,522	1554,24
844,697	1539,9
844,871	1414,98
845,045	1455,94
845,22	1103,68
845,394	1161,03
845,568	884,55
845,743	1029,96
845,917	755,53
846,091	718,67
846,265	698,19
846,44	638,8
846,614	612,17
846,788	515,92
846,962	575,31
847,136	448,33
847,31	434
847,485	534,35
847,659	354,13
847,833	304,98
848,007	431,95
848,181	460,62
848,355	343,89
848,529	317,26
848,703	243,54
848,877	22,36
849,051	112,47
849,225	73,56
849,399	83,8
849,573	16,21
849,746	1,88
849,92	-30,89
850,094	26,45
850,268	14,17
850,442	132,95
850,616	-26,79
850,789	46,93
850,963	-6,31
851,137	16,21
851,311	153,43
851,484	38,74
851,658	48,98
851,832	18,26
852,005	10,07
852,179	-10,41
852,352	5,97
852,526	-32,94
852,7	81,75
852,873	-88,23
853,047	-2,22
853,22	18,26
853,394	94,04
853,567	-20,65
853,741	46,93
853,914	48,98
854,088	112,47
854,261	22,36
854,434	-14,51
854,608	65,36
854,781	-10,41
854,955	32,6
855,128	94,04
855,301	18,26
855,475	-39,08
855,648	22,36
855,821	5,97
855,994	22,36
856,168	40,79
856,341	55,12
856,514	-84,14
856,687	-16,55
856,86	-16,55
857,033	-0,17
857,207	63,32
857,38	5,97
857,553	112,47
857,726	63,32
857,899	120,66
858,072	36,69
858,245	-34,99
858,418	59,22
858,591	38,74
858,764	-69,8
858,937	59,22
859,11	30,55
859,283	-47,27
859,455	5,97
859,628	14,17
859,801	46,93
859,974	145,24
860,147	14,17
860,32	75,6
860,492	71,51
860,665	-172,2
860,838	79,7
861,011	63,32
861,183	38,74
861,356	114,52
861,529	137,04
861,701	63,32
861,874	20,31
862,047	79,7
862,219	53,08
862,392	48,98
862,564	-14,51
862,737	40,79
862,909	61,27
863,082	30,55
863,254	55,12
863,427	65,36
863,599	130,9
863,772	5,97
863,944	5,97
864,117	55,12
864,289	30,55
864,461	-53,42
864,634	28,5
864,806	12,12
864,978	32,6
865,151	-67,75
865,323	143,19
865,495	63,32
865,667	69,46
865,84	153,43
866,012	46,93
866,184	32,6
866,356	-26,79
866,528	104,28
866,7	63,32
866,873	-2,22
867,045	-26,79
867,217	5,97
867,389	-43,18
867,561	38,74
867,733	53,08
867,905	-67,75
868,077	-18,6
868,249	34,64
868,421	53,08
868,593	14,17
868,765	40,79
868,936	-129,19
869,108	-14,51
869,28	128,85
869,452	30,55
869,624	-59,56
869,796	81,75
869,968	46,93
870,139	67,41
870,311	-73,9
870,483	137,04
870,654	-16,55
870,826	46,93
870,998	-2,22
871,17	77,65
871,341	8,02
871,513	67,41
871,684	-16,55
871,856	59,22
872,028	-18,6
872,199	16,21
872,371	-6,31
872,542	16,21
872,714	-8,36
872,885	106,32
873,057	57,17
873,228	51,03
873,4	24,4
873,571	130,9
873,742	-96,43
873,914	79,7
874,085	24,4
874,256	51,03
874,428	-75,95
874,599	-18,6
874,77	108,37
874,942	-8,36
875,113	96,08
875,284	-26,79
875,455	-0,17
875,626	96,08
875,798	73,56
875,969	34,64
876,14	112,47
876,311	46,93
876,482	122,71
876,653	48,98
876,824	83,8
876,995	-14,51
877,166	38,74
877,337	-14,51
877,508	-116,9
877,679	-34,99
877,85	-34,99
878,021	-16,55
878,192	83,8
878,363	5,97
878,534	30,55
878,705	-14,51
878,876	42,84
879,047	112,47
879,217	-57,51
879,388	67,41
879,559	22,36
879,73	104,28
879,9	-32,94
880,071	-2,22
880,242	5,97
880,413	59,22
880,583	53,08
880,754	104,28
880,924	38,74
881,095	-69,8
881,266	-98,47
881,436	79,7
881,607	59,22
881,777	106,32
881,948	-92,33
882,118	63,32
882,289	42,84
882,459	-43,18
882,63	112,47
882,8	-55,47
882,971	30,55
883,141	5,97
883,311	71,51
883,482	87,89
883,652	10,07
883,822	20,31
883,993	5,97
884,163	55,12
884,333	-34,99
884,504	116,56
884,674	106,32
884,844	79,7
885,014	42,84
885,184	-125,1
885,355	-30,89
885,525	8,02
885,695	8,02
885,865	81,75
886,035	67,41
886,205	40,79
886,375	40,79
886,545	75,6
886,715	16,21
886,885	57,17
887,055	26,45
887,225	-96,43
887,395	67,41
887,565	169,81
887,735	79,7
887,905	-14,51
888,075	73,56
888,244	120,66
888,414	42,84
888,584	16,21
888,754	94,04
888,924	24,4
889,093	182,1
889,263	5,97
889,433	46,93
889,603	79,7
889,772	79,7
889,942	65,36
890,111	124,76
890,281	-2,22
890,451	-16,55
890,62	91,99
890,79	-2,22
890,959	-34,99
891,129	30,55
891,298	-18,6
891,468	57,17
891,637	8,02
891,807	22,36
891,976	48,98
892,146	-92,33
892,315	89,94
892,485	96,08
892,654	-45,23
892,823	14,17
892,993	-39,08
893,162	100,18
893,331	51,03
893,501	65,36
893,67	1,88
893,839	-41,13
894,008	87,89
894,177	46,93
894,347	65,36
894,516	77,65
894,685	34,64
894,854	-43,18
895,023	143,19
895,192	46,93
