Data from h2o_USB4F104161__4__11-48-46-450.txt Node

Date: Tue Apr 14 11:48:46 EDT 2026
User: LaboPhy
Spectrometer: USB4F10416
Trigger mode: 4
Integration Time (sec): 1,000000E-1
Scans to average: 1
Electric dark correction enabled: true
Nonlinearity correction enabled: false
Boxcar width: 0
XAxis mode: Wavelengths
Number of Pixels in Spectrum: 3648
>>>>>Begin Spectral Data<<<<<
177,847	-217,6
178,066	-217,6
178,284	-217,6
178,502	-272,89
178,72	-242,17
178,939	28,16
179,157	50,69
179,375	-10,75
179,593	-12,8
179,812	-10,75
180,03	28,16
180,248	-12,8
180,466	-12,8
180,685	52,74
180,903	-47,62
181,121	-64
181,339	11,78
181,557	-18,94
181,775	-8,7
181,994	-80,38
182,212	-33,28
182,43	-8,7
182,648	-2,56
182,866	62,98
183,084	77,31
183,302	-29,18
183,52	-8,7
183,739	-0,51
183,957	36,35
184,175	-35,33
184,393	-33,28
184,611	60,93
184,829	11,78
185,047	-35,33
185,265	38,4
185,483	-78,33
185,701	73,21
185,919	38,4
186,137	48,64
186,355	-10,75
186,573	-4,61
186,791	77,31
187,009	77,31
187,227	60,93
187,445	-12,8
187,663	9,73
187,881	-68,09
188,098	87,55
188,316	-27,14
188,534	151,04
188,752	13,82
188,97	-20,99
189,188	32,26
189,406	65,02
189,624	22,02
189,841	-20,99
190,059	-176,64
190,277	-8,7
190,495	40,45
190,713	44,54
190,931	134,65
191,148	13,82
191,366	-2,56
191,584	52,74
191,802	40,45
192,019	85,5
192,237	-0,51
192,455	13,82
192,673	114,17
192,89	-76,29
193,108	7,68
193,326	-12,8
193,543	73,21
193,761	-49,66
193,979	32,26
194,196	-12,8
194,414	3,58
194,632	97,79
194,849	-82,43
195,067	-45,57
195,285	-37,38
195,502	-107,01
195,72	-18,94
195,937	-10,75
196,155	26,11
196,373	28,16
196,59	13,82
196,808	19,97
197,025	28,16
197,243	155,13
197,46	134,65
197,678	79,36
197,895	5,63
198,113	-41,47
198,33	-8,7
198,548	3,58
198,765	-16,9
198,983	13,82
199,2	-70,14
199,418	36,35
199,635	-37,38
199,853	22,02
200,07	7,68
200,288	56,83
200,505	-35,33
200,722	65,02
200,94	28,16
201,157	-29,18
201,375	83,45
201,592	-27,14
201,809	34,3
202,027	79,36
202,244	44,54
202,461	81,41
202,679	60,93
202,896	28,16
203,113	-49,66
203,331	30,21
203,548	54,78
203,765	22,02
203,982	69,12
204,2	-45,57
204,417	-61,95
204,634	81,41
204,851	144,89
205,069	-14,85
205,286	28,16
205,503	-29,18
205,72	-43,52
205,937	30,21
206,155	-53,76
206,372	101,89
206,589	-64
206,806	28,16
207,023	11,78
207,24	46,59
207,458	-29,18
207,675	77,31
207,892	46,59
208,109	5,63
208,326	-16,9
208,543	-2,56
208,76	-90,62
208,977	103,93
209,194	-12,8
209,411	-4,61
209,628	-31,23
209,845	93,69
210,062	-109,05
210,279	-41,47
210,496	-10,75
210,713	-4,61
210,93	-61,95
211,147	69,12
211,364	5,63
211,581	28,16
211,798	110,08
212,015	-86,53
212,232	-68,09
212,449	-0,51
212,666	-2,56
212,883	40,45
213,1	1,54
213,317	32,26
213,533	-20,99
213,75	19,97
213,967	11,78
214,184	-78,33
214,401	22,02
214,618	-45,57
214,835	-0,51
215,051	44,54
215,268	-2,56
215,485	5,63
215,702	3,58
215,919	-94,72
216,135	171,52
216,352	9,73
216,569	44,54
216,786	97,79
217,002	1,54
217,219	9,73
217,436	34,3
217,652	11,78
217,869	69,12
218,086	167,42
218,302	9,73
218,519	103,93
218,736	-18,94
218,952	-49,66
219,169	87,55
219,386	36,35
219,602	-31,23
219,819	-18,94
220,036	73,21
220,252	79,36
220,469	3,58
220,685	19,97
220,902	15,87
221,118	30,21
221,335	-12,8
221,552	11,78
221,768	-2,56
221,985	-49,66
222,201	36,35
222,418	11,78
222,634	-39,42
222,851	-57,86
223,067	3,58
223,284	-16,9
223,5	60,93
223,716	105,98
223,933	56,83
224,149	-20,99
224,366	-43,52
224,582	-55,81
224,799	-55,81
225,015	3,58
225,231	-37,38
225,448	-39,42
225,664	44,54
225,88	3,58
226,097	-8,7
226,313	-12,8
226,529	54,78
226,746	36,35
226,962	-29,18
227,178	3,58
227,395	-25,09
227,611	-70,14
227,827	69,12
228,044	52,74
228,26	48,64
228,476	38,4
228,692	161,28
228,909	-16,9
229,125	-76,29
229,341	-41,47
229,557	-23,04
229,773	-45,57
229,99	17,92
230,206	-33,28
230,422	15,87
230,638	-164,35
230,854	-33,28
231,07	-168,45
231,286	77,31
231,503	71,17
231,719	-4,61
231,935	-10,75
232,151	30,21
232,367	118,27
232,583	71,17
232,799	60,93
233,015	69,12
233,231	-2,56
233,447	-86,53
233,663	-12,8
233,879	69,12
234,095	-43,52
234,311	13,82
234,527	-4,61
234,743	120,32
234,959	3,58
235,175	-49,66
235,391	-2,56
235,607	46,59
235,823	52,74
236,039	-47,62
236,255	-49,66
236,471	26,11
236,687	-37,38
236,903	19,97
237,118	24,06
237,334	36,35
237,55	3,58
237,766	-53,76
237,982	28,16
238,198	62,98
238,413	22,02
238,629	-4,61
238,845	-53,76
239,061	19,97
239,277	-35,33
239,492	-45,57
239,708	-8,7
239,924	-37,38
240,14	-61,95
240,355	151,04
240,571	65,02
240,787	-35,33
241,003	28,16
241,218	-6,66
241,434	30,21
241,65	-4,61
241,865	-45,57
242,081	50,69
242,297	-12,8
242,512	19,97
242,728	19,97
242,944	3,58
243,159	52,74
243,375	11,78
243,59	26,11
243,806	38,4
244,022	-20,99
244,237	-25,09
244,453	44,54
244,668	52,74
244,884	73,21
245,099	24,06
245,315	101,89
245,53	73,21
245,746	77,31
245,961	28,16
246,177	-4,61
246,392	126,46
246,608	69,12
246,823	3,58
247,039	36,35
247,254	-57,86
247,47	48,64
247,685	19,97
247,9	1,54
248,116	3,58
248,331	11,78
248,547	52,74
248,762	-78,33
248,977	62,98
249,193	71,17
249,408	40,45
249,623	15,87
249,839	-41,47
250,054	-78,33
250,269	28,16
250,485	101,89
250,7	36,35
250,915	65,02
251,13	101,89
251,346	3,58
251,561	142,85
251,776	60,93
251,991	-35,33
252,207	77,31
252,422	-27,14
252,637	-16,9
252,852	-33,28
253,067	30,21
253,283	3,58
253,498	28,16
253,713	46,59
253,928	-12,8
254,143	32,26
254,358	13,82
254,573	-6,66
254,788	-53,76
255,004	5,63
255,219	-84,48
255,434	24,06
255,649	-45,57
255,864	15,87
256,079	30,21
256,294	-64
256,509	28,16
256,724	-31,23
256,939	3,58
257,154	11,78
257,369	24,06
257,584	85,5
257,799	-49,66
258,014	19,97
258,229	85,5
258,444	-4,61
258,659	32,26
258,874	30,21
259,089	153,09
259,304	-96,77
259,518	-61,95
259,733	11,78
259,948	46,59
260,163	69,12
260,378	65,02
260,593	-18,94
260,808	-8,7
261,022	-82,43
261,237	28,16
261,452	93,69
261,667	11,78
261,882	44,54
262,096	28,16
262,311	60,93
262,526	-125,44
262,741	15,87
262,955	22,02
263,17	28,16
263,385	3,58
263,6	7,68
263,814	-29,18
264,029	-49,66
264,244	22,02
264,458	28,16
264,673	-18,94
264,888	69,12
265,102	-4,61
265,317	-2,56
265,532	1,54
265,746	36,35
265,961	126,46
266,175	58,88
266,39	-8,7
266,605	-76,29
266,819	-12,8
267,034	28,16
267,248	-45,57
267,463	-37,38
267,677	-111,1
267,892	15,87
268,106	-41,47
268,321	-23,04
268,535	44,54
268,75	75,26
268,964	3,58
269,179	36,35
269,393	-27,14
269,608	24,06
269,822	-35,33
270,036	-84,48
270,251	32,26
270,465	-57,86
270,68	34,3
270,894	1,54
271,108	151,04
271,323	13,82
271,537	120,32
271,752	36,35
271,966	60,93
272,18	-53,76
272,394	-18,94
272,609	15,87
272,823	54,78
273,037	15,87
273,252	-4,61
273,466	-20,99
273,68	5,63
273,894	103,93
274,109	-53,76
274,323	50,69
274,537	9,73
274,751	-8,7
274,966	-12,8
275,18	-86,53
275,394	-68,09
275,608	-43,52
275,822	-29,18
276,036	15,87
276,25	52,74
276,465	-68,09
276,679	-16,9
276,893	1,54
277,107	77,31
277,321	32,26
277,535	134,65
277,749	87,55
277,963	52,74
278,177	-64
278,391	-37,38
278,605	32,26
278,819	28,16
279,033	-90,62
279,247	28,16
279,461	77,31
279,675	65,02
279,889	112,13
280,103	13,82
280,317	44,54
280,531	-8,7
280,745	-84,48
280,959	-12,8
281,173	-12,8
281,387	38,4
281,601	19,97
281,815	126,46
282,029	-2,56
282,242	24,06
282,456	-66,05
282,67	24,06
282,884	-41,47
283,098	3,58
283,312	-8,7
283,525	-37,38
283,739	81,41
283,953	13,82
284,167	1,54
284,381	75,26
284,594	-0,51
284,808	3,58
285,022	-43,52
285,235	-53,76
285,449	19,97
285,663	30,21
285,877	-29,18
286,09	19,97
286,304	52,74
286,518	-27,14
286,731	-35,33
286,945	-35,33
287,159	-72,19
287,372	71,17
287,586	-35,33
287,799	46,59
288,013	-2,56
288,227	-10,75
288,44	235
288,654	38,4
288,867	-41,47
289,081	-94,72
289,294	36,35
289,508	60,93
289,721	5,63
289,935	71,17
290,148	11,78
290,362	77,31
290,575	-29,18
290,789	3,58
291,002	-33,28
291,216	73,21
291,429	-4,61
291,643	-20,99
291,856	-23,04
292,069	-45,57
292,283	-49,66
292,496	15,87
292,71	-39,42
292,923	-20,99
293,136	-4,61
293,35	67,07
293,563	-12,8
293,776	65,02
293,99	-43,52
294,203	-29,18
294,416	-27,14
294,63	-35,33
294,843	-16,9
295,056	54,78
295,269	-61,95
295,483	-82,43
295,696	60,93
295,909	1,54
296,122	62,98
296,335	-20,99
296,549	48,64
296,762	3,58
296,975	13,82
297,188	-45,57
297,401	-45,57
297,615	3,58
297,828	-31,23
298,041	91,65
298,254	-143,87
298,467	-4,61
298,68	-18,94
298,893	3,58
299,106	-53,76
299,319	38,4
299,532	38,4
299,745	-39,42
299,958	-92,67
300,171	-20,99
300,384	13,82
300,598	-57,86
300,81	103,93
301,023	-29,18
301,236	-61,95
301,449	-25,09
301,662	-12,8
301,875	28,16
302,088	30,21
302,301	3,58
302,514	-16,9
302,727	44,54
302,94	-57,86
303,153	-12,8
303,366	-29,18
303,579	38,4
303,791	-10,75
304,004	-2,56
304,217	30,21
304,43	26,11
304,643	-27,14
304,855	-20,99
305,068	28,16
305,281	-8,7
305,494	32,26
305,707	-37,38
305,919	83,45
306,132	62,98
306,345	65,02
306,558	103,93
306,77	-45,57
306,983	-25,09
307,196	69,12
307,408	5,63
307,621	144,89
307,834	19,97
308,046	34,3
308,259	-68,09
308,472	38,4
308,684	11,78
308,897	-10,75
309,109	17,92
309,322	-53,76
309,535	13,82
309,747	126,46
309,96	52,74
310,172	136,7
310,385	73,21
310,597	-74,24
310,81	22,02
311,022	7,68
311,235	-10,75
311,447	-4,61
311,66	22,02
311,872	134,65
312,085	97,79
312,297	52,74
312,51	97,79
312,722	144,89
312,934	101,89
313,147	-18,94
313,359	-12,8
313,572	-10,75
313,784	73,21
313,996	11,78
314,209	69,12
314,421	5,63
314,633	52,74
314,846	-12,8
315,058	62,98
315,27	81,41
315,483	99,84
315,695	58,88
315,907	36,35
316,119	-31,23
316,332	-4,61
316,544	69,12
316,756	79,36
316,968	77,31
317,181	36,35
317,393	11,78
317,605	54,78
317,817	48,64
318,029	81,41
318,241	67,07
318,454	69,12
318,666	24,06
318,878	36,35
319,09	-64
319,302	48,64
319,514	97,79
319,726	19,97
319,938	79,36
320,15	62,98
320,362	7,68
320,574	-37,38
320,786	-12,8
320,999	11,78
321,211	-0,51
321,423	65,02
321,635	-37,38
321,847	110,08
322,058	19,97
322,27	24,06
322,482	36,35
322,694	99,84
322,906	17,92
323,118	54,78
323,33	54,78
323,542	-4,61
323,754	60,93
323,966	-113,15
324,178	99,84
324,389	5,63
324,601	48,64
324,813	54,78
325,025	40,45
325,237	-53,76
325,449	-20,99
325,66	44,54
325,872	-66,05
326,084	-33,28
326,296	36,35
326,507	77,31
326,719	40,45
326,931	11,78
327,143	54,78
327,354	54,78
327,566	40,45
327,778	60,93
327,989	60,93
328,201	-20,99
328,413	-8,7
328,624	85,5
328,836	13,82
329,048	-59,9
329,259	5,63
329,471	13,82
329,682	54,78
329,894	3,58
330,106	48,64
330,317	28,16
330,529	19,97
330,74	-12,8
330,952	36,35
331,163	9,73
331,375	97,79
331,586	62,98
331,798	-2,56
332,009	73,21
332,221	30,21
332,432	114,17
332,644	3,58
332,855	-45,57
333,067	128,51
333,278	22,02
333,489	38,4
333,701	19,97
333,912	-41,47
334,124	-0,51
334,335	7,68
334,546	-12,8
334,758	-8,7
334,969	257,53
335,18	118,27
335,392	32,26
335,603	118,27
335,814	120,32
336,025	3,58
336,237	-20,99
336,448	-0,51
336,659	79,36
336,87	177,66
337,082	134,65
337,293	52,74
337,504	77,31
337,715	77,31
337,926	114,17
338,138	54,78
338,349	52,74
338,56	112,13
338,771	-55,81
338,982	36,35
339,193	30,21
339,404	60,93
339,616	56,83
339,827	103,93
340,038	-43,52
340,249	-35,33
340,46	24,06
340,671	38,4
340,882	77,31
341,093	5,63
341,304	28,16
341,515	-12,8
341,726	-43,52
341,937	-12,8
342,148	48,64
342,359	-76,29
342,57	-29,18
342,781	87,55
342,992	-37,38
343,203	-37,38
343,414	126,46
343,624	-20,99
343,835	36,35
344,046	42,5
344,257	-29,18
344,468	-70,14
344,679	-78,33
344,89	26,11
345,1	-70,14
345,311	-33,28
345,522	-12,8
345,733	-37,38
345,944	36,35
346,154	81,41
346,365	77,31
346,576	26,11
346,787	-61,95
346,997	-25,09
347,208	97,79
347,419	-29,18
347,629	40,45
347,84	24,06
348,051	-37,38
348,261	3,58
348,472	-29,18
348,683	46,59
348,893	-47,62
349,104	67,07
349,315	-4,61
349,525	-12,8
349,736	87,55
349,946	87,55
350,157	194,05
350,368	124,41
350,578	-37,38
350,789	95,74
350,999	-37,38
351,21	3,58
351,42	-10,75
351,631	-57,86
351,841	50,69
352,052	75,26
352,262	97,79
352,472	-37,38
352,683	19,97
352,893	83,45
353,104	44,54
353,314	124,41
353,525	372,22
353,735	52,74
353,945	22,02
354,156	46,59
354,366	118,27
354,576	142,85
354,787	77,31
354,997	-12,8
355,207	-29,18
355,418	-10,75
355,628	-29,18
355,838	15,87
356,048	134,65
356,259	146,94
356,469	11,78
356,679	126,46
356,889	204,28
357,1	48,64
357,31	105,98
357,52	99,84
357,73	167,42
357,94	151,04
358,15	46,59
358,361	36,35
358,571	81,41
358,781	28,16
358,991	38,4
359,201	-16,9
359,411	65,02
359,621	-29,18
359,831	85,5
360,041	34,3
360,251	40,45
360,461	-12,8
360,672	-4,61
360,882	-39,42
361,092	-43,52
361,302	-8,7
361,512	54,78
361,721	-10,75
361,931	11,78
362,141	40,45
362,351	44,54
362,561	73,21
362,771	-90,62
362,981	60,93
363,191	-94,72
363,401	17,92
363,611	-78,33
363,821	-66,05
364,03	-92,67
364,24	11,78
364,45	65,02
364,66	245,24
364,87	-33,28
365,08	73,21
365,289	79,36
365,499	-64
365,709	34,3
365,919	52,74
366,128	-43,52
366,338	103,93
366,548	-78,33
366,758	11,78
366,967	62,98
367,177	52,74
367,387	36,35
367,596	-12,8
367,806	32,26
368,016	60,93
368,225	52,74
368,435	36,35
368,644	52,74
368,854	-18,94
369,064	42,5
369,273	112,13
369,483	5,63
369,692	13,82
369,902	36,35
370,111	56,83
370,321	73,21
370,53	58,88
370,74	19,97
370,949	81,41
371,159	89,6
371,368	3,58
371,578	91,65
371,787	22,02
371,997	28,16
372,206	-20,99
372,416	77,31
372,625	56,83
372,834	-70,14
373,044	42,5
373,253	146,94
373,462	151,04
373,672	13,82
373,881	85,5
374,09	11,78
374,3	151,04
374,509	101,89
374,718	42,5
374,928	196,09
375,137	159,23
375,346	169,47
375,555	208,38
375,765	69,12
375,974	77,31
376,183	22,02
376,392	93,69
376,601	85,5
376,811	28,16
377,02	208,38
377,229	32,26
377,438	28,16
377,647	-55,81
377,856	-4,61
378,065	5,63
378,275	73,21
378,484	36,35
378,693	93,69
378,902	101,89
379,111	118,27
379,32	48,64
379,529	24,06
379,738	48,64
379,947	126,46
380,156	97,79
380,365	108,03
380,574	15,87
380,783	19,97
380,992	54,78
381,201	85,5
381,41	-8,7
381,619	-12,8
381,828	28,16
382,037	-86,53
382,245	52,74
382,454	85,5
382,663	-20,99
382,872	22,02
383,081	-18,94
383,29	136,7
383,499	62,98
383,707	118,27
383,916	142,85
384,125	136,7
384,334	44,54
384,542	79,36
384,751	26,11
384,96	36,35
385,169	19,97
385,377	54,78
385,586	54,78
385,795	114,17
386,004	99,84
386,212	5,63
386,421	13,82
386,63	36,35
386,838	3,58
387,047	62,98
387,255	67,07
387,464	77,31
387,673	87,55
387,881	181,76
388,09	128,51
388,298	69,12
388,507	218,62
388,715	79,36
388,924	173,57
389,133	60,93
389,341	17,92
389,55	52,74
389,758	85,5
389,967	71,17
390,175	36,35
390,383	93,69
390,592	60,93
390,8	-12,8
391,009	136,7
391,217	93,69
391,426	134,65
391,634	-125,44
391,842	71,17
392,051	52,74
392,259	40,45
392,467	62,98
392,676	28,16
392,884	65,02
393,092	44,54
393,301	56,83
393,509	87,55
393,717	167,42
393,925	36,35
394,134	11,78
394,342	81,41
394,55	136,7
394,758	62,98
394,967	77,31
395,175	93,69
395,383	110,08
395,591	22,02
395,799	73,21
396,007	28,16
396,216	163,33
396,424	52,74
396,632	85,5
396,84	56,83
397,048	56,83
397,256	65,02
397,464	36,35
397,672	126,46
397,88	13,82
398,088	34,3
398,296	120,32
398,504	93,69
398,712	22,02
398,92	134,65
399,128	52,74
399,336	118,27
399,544	103,93
399,752	38,4
399,96	181,76
400,168	67,07
400,376	11,78
400,584	126,46
400,792	44,54
401	85,5
401,207	54,78
401,415	-4,61
401,623	65,02
401,831	56,83
402,039	167,42
402,247	52,74
402,454	175,61
402,662	3,58
402,87	28,16
403,078	128,51
403,285	140,8
403,493	-12,8
403,701	56,83
403,909	19,97
404,116	134,65
404,324	69,12
404,532	5,63
404,739	-23,04
404,947	52,74
405,155	40,45
405,362	163,33
405,57	167,42
405,778	-25,09
405,985	36,35
406,193	60,93
406,4	-2,56
406,608	52,74
406,816	28,16
407,023	62,98
407,231	38,4
407,438	62,98
407,646	17,92
407,853	77,31
408,061	-2,56
408,268	60,93
408,476	36,35
408,683	159,23
408,89	146,94
409,098	169,47
409,305	110,08
409,513	142,85
409,72	153,09
409,927	235
410,135	308,73
410,342	167,42
410,55	275,96
410,757	192
410,964	118,27
411,172	204,28
411,379	130,56
411,586	95,74
411,793	50,69
412,001	-16,9
412,208	19,97
412,415	126,46
412,622	114,17
412,83	44,54
413,037	13,82
413,244	24,06
413,451	28,16
413,658	175,61
413,866	101,89
414,073	73,21
414,28	161,28
414,487	-16,9
414,694	93,69
414,901	32,26
415,108	85,5
415,315	-45,57
415,522	-0,51
415,73	52,74
415,937	-2,56
416,144	-37,38
416,351	3,58
416,558	46,59
416,765	-31,23
416,972	-4,61
417,179	11,78
417,386	30,21
417,593	65,02
417,8	13,82
418,006	95,74
418,213	85,5
418,42	-23,04
418,627	110,08
418,834	28,16
419,041	73,21
419,248	-12,8
419,455	48,64
419,661	146,94
419,868	36,35
420,075	62,98
420,282	-12,8
420,489	5,63
420,696	34,3
420,902	93,69
421,109	134,65
421,316	42,5
421,523	11,78
421,729	56,83
421,936	-45,57
422,143	101,89
422,349	71,17
422,556	7,68
422,763	11,78
422,969	-37,38
423,176	-41,47
423,383	-18,94
423,589	321,02
423,796	-59,9
424,002	-2,56
424,209	22,02
424,416	136,7
424,622	-8,7
424,829	52,74
425,035	-29,18
425,242	19,97
425,448	-2,56
425,655	101,89
425,861	19,97
426,068	60,93
426,274	202,24
426,481	-23,04
426,687	110,08
426,894	11,78
427,1	46,59
427,306	7,68
427,513	-8,7
427,719	69,12
427,926	140,8
428,132	19,97
428,338	36,35
428,545	52,74
428,751	-92,67
428,957	44,54
429,163	11,78
429,37	85,5
429,576	44,54
429,782	-10,75
429,989	-4,61
430,195	77,31
430,401	3,58
430,607	-29,18
430,813	-35,33
431,02	11,78
431,226	65,02
431,432	65,02
431,638	-53,76
431,844	19,97
432,05	56,83
432,257	22,02
432,463	183,81
432,669	226,81
432,875	290,3
433,081	327,16
433,287	491
433,493	464,38
433,699	814,58
433,905	990,7
434,111	982,51
434,317	1013,23
434,523	1029,62
434,729	888,31
434,935	703,99
435,141	527,86
435,347	235
435,553	278,01
435,759	232,96
435,965	77,31
436,171	155,13
436,377	185,85
436,582	101,89
436,788	30,21
436,994	101,89
437,2	142,85
437,406	105,98
437,612	130,56
437,818	95,74
438,023	-41,47
438,229	153,09
438,435	65,02
438,641	24,06
438,846	5,63
439,052	-2,56
439,258	44,54
439,464	-12,8
439,669	79,36
439,875	134,65
440,081	-43,52
440,286	-74,24
440,492	3,58
440,698	-25,09
440,903	87,55
441,109	136,7
441,314	-59,9
441,52	-8,7
441,726	77,31
441,931	81,41
442,137	19,97
442,342	67,07
442,548	-4,61
442,753	136,7
442,959	-86,53
443,164	28,16
443,37	30,21
443,575	50,69
443,781	-4,61
443,986	69,12
444,192	-53,76
444,397	-37,38
444,602	-25,09
444,808	32,26
445,013	-37,38
445,219	-61,95
445,424	48,64
445,629	44,54
445,835	134,65
446,04	15,87
446,245	-8,7
446,451	-80,38
446,656	-12,8
446,861	-25,09
447,066	87,55
447,272	108,03
447,477	89,6
447,682	-70,14
447,887	-16,9
448,093	60,93
448,298	208,38
448,503	-33,28
448,708	26,11
448,913	-27,14
449,118	120,32
449,324	60,93
449,529	116,22
449,734	54,78
449,939	-27,14
450,144	89,6
450,349	97,79
450,554	-27,14
450,759	38,4
450,964	110,08
451,169	-90,62
451,374	-4,61
451,579	22,02
451,784	28,16
451,989	15,87
452,194	126,46
452,399	-61,95
452,604	5,63
452,809	-0,51
453,014	-20,99
453,219	-6,66
453,424	5,63
453,629	-8,7
453,833	-45,57
454,038	52,74
454,243	24,06
454,448	36,35
454,653	24,06
454,858	30,21
455,062	7,68
455,267	-45,57
455,472	151,04
455,677	-45,57
455,882	-82,43
456,086	50,69
456,291	38,4
456,496	-61,95
456,7	-29,18
456,905	38,4
457,11	136,7
457,314	-92,67
457,519	-82,43
457,724	24,06
457,928	15,87
458,133	97,79
458,338	32,26
458,542	13,82
458,747	-31,23
458,951	-92,67
459,156	91,65
459,36	-59,9
459,565	97,79
459,769	-82,43
459,974	-35,33
460,178	-10,75
460,383	-18,94
460,587	-27,14
460,792	85,5
460,996	3,58
461,201	5,63
461,405	7,68
461,61	-66,05
461,814	44,54
462,018	19,97
462,223	3,58
462,427	-53,76
462,631	-8,7
462,836	85,5
463,04	69,12
463,244	93,69
463,449	-18,94
463,653	138,75
463,857	60,93
464,062	144,89
464,266	13,82
464,47	19,97
464,674	28,16
464,878	58,88
465,083	19,97
465,287	105,98
465,491	3,58
465,695	-14,85
465,899	11,78
466,104	91,65
466,308	28,16
466,512	22,02
466,716	-14,85
466,92	110,08
467,124	122,37
467,328	-14,85
467,532	22,02
467,736	-4,61
467,94	19,97
468,144	62,98
468,348	-23,04
468,552	103,93
468,756	11,78
468,96	5,63
469,164	-14,85
469,368	81,41
469,572	-61,95
469,776	56,83
469,98	9,73
470,184	75,26
470,388	60,93
470,591	52,74
470,795	50,69
470,999	40,45
471,203	38,4
471,407	-2,56
471,611	13,82
471,814	3,58
472,018	-45,57
472,222	24,06
472,426	118,27
472,63	97,79
472,833	5,63
473,037	73,21
473,241	54,78
473,444	71,17
473,648	462,33
473,852	-8,7
474,055	-8,7
474,259	-43,52
474,463	44,54
474,666	52,74
474,87	11,78
475,074	71,17
475,277	11,78
475,481	110,08
475,684	3,58
475,888	83,45
476,091	-51,71
476,295	13,82
476,498	-59,9
476,702	13,82
476,905	-16,9
477,109	40,45
477,312	56,83
477,516	28,16
477,719	71,17
477,923	-27,14
478,126	46,59
478,329	-8,7
478,533	38,4
478,736	28,16
478,94	9,73
479,143	-31,23
479,346	-20,99
479,55	120,32
479,753	24,06
479,956	-70,14
480,159	-10,75
480,363	101,89
480,566	52,74
480,769	110,08
480,972	77,31
481,176	71,17
481,379	153,09
481,582	114,17
481,785	-104,96
481,988	60,93
482,192	103,93
482,395	52,74
482,598	46,59
482,801	79,36
483,004	161,28
483,207	77,31
483,41	124,41
483,613	97,79
483,817	97,79
484,02	101,89
484,223	306,68
484,426	687,61
484,629	1213,93
484,832	1863,14
485,035	2768,34
485,238	3560,91
485,441	4748,73
485,644	6141,35
485,846	7746,95
486,049	9020,79
486,252	10227,04
486,455	10210,66
486,658	10030,44
486,861	8680,83
487,064	7134,61
487,267	5549,48
487,47	4074,95
487,672	2837,97
487,875	1940,96
488,078	1265,13
488,281	798,2
488,484	470,52
488,686	226,81
488,889	126,46
489,092	65,02
489,295	142,85
489,497	101,89
489,7	-16,9
489,903	95,74
490,105	-20,99
490,308	28,16
490,511	93,69
490,713	36,35
490,916	3,58
491,118	42,5
491,321	110,08
491,524	9,73
491,726	15,87
491,929	-39,42
492,131	69,12
492,334	22,02
492,536	-20,99
492,739	-10,75
492,941	93,69
493,144	93,69
493,346	67,07
493,549	142,85
493,751	15,87
493,954	-18,94
494,156	19,97
494,359	54,78
494,561	-31,23
494,763	54,78
494,966	73,21
495,168	173,57
495,37	-86,53
495,573	28,16
495,775	105,98
495,977	73,21
496,18	3,58
496,382	101,89
496,584	36,35
496,787	110,08
496,989	11,78
497,191	7,68
497,393	69,12
497,595	-45,57
497,798	26,11
498	3,58
498,202	52,74
498,404	56,83
498,606	13,82
498,808	87,55
499,011	120,32
499,213	60,93
499,415	-61,95
499,617	89,6
499,819	60,93
500,021	93,69
500,223	-4,61
500,425	-86,53
500,627	-4,61
500,829	73,21
501,031	46,59
501,233	-12,8
501,435	54,78
501,637	52,74
501,839	77,31
502,041	54,78
502,243	85,5
502,445	26,11
502,647	19,97
502,848	3,58
503,05	-39,42
503,252	13,82
503,454	91,65
503,656	7,68
503,858	-14,85
504,059	-2,56
504,261	38,4
504,463	163,33
504,665	44,54
504,867	-66,05
505,068	46,59
505,27	-18,94
505,472	151,04
505,673	24,06
505,875	-84,48
506,077	-8,7
506,278	-47,62
506,48	46,59
506,682	-20,99
506,883	60,93
507,085	54,78
507,287	-18,94
507,488	62,98
507,69	46,59
507,891	13,82
508,093	110,08
508,294	-43,52
508,496	-6,66
508,697	-70,14
508,899	-2,56
509,1	83,45
509,302	95,74
509,503	3,58
509,705	85,5
509,906	5,63
510,108	-92,67
510,309	-12,8
510,51	24,06
510,712	19,97
510,913	-59,9
511,114	3,58
511,316	-45,57
511,517	44,54
511,718	-2,56
511,92	-16,9
512,121	17,92
512,322	-0,51
512,524	60,93
512,725	56,83
512,926	19,97
513,127	-12,8
513,329	77,31
513,53	-68,09
513,731	-41,47
513,932	60,93
514,133	-43,52
514,334	-8,7
514,536	69,12
514,737	103,93
514,938	-14,85
515,139	-37,38
515,34	-78,33
515,541	93,69
515,742	-20,99
515,943	136,7
516,144	32,26
516,345	28,16
516,546	28,16
516,747	77,31
516,948	28,16
517,149	7,68
517,35	-92,67
517,551	13,82
517,752	87,55
517,953	52,74
518,154	52,74
518,355	132,61
518,556	85,5
518,756	36,35
518,957	30,21
519,158	101,89
519,359	71,17
519,56	28,16
519,761	36,35
519,961	124,41
520,162	249,34
520,363	-43,52
520,564	-2,56
520,764	204,28
520,965	3,58
521,166	118,27
521,366	-16,9
521,567	19,97
521,768	56,83
521,968	22,02
522,169	85,5
522,37	44,54
522,57	-12,8
522,771	-39,42
522,972	-82,43
523,172	136,7
523,373	42,5
523,573	-10,75
523,774	22,02
523,974	114,17
524,175	87,55
524,375	36,35
524,576	-27,14
524,776	-8,7
524,977	-4,61
525,177	122,37
525,378	-2,56
525,578	77,31
525,778	79,36
525,979	77,31
526,179	62,98
526,38	-10,75
526,58	-45,57
526,78	7,68
526,981	52,74
527,181	110,08
527,381	36,35
527,582	40,45
527,782	136,7
527,982	11,78
528,182	40,45
528,383	36,35
528,583	-57,86
528,783	52,74
528,983	11,78
529,183	-33,28
529,384	69,12
529,584	89,6
529,784	161,28
529,984	52,74
530,184	19,97
530,384	13,82
530,584	19,97
530,784	65,02
530,984	34,3
531,185	85,5
531,385	101,89
531,585	36,35
531,785	71,17
531,985	-86,53
532,185	65,02
532,385	5,63
532,585	60,93
532,785	122,37
532,984	44,54
533,184	118,27
533,384	-12,8
533,584	-94,72
533,784	130,56
533,984	130,56
534,184	-6,66
534,384	28,16
534,583	28,16
534,783	-70,14
534,983	71,17
535,183	36,35
535,383	-2,56
535,582	7,68
535,782	101,89
535,982	101,89
536,182	-37,38
536,381	-12,8
536,581	-8,7
536,781	71,17
536,98	-12,8
537,18	46,59
537,38	101,89
537,579	-35,33
537,779	-18,94
537,979	44,54
538,178	-12,8
538,378	79,36
538,577	-72,19
538,777	34,3
538,976	46,59
539,176	1,54
539,376	5,63
539,575	-23,04
539,774	69,12
539,974	-53,76
540,173	5,63
540,373	22,02
540,572	-2,56
540,772	-10,75
540,971	-0,51
541,171	36,35
541,37	54,78
541,569	48,64
541,769	71,17
541,968	22,02
542,167	-4,61
542,367	36,35
542,566	-10,75
542,765	-20,99
542,965	-2,56
543,164	52,74
543,363	-31,23
543,562	-41,47
543,761	46,59
543,961	105,98
544,16	-41,47
544,359	167,42
544,558	175,61
544,757	-23,04
544,957	48,64
545,156	81,41
545,355	7,68
545,554	-37,38
545,753	-4,61
545,952	46,59
546,151	73,21
546,35	60,93
546,549	-12,8
546,748	124,41
546,947	60,93
547,146	44,54
547,345	28,16
547,544	-41,47
547,743	-49,66
547,942	-51,71
548,141	40,45
548,34	69,12
548,539	-12,8
548,738	-64
548,937	60,93
549,135	-25,09
549,334	-45,57
549,533	9,73
549,732	-8,7
549,931	30,21
550,13	38,4
550,328	71,17
550,527	-64
550,726	52,74
550,925	-37,38
551,123	85,5
551,322	-33,28
551,521	89,6
551,72	36,35
551,918	130,56
552,117	85,5
552,315	52,74
552,514	1,54
552,713	-4,61
552,911	-4,61
553,11	-86,53
553,309	32,26
553,507	11,78
553,706	-61,95
553,904	103,93
554,103	52,74
554,301	-57,86
554,5	28,16
554,698	48,64
554,897	-2,56
555,095	5,63
555,294	-43,52
555,492	56,83
555,69	56,83
555,889	7,68
556,087	26,11
556,286	134,65
556,484	22,02
556,682	-4,61
556,881	40,45
557,079	13,82
557,277	69,12
557,476	19,97
557,674	60,93
557,872	130,56
558,07	11,78
558,269	-29,18
558,467	11,78
558,665	60,93
558,863	-70,14
559,062	110,08
559,26	11,78
559,458	-78,33
559,656	28,16
559,854	30,21
560,052	-16,9
560,25	54,78
560,449	251,39
560,647	19,97
560,845	-2,56
561,043	81,41
561,241	116,22
561,439	44,54
561,637	11,78
561,835	7,68
562,033	73,21
562,231	-16,9
562,429	-29,18
562,627	-8,7
562,825	-123,39
563,023	3,58
563,221	26,11
563,418	3,58
563,616	-8,7
563,814	110,08
564,012	-16,9
564,21	46,59
564,408	-10,75
564,605	11,78
564,803	-53,76
565,001	192
565,199	-4,61
565,397	15,87
565,594	7,68
565,792	60,93
565,99	44,54
566,188	-4,61
566,385	36,35
566,583	105,98
566,781	110,08
566,978	89,6
567,176	60,93
567,373	19,97
567,571	101,89
567,769	13,82
567,966	-29,18
568,164	32,26
568,361	-27,14
568,559	13,82
568,756	28,16
568,954	11,78
569,151	65,02
569,349	28,16
569,546	-16,9
569,744	52,74
569,941	54,78
570,139	56,83
570,336	-80,38
570,534	62,98
570,731	54,78
570,928	-76,29
571,126	95,74
571,323	93,69
571,52	-47,62
571,718	7,68
571,915	19,97
572,112	-16,9
572,31	19,97
572,507	56,83
572,704	11,78
572,901	-23,04
573,099	-57,86
573,296	93,69
573,493	-27,14
573,69	-78,33
573,887	9,73
574,085	118,27
574,282	-0,51
574,479	19,97
574,676	36,35
574,873	28,16
575,07	44,54
575,267	-18,94
575,464	42,5
575,661	58,88
575,858	-20,99
576,055	-37,38
576,252	105,98
576,449	-2,56
576,646	97,79
576,843	-20,99
577,04	148,99
577,237	60,93
577,434	11,78
577,631	15,87
577,828	32,26
578,025	15,87
578,222	93,69
578,419	77,31
578,615	-10,75
578,812	3,58
579,009	-51,71
579,206	36,35
579,403	114,17
579,599	60,93
579,796	7,68
579,993	134,65
580,19	-6,66
580,386	60,93
580,583	134,65
580,78	30,21
580,976	85,5
581,173	81,41
581,37	87,55
581,566	50,69
581,763	36,35
581,96	44,54
582,156	38,4
582,353	69,12
582,549	77,31
582,746	22,02
582,942	-8,7
583,139	17,92
583,335	79,36
583,532	-29,18
583,728	-12,8
583,925	13,82
584,121	56,83
584,318	85,5
584,514	93,69
584,711	126,46
584,907	48,64
585,103	3,58
585,3	71,17
585,496	110,08
585,693	-49,66
585,889	13,82
586,085	-82,43
586,281	132,61
586,478	30,21
586,674	1,54
586,87	46,59
587,067	-27,14
587,263	73,21
587,459	-53,76
587,655	46,59
587,851	26,11
588,048	181,76
588,244	28,16
588,44	110,08
588,636	155,13
588,832	13,82
589,028	116,22
589,224	-16,9
589,42	-2,56
589,617	58,88
589,813	116,22
590,009	-8,7
590,205	44,54
590,401	103,93
590,597	65,02
590,793	38,4
590,989	-37,38
591,185	60,93
591,38	44,54
591,576	-92,67
591,772	38,4
591,968	28,16
592,164	3,58
592,36	65,02
592,556	-57,86
592,752	183,81
592,948	5,63
593,143	-35,33
593,339	52,74
593,535	-18,94
593,731	13,82
593,926	48,64
594,122	-6,66
594,318	44,54
594,514	110,08
594,709	-20,99
594,905	38,4
595,101	34,3
595,296	-51,71
595,492	118,27
595,688	-10,75
595,883	75,26
596,079	89,6
596,275	-29,18
596,47	60,93
596,666	36,35
596,861	34,3
597,057	-23,04
597,252	-29,18
597,448	-27,14
597,643	122,37
597,839	146,94
598,034	110,08
598,23	65,02
598,425	114,17
598,621	15,87
598,816	-43,52
599,011	1,54
599,207	38,4
599,402	28,16
599,597	157,18
599,793	46,59
599,988	24,06
600,183	110,08
600,379	60,93
600,574	67,07
600,769	56,83
600,965	1,54
601,16	11,78
601,355	22,02
601,55	118,27
601,745	32,26
601,941	122,37
602,136	69,12
602,331	79,36
602,526	1,54
602,721	32,26
602,916	-78,33
603,111	7,68
603,307	28,16
603,502	120,32
603,697	17,92
603,892	30,21
604,087	44,54
604,282	159,23
604,477	69,12
604,672	19,97
604,867	-45,57
605,062	26,11
605,257	77,31
605,452	79,36
605,646	87,55
605,841	87,55
606,036	44,54
606,231	-27,14
606,426	28,16
606,621	-18,94
606,816	77,31
607,01	81,41
607,205	38,4
607,4	114,17
607,595	62,98
607,79	5,63
607,984	73,21
608,179	81,41
608,374	7,68
608,569	105,98
608,763	32,26
608,958	67,07
609,153	36,35
609,347	52,74
609,542	52,74
609,736	93,69
609,931	69,12
610,126	-20,99
610,32	-16,9
610,515	-68,09
610,709	134,65
610,904	38,4
611,098	-86,53
611,293	-57,86
611,487	46,59
611,682	13,82
611,876	-20,99
612,071	-33,28
612,265	52,74
612,46	3,58
612,654	128,51
612,848	56,83
613,043	-12,8
613,237	-70,14
613,432	-59,9
613,626	3,58
613,82	93,69
614,014	54,78
614,209	52,74
614,403	17,92
614,597	52,74
614,792	173,57
614,986	167,42
615,18	122,37
615,374	177,66
615,568	267,77
615,763	226,81
615,957	263,68
616,151	269,82
616,345	331,26
616,539	183,81
616,733	171,52
616,927	183,81
617,121	151,04
617,316	185,85
617,51	181,76
617,704	126,46
617,898	58,88
618,092	71,17
618,286	62,98
618,48	-31,23
618,674	146,94
618,868	69,12
619,061	-102,91
619,255	138,75
619,449	22,02
619,643	17,92
619,837	46,59
620,031	28,16
620,225	77,31
620,419	19,97
620,612	171,52
620,806	120,32
621	48,64
621,194	-20,99
621,388	-20,99
621,581	44,54
621,775	28,16
621,969	46,59
622,162	-10,75
622,356	9,73
622,55	-14,85
622,743	-59,9
622,937	44,54
623,131	-0,51
623,324	105,98
623,518	-2,56
623,712	-12,8
623,905	-41,47
624,099	-12,8
624,292	-16,9
624,486	22,02
624,679	-10,75
624,873	-10,75
625,066	11,78
625,26	3,58
625,453	-2,56
625,647	38,4
625,84	36,35
626,034	101,89
626,227	71,17
626,42	89,6
626,614	-53,76
626,807	85,5
627	38,4
627,194	52,74
627,387	13,82
627,58	-59,9
627,774	-12,8
627,967	44,54
628,16	112,13
628,353	58,88
628,547	77,31
628,74	110,08
628,933	60,93
629,126	62,98
629,319	48,64
629,513	118,27
629,706	97,79
629,899	95,74
630,092	-27,14
630,285	-35,33
630,478	-12,8
630,671	56,83
630,864	77,31
631,057	52,74
631,25	81,41
631,443	56,83
631,636	93,69
631,829	130,56
632,022	118,27
632,215	19,97
632,408	44,54
632,601	44,54
632,794	19,97
632,987	81,41
633,18	52,74
633,373	126,46
633,566	5,63
633,758	3,58
633,951	38,4
634,144	142,85
634,337	-8,7
634,53	69,12
634,722	167,42
634,915	-76,29
635,108	19,97
635,301	-10,75
635,493	46,59
635,686	159,23
635,879	36,35
636,071	-37,38
636,264	77,31
636,457	79,36
636,649	-16,9
636,842	36,35
637,034	130,56
637,227	101,89
637,42	-10,75
637,612	-18,94
637,805	32,26
637,997	30,21
638,19	95,74
638,382	-74,24
638,575	28,16
638,767	81,41
638,96	118,27
639,152	60,93
639,344	95,74
639,537	-2,56
639,729	85,5
639,922	75,26
640,114	-12,8
640,306	-59,9
640,499	62,98
640,691	-14,85
640,883	-18,94
641,075	36,35
641,268	69,12
641,46	38,4
641,652	40,45
641,844	-45,57
642,037	46,59
642,229	40,45
642,421	134,65
642,613	52,74
642,805	69,12
642,998	-25,09
643,19	52,74
643,382	105,98
643,574	110,08
643,766	-43,52
643,958	65,02
644,15	110,08
644,342	112,13
644,534	60,93
644,726	5,63
644,918	73,21
645,11	19,97
645,302	75,26
645,494	153,09
645,686	77,31
645,878	69,12
646,07	46,59
646,262	110,08
646,453	93,69
646,645	224,76
646,837	134,65
647,029	11,78
647,221	138,75
647,413	36,35
647,604	103,93
647,796	9,73
647,988	132,61
648,18	38,4
648,371	93,69
648,563	24,06
648,755	97,79
648,947	36,35
649,138	-4,61
649,33	114,17
649,521	85,5
649,713	44,54
649,905	48,64
650,096	97,79
650,288	89,6
650,479	-33,28
650,671	79,36
650,863	11,78
651,054	144,89
651,246	183,81
651,437	89,6
651,629	218,62
651,82	177,66
652,011	237,05
652,203	183,81
652,394	189,95
652,586	132,61
652,777	87,55
652,968	151,04
653,16	77,31
653,351	159,23
653,542	278,01
653,734	255,48
653,925	110,08
654,116	249,34
654,308	368,12
654,499	546,3
654,69	1543,66
654,881	4623,8
655,073	9727,34
655,264	16733,44
655,455	25369,72
655,646	35740,64
655,837	46418,75
656,028	54936,25
656,219	61645,4
656,411	64186,92
656,602	64186,92
656,793	64186,92
656,984	63291,96
657,175	57322,13
657,366	51639,02
657,557	44290,91
657,748	37538,76
657,939	32885,77
658,13	27323,49
658,321	23082,14
658,512	17782
658,703	12672,32
658,894	8205,7
659,084	5330,35
659,275	3280,33
659,466	2190,81
659,657	1461,74
659,848	988,66
660,039	695,8
660,23	540,15
660,42	372,22
660,611	357,88
660,802	310,78
660,993	265,72
661,183	261,63
661,374	161,28
661,565	251,39
661,755	126,46
661,946	185,85
662,137	169,47
662,327	194,05
662,518	122,37
662,709	36,35
662,899	40,45
663,09	114,17
663,28	73,21
663,471	42,5
663,662	220,67
663,852	144,89
664,043	-23,04
664,233	110,08
664,424	65,02
664,614	19,97
664,804	28,16
664,995	101,89
665,185	71,17
665,376	79,36
665,566	116,22
665,756	54,78
665,947	60,93
666,137	48,64
666,328	103,93
666,518	60,93
666,708	-49,66
666,898	52,74
667,089	36,35
667,279	28,16
667,469	46,59
667,659	60,93
667,85	142,85
668,04	52,74
668,23	3,58
668,42	11,78
668,61	75,26
668,8	46,59
668,991	52,74
669,181	167,42
669,371	-29,18
669,561	69,12
669,751	103,93
669,941	69,12
670,131	38,4
670,321	44,54
670,511	30,21
670,701	36,35
670,891	-2,56
671,081	46,59
671,271	36,35
671,461	60,93
671,651	-8,7
671,841	52,74
672,03	40,45
672,22	22,02
672,41	120,32
672,6	28,16
672,79	11,78
672,98	-8,7
673,169	46,59
673,359	-39,42
673,549	89,6
673,739	-14,85
673,928	7,68
674,118	-25,09
674,308	34,3
674,497	22,02
674,687	58,88
674,877	17,92
675,066	-92,67
675,256	-37,38
675,446	69,12
675,635	-10,75
675,825	-70,14
676,014	-37,38
676,204	93,69
676,393	11,78
676,583	-4,61
676,772	32,26
676,962	-76,29
677,151	-4,61
677,341	-35,33
677,53	-39,42
677,72	38,4
677,909	79,36
678,099	-23,04
678,288	58,88
678,477	32,26
678,667	-10,75
678,856	56,83
679,045	56,83
679,235	-20,99
679,424	44,54
679,613	110,08
679,802	-25,09
679,992	-4,61
680,181	19,97
680,37	83,45
680,559	40,45
680,748	71,17
680,938	93,69
681,127	11,78
681,316	83,45
681,505	44,54
681,694	-45,57
681,883	36,35
682,072	36,35
682,261	-2,56
682,45	-35,33
682,639	-86,53
682,828	13,82
683,017	110,08
683,206	30,21
683,395	24,06
683,584	28,16
683,773	60,93
683,962	5,63
684,151	-12,8
684,34	19,97
684,529	36,35
684,718	22,02
684,907	38,4
685,095	69,12
685,284	-10,75
685,473	67,07
685,662	-23,04
685,851	65,02
686,039	62,98
686,228	71,17
686,417	-82,43
686,606	157,18
686,794	56,83
686,983	-20,99
687,172	19,97
687,36	3,58
687,549	-6,66
687,738	-2,56
687,926	-43,52
688,115	-37,38
688,303	3,58
688,492	17,92
688,68	-100,86
688,869	-100,86
689,057	-37,38
689,246	-117,25
689,434	-27,14
689,623	-20,99
689,811	19,97
690	-82,43
690,188	-43,52
690,377	-4,61
690,565	28,16
690,753	30,21
690,942	30,21
691,13	-29,18
691,318	83,45
691,507	-27,14
691,695	3,58
691,883	73,21
692,072	91,65
692,26	93,69
692,448	-53,76
692,636	-107,01
692,824	15,87
693,013	91,65
693,201	38,4
693,389	-70,14
693,577	11,78
693,765	-27,14
693,953	-10,75
694,141	-45,57
694,329	-20,99
694,518	13,82
694,706	-33,28
694,894	3,58
695,082	-86,53
695,27	-4,61
695,458	36,35
695,646	-18,94
695,834	32,26
696,022	-18,94
696,209	46,59
696,397	101,89
696,585	-33,28
696,773	-16,9
696,961	7,68
697,149	-43,52
697,337	-45,57
697,525	-8,7
697,712	22,02
697,9	-29,18
698,088	-45,57
698,276	54,78
698,463	38,4
698,651	56,83
698,839	-4,61
699,027	101,89
699,214	22,02
699,402	22,02
699,59	11,78
699,777	-10,75
699,965	60,93
700,152	60,93
700,34	-27,14
700,528	-45,57
700,715	75,26
700,903	71,17
701,09	77,31
701,278	-27,14
701,465	110,08
701,653	-68,09
701,84	-41,47
702,028	85,5
702,215	28,16
702,402	-18,94
702,59	101,89
702,777	11,78
702,965	19,97
703,152	77,31
703,339	3,58
703,527	-25,09
703,714	19,97
703,901	-8,7
704,088	11,78
704,276	58,88
704,463	85,5
704,65	7,68
704,837	40,45
705,025	60,93
705,212	101,89
705,399	11,78
705,586	7,68
705,773	79,36
705,96	-74,24
706,147	-4,61
706,335	-10,75
706,522	5,63
706,709	46,59
706,896	-6,66
707,083	-2,56
707,27	-14,85
707,457	77,31
707,644	-20,99
707,831	-86,53
708,018	-33,28
708,205	30,21
708,392	22,02
708,578	71,17
708,765	-10,75
708,952	-74,24
709,139	-35,33
709,326	11,78
709,513	36,35
709,7	-80,38
709,886	38,4
710,073	60,93
710,26	151,04
710,447	-29,18
710,633	24,06
710,82	-8,7
711,007	46,59
711,193	44,54
711,38	5,63
711,567	24,06
711,753	19,97
711,94	30,21
712,127	5,63
712,313	-2,56
712,5	50,69
712,686	40,45
712,873	9,73
713,059	-94,72
713,246	34,3
713,432	-6,66
713,619	-74,24
713,805	-37,38
713,992	28,16
714,178	-20,99
714,365	-8,7
714,551	-12,8
714,737	46,59
714,924	-123,39
715,11	60,93
715,297	28,16
715,483	-18,94
715,669	-37,38
715,855	-20,99
716,042	79,36
716,228	-70,14
716,414	40,45
716,6	38,4
716,787	30,21
716,973	-29,18
717,159	73,21
717,345	28,16
717,531	-49,66
717,718	28,16
717,904	15,87
718,09	-18,94
718,276	54,78
718,462	-33,28
718,648	30,21
718,834	-27,14
719,02	52,74
719,206	-8,7
719,392	3,58
719,578	19,97
719,764	-2,56
719,95	-98,81
720,136	183,81
720,322	28,16
720,508	5,63
720,694	-14,85
720,879	-4,61
721,065	99,84
721,251	52,74
721,437	32,26
721,623	79,36
721,809	28,16
721,994	-18,94
722,18	-12,8
722,366	-27,14
722,552	17,92
722,737	-70,14
722,923	77,31
723,109	48,64
723,294	7,68
723,48	69,12
723,666	75,26
723,851	-6,66
724,037	69,12
724,222	116,22
724,408	5,63
724,593	-8,7
724,779	-12,8
724,965	-39,42
725,15	110,08
725,336	69,12
725,521	40,45
725,706	46,59
725,892	-18,94
726,077	-66,05
726,263	112,13
726,448	105,98
726,634	44,54
726,819	65,02
727,004	167,42
727,19	-35,33
727,375	69,12
727,56	30,21
727,745	-18,94
727,931	22,02
728,116	-0,51
728,301	-6,66
728,486	101,89
728,672	-25,09
728,857	44,54
729,042	15,87
729,227	7,68
729,412	-25,09
729,597	-12,8
729,783	26,11
729,968	-20,99
730,153	67,07
730,338	-4,61
730,523	85,5
730,708	5,63
730,893	69,12
731,078	-47,62
731,263	-18,94
731,448	11,78
731,633	38,4
731,818	-90,62
732,003	-66,05
732,187	24,06
732,372	-43,52
732,557	77,31
732,742	-86,53
732,927	-4,61
733,112	-14,85
733,297	-2,56
733,481	52,74
733,666	44,54
733,851	54,78
734,036	-43,52
734,22	-35,33
734,405	144,89
734,59	7,68
734,774	69,12
734,959	-76,29
735,144	126,46
735,328	3,58
735,513	-61,95
735,698	38,4
735,882	71,17
736,067	73,21
736,251	-12,8
736,436	-10,75
736,62	-45,57
736,805	-41,47
736,989	93,69
737,174	-59,9
737,358	-16,9
737,543	-37,38
737,727	32,26
737,911	128,51
738,096	-12,8
738,28	95,74
738,465	-18,94
738,649	60,93
738,833	22,02
739,018	-12,8
739,202	19,97
739,386	-18,94
739,57	114,17
739,755	-33,28
739,939	89,6
740,123	-92,67
740,307	-41,47
740,491	11,78
740,676	-86,53
740,86	30,21
741,044	-45,57
741,228	40,45
741,412	-33,28
741,596	-49,66
741,78	-107,01
741,964	-4,61
742,148	-43,52
742,332	-12,8
742,516	-12,8
742,7	69,12
742,884	65,02
743,068	-12,8
743,252	93,69
743,436	19,97
743,62	-111,1
743,804	155,13
743,988	13,82
744,172	40,45
744,356	-29,18
744,539	48,64
744,723	11,78
744,907	-84,48
745,091	-51,71
745,275	7,68
745,458	69,12
745,642	-29,18
745,826	77,31
746,009	101,89
746,193	1,54
746,377	62,98
746,56	54,78
746,744	167,42
746,928	48,64
747,111	85,5
747,295	-27,14
747,478	28,16
747,662	-16,9
747,846	38,4
748,029	56,83
748,213	-2,56
748,396	-8,7
748,58	77,31
748,763	3,58
748,946	-37,38
749,13	-12,8
749,313	7,68
749,497	24,06
749,68	40,45
749,863	54,78
750,047	24,06
750,23	28,16
750,413	65,02
750,597	44,54
750,78	-43,52
750,963	95,74
751,146	30,21
751,33	28,16
751,513	1,54
751,696	38,4
751,879	28,16
752,062	13,82
752,246	13,82
752,429	44,54
752,612	46,59
752,795	-10,75
752,978	-4,61
753,161	-0,51
753,344	-49,66
753,527	118,27
753,71	-35,33
753,893	5,63
754,076	-78,33
754,259	95,74
754,442	-45,57
754,625	-51,71
754,808	112,13
754,991	-27,14
755,174	77,31
755,357	-39,42
755,539	28,16
755,722	105,98
755,905	-51,71
756,088	-53,76
756,271	-0,51
756,453	-6,66
756,636	-14,85
756,819	60,93
757,002	-102,91
757,184	151,04
757,367	126,46
757,55	30,21
757,732	118,27
757,915	-20,99
758,098	-66,05
758,28	40,45
758,463	11,78
758,645	32,26
758,828	73,21
759,011	71,17
759,193	69,12
759,376	93,69
759,558	-43,52
759,741	-4,61
759,923	-61,95
760,105	-20,99
760,288	65,02
760,47	22,02
760,653	38,4
760,835	44,54
761,017	7,68
761,2	-4,61
761,382	79,36
761,564	3,58
761,747	52,74
761,929	54,78
762,111	-10,75
762,294	-4,61
762,476	179,71
762,658	26,11
762,84	62,98
763,022	32,26
763,205	-10,75
763,387	28,16
763,569	38,4
763,751	-23,04
763,933	-125,44
764,115	-29,18
764,297	40,45
764,479	54,78
764,661	-49,66
764,843	54,78
765,025	-74,24
765,207	19,97
765,389	62,98
765,571	3,58
765,753	36,35
765,935	118,27
766,117	71,17
766,299	101,89
766,481	103,93
766,663	-111,1
766,845	-12,8
767,026	-59,9
767,208	44,54
767,39	52,74
767,572	-10,75
767,753	62,98
767,935	-27,14
768,117	36,35
768,299	103,93
768,48	-8,7
768,662	-27,14
768,844	69,12
769,025	85,5
769,207	-53,76
769,389	3,58
769,57	58,88
769,752	38,4
769,933	19,97
770,115	97,79
770,296	44,54
770,478	-25,09
770,659	-16,9
770,841	257,53
771,022	52,74
771,204	44,54
771,385	-35,33
771,567	71,17
771,748	101,89
771,929	-55,81
772,111	60,93
772,292	163,33
772,473	38,4
772,655	28,16
772,836	-12,8
773,017	144,89
773,199	-12,8
773,38	36,35
773,561	36,35
773,742	73,21
773,923	-12,8
774,105	81,41
774,286	32,26
774,467	19,97
774,648	-18,94
774,829	56,83
775,01	38,4
775,191	77,31
775,372	-20,99
775,553	32,26
775,734	19,97
775,915	114,17
776,096	423,42
776,277	1078,77
776,458	1625,58
776,639	2612,7
776,82	3425,74
777,001	4267,45
777,182	4879,8
777,363	5344,69
777,544	5447,08
777,725	5307,82
777,906	4935,09
778,086	4273,6
778,267	3702,22
778,448	2940,37
778,629	2334,17
778,809	2067,94
778,99	1641,96
779,171	1433,07
779,352	1398,25
779,532	1181,17
779,713	1070,58
779,894	1086,96
780,074	1021,42
780,255	974,32
780,435	904,69
780,616	691,7
780,797	544,25
780,977	257,53
781,158	224,76
781,338	179,71
781,519	71,17
781,699	237,05
781,88	38,4
782,06	105,98
782,241	-14,85
782,421	-70,14
782,601	142,85
782,782	44,54
782,962	17,92
783,142	62,98
783,323	36,35
783,503	48,64
783,683	62,98
783,864	48,64
784,044	69,12
784,224	30,21
784,404	7,68
784,585	15,87
784,765	34,3
784,945	138,75
785,125	-29,18
785,305	101,89
785,485	110,08
785,666	19,97
785,846	-49,66
786,026	79,36
786,206	-92,67
786,386	52,74
786,566	71,17
786,746	-51,71
786,926	44,54
787,106	13,82
787,286	-45,57
787,466	9,73
787,646	22,02
787,826	32,26
788,006	79,36
788,185	-0,51
788,365	-27,14
788,545	3,58
788,725	11,78
788,905	48,64
789,085	-10,75
789,264	-2,56
789,444	73,21
789,624	101,89
789,804	40,45
789,983	93,69
790,163	11,78
790,343	28,16
790,522	60,93
790,702	11,78
790,882	28,16
791,061	136,7
791,241	69,12
791,42	15,87
791,6	91,65
791,78	77,31
791,959	-53,76
792,139	-23,04
792,318	7,68
792,498	32,26
792,677	28,16
792,856	11,78
793,036	52,74
793,215	-25,09
793,395	77,31
793,574	-12,8
793,753	30,21
793,933	52,74
794,112	85,5
794,291	-12,8
794,471	177,66
794,65	71,17
794,829	3,58
795,008	28,16
795,188	81,41
795,367	110,08
795,546	-8,7
795,725	-37,38
795,904	5,63
796,084	-12,8
796,263	93,69
796,442	7,68
796,621	-37,38
796,8	110,08
796,979	93,69
797,158	-31,23
797,337	-35,33
797,516	83,45
797,695	95,74
797,874	38,4
798,053	108,03
798,232	-12,8
798,411	-92,67
798,59	-37,38
798,769	1,54
798,947	38,4
799,126	36,35
799,305	38,4
799,484	-4,61
799,663	-16,9
799,842	75,26
800,02	15,87
800,199	7,68
800,378	54,78
800,557	-27,14
800,735	3,58
800,914	-37,38
801,093	11,78
801,271	-6,66
801,45	22,02
801,628	24,06
801,807	38,4
801,986	71,17
802,164	-25,09
802,343	-20,99
802,521	-68,09
802,7	-18,94
802,878	118,27
803,057	-27,14
803,235	3,58
803,414	52,74
803,592	97,79
803,771	-14,85
803,949	24,06
804,127	-10,75
804,306	-4,61
804,484	-10,75
804,662	77,31
804,841	-31,23
805,019	13,82
805,197	-57,86
805,375	62,98
805,554	-57,86
805,732	-4,61
805,91	24,06
806,088	-78,33
806,266	-20,99
806,445	-0,51
806,623	-29,18
806,801	17,92
806,979	54,78
807,157	73,21
807,335	-61,95
807,513	36,35
807,691	46,59
807,869	-27,14
808,047	-66,05
808,225	-66,05
808,403	126,46
808,581	24,06
808,759	91,65
808,937	3,58
809,115	65,02
809,293	65,02
809,471	-29,18
809,649	15,87
809,826	65,02
810,004	28,16
810,182	-8,7
810,36	-25,09
810,538	19,97
810,715	-33,28
810,893	46,59
811,071	-43,52
811,248	116,22
811,426	28,16
811,604	5,63
811,781	79,36
811,959	71,17
812,137	-10,75
812,314	-29,18
812,492	22,02
812,669	-2,56
812,847	-29,18
813,024	-59,9
813,202	89,6
813,379	-18,94
813,557	60,93
813,734	126,46
813,912	44,54
814,089	-45,57
814,267	58,88
814,444	-12,8
814,621	-4,61
814,799	-55,81
814,976	65,02
815,153	-2,56
815,331	-35,33
815,508	24,06
815,685	-29,18
815,862	30,21
816,04	-49,66
816,217	-82,43
816,394	-84,48
816,571	11,78
816,748	142,85
816,926	105,98
817,103	226,81
817,28	54,78
817,457	-37,38
817,634	77,31
817,811	-41,47
817,988	-12,8
818,165	-20,99
818,342	128,51
818,519	-6,66
818,696	-43,52
818,873	28,16
819,05	65,02
819,227	15,87
819,404	-0,51
819,581	44,54
819,758	-41,47
819,934	11,78
820,111	-29,18
820,288	-59,9
820,465	71,17
820,642	-37,38
820,818	-27,14
820,995	-35,33
821,172	15,87
821,349	56,83
821,525	-20,99
821,702	101,89
821,879	15,87
822,055	77,31
822,232	17,92
822,409	5,63
822,585	85,5
822,762	3,58
822,938	60,93
823,115	44,54
823,291	5,63
823,468	122,37
823,644	77,31
823,821	99,84
823,997	13,82
824,174	-12,8
824,35	-23,04
824,527	38,4
824,703	87,55
824,879	-0,51
825,056	52,74
825,232	73,21
825,408	30,21
825,585	-14,85
825,761	93,69
825,937	-53,76
826,113	-61,95
826,29	-37,38
826,466	30,21
826,642	364,03
826,818	19,97
826,994	19,97
827,17	-78,33
827,347	-123,39
827,523	-94,72
827,699	3,58
827,875	60,93
828,051	15,87
828,227	-12,8
828,403	-0,51
828,579	67,07
828,755	93,69
828,931	-0,51
829,107	28,16
829,283	77,31
829,459	1,54
829,635	-29,18
829,811	48,64
829,986	5,63
830,162	-76,29
830,338	44,54
830,514	38,4
830,69	38,4
830,865	7,68
831,041	126,46
831,217	-8,7
831,393	-51,71
831,568	-29,18
831,744	77,31
831,92	-53,76
832,095	36,35
832,271	-10,75
832,447	-12,8
832,622	77,31
832,798	-16,9
832,973	19,97
833,149	19,97
833,325	-31,23
833,5	-100,86
833,676	60,93
833,851	54,78
834,027	-45,57
834,202	24,06
834,377	44,54
834,553	44,54
834,728	15,87
834,904	19,97
835,079	-8,7
835,254	-29,18
835,43	-18,94
835,605	-16,9
835,78	-37,38
835,955	101,89
836,131	28,16
836,306	-14,85
836,481	-41,47
836,656	-33,28
836,832	-12,8
837,007	-45,57
837,182	-18,94
837,357	48,64
837,532	81,41
837,707	28,16
837,882	-4,61
838,057	110,08
838,232	85,5
838,407	52,74
838,582	-6,66
838,757	-6,66
838,932	24,06
839,107	-20,99
839,282	-135,68
839,457	11,78
839,632	93,69
839,807	-10,75
839,982	-16,9
840,157	-33,28
840,332	-12,8
840,506	-127,49
840,681	-2,56
840,856	15,87
841,031	-70,14
841,205	-8,7
841,38	28,16
841,555	120,32
841,73	46,59
841,904	-10,75
842,079	44,54
842,254	54,78
842,428	38,4
842,603	48,64
842,777	-0,51
842,952	-12,8
843,126	60,93
843,301	103,93
843,476	171,52
843,65	478,71
843,825	749,04
843,999	1035,76
844,173	1244,65
844,348	1394,15
844,522	1553,9
844,697	1527,27
844,871	1416,68
845,045	1431,02
845,22	1095,15
845,394	1123,82
845,568	865,78
845,743	955,89
845,917	814,58
846,091	701,94
846,265	654,84
846,44	697,85
846,614	568,82
846,788	486,9
846,962	495,1
847,136	478,71
847,31	536,06
847,485	527,86
847,659	353,79
847,833	513,53
848,007	384,51
848,181	382,46
848,355	333,31
848,529	259,58
848,703	245,24
848,877	85,5
849,051	202,24
849,225	40,45
849,399	30,21
849,573	-94,72
849,746	-18,94
849,92	30,21
850,094	-12,8
850,268	46,59
850,442	101,89
850,616	17,92
850,789	-25,09
850,963	11,78
851,137	-29,18
851,311	142,85
851,484	28,16
851,658	52,74
851,832	-86,53
852,005	-18,94
852,179	-35,33
852,352	9,73
852,526	-84,48
852,7	5,63
852,873	-35,33
853,047	44,54
853,22	32,26
853,394	110,08
853,567	7,68
853,741	-12,8
853,914	32,26
854,088	52,74
854,261	-12,8
854,434	-16,9
854,608	-53,76
854,781	-51,71
854,955	-12,8
855,128	95,74
855,301	-0,51
855,475	44,54
855,648	-4,61
855,821	30,21
855,994	-20,99
856,168	-45,57
856,341	85,5
856,514	-59,9
856,687	19,97
856,86	36,35
857,033	52,74
857,207	-2,56
857,38	19,97
857,553	105,98
857,726	-10,75
857,899	161,28
858,072	-27,14
858,245	-16,9
858,418	-45,57
858,591	-4,61
858,764	-37,38
858,937	77,31
859,11	40,45
859,283	5,63
859,455	-53,76
859,628	-4,61
859,801	30,21
859,974	28,16
860,147	-61,95
860,32	28,16
860,492	40,45
860,665	-53,76
860,838	77,31
861,011	-20,99
861,183	52,74
861,356	93,69
861,529	34,3
861,701	-76,29
861,874	24,06
862,047	-27,14
862,219	3,58
862,392	134,65
862,564	34,3
862,737	54,78
862,909	7,68
863,082	-12,8
863,254	15,87
863,427	101,89
863,599	97,79
863,772	-49,66
863,944	-78,33
864,117	60,93
864,289	28,16
864,461	-61,95
864,634	22,02
864,806	-61,95
864,978	44,54
865,151	-43,52
865,323	77,31
865,495	62,98
865,667	-12,8
865,84	81,41
866,012	-39,42
866,184	3,58
866,356	-23,04
866,528	32,26
866,7	-20,99
866,873	28,16
867,045	73,21
867,217	-31,23
867,389	-14,85
867,561	-57,86
867,733	-4,61
867,905	7,68
868,077	54,78
868,249	7,68
868,421	-10,75
868,593	-23,04
868,765	130,56
868,936	-61,95
869,108	11,78
869,28	110,08
869,452	62,98
869,624	-16,9
869,796	140,8
869,968	85,5
870,139	130,56
870,311	-10,75
870,483	122,37
870,654	-45,57
870,826	19,97
870,998	36,35
871,17	-4,61
871,341	-8,7
871,513	-4,61
871,684	32,26
871,856	30,21
872,028	3,58
872,199	-27,14
872,371	42,5
872,542	-61,95
872,714	-25,09
872,885	130,56
873,057	-45,57
873,228	-14,85
873,4	36,35
873,571	105,98
873,742	-68,09
873,914	79,36
874,085	-4,61
874,256	40,45
874,428	-61,95
874,599	-4,61
874,77	24,06
874,942	-53,76
875,113	38,4
875,284	-18,94
875,455	-76,29
875,626	44,54
875,798	36,35
875,969	-43,52
876,14	65,02
876,311	48,64
876,482	60,93
876,653	22,02
876,824	38,4
876,995	-4,61
877,166	19,97
877,337	44,54
877,508	-41,47
877,679	-20,99
877,85	-109,05
878,021	1,54
878,192	110,08
878,363	-49,66
878,534	15,87
878,705	-27,14
878,876	-47,62
879,047	38,4
879,217	-43,52
879,388	-66,05
879,559	44,54
879,73	93,69
879,9	-10,75
880,071	69,12
880,242	-2,56
880,413	67,07
880,583	81,41
880,754	128,51
880,924	52,74
881,095	-61,95
881,266	17,92
881,436	-0,51
881,607	-10,75
881,777	52,74
881,948	-68,09
882,118	42,5
882,289	22,02
882,459	-4,61
882,63	52,74
882,8	30,21
882,971	79,36
883,141	30,21
883,311	69,12
883,482	105,98
883,652	-29,18
883,822	26,11
883,993	11,78
884,163	19,97
884,333	13,82
884,504	24,06
884,674	-16,9
884,844	-4,61
885,014	-12,8
885,184	-49,66
885,355	-45,57
885,525	7,68
885,695	11,78
885,865	93,69
886,035	58,88
886,205	19,97
886,375	34,3
886,545	28,16
886,715	-35,33
886,885	-45,57
887,055	11,78
887,225	13,82
887,395	-20,99
887,565	151,04
887,735	93,69
887,905	36,35
888,075	-20,99
888,244	93,69
888,414	60,93
888,584	-8,7
888,754	11,78
888,924	-29,18
889,093	183,81
889,263	3,58
889,433	-29,18
889,603	65,02
889,772	15,87
889,942	30,21
890,111	19,97
890,281	87,55
890,451	46,59
890,62	46,59
890,79	9,73
890,959	5,63
891,129	-2,56
891,298	103,93
891,468	11,78
891,637	-29,18
891,807	13,82
891,976	-25,09
892,146	-16,9
892,315	-45,57
892,485	87,55
892,654	-104,96
892,823	32,26
892,993	-41,47
893,162	48,64
893,331	52,74
893,501	5,63
893,67	32,26
893,839	-2,56
894,008	-35,33
894,177	67,07
894,347	11,78
894,516	71,17
894,685	103,93
894,854	-55,81
895,023	85,5
895,192	-8,7
