Data from h2o_USB4F104161__5__11-48-46-581.txt Node

Date: Tue Apr 14 11:48:46 EDT 2026
User: LaboPhy
Spectrometer: USB4F10416
Trigger mode: 4
Integration Time (sec): 1,000000E-1
Scans to average: 1
Electric dark correction enabled: true
Nonlinearity correction enabled: false
Boxcar width: 0
XAxis mode: Wavelengths
Number of Pixels in Spectrum: 3648
>>>>>Begin Spectral Data<<<<<
177,847	-128,17
178,066	-128,17
178,284	-128,17
178,502	-138,41
178,72	-249
178,939	33,62
179,157	19,29
179,375	-11,43
179,593	64,34
179,812	25,43
180,03	47,96
180,248	-36,01
180,466	-5,29
180,685	25,43
180,903	-46,25
181,121	-103,59
181,339	-13,48
181,557	-21,67
181,775	50
181,994	50
182,212	58,2
182,43	-60,59
182,648	43,86
182,866	23,38
183,084	101,2
183,302	-21,67
183,52	-58,54
183,739	37,72
183,957	56,15
184,175	21,33
184,393	33,62
184,611	115,54
184,829	74,58
185,047	-5,29
185,265	11,09
185,483	60,24
185,701	50
185,919	50
186,137	-25,77
186,355	52,05
186,573	0,85
186,791	105,3
187,009	29,52
187,227	0,85
187,445	-19,63
187,663	-15,53
187,881	33,62
188,098	95,06
188,316	37,72
188,534	90,96
188,752	-29,87
188,97	11,09
189,188	-15,53
189,406	58,2
189,624	109,4
189,841	11,09
190,059	-50,35
190,277	-36,01
190,495	-19,63
190,713	101,2
190,931	246,61
191,148	66,39
191,366	25,43
191,584	29,52
191,802	99,16
192,019	86,87
192,237	-36,01
192,455	68,44
192,673	66,39
192,89	2,9
193,108	11,09
193,326	-23,72
193,543	13,14
193,761	60,24
193,979	11,09
194,196	25,43
194,414	43,86
194,632	103,25
194,849	-1,19
195,067	-23,72
195,285	39,76
195,502	-40,11
195,72	-5,29
195,937	25,43
196,155	54,1
196,373	41,81
196,59	-23,72
196,808	35,67
197,025	72,53
197,243	246,61
197,46	-7,34
197,678	52,05
197,895	37,72
198,113	41,81
198,33	7
198,548	90,96
198,765	33,62
198,983	25,43
199,2	-44,2
199,418	125,78
199,635	-31,91
199,853	33,62
200,07	-19,63
200,288	41,81
200,505	2,9
200,722	86,87
200,94	95,06
201,157	4,95
201,375	68,44
201,592	35,67
201,809	121,68
202,027	82,77
202,244	45,91
202,461	-7,34
202,679	93,01
202,896	0,85
203,113	-23,72
203,331	107,35
203,548	70,48
203,765	-11,43
203,982	86,87
204,2	-7,34
204,417	-19,63
204,634	199,51
204,851	76,63
205,069	115,54
205,286	35,67
205,503	33,62
205,72	109,4
205,937	127,83
206,155	-7,34
206,372	148,31
206,589	-103,59
206,806	33,62
207,023	107,35
207,24	60,24
207,458	-36,01
207,675	58,2
207,892	-15,53
208,109	-21,67
208,326	64,34
208,543	-23,72
208,76	62,29
208,977	133,97
209,194	76,63
209,411	103,25
209,628	58,2
209,845	131,92
210,062	13,14
210,279	-48,3
210,496	-29,87
210,713	-23,72
210,93	101,2
211,147	107,35
211,364	-40,11
211,581	17,24
211,798	181,07
212,015	-9,39
212,232	17,24
212,449	54,1
212,666	52,05
212,883	-25,77
213,1	58,2
213,317	9,05
213,533	37,72
213,75	-81,07
213,967	-40,11
214,184	-31,91
214,401	60,24
214,618	11,09
214,835	13,14
215,051	90,96
215,268	90,96
215,485	25,43
215,702	9,05
215,919	-15,53
216,135	115,54
216,352	25,43
216,569	11,09
216,786	58,2
217,002	76,63
217,219	33,62
217,436	-1,19
217,652	66,39
217,869	37,72
218,086	123,73
218,302	70,48
218,519	41,81
218,736	-36,01
218,952	50
219,169	86,87
219,386	70,48
219,602	-7,34
219,819	68,44
220,036	-11,43
220,252	148,31
220,469	21,33
220,685	19,29
220,902	17,24
221,118	90,96
221,335	0,85
221,552	-54,44
221,768	64,34
221,985	0,85
222,201	21,33
222,418	50
222,634	43,86
222,851	-5,29
223,067	21,33
223,284	-23,72
223,5	-5,29
223,716	50
223,933	37,72
224,149	19,29
224,366	-46,25
224,582	-40,11
224,799	54,1
225,015	9,05
225,231	82,77
225,448	-81,07
225,664	123,73
225,88	0,85
226,097	19,29
226,313	-64,68
226,529	31,57
226,746	33,62
226,962	35,67
227,178	0,85
227,395	-48,3
227,611	33,62
227,827	-15,53
228,044	82,77
228,26	-7,34
228,476	25,43
228,692	142,16
228,909	109,4
229,125	50
229,341	33,62
229,557	17,24
229,773	-15,53
229,99	52,05
230,206	2,9
230,422	95,06
230,638	-25,77
230,854	35,67
231,07	-54,44
231,286	140,12
231,503	21,33
231,719	-13,48
231,935	7
232,151	43,86
232,367	193,36
232,583	29,52
232,799	35,67
233,015	82,77
233,231	-64,68
233,447	19,29
233,663	15,19
233,879	37,72
234,095	-48,3
234,311	54,1
234,527	-21,67
234,743	21,33
234,959	13,14
235,175	109,4
235,391	-5,29
235,607	33,62
235,823	82,77
236,039	-87,21
236,255	29,52
236,471	72,53
236,687	27,48
236,903	70,48
237,118	123,73
237,334	-3,24
237,55	17,24
237,766	17,24
237,982	117,59
238,198	50
238,413	-31,91
238,629	25,43
238,845	60,24
239,061	9,05
239,277	-48,3
239,492	-3,24
239,708	-64,68
239,924	-31,91
240,14	45,91
240,355	138,07
240,571	-3,24
240,787	41,81
241,003	74,58
241,218	-36,01
241,434	37,72
241,65	66,39
241,865	-23,72
242,081	107,35
242,297	-111,78
242,512	45,91
242,728	25,43
242,944	-23,72
243,159	54,1
243,375	68,44
243,59	-7,34
243,806	-5,29
244,022	95,06
244,237	-70,83
244,453	0,85
244,668	54,1
244,884	127,83
245,099	-48,3
245,315	101,2
245,53	115,54
245,746	123,73
245,961	29,52
246,177	41,81
246,392	60,24
246,608	111,44
246,823	-23,72
247,039	2,9
247,254	-17,58
247,47	68,44
247,685	-19,63
247,9	-64,68
248,116	33,62
248,331	-15,53
248,547	68,44
248,762	-97,45
248,977	99,16
249,193	-5,29
249,408	29,52
249,623	103,25
249,839	-5,29
250,054	-103,59
250,269	-38,06
250,485	43,86
250,7	58,2
250,915	131,92
251,13	88,92
251,346	19,29
251,561	68,44
251,776	58,2
251,991	-40,11
252,207	125,78
252,422	-13,48
252,637	60,24
252,852	-27,82
253,067	17,24
253,283	99,16
253,498	60,24
253,713	17,24
253,928	4,95
254,143	50
254,358	13,14
254,573	11,09
254,788	-33,96
255,004	54,1
255,219	-97,45
255,434	111,44
255,649	-64,68
255,864	25,43
256,079	-23,72
256,294	-5,29
256,509	25,43
256,724	37,72
256,939	-33,96
257,154	60,24
257,369	82,77
257,584	33,62
257,799	-5,29
258,014	-56,49
258,229	80,72
258,444	-5,29
258,659	35,67
258,874	109,4
259,089	74,58
259,304	-76,97
259,518	52,05
259,733	58,2
259,948	62,29
260,163	109,4
260,378	90,96
260,593	27,48
260,808	-13,48
261,022	-13,48
261,237	9,05
261,452	37,72
261,667	35,67
261,882	68,44
262,096	101,2
262,311	82,77
262,526	-29,87
262,741	-31,91
262,955	-15,53
263,17	-1,19
263,385	33,62
263,6	21,33
263,814	2,9
264,029	-7,34
264,244	4,95
264,458	31,57
264,673	33,62
264,888	17,24
265,102	-7,34
265,317	0,85
265,532	2,9
265,746	123,73
265,961	39,76
266,175	78,68
266,39	-21,67
266,605	-81,07
266,819	41,81
267,034	43,86
267,248	2,9
267,463	84,82
267,677	-29,87
267,892	43,86
268,106	-64,68
268,321	17,24
268,535	70,48
268,75	140,12
268,964	-33,96
269,179	37,72
269,393	-33,96
269,608	131,92
269,822	-54,44
270,036	-23,72
270,251	74,58
270,465	-15,53
270,68	23,38
270,894	-15,53
271,108	133,97
271,323	58,2
271,537	9,05
271,752	70,48
271,966	93,01
272,18	-76,97
272,394	45,91
272,609	0,85
272,823	0,85
273,037	37,72
273,252	-11,43
273,466	74,58
273,68	74,58
273,894	43,86
274,109	4,95
274,323	58,2
274,537	33,62
274,751	-119,98
274,966	43,86
275,18	-7,34
275,394	-31,91
275,608	-105,64
275,822	-29,87
276,036	41,81
276,25	11,09
276,465	-40,11
276,679	17,24
276,893	-21,67
277,107	115,54
277,321	-31,91
277,535	131,92
277,749	52,05
277,963	33,62
278,177	-27,82
278,391	29,52
278,605	-25,77
278,819	60,24
279,033	-56,49
279,247	-11,43
279,461	58,2
279,675	-40,11
279,889	17,24
280,103	17,24
280,317	119,64
280,531	11,09
280,745	-25,77
280,959	-91,31
281,173	133,97
281,387	84,82
281,601	101,2
281,815	82,77
282,029	13,14
282,242	21,33
282,456	58,2
282,67	50
282,884	11,09
283,098	2,9
283,312	64,34
283,525	0,85
283,739	131,92
283,953	-11,43
284,167	15,19
284,381	-23,72
284,594	27,48
284,808	4,95
285,022	-89,26
285,235	17,24
285,449	113,49
285,663	43,86
285,877	-29,87
286,09	-11,43
286,304	101,2
286,518	2,9
286,731	-85,16
286,945	15,19
287,159	-5,29
287,372	66,39
287,586	17,24
287,799	27,48
288,013	-60,59
288,227	21,33
288,44	226,13
288,654	74,58
288,867	45,91
289,081	25,43
289,294	25,43
289,508	99,16
289,721	-40,11
289,935	-11,43
290,148	84,82
290,362	-7,34
290,575	74,58
290,789	-21,67
291,002	25,43
291,216	76,63
291,429	43,86
291,643	35,67
291,856	41,81
292,069	52,05
292,283	-25,77
292,496	-50,35
292,71	52,05
292,923	-7,34
293,136	84,82
293,35	52,05
293,563	33,62
293,776	35,67
293,99	103,25
294,203	-17,58
294,416	82,77
294,63	-56,49
294,843	9,05
295,056	9,05
295,269	-29,87
295,483	-7,34
295,696	31,57
295,909	127,83
296,122	133,97
296,335	21,33
296,549	9,05
296,762	25,43
296,975	27,48
297,188	17,24
297,401	37,72
297,615	-25,77
297,828	9,05
298,041	158,55
298,254	-7,34
298,467	66,39
298,68	-3,24
298,893	25,43
299,106	-81,07
299,319	47,96
299,532	86,87
299,745	-38,06
299,958	39,76
300,171	21,33
300,384	43,86
300,598	-5,29
300,81	41,81
301,023	-62,63
301,236	93,01
301,449	15,19
301,662	-13,48
301,875	-23,72
302,088	-7,34
302,301	-40,11
302,514	9,05
302,727	17,24
302,94	-3,24
303,153	33,62
303,366	-13,48
303,579	-25,77
303,791	88,92
304,004	19,29
304,217	105,3
304,43	-40,11
304,643	66,39
304,855	-29,87
305,068	82,77
305,281	82,77
305,494	43,86
305,707	84,82
305,919	144,21
306,132	4,95
306,345	86,87
306,558	41,81
306,77	-89,26
306,983	-50,35
307,196	131,92
307,408	50
307,621	88,92
307,834	88,92
308,046	52,05
308,259	17,24
308,472	-11,43
308,684	52,05
308,897	-40,11
309,109	-11,43
309,322	-52,39
309,535	33,62
309,747	133,97
309,96	21,33
310,172	172,88
310,385	189,27
310,597	4,95
310,81	109,4
311,022	0,85
311,235	-72,87
311,447	123,73
311,66	50
311,872	93,01
312,085	31,57
312,297	29,52
312,51	82,77
312,722	66,39
312,934	111,44
313,147	25,43
313,359	21,33
313,572	52,05
313,784	148,31
313,996	125,78
314,209	164,69
314,421	-52,39
314,633	-13,48
314,846	41,81
315,058	84,82
315,27	107,35
315,483	82,77
315,695	84,82
315,907	58,2
316,119	93,01
316,332	133,97
316,544	99,16
316,756	131,92
316,968	66,39
317,181	33,62
317,393	72,53
317,605	21,33
317,817	72,53
318,029	76,63
318,241	70,48
318,454	0,85
318,666	37,72
318,878	-36,01
319,09	50
319,302	58,2
319,514	84,82
319,726	74,58
319,938	115,54
320,15	123,73
320,362	50
320,574	27,48
320,786	0,85
320,999	17,24
321,211	37,72
321,423	58,2
321,635	-85,16
321,847	107,35
322,058	-36,01
322,27	119,64
322,482	66,39
322,694	107,35
322,906	50
323,118	115,54
323,33	117,59
323,542	70,48
323,754	33,62
323,966	-107,69
324,178	33,62
324,389	66,39
324,601	35,67
324,813	54,1
325,025	25,43
325,237	41,81
325,449	74,58
325,66	-23,72
325,872	7
326,084	70,48
326,296	43,86
326,507	2,9
326,719	33,62
326,931	27,48
327,143	76,63
327,354	86,87
327,566	58,2
327,778	123,73
327,989	107,35
328,201	-5,29
328,413	156,5
328,624	138,07
328,836	52,05
329,048	-31,91
329,259	52,05
329,471	50
329,682	-19,63
329,894	-7,34
330,106	-15,53
330,317	-7,34
330,529	31,57
330,74	33,62
330,952	68,44
331,163	-7,34
331,375	72,53
331,586	-19,63
331,798	39,76
332,009	35,67
332,221	97,11
332,432	45,91
332,644	27,48
332,855	35,67
333,067	64,34
333,278	27,48
333,489	107,35
333,701	0,85
333,912	-7,34
334,124	-54,44
334,335	11,09
334,546	-3,24
334,758	37,72
334,969	156,5
335,18	183,12
335,392	95,06
335,603	168,79
335,814	131,92
336,025	115,54
336,237	117,59
336,448	45,91
336,659	193,36
336,87	207,7
337,082	273,23
337,293	101,2
337,504	103,25
337,715	62,29
337,926	152,4
338,138	133,97
338,349	131,92
338,56	74,58
338,771	35,67
338,982	88,92
339,193	23,38
339,404	58,2
339,616	107,35
339,827	80,72
340,038	25,43
340,249	50
340,46	43,86
340,671	17,24
340,882	109,4
341,093	35,67
341,304	15,19
341,515	-76,97
341,726	0,85
341,937	-40,11
342,148	-1,19
342,359	17,24
342,57	-56,49
342,781	140,12
342,992	17,24
343,203	50
343,414	103,25
343,624	-3,24
343,835	9,05
344,046	19,29
344,257	2,9
344,468	-19,63
344,679	50
344,89	-11,43
345,1	-21,67
345,311	58,2
345,522	37,72
345,733	0,85
345,944	-7,34
346,154	70,48
346,365	60,24
346,576	-33,96
346,787	29,52
346,997	62,29
347,208	74,58
347,419	-29,87
347,629	99,16
347,84	107,35
348,051	41,81
348,261	-7,34
348,472	-48,3
348,683	19,29
348,893	11,09
349,104	58,2
349,315	-19,63
349,525	35,67
349,736	62,29
349,946	-1,19
350,157	205,65
350,368	148,31
350,578	0,85
350,789	58,2
350,999	111,44
351,21	181,07
351,42	-89,26
351,631	60,24
351,841	82,77
352,052	0,85
352,262	60,24
352,472	47,96
352,683	41,81
352,893	144,21
353,104	76,63
353,314	121,68
353,525	492,37
353,735	150,36
353,945	64,34
354,156	74,58
354,366	107,35
354,576	148,31
354,787	21,33
354,997	33,62
355,207	-15,53
355,418	58,2
355,628	84,82
355,838	90,96
356,048	74,58
356,259	158,55
356,469	115,54
356,679	181,07
356,889	222,03
357,1	170,83
357,31	174,93
357,52	127,83
357,73	142,16
357,94	222,03
358,15	58,2
358,361	90,96
358,571	15,19
358,781	136,02
358,991	-23,72
359,201	50
359,411	-31,91
359,621	-23,72
359,831	115,54
360,041	60,24
360,251	70,48
360,461	140,12
360,672	50
360,882	9,05
361,092	74,58
361,302	35,67
361,512	123,73
361,721	25,43
361,931	58,2
362,141	82,77
362,351	45,91
362,561	33,62
362,771	-15,53
362,981	-29,87
363,191	-64,68
363,401	107,35
363,611	-15,53
363,821	52,05
364,03	-60,59
364,24	115,54
364,45	64,34
364,66	232,27
364,87	0,85
365,08	146,26
365,289	-23,72
365,499	4,95
365,709	123,73
365,919	74,58
366,128	-54,44
366,338	176,98
366,548	-48,3
366,758	111,44
366,967	74,58
367,177	93,01
367,387	19,29
367,596	95,06
367,806	50
368,016	103,25
368,225	74,58
368,435	133,97
368,644	-1,19
368,854	-5,29
369,064	58,2
369,273	66,39
369,483	123,73
369,692	-54,44
369,902	39,76
370,111	33,62
370,321	70,48
370,53	52,05
370,74	125,78
370,949	136,02
371,159	93,01
371,368	109,4
371,578	152,4
371,787	99,16
371,997	9,05
372,206	99,16
372,416	37,72
372,625	58,2
372,834	27,48
373,044	9,05
373,253	164,69
373,462	95,06
373,672	17,24
373,881	117,59
374,09	74,58
374,3	82,77
374,509	35,67
374,718	78,68
374,928	254,8
375,137	115,54
375,346	90,96
375,555	213,84
375,765	136,02
375,974	164,69
376,183	142,16
376,392	117,59
376,601	-11,43
376,811	19,29
377,02	99,16
377,229	111,44
377,438	66,39
377,647	35,67
377,856	41,81
378,065	15,19
378,275	-13,48
378,484	66,39
378,693	41,81
378,902	119,64
379,111	156,5
379,32	-3,24
379,529	97,11
379,738	123,73
379,947	207,7
380,156	117,59
380,365	150,36
380,574	256,85
380,783	17,24
380,992	95,06
381,201	9,05
381,41	-23,72
381,619	41,81
381,828	54,1
382,037	-7,34
382,245	136,02
382,454	78,68
382,663	123,73
382,872	82,77
383,081	11,09
383,29	86,87
383,499	-52,39
383,707	191,31
383,916	107,35
384,125	101,2
384,334	56,15
384,542	156,5
384,751	45,91
384,96	68,44
385,169	15,19
385,377	50
385,586	50
385,795	68,44
386,004	125,78
386,212	-40,11
386,421	21,33
386,63	123,73
386,838	88,92
387,047	68,44
387,255	166,74
387,464	62,29
387,673	107,35
387,881	119,64
388,09	146,26
388,298	172,88
388,507	158,55
388,715	174,93
388,924	158,55
389,133	58,2
389,341	29,52
389,55	166,74
389,758	54,1
389,967	140,12
390,175	37,72
390,383	123,73
390,592	193,36
390,8	111,44
391,009	111,44
391,217	156,5
391,426	140,12
391,634	50
391,842	80,72
392,051	47,96
392,259	50
392,467	76,63
392,676	-19,63
392,884	35,67
393,092	60,24
393,301	62,29
393,509	66,39
393,717	166,74
393,925	115,54
394,134	43,86
394,342	205,65
394,55	183,12
394,758	123,73
394,967	86,87
395,175	33,62
395,383	103,25
395,591	82,77
395,799	58,2
396,007	35,67
396,216	181,07
396,424	74,58
396,632	101,2
396,84	84,82
397,048	156,5
397,256	205,65
397,464	66,39
397,672	164,69
397,88	64,34
398,088	82,77
398,296	33,62
398,504	43,86
398,712	86,87
398,92	170,83
399,128	84,82
399,336	41,81
399,544	127,83
399,752	107,35
399,96	142,16
400,168	99,16
400,376	127,83
400,584	148,31
400,792	33,62
401	-7,34
401,207	39,76
401,415	17,24
401,623	23,38
401,831	84,82
402,039	123,73
402,247	50
402,454	70,48
402,662	140,12
402,87	66,39
403,078	246,61
403,285	107,35
403,493	58,2
403,701	25,43
403,909	66,39
404,116	142,16
404,324	121,68
404,532	68,44
404,739	33,62
404,947	29,52
405,155	117,59
405,362	189,27
405,57	113,49
405,778	52,05
405,985	58,2
406,193	133,97
406,4	33,62
406,608	103,25
406,816	113,49
407,023	62,29
407,231	58,2
407,438	27,48
407,646	82,77
407,853	27,48
408,061	50
408,268	119,64
408,476	99,16
408,683	166,74
408,89	166,74
409,098	156,5
409,305	164,69
409,513	174,93
409,72	217,94
409,927	236,37
410,135	316,24
410,342	205,65
410,55	430,93
410,757	191,31
410,964	76,63
411,172	164,69
411,379	152,4
411,586	84,82
411,793	47,96
412,001	66,39
412,208	123,73
412,415	117,59
412,622	109,4
412,83	43,86
413,037	123,73
413,244	74,58
413,451	183,12
413,658	181,07
413,866	181,07
414,073	41,81
414,28	181,07
414,487	-3,24
414,694	60,24
414,901	101,2
415,108	66,39
415,315	29,52
415,522	84,82
415,73	43,86
415,937	-70,83
416,144	-27,82
416,351	86,87
416,558	-17,58
416,765	76,63
416,972	21,33
417,179	39,76
417,386	86,87
417,593	78,68
417,8	-46,25
418,006	11,09
418,213	45,91
418,42	101,2
418,627	119,64
418,834	39,76
419,041	125,78
419,248	25,43
419,455	146,26
419,661	172,88
419,868	68,44
420,075	90,96
420,282	-36,01
420,489	58,2
420,696	136,02
420,902	27,48
421,109	82,77
421,316	-38,06
421,523	103,25
421,729	90,96
421,936	78,68
422,143	119,64
422,349	25,43
422,556	33,62
422,763	60,24
422,969	37,72
423,176	-5,29
423,383	-31,91
423,589	355,15
423,796	58,2
424,002	29,52
424,209	136,02
424,416	78,68
424,622	-68,78
424,829	41,81
425,035	-85,16
425,242	41,81
425,448	-64,68
425,655	142,16
425,861	21,33
426,068	123,73
426,274	140,12
426,481	64,34
426,687	115,54
426,894	76,63
427,1	115,54
427,306	4,95
427,513	86,87
427,719	60,24
427,926	99,16
428,132	25,43
428,338	66,39
428,545	17,24
428,751	13,14
428,957	52,05
429,163	37,72
429,37	76,63
429,576	45,91
429,782	127,83
429,989	-42,15
430,195	103,25
430,401	115,54
430,607	19,29
430,813	-31,91
431,02	140,12
431,226	148,31
431,432	74,58
431,638	107,35
431,844	0,85
432,05	45,91
432,257	148,31
432,463	271,19
432,669	240,47
432,875	299,86
433,081	308,05
433,287	467,79
433,493	512,85
433,699	910,15
433,905	930,63
434,111	983,88
434,317	1037,13
434,523	983,88
434,729	957,25
434,935	680,78
435,141	623,44
435,347	336,72
435,553	299,86
435,759	160,59
435,965	172,88
436,171	197,46
436,377	191,31
436,582	176,98
436,788	95,06
436,994	203,6
437,2	43,86
437,406	101,2
437,612	152,4
437,818	123,73
438,023	23,38
438,229	226,13
438,435	148,31
438,641	74,58
438,846	66,39
439,052	50
439,258	119,64
439,464	-40,11
439,669	68,44
439,875	117,59
440,081	33,62
440,286	50
440,492	52,05
440,698	62,29
440,903	25,43
441,109	174,93
441,314	21,33
441,52	-5,29
441,726	76,63
441,931	19,29
442,137	90,96
442,342	52,05
442,548	60,24
442,753	123,73
442,959	-46,25
443,164	68,44
443,37	70,48
443,575	-21,67
443,781	97,11
443,986	115,54
444,192	-17,58
444,397	-5,29
444,602	41,81
444,808	-21,67
445,013	41,81
445,219	-21,67
445,424	131,92
445,629	-7,34
445,835	105,3
446,04	90,96
446,245	54,1
446,451	11,09
446,656	43,86
446,861	52,05
447,066	78,68
447,272	70,48
447,477	33,62
447,682	4,95
447,887	39,76
448,093	158,55
448,298	191,31
448,503	-5,29
448,708	58,2
448,913	-105,64
449,118	123,73
449,324	88,92
449,529	82,77
449,734	17,24
449,939	-7,34
450,144	90,96
450,349	86,87
450,554	39,76
450,759	115,54
450,964	107,35
451,169	99,16
451,374	33,62
451,579	138,07
451,784	-13,48
451,989	58,2
452,194	41,81
452,399	115,54
452,604	-23,72
452,809	-3,24
453,014	41,81
453,219	109,4
453,424	82,77
453,629	0,85
453,833	-21,67
454,038	90,96
454,243	78,68
454,448	27,48
454,653	43,86
454,858	82,77
455,062	-5,29
455,267	-7,34
455,472	156,5
455,677	-17,58
455,882	29,52
456,086	127,83
456,291	33,62
456,496	66,39
456,7	84,82
456,905	158,55
457,11	70,48
457,314	41,81
457,519	-48,3
457,724	60,24
457,928	74,58
458,133	78,68
458,338	52,05
458,542	52,05
458,747	9,05
458,951	0,85
459,156	17,24
459,36	-29,87
459,565	82,77
459,769	11,09
459,974	84,82
460,178	-31,91
460,383	-9,39
460,587	45,91
460,792	109,4
460,996	39,76
461,201	109,4
461,405	43,86
461,61	45,91
461,814	121,68
462,018	-31,91
462,223	11,09
462,427	7
462,631	68,44
462,836	88,92
463,04	66,39
463,244	142,16
463,449	-31,91
463,653	174,93
463,857	99,16
464,062	166,74
464,266	-60,59
464,47	84,82
464,674	41,81
464,878	82,77
465,083	95,06
465,287	172,88
465,491	-81,07
465,695	45,91
465,899	105,3
466,104	119,64
466,308	33,62
466,512	62,29
466,716	35,67
466,92	99,16
467,124	107,35
467,328	37,72
467,532	166,74
467,736	29,52
467,94	109,4
468,144	19,29
468,348	43,86
468,552	76,63
468,756	37,72
468,96	-19,63
469,164	0,85
469,368	-15,53
469,572	-31,91
469,776	72,53
469,98	37,72
470,184	11,09
470,388	41,81
470,591	33,62
470,795	125,78
470,999	9,05
471,203	9,05
471,407	115,54
471,611	17,24
471,814	37,72
472,018	-21,67
472,222	131,92
472,426	109,4
472,63	19,29
472,833	142,16
473,037	62,29
473,241	41,81
473,444	105,3
473,648	447,31
473,852	23,38
474,055	-5,29
474,259	52,05
474,463	9,05
474,666	62,29
474,87	27,48
475,074	119,64
475,277	31,57
475,481	150,36
475,684	52,05
475,888	21,33
476,091	43,86
476,295	19,29
476,498	-46,25
476,702	82,77
476,905	111,44
477,109	97,11
477,312	27,48
477,516	-74,92
477,719	125,78
477,923	9,05
478,126	2,9
478,329	27,48
478,533	74,58
478,736	58,2
478,94	62,29
479,143	50
479,346	68,44
479,55	68,44
479,753	-15,53
479,956	-13,48
480,159	33,62
480,363	113,49
480,566	58,2
480,769	74,58
480,972	0,85
481,176	31,57
481,379	158,55
481,582	168,79
481,785	37,72
481,988	131,92
482,192	136,02
482,395	78,68
482,598	78,68
482,801	123,73
483,004	140,12
483,207	27,48
483,41	131,92
483,613	197,46
483,817	230,23
484,02	90,96
484,223	289,62
484,426	744,27
484,629	1190,72
484,832	1977,14
485,035	2769,71
485,238	3781,4
485,441	4866,83
485,644	6464,24
485,846	7885,53
486,049	9224,9
486,252	10488,5
486,455	10564,28
486,658	9962,17
486,861	8725,2
487,064	7213,8
487,267	5401,35
487,47	3935
487,672	2966,31
487,875	2097,97
488,078	1250,11
488,281	820,04
488,484	469,84
488,686	240,47
488,889	148,31
489,092	66,39
489,295	166,74
489,497	207,7
489,7	33,62
489,903	37,72
490,105	41,81
490,308	58,2
490,511	103,25
490,713	27,48
490,916	62,29
491,118	19,29
491,321	62,29
491,524	-60,59
491,726	52,05
491,929	50
492,131	58,2
492,334	43,86
492,536	60,24
492,739	25,43
492,941	117,59
493,144	84,82
493,346	82,77
493,549	99,16
493,751	41,81
493,954	43,86
494,156	90,96
494,359	93,01
494,561	103,25
494,763	84,82
494,966	93,01
495,168	189,27
495,37	-19,63
495,573	-40,11
495,775	41,81
495,977	148,31
496,18	156,5
496,382	131,92
496,584	90,96
496,787	58,2
496,989	86,87
497,191	11,09
497,393	172,88
497,595	113,49
497,798	80,72
498	74,58
498,202	72,53
498,404	-15,53
498,606	37,72
498,808	129,88
499,011	101,2
499,213	64,34
499,415	11,09
499,617	115,54
499,819	66,39
500,021	148,31
500,223	-15,53
500,425	68,44
500,627	-7,34
500,829	-11,43
501,031	58,2
501,233	-7,34
501,435	148,31
501,637	74,58
501,839	115,54
502,041	41,81
502,243	74,58
502,445	25,43
502,647	41,81
502,848	37,72
503,05	60,24
503,252	62,29
503,454	82,77
503,656	82,77
503,858	107,35
504,059	82,77
504,261	78,68
504,463	64,34
504,665	-5,29
504,867	74,58
505,068	37,72
505,27	54,1
505,472	93,01
505,673	82,77
505,875	60,24
506,077	25,43
506,278	-23,72
506,48	-15,53
506,682	52,05
506,883	31,57
507,085	25,43
507,287	-3,24
507,488	86,87
507,69	72,53
507,891	2,9
508,093	197,46
508,294	-19,63
508,496	-21,67
508,697	0,85
508,899	45,91
509,1	76,63
509,302	93,01
509,503	52,05
509,705	41,81
509,906	11,09
510,108	-36,01
510,309	52,05
510,51	70,48
510,712	17,24
510,913	9,05
511,114	62,29
511,316	-89,26
511,517	62,29
511,718	29,52
511,92	13,14
512,121	33,62
512,322	78,68
512,524	136,02
512,725	41,81
512,926	72,53
513,127	0,85
513,329	82,77
513,53	43,86
513,731	52,05
513,932	107,35
514,133	21,33
514,334	-42,15
514,536	90,96
514,737	50
514,938	27,48
515,139	2,9
515,34	9,05
515,541	68,44
515,742	-23,72
515,943	50
516,144	76,63
516,345	74,58
516,546	58,2
516,747	99,16
516,948	99,16
517,149	7
517,35	-54,44
517,551	76,63
517,752	123,73
517,953	86,87
518,154	4,95
518,355	140,12
518,556	86,87
518,756	-23,72
518,957	50
519,158	179,03
519,359	125,78
519,56	84,82
519,761	123,73
519,961	158,55
520,162	230,23
520,363	-15,53
520,564	47,96
520,764	172,88
520,965	50
521,166	107,35
521,366	74,58
521,567	43,86
521,768	125,78
521,968	43,86
522,169	17,24
522,37	33,62
522,57	-38,06
522,771	25,43
522,972	-93,35
523,172	144,21
523,373	43,86
523,573	-7,34
523,774	52,05
523,974	84,82
524,175	84,82
524,375	56,15
524,576	-13,48
524,776	-7,34
524,977	47,96
525,177	58,2
525,378	123,73
525,578	84,82
525,778	25,43
525,979	88,92
526,179	54,1
526,38	9,05
526,58	17,24
526,78	7
526,981	174,93
527,181	117,59
527,381	90,96
527,582	58,2
527,782	140,12
527,982	74,58
528,182	33,62
528,383	76,63
528,583	50
528,783	76,63
528,983	4,95
529,183	76,63
529,384	50
529,584	131,92
529,784	125,78
529,984	90,96
530,184	0,85
530,384	25,43
530,584	70,48
530,784	-23,72
530,984	25,43
531,185	103,25
531,385	136,02
531,585	97,11
531,785	95,06
531,985	-48,3
532,185	43,86
532,385	41,81
532,585	-3,24
532,785	119,64
532,984	131,92
533,184	201,55
533,384	84,82
533,584	-3,24
533,784	113,49
533,984	66,39
534,184	25,43
534,384	37,72
534,583	58,2
534,783	50
534,983	76,63
535,183	-48,3
535,383	66,39
535,582	90,96
535,782	60,24
535,982	174,93
536,182	39,76
536,381	82,77
536,581	-31,91
536,781	84,82
536,98	76,63
537,18	19,29
537,38	123,73
537,579	74,58
537,779	-1,19
537,979	-5,29
538,178	76,63
538,378	113,49
538,577	-42,15
538,777	27,48
538,976	25,43
539,176	62,29
539,376	11,09
539,575	-13,48
539,774	76,63
539,974	-40,11
540,173	17,24
540,373	99,16
540,572	2,9
540,772	13,14
540,971	-27,82
541,171	103,25
541,37	11,09
541,569	4,95
541,769	80,72
541,968	9,05
542,167	37,72
542,367	88,92
542,566	33,62
542,765	109,4
542,965	29,52
543,164	131,92
543,363	29,52
543,562	74,58
543,761	90,96
543,961	127,83
544,16	37,72
544,359	103,25
544,558	109,4
544,757	2,9
544,957	90,96
545,156	119,64
545,355	-21,67
545,554	33,62
545,753	-1,19
545,952	68,44
546,151	50
546,35	78,68
546,549	115,54
546,748	60,24
546,947	50
547,146	37,72
547,345	70,48
547,544	-40,11
547,743	13,14
547,942	27,48
548,141	123,73
548,34	45,91
548,539	33,62
548,738	-46,25
548,937	66,39
549,135	56,15
549,334	17,24
549,533	-1,19
549,732	103,25
549,931	93,01
550,13	93,01
550,328	-66,73
550,527	17,24
550,726	21,33
550,925	-31,91
551,123	58,2
551,322	19,29
551,521	101,2
551,72	21,33
551,918	95,06
552,117	43,86
552,315	95,06
552,514	37,72
552,713	11,09
552,911	74,58
553,11	-122,02
553,309	-40,11
553,507	11,09
553,706	21,33
553,904	0,85
554,103	70,48
554,301	76,63
554,5	21,33
554,698	-23,72
554,897	-7,34
555,095	80,72
555,294	-25,77
555,492	7
555,69	45,91
555,889	-52,39
556,087	43,86
556,286	193,36
556,484	52,05
556,682	58,2
556,881	2,9
557,079	-54,44
557,277	11,09
557,476	86,87
557,674	58,2
557,872	166,74
558,07	-48,3
558,269	-40,11
558,467	-15,53
558,665	99,16
558,863	119,64
559,062	78,68
559,26	27,48
559,458	-40,11
559,656	131,92
559,854	25,43
560,052	54,1
560,25	107,35
560,449	365,39
560,647	99,16
560,845	0,85
561,043	50
561,241	150,36
561,439	140,12
561,637	33,62
561,835	76,63
562,033	0,85
562,231	50
562,429	35,67
562,627	39,76
562,825	2,9
563,023	82,77
563,221	33,62
563,418	-27,82
563,616	50
563,814	140,12
564,012	11,09
564,21	74,58
564,408	58,2
564,605	-7,34
564,803	-9,39
565,001	217,94
565,199	-7,34
565,397	62,29
565,594	115,54
565,792	131,92
565,99	-48,3
566,188	23,38
566,385	-3,24
566,583	41,81
566,781	86,87
566,978	144,21
567,176	105,3
567,373	109,4
567,571	33,62
567,769	58,2
567,966	-48,3
568,164	56,15
568,361	-19,63
568,559	4,95
568,756	68,44
568,954	0,85
569,151	17,24
569,349	138,07
569,546	37,72
569,744	93,01
569,941	123,73
570,139	33,62
570,336	-44,2
570,534	41,81
570,731	37,72
570,928	13,14
571,126	230,23
571,323	127,83
571,52	-23,72
571,718	60,24
571,915	101,2
572,112	-36,01
572,31	17,24
572,507	117,59
572,704	-62,63
572,901	17,24
573,099	52,05
573,296	123,73
573,493	13,14
573,69	13,14
573,887	13,14
574,085	107,35
574,282	95,06
574,479	41,81
574,676	68,44
574,873	52,05
575,07	90,96
575,267	-17,58
575,464	25,43
575,661	72,53
575,858	43,86
576,055	-70,83
576,252	133,97
576,449	11,09
576,646	64,34
576,843	-7,34
577,04	103,25
577,237	170,83
577,434	95,06
577,631	68,44
577,828	58,2
578,025	39,76
578,222	41,81
578,419	78,68
578,615	17,24
578,812	-15,53
579,009	-44,2
579,206	11,09
579,403	109,4
579,599	88,92
579,796	-11,43
579,993	164,69
580,19	9,05
580,386	115,54
580,583	90,96
580,78	29,52
580,976	150,36
581,173	37,72
581,37	56,15
581,566	66,39
581,763	54,1
581,96	-9,39
582,156	-7,34
582,353	66,39
582,549	176,98
582,746	54,1
582,942	68,44
583,139	115,54
583,335	107,35
583,532	88,92
583,728	84,82
583,925	103,25
584,121	13,14
584,318	166,74
584,514	111,44
584,711	33,62
584,907	68,44
585,103	33,62
585,3	78,68
585,496	35,67
585,693	62,29
585,889	72,53
586,085	-21,67
586,281	111,44
586,478	82,77
586,674	62,29
586,87	17,24
587,067	119,64
587,263	60,24
587,459	86,87
587,655	31,57
587,851	58,2
588,048	209,75
588,244	43,86
588,44	-72,87
588,636	156,5
588,832	99,16
589,028	205,65
589,224	-21,67
589,42	-3,24
589,617	82,77
589,813	115,54
590,009	-40,11
590,205	140,12
590,401	58,2
590,597	31,57
590,793	133,97
590,989	103,25
591,185	84,82
591,38	154,45
591,576	13,14
591,772	52,05
591,968	82,77
592,164	117,59
592,36	140,12
592,556	-3,24
592,752	187,22
592,948	31,57
593,143	-38,06
593,339	31,57
593,535	39,76
593,731	99,16
593,926	82,77
594,122	25,43
594,318	-15,53
594,514	123,73
594,709	21,33
594,905	68,44
595,101	2,9
595,296	107,35
595,492	93,01
595,688	50
595,883	140,12
596,079	125,78
596,275	60,24
596,47	62,29
596,666	115,54
596,861	50
597,057	0,85
597,252	58,2
597,448	2,9
597,643	123,73
597,839	131,92
598,034	58,2
598,23	-23,72
598,425	52,05
598,621	103,25
598,816	13,14
599,011	50
599,207	35,67
599,402	84,82
599,597	76,63
599,793	133,97
599,988	17,24
600,183	13,14
600,379	109,4
600,574	-31,91
600,769	43,86
600,965	17,24
601,16	158,55
601,355	58,2
601,55	66,39
601,745	60,24
601,941	95,06
602,136	150,36
602,331	-11,43
602,526	74,58
602,721	127,83
602,916	60,24
603,111	27,48
603,307	19,29
603,502	76,63
603,697	29,52
603,892	76,63
604,087	37,72
604,282	176,98
604,477	136,02
604,672	150,36
604,867	54,1
605,062	27,48
605,257	0,85
605,452	140,12
605,646	54,1
605,841	78,68
606,036	70,48
606,231	11,09
606,426	27,48
606,621	68,44
606,816	17,24
607,01	189,27
607,205	58,2
607,4	25,43
607,595	115,54
607,79	43,86
607,984	133,97
608,179	80,72
608,374	50
608,569	95,06
608,763	-64,68
608,958	-64,68
609,153	41,81
609,347	68,44
609,542	43,86
609,736	84,82
609,931	62,29
610,126	25,43
610,32	33,62
610,515	64,34
610,709	299,86
610,904	68,44
611,098	-7,34
611,293	-68,78
611,487	101,2
611,682	4,95
611,876	37,72
612,071	84,82
612,265	13,14
612,46	-15,53
612,654	56,15
612,848	45,91
613,043	33,62
613,237	-5,29
613,432	25,43
613,626	-72,87
613,82	11,09
614,014	70,48
614,209	158,55
614,403	25,43
614,597	50
614,792	140,12
614,986	191,31
615,18	226,13
615,374	271,19
615,568	203,6
615,763	189,27
615,957	230,23
616,151	351,06
616,345	365,39
616,539	238,42
616,733	205,65
616,927	240,47
617,121	123,73
617,316	172,88
617,51	205,65
617,704	158,55
617,898	205,65
618,092	93,01
618,286	4,95
618,48	43,86
618,674	131,92
618,868	21,33
619,061	9,05
619,255	148,31
619,449	17,24
619,643	-29,87
619,837	78,68
620,031	74,58
620,225	41,81
620,419	107,35
620,612	90,96
620,806	68,44
621	66,39
621,194	21,33
621,388	29,52
621,581	54,1
621,775	82,77
621,969	74,58
622,162	78,68
622,356	33,62
622,55	78,68
622,743	-7,34
622,937	-5,29
623,131	58,2
623,324	140,12
623,518	17,24
623,712	-33,96
623,905	50
624,099	168,79
624,292	74,58
624,486	66,39
624,679	35,67
624,873	-3,24
625,066	54,1
625,26	74,58
625,453	-29,87
625,647	37,72
625,84	37,72
626,034	142,16
626,227	66,39
626,42	111,44
626,614	41,81
626,807	158,55
627	11,09
627,194	9,05
627,387	-5,29
627,58	-11,43
627,774	31,57
627,967	101,2
628,16	109,4
628,353	54,1
628,547	66,39
628,74	101,2
628,933	-31,91
629,126	70,48
629,319	66,39
629,513	-17,58
629,706	43,86
629,899	29,52
630,092	111,44
630,285	-5,29
630,478	41,81
630,671	95,06
630,864	60,24
631,057	2,9
631,25	160,59
631,443	131,92
631,636	136,02
631,829	111,44
632,022	136,02
632,215	88,92
632,408	13,14
632,601	125,78
632,794	74,58
632,987	-3,24
633,18	50
633,373	84,82
633,566	2,9
633,758	7
633,951	62,29
634,144	90,96
634,337	99,16
634,53	82,77
634,722	101,2
634,915	25,43
635,108	2,9
635,301	90,96
635,493	90,96
635,686	140,12
635,879	68,44
636,071	-48,3
636,264	136,02
636,457	156,5
636,649	-31,91
636,842	90,96
637,034	144,21
637,227	154,45
637,42	90,96
637,612	50
637,805	52,05
637,997	109,4
638,19	60,24
638,382	-91,31
638,575	13,14
638,767	9,05
638,96	9,05
639,152	123,73
639,344	123,73
639,537	-38,06
639,729	68,44
639,922	60,24
640,114	86,87
640,306	70,48
640,499	150,36
640,691	58,2
640,883	33,62
641,075	58,2
641,268	197,46
641,46	76,63
641,652	31,57
641,844	74,58
642,037	4,95
642,229	54,1
642,421	107,35
642,613	131,92
642,805	142,16
642,998	9,05
643,19	50
643,382	150,36
643,574	74,58
643,766	47,96
643,958	-5,29
644,15	150,36
644,342	90,96
644,534	142,16
644,726	66,39
644,918	172,88
645,11	84,82
645,302	168,79
645,494	62,29
645,686	68,44
645,878	140,12
646,07	222,03
646,262	172,88
646,453	109,4
646,645	140,12
646,837	99,16
647,029	131,92
647,221	86,87
647,413	105,3
647,604	52,05
647,796	133,97
647,988	166,74
648,18	25,43
648,371	41,81
648,563	66,39
648,755	140,12
648,947	54,1
649,138	68,44
649,33	74,58
649,521	101,2
649,713	52,05
649,905	70,48
650,096	115,54
650,288	62,29
650,479	-44,2
650,671	140,12
650,863	58,2
651,054	72,53
651,246	138,07
651,437	187,22
651,629	254,8
651,82	193,36
652,011	267,09
652,203	299,86
652,394	164,69
652,586	115,54
652,777	123,73
652,968	142,16
653,16	103,25
653,351	189,27
653,542	357,2
653,734	265,04
653,925	205,65
654,116	349,01
654,308	379,73
654,499	488,27
654,69	1461,06
654,881	4707,09
655,073	10283,7
655,264	17480,27
655,455	25618,89
655,646	36612,39
655,837	47161,48
656,028	56203,26
656,219	62398,37
656,411	64208,77
656,602	64208,77
656,793	64208,77
656,984	63850,38
657,175	57974,75
657,366	52191,29
657,557	44222,64
657,748	37777,68
657,939	33085,79
658,13	27451,83
658,321	23357,94
658,512	17990,21
658,703	12763,79
658,894	8145,63
659,084	5231,37
659,275	3255,08
659,466	2155,32
659,657	1401,66
659,848	955,21
660,039	729,93
660,23	516,94
660,42	443,21
660,611	410,45
660,802	287,57
660,993	328,53
661,183	242,51
661,374	287,57
661,565	234,32
661,755	217,94
661,946	93,01
662,137	113,49
662,327	123,73
662,518	107,35
662,709	189,27
662,899	97,11
663,09	127,83
663,28	156,5
663,471	74,58
663,662	203,6
663,852	150,36
664,043	58,2
664,233	103,25
664,424	111,44
664,614	99,16
664,804	115,54
664,995	123,73
665,185	113,49
665,376	-5,29
665,566	119,64
665,756	-15,53
665,947	-7,34
666,137	21,33
666,328	107,35
666,518	68,44
666,708	37,72
666,898	117,59
667,089	117,59
667,279	72,53
667,469	111,44
667,659	95,06
667,85	107,35
668,04	90,96
668,23	-3,24
668,42	52,05
668,61	2,9
668,8	11,09
668,991	-44,2
669,181	181,07
669,371	41,81
669,561	70,48
669,751	140,12
669,941	95,06
670,131	93,01
670,321	66,39
670,511	35,67
670,701	-13,48
670,891	27,48
671,081	23,38
671,271	33,62
671,461	35,67
671,651	35,67
671,841	86,87
672,03	82,77
672,22	76,63
672,41	93,01
672,6	43,86
672,79	29,52
672,98	41,81
673,169	31,57
673,359	58,2
673,549	119,64
673,739	9,05
673,928	41,81
674,118	68,44
674,308	-7,34
674,497	156,5
674,687	-54,44
674,877	76,63
675,066	84,82
675,256	11,09
675,446	33,62
675,635	33,62
675,825	25,43
676,014	7
676,204	15,19
676,393	33,62
676,583	29,52
676,772	66,39
676,962	35,67
677,151	58,2
677,341	-11,43
677,53	43,86
677,72	43,86
677,909	117,59
678,099	-46,25
678,288	-31,91
678,477	84,82
678,667	35,67
678,856	125,78
679,045	90,96
679,235	19,29
679,424	76,63
679,613	150,36
679,802	109,4
679,992	76,63
680,181	-17,58
680,37	60,24
680,559	76,63
680,748	84,82
680,938	101,2
681,127	-7,34
681,316	76,63
681,505	93,01
681,694	4,95
681,883	29,52
682,072	-15,53
682,261	68,44
682,45	-56,49
682,639	-23,72
682,828	-44,2
683,017	80,72
683,206	11,09
683,395	-79,02
683,584	39,76
683,773	27,48
683,962	9,05
684,151	43,86
684,34	74,58
684,529	-44,2
684,718	45,91
684,907	27,48
685,095	17,24
685,284	93,01
685,473	27,48
685,662	-95,4
685,851	93,01
686,039	82,77
686,228	11,09
686,417	25,43
686,606	164,69
686,794	54,1
686,983	-7,34
687,172	0,85
687,36	-11,43
687,549	-19,63
687,738	11,09
687,926	21,33
688,115	33,62
688,303	17,24
688,492	52,05
688,68	-89,26
688,869	21,33
689,057	-13,48
689,246	-109,74
689,434	2,9
689,623	33,62
689,811	68,44
690	2,9
690,188	-48,3
690,377	11,09
690,565	64,34
690,753	74,58
690,942	-7,34
691,13	64,34
691,318	82,77
691,507	41,81
691,695	52,05
691,883	33,62
692,072	17,24
692,26	-7,34
692,448	119,64
692,636	-21,67
692,824	-56,49
693,013	37,72
693,201	19,29
693,389	-23,72
693,577	25,43
693,765	125,78
693,953	-19,63
694,141	2,9
694,329	-66,73
694,518	146,26
694,706	56,15
694,894	-13,48
695,082	-29,87
695,27	0,85
695,458	-38,06
695,646	52,05
695,834	78,68
696,022	9,05
696,209	17,24
696,397	74,58
696,585	25,43
696,773	33,62
696,961	107,35
697,149	-15,53
697,337	60,24
697,525	37,72
697,712	52,05
697,9	41,81
698,088	23,38
698,276	164,69
698,463	58,2
698,651	82,77
698,839	-11,43
699,027	9,05
699,214	82,77
699,402	-7,34
699,59	62,29
699,777	9,05
699,965	99,16
700,152	119,64
700,34	33,62
700,528	0,85
700,715	-11,43
700,903	70,48
701,09	99,16
701,278	27,48
701,465	66,39
701,653	15,19
701,84	-40,11
702,028	162,64
702,215	9,05
702,402	9,05
702,59	95,06
702,777	95,06
702,965	52,05
703,152	-23,72
703,339	99,16
703,527	-38,06
703,714	-76,97
703,901	19,29
704,088	88,92
704,276	0,85
704,463	78,68
704,65	-52,39
704,837	66,39
705,025	50
705,212	33,62
705,399	35,67
705,586	-38,06
705,773	82,77
705,96	19,29
706,147	-15,53
706,335	-29,87
706,522	-40,11
706,709	-3,24
706,896	2,9
707,083	58,2
707,27	11,09
707,457	11,09
707,644	-5,29
707,831	-38,06
708,018	88,92
708,205	50
708,392	76,63
708,578	109,4
708,765	-3,24
708,952	-29,87
709,139	-13,48
709,326	-48,3
709,513	103,25
709,7	0,85
709,886	90,96
710,073	119,64
710,26	133,97
710,447	-46,25
710,633	-21,67
710,82	11,09
711,007	66,39
711,193	-7,34
711,38	-27,82
711,567	-5,29
711,753	25,43
711,94	90,96
712,127	72,53
712,313	86,87
712,5	25,43
712,686	-46,25
712,873	25,43
713,059	-48,3
713,246	86,87
713,432	74,58
713,619	-7,34
713,805	74,58
713,992	76,63
714,178	-13,48
714,365	84,82
714,551	109,4
714,737	41,81
714,924	-44,2
715,11	-23,72
715,297	-7,34
715,483	9,05
715,669	-29,87
715,855	25,43
716,042	78,68
716,228	19,29
716,414	117,59
716,6	41,81
716,787	66,39
716,973	27,48
717,159	78,68
717,345	54,1
717,531	2,9
717,718	25,43
717,904	90,96
718,09	-31,91
718,276	9,05
718,462	-1,19
718,648	58,2
718,834	2,9
719,02	125,78
719,206	66,39
719,392	-56,49
719,578	9,05
719,764	-44,2
719,95	25,43
720,136	111,44
720,322	33,62
720,508	82,77
720,694	23,38
720,879	93,01
721,065	131,92
721,251	27,48
721,437	80,72
721,623	115,54
721,809	82,77
721,994	111,44
722,18	21,33
722,366	2,9
722,552	9,05
722,737	-31,91
722,923	21,33
723,109	11,09
723,294	76,63
723,48	33,62
723,666	144,21
723,851	-9,39
724,037	52,05
724,222	156,5
724,408	86,87
724,593	66,39
724,779	-19,63
724,965	-21,67
725,15	0,85
725,336	17,24
725,521	99,16
725,706	66,39
725,892	39,76
726,077	2,9
726,263	93,01
726,448	144,21
726,634	123,73
726,819	56,15
727,004	152,4
727,19	-48,3
727,375	144,21
727,56	-31,91
727,745	-13,48
727,931	76,63
728,116	-60,59
728,301	35,67
728,486	86,87
728,672	-48,3
728,857	109,4
729,042	45,91
729,227	25,43
729,412	19,29
729,597	0,85
729,783	-13,48
729,968	58,2
730,153	56,15
730,338	70,48
730,523	-15,53
730,708	4,95
730,893	4,95
731,078	47,96
731,263	95,06
731,448	-89,26
731,633	25,43
731,818	-46,25
732,003	43,86
732,187	0,85
732,372	-15,53
732,557	68,44
732,742	-40,11
732,927	-54,44
733,112	43,86
733,297	21,33
733,481	37,72
733,666	70,48
733,851	27,48
734,036	-38,06
734,22	-52,39
734,405	205,65
734,59	-40,11
734,774	123,73
734,959	-7,34
735,144	152,4
735,328	9,05
735,513	-89,26
735,698	33,62
735,882	70,48
736,067	125,78
736,251	74,58
736,436	9,05
736,62	-13,48
736,805	17,24
736,989	84,82
737,174	-36,01
737,358	-23,72
737,543	78,68
737,727	58,2
737,911	172,88
738,096	66,39
738,28	58,2
738,465	99,16
738,649	17,24
738,833	-23,72
739,018	-13,48
739,202	13,14
739,386	-7,34
739,57	9,05
739,755	-1,19
739,939	60,24
740,123	-9,39
740,307	2,9
740,491	82,77
740,676	74,58
740,86	-15,53
741,044	-31,91
741,228	-50,35
741,412	-60,59
741,596	-36,01
741,78	-52,39
741,964	9,05
742,148	-11,43
742,332	66,39
742,516	-13,48
742,7	125,78
742,884	58,2
743,068	-5,29
743,252	58,2
743,436	52,05
743,62	-89,26
743,804	133,97
743,988	176,98
744,172	-19,63
744,356	17,24
744,539	19,29
744,723	50
744,907	35,67
745,091	41,81
745,275	-5,29
745,458	66,39
745,642	0,85
745,826	68,44
746,009	66,39
746,193	25,43
746,377	70,48
746,56	125,78
746,744	181,07
746,928	-21,67
747,111	27,48
747,295	50
747,478	82,77
747,662	-5,29
747,846	66,39
748,029	84,82
748,213	60,24
748,396	9,05
748,58	50
748,763	11,09
748,946	-23,72
749,13	-7,34
749,313	2,9
749,497	99,16
749,68	11,09
749,863	27,48
750,047	-56,49
750,23	0,85
750,413	72,53
750,597	189,27
750,78	41,81
750,963	107,35
751,146	0,85
751,33	33,62
751,513	37,72
751,696	4,95
751,879	25,43
752,062	-40,11
752,246	11,09
752,429	-15,53
752,612	11,09
752,795	72,53
752,978	-15,53
753,161	-44,2
753,344	-72,87
753,527	107,35
753,71	11,09
753,893	76,63
754,076	-46,25
754,259	66,39
754,442	11,09
754,625	-48,3
754,808	90,96
754,991	66,39
755,174	13,14
755,357	17,24
755,539	-1,19
755,722	123,73
755,905	41,81
756,088	86,87
756,271	-5,29
756,453	43,86
756,636	-33,96
756,819	-19,63
757,002	37,72
757,184	93,01
757,367	117,59
757,55	35,67
757,732	109,4
757,915	-56,49
758,098	74,58
758,28	82,77
758,463	2,9
758,645	99,16
758,828	174,93
759,011	78,68
759,193	78,68
759,376	144,21
759,558	-38,06
759,741	50
759,923	-7,34
760,105	-5,29
760,288	111,44
760,47	-81,07
760,653	19,29
760,835	2,9
761,017	31,57
761,2	35,67
761,382	168,79
761,564	60,24
761,747	52,05
761,929	43,86
762,111	35,67
762,294	50
762,476	209,75
762,658	50
762,84	136,02
763,022	17,24
763,205	103,25
763,387	115,54
763,569	25,43
763,751	-79,02
763,933	33,62
764,115	60,24
764,297	50
764,479	156,5
764,661	-15,53
764,843	105,3
765,025	4,95
765,207	72,53
765,389	7
765,571	29,52
765,753	86,87
765,935	25,43
766,117	27,48
766,299	138,07
766,481	201,55
766,663	-56,49
766,845	-68,78
767,026	74,58
767,208	43,86
767,39	82,77
767,572	-31,91
767,753	189,27
767,935	146,26
768,117	74,58
768,299	33,62
768,48	45,91
768,662	131,92
768,844	25,43
769,025	189,27
769,207	86,87
769,389	27,48
769,57	33,62
769,752	41,81
769,933	4,95
770,115	131,92
770,296	119,64
770,478	82,77
770,659	111,44
770,841	224,08
771,022	50
771,204	50
771,385	54,1
771,567	199,51
771,748	174,93
771,929	-19,63
772,111	29,52
772,292	27,48
772,473	60,24
772,655	35,67
772,836	17,24
773,017	107,35
773,199	136,02
773,38	33,62
773,561	101,2
773,742	123,73
773,923	-56,49
774,105	209,75
774,286	107,35
774,467	41,81
774,648	-31,91
774,829	72,53
775,01	37,72
775,191	17,24
775,372	50
775,553	15,19
775,734	-13,48
775,915	103,25
776,096	377,68
776,277	1065,8
776,458	1739,58
776,639	2556,72
776,82	3613,47
777,001	4221,72
777,182	4936,46
777,363	5352,2
777,544	5860,09
777,725	5307,14
777,906	4862,73
778,086	4266,77
778,267	3717,92
778,448	2843,43
778,629	2288,43
778,809	2102,07
778,99	1721,15
779,171	1495,87
779,352	1315,65
779,532	1149,76
779,713	1155,91
779,894	1008,45
780,074	1174,34
780,255	983,88
780,435	871,24
780,616	666,44
780,797	508,75
780,977	295,76
781,158	248,66
781,338	166,74
781,519	127,83
781,699	168,79
781,88	41,81
782,06	68,44
782,241	52,05
782,421	0,85
782,601	103,25
782,782	107,35
782,962	58,2
783,142	47,96
783,323	0,85
783,503	107,35
783,683	99,16
783,864	60,24
784,044	68,44
784,224	45,91
784,404	60,24
784,585	54,1
784,765	45,91
784,945	97,11
785,125	-29,87
785,305	62,29
785,485	115,54
785,666	74,58
785,846	54,1
786,026	76,63
786,206	-7,34
786,386	27,48
786,566	43,86
786,746	25,43
786,926	76,63
787,106	84,82
787,286	52,05
787,466	17,24
787,646	25,43
787,826	33,62
788,006	4,95
788,185	27,48
788,365	-23,72
788,545	115,54
788,725	-17,58
788,905	115,54
789,085	86,87
789,264	17,24
789,444	43,86
789,624	68,44
789,804	-7,34
789,983	17,24
790,163	41,81
790,343	47,96
790,522	41,81
790,702	50
790,882	76,63
791,061	113,49
791,241	-27,82
791,42	58,2
791,6	103,25
791,78	127,83
791,959	25,43
792,139	56,15
792,318	-11,43
792,498	107,35
792,677	90,96
792,856	2,9
793,036	-29,87
793,215	74,58
793,395	131,92
793,574	54,1
793,753	33,62
793,933	107,35
794,112	52,05
794,291	99,16
794,471	164,69
794,65	33,62
794,829	13,14
795,008	70,48
795,188	95,06
795,367	164,69
795,546	-13,48
795,725	99,16
795,904	52,05
796,084	43,86
796,263	82,77
796,442	115,54
796,621	45,91
796,8	74,58
796,979	101,2
797,158	-38,06
797,337	0,85
797,516	103,25
797,695	66,39
797,874	111,44
798,053	133,97
798,232	17,24
798,411	-11,43
798,59	54,1
798,769	21,33
798,947	41,81
799,126	33,62
799,305	62,29
799,484	148,31
799,663	-15,53
799,842	60,24
800,02	21,33
800,199	35,67
800,378	172,88
800,557	-70,83
800,735	-97,45
800,914	-21,67
801,093	70,48
801,271	72,53
801,45	-11,43
801,628	86,87
801,807	-23,72
801,986	43,86
802,164	9,05
802,343	17,24
802,521	-9,39
802,7	82,77
802,878	140,12
803,057	37,72
803,235	27,48
803,414	0,85
803,592	99,16
803,771	84,82
803,949	78,68
804,127	17,24
804,306	172,88
804,484	-29,87
804,662	25,43
804,841	-44,2
805,019	35,67
805,197	72,53
805,375	86,87
805,554	17,24
805,732	27,48
805,91	-3,24
806,088	4,95
806,266	25,43
806,445	-23,72
806,623	-7,34
806,801	-48,3
806,979	107,35
807,157	0,85
807,335	-68,78
807,513	74,58
807,691	58,2
807,869	-40,11
808,047	-9,39
808,225	41,81
808,403	52,05
808,581	-13,48
808,759	86,87
808,937	9,05
809,115	50
809,293	99,16
809,471	-40,11
809,649	93,01
809,826	123,73
810,004	50
810,182	27,48
810,36	82,77
810,538	74,58
810,715	0,85
810,893	-19,63
811,071	27,48
811,248	107,35
811,426	50
811,604	99,16
811,781	109,4
811,959	62,29
812,137	17,24
812,314	9,05
812,492	11,09
812,669	60,24
812,847	-31,91
813,024	9,05
813,202	136,02
813,379	-9,39
813,557	41,81
813,734	133,97
813,912	103,25
814,089	45,91
814,267	125,78
814,444	2,9
814,621	37,72
814,799	-48,3
814,976	25,43
815,153	152,4
815,331	52,05
815,508	43,86
815,685	-3,24
815,862	17,24
816,04	-23,72
816,217	9,05
816,394	2,9
816,571	68,44
816,748	123,73
816,926	133,97
817,103	269,14
817,28	68,44
817,457	47,96
817,634	84,82
817,811	25,43
817,988	23,38
818,165	45,91
818,342	45,91
818,519	107,35
818,696	4,95
818,873	4,95
819,05	60,24
819,227	62,29
819,404	-5,29
819,581	15,19
819,758	21,33
819,934	29,52
820,111	0,85
820,288	-23,72
820,465	70,48
820,642	25,43
820,818	43,86
820,995	-27,82
821,172	95,06
821,349	99,16
821,525	52,05
821,702	103,25
821,879	2,9
822,055	86,87
822,232	4,95
822,409	58,2
822,585	99,16
822,762	19,29
822,938	33,62
823,115	84,82
823,291	-48,3
823,468	140,12
823,644	66,39
823,821	131,92
823,997	-13,48
824,174	-23,72
824,35	-62,63
824,527	11,09
824,703	66,39
824,879	9,05
825,056	82,77
825,232	123,73
825,408	39,76
825,585	29,52
825,761	37,72
825,937	11,09
826,113	86,87
826,29	33,62
826,466	-38,06
826,642	455,5
826,818	21,33
826,994	9,05
827,17	9,05
827,347	-33,96
827,523	-15,53
827,699	-3,24
827,875	-15,53
828,051	86,87
828,227	-11,43
828,403	115,54
828,579	93,01
828,755	0,85
828,931	23,38
829,107	25,43
829,283	127,83
829,459	-27,82
829,635	4,95
829,811	35,67
829,986	29,52
830,162	45,91
830,338	27,48
830,514	-64,68
830,69	-15,53
830,865	-56,49
831,041	93,01
831,217	-46,25
831,393	66,39
831,568	58,2
831,744	0,85
831,92	35,67
832,095	19,29
832,271	-21,67
832,447	9,05
832,622	115,54
832,798	82,77
832,973	17,24
833,149	23,38
833,325	-19,63
833,5	27,48
833,676	93,01
833,851	17,24
834,027	9,05
834,202	50
834,377	99,16
834,553	29,52
834,728	136,02
834,904	50
835,079	-52,39
835,254	21,33
835,43	101,2
835,605	60,24
835,78	-15,53
835,955	31,57
836,131	60,24
836,306	-48,3
836,481	-27,82
836,656	-40,11
836,832	156,5
837,007	50
837,182	-38,06
837,357	66,39
837,532	-13,48
837,707	41,81
837,882	37,72
838,057	62,29
838,232	103,25
838,407	70,48
838,582	-33,96
838,757	66,39
838,932	127,83
839,107	4,95
839,282	-95,4
839,457	60,24
839,632	123,73
839,807	109,4
839,982	4,95
840,157	-23,72
840,332	54,1
840,506	50
840,681	-54,44
840,856	82,77
841,031	-29,87
841,205	-29,87
841,38	115,54
841,555	82,77
841,73	9,05
841,904	43,86
842,079	68,44
842,254	62,29
842,428	21,33
842,603	2,9
842,777	17,24
842,952	54,1
843,126	19,29
843,301	117,59
843,476	174,93
843,65	570,19
843,825	764,75
843,999	1102,66
844,173	1149,76
844,348	1393,47
844,522	1672
844,697	1606,46
844,871	1340,22
845,045	1413,95
845,22	1149,76
845,394	1182,53
845,568	1057,61
845,743	1024,84
845,917	865,1
846,091	750,41
846,265	691,02
846,44	680,78
846,614	562
846,788	514,89
846,962	553,8
847,136	625,48
847,31	369,49
847,485	607,05
847,659	385,87
847,833	586,57
848,007	420,69
848,181	432,97
848,355	342,86
848,529	375,63
848,703	185,17
848,877	70,48
849,051	148,31
849,225	123,73
849,399	25,43
849,573	-85,16
849,746	-9,39
849,92	113,49
850,094	101,2
850,268	33,62
850,442	136,02
850,616	66,39
850,789	-48,3
850,963	-5,29
851,137	-9,39
851,311	99,16
851,484	33,62
851,658	50
851,832	19,29
852,005	-31,91
852,179	23,38
852,352	52,05
852,526	-11,43
852,7	27,48
852,873	-29,87
853,047	86,87
853,22	33,62
853,394	33,62
853,567	93,01
853,741	-3,24
853,914	29,52
854,088	136,02
854,261	27,48
854,434	2,9
854,608	41,81
854,781	-15,53
854,955	4,95
855,128	70,48
855,301	-17,58
855,475	105,3
855,648	41,81
855,821	99,16
855,994	72,53
856,168	74,58
856,341	64,34
856,514	17,24
856,687	50
856,86	58,2
857,033	76,63
857,207	62,29
857,38	29,52
857,553	156,5
857,726	54,1
857,899	7
858,072	-15,53
858,245	9,05
858,418	123,73
858,591	58,2
858,764	119,64
858,937	123,73
859,11	58,2
859,283	45,91
859,455	-70,83
859,628	41,81
859,801	197,46
859,974	160,59
860,147	-52,39
860,32	142,16
860,492	-13,48
860,665	-48,3
860,838	25,43
861,011	62,29
861,183	17,24
861,356	140,12
861,529	86,87
861,701	21,33
861,874	90,96
862,047	164,69
862,219	35,67
862,392	82,77
862,564	19,29
862,737	-7,34
862,909	50
863,082	-23,72
863,254	76,63
863,427	4,95
863,599	60,24
863,772	25,43
863,944	58,2
864,117	56,15
864,289	-29,87
864,461	-21,67
864,634	99,16
864,806	-54,44
864,978	133,97
865,151	-7,34
865,323	103,25
865,495	174,93
865,667	-31,91
865,84	156,5
866,012	13,14
866,184	93,01
866,356	-7,34
866,528	66,39
866,7	-44,2
866,873	13,14
867,045	41,81
867,217	13,14
867,389	-7,34
867,561	-44,2
867,733	29,52
867,905	50
868,077	60,24
868,249	9,05
868,421	25,43
868,593	-31,91
868,765	90,96
868,936	-15,53
869,108	170,83
869,28	115,54
869,452	68,44
869,624	88,92
869,796	101,2
869,968	11,09
870,139	148,31
870,311	-29,87
870,483	19,29
870,654	17,24
870,826	17,24
870,998	68,44
871,17	-15,53
871,341	-7,34
871,513	90,96
871,684	35,67
871,856	2,9
872,028	123,73
872,199	-3,24
872,371	-74,92
872,542	-11,43
872,714	25,43
872,885	86,87
873,057	90,96
873,228	41,81
873,4	37,72
873,571	58,2
873,742	-21,67
873,914	115,54
874,085	27,48
874,256	-15,53
874,428	-29,87
874,599	-7,34
874,77	70,48
874,942	-31,91
875,113	9,05
875,284	2,9
875,455	25,43
875,626	41,81
875,798	33,62
875,969	54,1
876,14	58,2
876,311	29,52
876,482	107,35
876,653	66,39
876,824	174,93
876,995	41,81
877,166	13,14
877,337	74,58
877,508	74,58
877,679	-15,53
877,85	-11,43
878,021	2,9
878,192	82,77
878,363	-23,72
878,534	-95,4
878,705	37,72
878,876	50
879,047	74,58
879,217	-64,68
879,388	66,39
879,559	0,85
879,73	90,96
879,9	-5,29
880,071	27,48
880,242	144,21
880,413	50
880,583	74,58
880,754	86,87
880,924	95,06
881,095	-15,53
881,266	-13,48
881,436	72,53
881,607	142,16
881,777	27,48
881,948	62,29
882,118	52,05
882,289	33,62
882,459	115,54
882,63	29,52
882,8	7
882,971	23,38
883,141	-33,96
883,311	90,96
883,482	136,02
883,652	107,35
883,822	-48,3
883,993	17,24
884,163	58,2
884,333	62,29
884,504	64,34
884,674	74,58
884,844	68,44
885,014	-31,91
885,184	2,9
885,355	-54,44
885,525	17,24
885,695	52,05
885,865	105,3
886,035	76,63
886,205	-19,63
886,375	74,58
886,545	0,85
886,715	7
886,885	25,43
887,055	-38,06
887,225	-29,87
887,395	-11,43
887,565	90,96
887,735	52,05
887,905	21,33
888,075	-31,91
888,244	99,16
888,414	58,2
888,584	99,16
888,754	0,85
888,924	-17,58
889,093	250,71
889,263	70,48
889,433	25,43
889,603	19,29
889,772	11,09
889,942	107,35
890,111	37,72
890,281	88,92
890,451	-40,11
890,62	17,24
890,79	-17,58
890,959	103,25
891,129	-46,25
891,298	54,1
891,468	-85,16
891,637	11,09
891,807	119,64
891,976	144,21
892,146	-60,59
892,315	82,77
892,485	103,25
892,654	-7,34
892,823	43,86
892,993	-64,68
893,162	84,82
893,331	50
893,501	68,44
893,67	138,07
893,839	9,05
894,008	58,2
894,177	129,88
894,347	103,25
894,516	103,25
894,685	103,25
894,854	-23,72
895,023	107,35
895,192	78,68
