Data from h2o_USB4F104161__0__11-48-45-764.txt Node

Date: Tue Apr 14 11:48:45 EDT 2026
User: LaboPhy
Spectrometer: USB4F10416
Trigger mode: 4
Integration Time (sec): 1,000000E-1
Scans to average: 1
Electric dark correction enabled: true
Nonlinearity correction enabled: false
Boxcar width: 0
XAxis mode: Wavelengths
Number of Pixels in Spectrum: 3648
>>>>>Begin Spectral Data<<<<<
177,847	-166,91
178,066	-166,91
178,284	-166,91
178,502	-138,24
178,72	-197,63
178,939	48,13
179,157	56,32
179,375	-19,46
179,593	-74,75
179,812	-5,12
180,03	-19,46
180,248	15,36
180,466	-44,03
180,685	-11,26
180,903	-76,8
181,121	41,98
181,339	89,09
181,557	-11,26
181,775	25,6
181,994	-31,74
182,212	-17,41
182,43	31,74
182,648	5,12
182,866	54,27
183,084	54,27
183,302	1,02
183,52	48,13
183,739	7,17
183,957	48,13
184,175	21,5
184,393	48,13
184,611	66,56
184,829	27,65
185,047	21,5
185,265	41,98
185,483	54,27
185,701	54,27
185,919	78,85
186,137	25,6
186,355	39,94
186,573	97,28
186,791	70,65
187,009	-3,07
187,227	54,27
187,445	48,13
187,663	21,5
187,881	33,79
188,098	62,46
188,316	99,33
188,534	123,9
188,752	21,5
188,97	-44,03
189,188	-15,36
189,406	39,94
189,624	103,42
189,841	39,94
190,059	-35,84
190,277	31,74
190,495	15,36
190,713	123,9
190,931	70,65
191,148	128
191,366	64,51
191,584	21,5
191,802	128
192,019	144,38
192,237	41,98
192,455	31,74
192,673	103,42
192,89	-35,84
193,108	60,42
193,326	-52,22
193,543	48,13
193,761	68,61
193,979	13,31
194,196	23,55
194,414	87,04
194,632	70,65
194,849	5,12
195,067	-76,8
195,285	21,5
195,502	-44,03
195,72	13,31
195,937	41,98
196,155	74,75
196,373	64,51
196,59	-35,84
196,808	3,07
197,025	93,18
197,243	263,16
197,46	119,81
197,678	107,52
197,895	5,12
198,113	33,79
198,33	-78,85
198,548	64,51
198,765	-64,51
198,983	87,04
199,2	66,56
199,418	78,85
199,635	58,37
199,853	87,04
200,07	50,18
200,288	31,74
200,505	37,89
200,722	187,39
200,94	70,65
201,157	25,6
201,375	103,42
201,592	-17,41
201,809	46,08
202,027	74,75
202,244	37,89
202,461	70,65
202,679	99,33
202,896	78,85
203,113	-35,84
203,331	15,36
203,548	31,74
203,765	95,23
203,982	7,17
204,2	33,79
204,417	-17,41
204,634	242,68
204,851	56,32
205,069	78,85
205,286	37,89
205,503	41,98
205,72	5,12
205,937	82,94
206,155	-52,22
206,372	103,42
206,589	-1,02
206,806	132,09
207,023	78,85
207,24	80,89
207,458	74,75
207,675	1,02
207,892	62,46
208,109	-39,94
208,326	50,18
208,543	23,55
208,76	-37,89
208,977	95,23
209,194	66,56
209,411	-7,17
209,628	29,7
209,845	103,42
210,062	39,94
210,279	-35,84
210,496	15,36
210,713	-50,18
210,93	-3,07
211,147	128
211,364	1,02
211,581	3,07
211,798	111,61
212,015	-101,37
212,232	37,89
212,449	78,85
212,666	31,74
212,883	119,81
213,1	56,32
213,317	-3,07
213,533	1,02
213,75	-9,22
213,967	72,7
214,184	5,12
214,401	93,18
214,618	41,98
214,835	29,7
215,051	13,31
215,268	130,05
215,485	31,74
215,702	-27,65
215,919	-60,42
216,135	160,77
216,352	70,65
216,569	-15,36
216,786	60,42
217,002	97,28
217,219	74,75
217,436	35,84
217,652	44,03
217,869	50,18
218,086	130,05
218,302	95,23
218,519	48,13
218,736	35,84
218,952	-41,98
219,169	93,18
219,386	54,27
219,602	46,08
219,819	-39,94
220,036	-33,79
220,252	99,33
220,469	62,46
220,685	82,94
220,902	-39,94
221,118	66,56
221,335	-9,22
221,552	-35,84
221,768	66,56
221,985	-11,26
222,201	140,29
222,418	105,47
222,634	39,94
222,851	62,46
223,067	78,85
223,284	70,65
223,5	121,85
223,716	84,99
223,933	46,08
224,149	13,31
224,366	82,94
224,582	-64,51
224,799	1,02
225,015	15,36
225,231	64,51
225,448	-99,33
225,664	-3,07
225,88	-105,47
226,097	48,13
226,313	87,04
226,529	25,6
226,746	29,7
226,962	29,7
227,178	23,55
227,395	-19,46
227,611	1,02
227,827	7,17
228,044	130,05
228,26	37,89
228,476	52,22
228,692	107,52
228,909	64,51
229,125	46,08
229,341	-3,07
229,557	-9,22
229,773	41,98
229,99	76,8
230,206	5,12
230,422	23,55
230,638	-25,6
230,854	58,37
231,07	-134,14
231,286	87,04
231,503	15,36
231,719	-44,03
231,935	64,51
232,151	27,65
232,367	173,05
232,583	46,08
232,799	54,27
233,015	91,13
233,231	-19,46
233,447	50,18
233,663	-3,07
233,879	37,89
234,095	-35,84
234,311	54,27
234,527	66,56
234,743	89,09
234,959	39,94
235,175	128
235,391	-48,13
235,607	-19,46
235,823	93,18
236,039	-33,79
236,255	33,79
236,471	21,5
236,687	-1,02
236,903	-41,98
237,118	54,27
237,334	5,12
237,55	82,94
237,766	25,6
237,982	111,61
238,198	52,22
238,413	1,02
238,629	95,23
238,845	21,5
239,061	7,17
239,277	-35,84
239,492	-44,03
239,708	37,89
239,924	56,32
240,14	31,74
240,355	140,29
240,571	25,6
240,787	-33,79
241,003	158,72
241,218	46,08
241,434	31,74
241,65	13,31
241,865	-17,41
242,081	99,33
242,297	-3,07
242,512	-5,12
242,728	52,22
242,944	33,79
243,159	46,08
243,375	50,18
243,59	-50,18
243,806	103,42
244,022	56,32
244,237	-91,13
244,453	-27,65
244,668	111,61
244,884	144,38
245,099	78,85
245,315	148,48
245,53	89,09
245,746	103,42
245,961	105,47
246,177	89,09
246,392	107,52
246,608	166,91
246,823	-19,46
247,039	-1,02
247,254	-19,46
247,47	64,51
247,685	31,74
247,9	-52,22
248,116	37,89
248,331	13,31
248,547	119,81
248,762	37,89
248,977	70,65
249,193	64,51
249,408	111,61
249,623	78,85
249,839	-19,46
250,054	-101,37
250,269	21,5
250,485	23,55
250,7	37,89
250,915	15,36
251,13	-23,55
251,346	107,52
251,561	78,85
251,776	146,43
251,991	-48,13
252,207	144,38
252,422	-11,26
252,637	62,46
252,852	33,79
253,067	62,46
253,283	41,98
253,498	46,08
253,713	56,32
253,928	-23,55
254,143	58,37
254,358	29,7
254,573	-44,03
254,788	29,7
255,004	13,31
255,219	-11,26
255,434	54,27
255,649	-11,26
255,864	50,18
256,079	54,27
256,294	25,6
256,509	-39,94
256,724	5,12
256,939	-15,36
257,154	-25,6
257,369	113,66
257,584	82,94
257,799	-74,75
258,014	17,41
258,229	74,75
258,444	68,61
258,659	-1,02
258,874	138,24
259,089	62,46
259,304	27,65
259,518	-41,98
259,733	35,84
259,948	-9,22
260,163	54,27
260,378	84,99
260,593	-1,02
260,808	80,89
261,022	1,02
261,237	91,13
261,452	23,55
261,667	-11,26
261,882	154,62
262,096	103,42
262,311	146,43
262,526	5,12
262,741	-9,22
262,955	-11,26
263,17	33,79
263,385	29,7
263,6	-1,02
263,814	23,55
264,029	15,36
264,244	21,5
264,458	29,7
264,673	80,89
264,888	-5,12
265,102	70,65
265,317	-11,26
265,532	119,81
265,746	72,7
265,961	87,04
266,175	11,26
266,39	29,7
266,605	15,36
266,819	52,22
267,034	15,36
267,248	-68,61
267,463	50,18
267,677	-33,79
267,892	-19,46
268,106	-84,99
268,321	29,7
268,535	46,08
268,75	7,17
268,964	-60,42
269,179	-7,17
269,393	-60,42
269,608	78,85
269,822	-11,26
270,036	-44,03
270,251	29,7
270,465	29,7
270,68	25,6
270,894	-1,02
271,108	187,39
271,323	-27,65
271,537	9,22
271,752	74,75
271,966	-52,22
272,18	-31,74
272,394	54,27
272,609	37,89
272,823	103,42
273,037	46,08
273,252	-44,03
273,466	87,04
273,68	54,27
273,894	105,47
274,109	48,13
274,323	29,7
274,537	113,66
274,751	-35,84
274,966	31,74
275,18	37,89
275,394	-35,84
275,608	-52,22
275,822	-76,8
276,036	37,89
276,25	160,77
276,465	41,98
276,679	89,09
276,893	-39,94
277,107	187,39
277,321	-23,55
277,535	-33,79
277,749	37,89
277,963	70,65
278,177	-9,22
278,391	121,85
278,605	23,55
278,819	95,23
279,033	31,74
279,247	1,02
279,461	54,27
279,675	76,8
279,889	84,99
280,103	62,46
280,317	99,33
280,531	-27,65
280,745	54,27
280,959	21,5
281,173	78,85
281,387	78,85
281,601	70,65
281,815	111,61
282,029	-52,22
282,242	-7,17
282,456	-50,18
282,67	121,85
282,884	-11,26
283,098	91,13
283,312	13,31
283,525	-9,22
283,739	70,65
283,953	-25,6
284,167	103,42
284,381	62,46
284,594	13,31
284,808	13,31
285,022	-132,09
285,235	15,36
285,449	21,5
285,663	37,89
285,877	-11,26
286,09	-11,26
286,304	121,85
286,518	25,6
286,731	-52,22
286,945	64,51
287,159	-60,42
287,372	15,36
287,586	33,79
287,799	29,7
288,013	-9,22
288,227	58,37
288,44	209,92
288,654	70,65
288,867	-7,17
289,081	50,18
289,294	15,36
289,508	78,85
289,721	-19,46
289,935	72,7
290,148	99,33
290,362	142,33
290,575	48,13
290,789	-41,98
291,002	-17,41
291,216	-35,84
291,429	56,32
291,643	-15,36
291,856	-3,07
292,069	35,84
292,283	-33,79
292,496	84,99
292,71	76,8
292,923	-33,79
293,136	37,89
293,35	64,51
293,563	5,12
293,776	41,98
293,99	91,13
294,203	-11,26
294,416	46,08
294,63	21,5
294,843	44,03
295,056	50,18
295,269	-82,94
295,483	-7,17
295,696	-27,65
295,909	13,31
296,122	91,13
296,335	111,61
296,549	35,84
296,762	-29,7
296,975	21,5
297,188	-7,17
297,401	5,12
297,615	17,41
297,828	-58,37
298,041	152,57
298,254	-1,02
298,467	84,99
298,68	21,5
298,893	82,94
299,106	9,22
299,319	105,47
299,532	62,46
299,745	-7,17
299,958	21,5
300,171	-44,03
300,384	56,32
300,598	-97,28
300,81	56,32
301,023	27,65
301,236	-15,36
301,449	150,53
301,662	-17,41
301,875	-23,55
302,088	46,08
302,301	-93,18
302,514	-1,02
302,727	101,37
302,94	-52,22
303,153	46,08
303,366	-15,36
303,579	-74,75
303,791	95,23
304,004	-3,07
304,217	3,07
304,43	5,12
304,643	70,65
304,855	-39,94
305,068	95,23
305,281	68,61
305,494	76,8
305,707	29,7
305,919	218,11
306,132	115,71
306,345	29,7
306,558	76,8
306,77	-52,22
306,983	-31,74
307,196	109,57
307,408	54,27
307,621	46,08
307,834	62,46
308,046	103,42
308,259	25,6
308,472	95,23
308,684	44,03
308,897	-19,46
309,109	5,12
309,322	3,07
309,535	87,04
309,747	136,19
309,96	107,52
310,172	134,14
310,385	93,18
310,597	37,89
310,81	72,7
311,022	15,36
311,235	-23,55
311,447	-33,79
311,66	50,18
311,872	107,52
312,085	70,65
312,297	5,12
312,51	-76,8
312,722	-15,36
312,934	144,38
313,147	21,5
313,359	-11,26
313,572	29,7
313,784	64,51
313,996	105,47
314,209	179,2
314,421	17,41
314,633	-3,07
314,846	21,5
315,058	125,95
315,27	121,85
315,483	-11,26
315,695	140,29
315,907	37,89
316,119	23,55
316,332	9,22
316,544	197,63
316,756	105,47
316,968	113,66
317,181	72,7
317,393	27,65
317,605	31,74
317,817	62,46
318,029	91,13
318,241	15,36
318,454	64,51
318,666	39,94
318,878	-35,84
319,09	-15,36
319,302	62,46
319,514	44,03
319,726	56,32
319,938	50,18
320,15	130,05
320,362	21,5
320,574	-44,03
320,786	-105,47
320,999	-21,5
321,211	64,51
321,423	97,28
321,635	11,26
321,847	84,99
322,058	-54,27
322,27	-19,46
322,482	91,13
322,694	70,65
322,906	70,65
323,118	58,37
323,33	54,27
323,542	60,42
323,754	-56,32
323,966	-3,07
324,178	50,18
324,389	50,18
324,601	111,61
324,813	95,23
325,025	41,98
325,237	21,5
325,449	95,23
325,66	78,85
325,872	29,7
326,084	7,17
326,296	15,36
326,507	13,31
326,719	48,13
326,931	-29,7
327,143	68,61
327,354	179,2
327,566	125,95
327,778	99,33
327,989	21,5
328,201	39,94
328,413	-3,07
328,624	144,38
328,836	-19,46
329,048	-9,22
329,259	54,27
329,471	54,27
329,682	68,61
329,894	37,89
330,106	5,12
330,317	64,51
330,529	70,65
330,74	5,12
330,952	66,56
331,163	-19,46
331,375	87,04
331,586	121,85
331,798	-60,42
332,009	15,36
332,221	31,74
332,432	111,61
332,644	23,55
332,855	15,36
333,067	52,22
333,278	-35,84
333,489	177,15
333,701	7,17
333,912	-35,84
334,124	5,12
334,335	5,12
334,546	46,08
334,758	95,23
334,969	218,11
335,18	7,17
335,392	95,23
335,603	164,86
335,814	115,71
336,025	78,85
336,237	160,77
336,448	91,13
336,659	146,43
336,87	220,16
337,082	203,77
337,293	121,85
337,504	125,95
337,715	80,89
337,926	154,62
338,138	46,08
338,349	103,42
338,56	87,04
338,771	21,5
338,982	44,03
339,193	54,27
339,404	119,81
339,616	62,46
339,827	17,41
340,038	-9,22
340,249	46,08
340,46	-11,26
340,671	82,94
340,882	95,23
341,093	15,36
341,304	-31,74
341,515	-39,94
341,726	-7,17
341,937	66,56
342,148	29,7
342,359	1,02
342,57	7,17
342,781	87,04
342,992	68,61
343,203	-23,55
343,414	15,36
343,624	-17,41
343,835	9,22
344,046	17,41
344,257	82,94
344,468	-3,07
344,679	9,22
344,89	17,41
345,1	-3,07
345,311	13,31
345,522	-23,55
345,733	62,46
345,944	21,5
346,154	76,8
346,365	119,81
346,576	97,28
346,787	-44,03
346,997	17,41
347,208	103,42
347,419	-41,98
347,629	128
347,84	132,09
348,051	-19,46
348,261	70,65
348,472	-23,55
348,683	78,85
348,893	-25,6
349,104	7,17
349,315	87,04
349,525	-21,5
349,736	-9,22
349,946	93,18
350,157	103,42
350,368	115,71
350,578	7,17
350,789	119,81
350,999	21,5
351,21	121,85
351,42	13,31
351,631	89,09
351,841	107,52
352,052	78,85
352,262	119,81
352,472	13,31
352,683	130,05
352,893	78,85
353,104	50,18
353,314	152,57
353,525	508,92
353,735	128
353,945	160,77
354,156	25,6
354,366	146,43
354,576	162,81
354,787	160,77
354,997	9,22
355,207	46,08
355,418	128
355,628	99,33
355,838	37,89
356,048	152,57
356,259	132,09
356,469	156,67
356,679	230,4
356,889	119,81
357,1	72,7
357,31	91,13
357,52	222,2
357,73	72,7
357,94	21,5
358,15	103,42
358,361	66,56
358,571	46,08
358,781	91,13
358,991	-72,7
359,201	48,13
359,411	-1,02
359,621	39,94
359,831	148,48
360,041	56,32
360,251	70,65
360,461	95,23
360,672	-25,6
360,882	5,12
361,092	46,08
361,302	99,33
361,512	95,23
361,721	9,22
361,931	54,27
362,141	13,31
362,351	31,74
362,561	109,57
362,771	80,89
362,981	109,57
363,191	62,46
363,401	134,14
363,611	62,46
363,821	9,22
364,03	-56,32
364,24	128
364,45	130,05
364,66	340,99
364,87	121,85
365,08	25,6
365,289	-44,03
365,499	-29,7
365,709	72,7
365,919	41,98
366,128	13,31
366,338	62,46
366,548	17,41
366,758	29,7
366,967	50,18
367,177	162,81
367,387	-11,26
367,596	-19,46
367,806	46,08
368,016	-15,36
368,225	54,27
368,435	148,48
368,644	-44,03
368,854	111,61
369,064	78,85
369,273	158,72
369,483	41,98
369,692	7,17
369,902	37,89
370,111	115,71
370,321	95,23
370,53	54,27
370,74	74,75
370,949	78,85
371,159	119,81
371,368	66,56
371,578	103,42
371,787	78,85
371,997	115,71
372,206	62,46
372,416	50,18
372,625	177,15
372,834	25,6
373,044	56,32
373,253	103,42
373,462	19,46
373,672	123,9
373,881	103,42
374,09	128
374,3	50,18
374,509	168,96
374,718	56,32
374,928	242,68
375,137	199,68
375,346	152,57
375,555	226,3
375,765	58,37
375,974	80,89
376,183	158,72
376,392	46,08
376,601	105,47
376,811	105,47
377,02	168,96
377,229	107,52
377,438	72,7
377,647	-15,36
377,856	-1,02
378,065	-37,89
378,275	64,51
378,484	78,85
378,693	95,23
378,902	156,67
379,111	27,65
379,32	123,9
379,529	74,75
379,738	173,05
379,947	209,92
380,156	162,81
380,365	152,57
380,574	119,81
380,783	13,31
380,992	25,6
381,201	76,8
381,41	74,75
381,619	13,31
381,828	15,36
382,037	31,74
382,245	158,72
382,454	103,42
382,663	-35,84
382,872	21,5
383,081	-19,46
383,29	101,37
383,499	101,37
383,707	123,9
383,916	128
384,125	13,31
384,334	29,7
384,542	128
384,751	162,81
384,96	107,52
385,169	-9,22
385,377	50,18
385,586	50,18
385,795	152,57
386,004	140,29
386,212	-11,26
386,421	17,41
386,63	46,08
386,838	95,23
387,047	72,7
387,255	62,46
387,464	136,19
387,673	54,27
387,881	146,43
388,09	187,39
388,298	156,67
388,507	66,56
388,715	87,04
388,924	156,67
389,133	-27,65
389,341	46,08
389,55	54,27
389,758	171,01
389,967	48,13
390,175	95,23
390,383	148,48
390,592	171,01
390,8	105,47
391,009	89,09
391,217	119,81
391,426	189,44
391,634	-3,07
391,842	97,28
392,051	15,36
392,259	54,27
392,467	66,56
392,676	78,85
392,884	70,65
393,092	50,18
393,301	64,51
393,509	152,57
393,717	162,81
393,925	160,77
394,134	29,7
394,342	166,91
394,55	95,23
394,758	103,42
394,967	107,52
395,175	33,79
395,383	78,85
395,591	93,18
395,799	97,28
396,007	70,65
396,216	156,67
396,424	66,56
396,632	128
396,84	60,42
397,048	152,57
397,256	144,38
397,464	78,85
397,672	115,71
397,88	91,13
398,088	152,57
398,296	74,75
398,504	46,08
398,712	54,27
398,92	160,77
399,128	177,15
399,336	132,09
399,544	95,23
399,752	97,28
399,96	222,2
400,168	132,09
400,376	62,46
400,584	216,06
400,792	23,55
401	29,7
401,207	21,5
401,415	9,22
401,623	15,36
401,831	31,74
402,039	123,9
402,247	97,28
402,454	105,47
402,662	70,65
402,87	46,08
403,078	103,42
403,285	168,96
403,493	-11,26
403,701	128
403,909	44,03
404,116	107,52
404,324	56,32
404,532	128
404,739	54,27
404,947	128
405,155	119,81
405,362	160,77
405,57	105,47
405,778	37,89
405,985	105,47
406,193	37,89
406,4	62,46
406,608	154,62
406,816	44,03
407,023	46,08
407,231	37,89
407,438	56,32
407,646	107,52
407,853	62,46
408,061	35,84
408,268	33,79
408,476	-41,98
408,683	168,96
408,89	160,77
409,098	216,06
409,305	185,34
409,513	185,34
409,72	179,2
409,927	252,92
410,135	246,78
410,342	144,38
410,55	326,65
410,757	287,74
410,964	128
411,172	236,54
411,379	144,38
411,586	152,57
411,793	91,13
412,001	31,74
412,208	58,37
412,415	144,38
412,622	99,33
412,83	128
413,037	87,04
413,244	39,94
413,451	111,61
413,658	54,27
413,866	146,43
414,073	99,33
414,28	156,67
414,487	23,55
414,694	148,48
414,901	58,37
415,108	31,74
415,315	87,04
415,522	111,61
415,73	37,89
415,937	-27,65
416,144	-7,17
416,351	70,65
416,558	-25,6
416,765	1,02
416,972	13,31
417,179	35,84
417,386	91,13
417,593	70,65
417,8	-17,41
418,006	95,23
418,213	136,19
418,42	107,52
418,627	171,01
418,834	72,7
419,041	25,6
419,248	46,08
419,455	113,66
419,661	162,81
419,868	70,65
420,075	80,89
420,282	1,02
420,489	121,85
420,696	21,5
420,902	50,18
421,109	62,46
421,316	1,02
421,523	160,77
421,729	105,47
421,936	70,65
422,143	117,76
422,349	82,94
422,556	1,02
422,763	48,13
422,969	144,38
423,176	44,03
423,383	87,04
423,589	312,32
423,796	37,89
424,002	62,46
424,209	87,04
424,416	87,04
424,622	1,02
424,829	103,42
425,035	-11,26
425,242	13,31
425,448	-35,84
425,655	162,81
425,861	31,74
426,068	50,18
426,274	177,15
426,481	46,08
426,687	115,71
426,894	54,27
427,1	13,31
427,306	9,22
427,513	64,51
427,719	117,76
427,926	37,89
428,132	33,79
428,338	7,17
428,545	91,13
428,751	17,41
428,957	39,94
429,163	46,08
429,37	164,86
429,576	66,56
429,782	111,61
429,989	-3,07
430,195	89,09
430,401	-50,18
430,607	25,6
430,813	37,89
431,02	82,94
431,226	44,03
431,432	-7,17
431,638	48,13
431,844	54,27
432,05	-60,42
432,257	144,38
432,463	148,48
432,669	242,68
432,875	250,88
433,081	406,52
433,287	504,82
433,493	549,88
433,699	824,31
433,905	953,33
434,111	1037,3
434,317	1160,17
434,523	959,47
434,729	920,56
434,935	738,29
435,141	594,93
435,347	377,85
435,553	289,79
435,759	218,11
435,965	152,57
436,171	154,62
436,377	168,96
436,582	201,72
436,788	15,36
436,994	164,86
437,2	72,7
437,406	95,23
437,612	156,67
437,818	218,11
438,023	-52,22
438,229	209,92
438,435	78,85
438,641	113,66
438,846	74,75
439,052	78,85
439,258	99,33
439,464	46,08
439,669	95,23
439,875	162,81
440,081	144,38
440,286	-84,99
440,492	7,17
440,698	111,61
440,903	1,02
441,109	168,96
441,314	15,36
441,52	48,13
441,726	68,61
441,931	56,32
442,137	107,52
442,342	74,75
442,548	21,5
442,753	39,94
442,959	21,5
443,164	5,12
443,37	123,9
443,575	23,55
443,781	29,7
443,986	158,72
444,192	-5,12
444,397	48,13
444,602	-48,13
444,808	-13,31
445,013	23,55
445,219	29,7
445,424	103,42
445,629	113,66
445,835	187,39
446,04	91,13
446,245	15,36
446,451	91,13
446,656	-19,46
446,861	50,18
447,066	128
447,272	97,28
447,477	78,85
447,682	-3,07
447,887	70,65
448,093	84,99
448,298	154,62
448,503	25,6
448,708	46,08
448,913	-35,84
449,118	107,52
449,324	72,7
449,529	44,03
449,734	-3,07
449,939	9,22
450,144	197,63
450,349	54,27
450,554	-27,65
450,759	158,72
450,964	154,62
451,169	72,7
451,374	-9,22
451,579	107,52
451,784	29,7
451,989	-23,55
452,194	50,18
452,399	-60,42
452,604	-19,46
452,809	-25,6
453,014	-19,46
453,219	58,37
453,424	111,61
453,629	25,6
453,833	-44,03
454,038	54,27
454,243	50,18
454,448	128
454,653	123,9
454,858	105,47
455,062	54,27
455,267	54,27
455,472	148,48
455,677	7,17
455,882	21,5
456,086	136,19
456,291	56,32
456,496	41,98
456,7	15,36
456,905	111,61
457,11	105,47
457,314	31,74
457,519	21,5
457,724	72,7
457,928	54,27
458,133	87,04
458,338	132,09
458,542	56,32
458,747	-3,07
458,951	-11,26
459,156	97,28
459,36	-17,41
459,565	107,52
459,769	1,02
459,974	56,32
460,178	-25,6
460,383	23,55
460,587	48,13
460,792	70,65
460,996	5,12
461,201	91,13
461,405	25,6
461,61	37,89
461,814	168,96
462,018	-64,51
462,223	-17,41
462,427	72,7
462,631	80,89
462,836	46,08
463,04	95,23
463,244	150,53
463,449	41,98
463,653	87,04
463,857	35,84
464,062	158,72
464,266	-11,26
464,47	72,7
464,674	29,7
464,878	37,89
465,083	17,41
465,287	185,34
465,491	-11,26
465,695	46,08
465,899	-27,65
466,104	39,94
466,308	-9,22
466,512	58,37
466,716	46,08
466,92	109,57
467,124	95,23
467,328	58,37
467,532	146,43
467,736	46,08
467,94	111,61
468,144	70,65
468,348	54,27
468,552	150,53
468,756	132,09
468,96	-19,46
469,164	39,94
469,368	103,42
469,572	46,08
469,776	74,75
469,98	103,42
470,184	50,18
470,388	146,43
470,591	95,23
470,795	138,24
470,999	78,85
471,203	60,42
471,407	1,02
471,611	17,41
471,814	66,56
472,018	-66,56
472,222	78,85
472,426	95,23
472,63	103,42
472,833	105,47
473,037	89,09
473,241	46,08
473,444	123,9
473,648	484,34
473,852	9,22
474,055	29,7
474,259	31,74
474,463	39,94
474,666	91,13
474,87	13,31
475,074	76,8
475,277	89,09
475,481	121,85
475,684	-7,17
475,888	31,74
476,091	29,7
476,295	62,46
476,498	-44,03
476,702	-3,07
476,905	72,7
477,109	87,04
477,312	80,89
477,516	5,12
477,719	111,61
477,923	60,42
478,126	113,66
478,329	-23,55
478,533	-35,84
478,736	46,08
478,94	39,94
479,143	64,51
479,346	27,65
479,55	50,18
479,753	50,18
479,956	-41,98
480,159	7,17
480,363	154,62
480,566	19,46
480,769	29,7
480,972	27,65
481,176	70,65
481,379	132,09
481,582	224,25
481,785	25,6
481,988	54,27
482,192	82,94
482,395	70,65
482,598	25,6
482,801	111,61
483,004	136,19
483,207	33,79
483,41	72,7
483,613	72,7
483,817	119,81
484,02	144,38
484,223	201,72
484,426	721,91
484,629	1305,58
484,832	2032,61
485,035	2786,26
485,238	3748,81
485,441	4846,52
485,644	6386,59
485,846	7867,27
486,049	9210,74
486,252	10132,33
486,455	10756,96
486,658	9921,38
486,861	8756,09
487,064	7386
487,267	5362,61
487,47	4101,06
487,672	2909,14
487,875	1932,26
488,078	1221,61
488,281	881,65
488,484	488,44
488,686	326,65
488,889	197,63
489,092	78,85
489,295	142,33
489,497	164,86
489,7	95,23
489,903	103,42
490,105	95,23
490,308	46,08
490,511	91,13
490,713	62,46
490,916	46,08
491,118	82,94
491,321	93,18
491,524	21,5
491,726	101,37
491,929	72,7
492,131	87,04
492,334	-3,07
492,536	56,32
492,739	17,41
492,941	115,71
493,144	97,28
493,346	103,42
493,549	66,56
493,751	50,18
493,954	95,23
494,156	-19,46
494,359	95,23
494,561	3,07
494,763	113,66
494,966	31,74
495,168	91,13
495,37	-11,26
495,573	33,79
495,775	72,7
495,977	74,75
496,18	78,85
496,382	99,33
496,584	21,5
496,787	146,43
496,989	9,22
497,191	5,12
497,393	121,85
497,595	95,23
497,798	48,13
498	89,09
498,202	78,85
498,404	39,94
498,606	72,7
498,808	123,9
499,011	160,77
499,213	101,37
499,415	72,7
499,617	107,52
499,819	37,89
500,021	113,66
500,223	31,74
500,425	46,08
500,627	95,23
500,829	7,17
501,031	91,13
501,233	-60,42
501,435	103,42
501,637	179,2
501,839	138,24
502,041	29,7
502,243	111,61
502,445	-44,03
502,647	70,65
502,848	25,6
503,05	29,7
503,252	13,31
503,454	70,65
503,656	95,23
503,858	87,04
504,059	103,42
504,261	87,04
504,463	179,2
504,665	-1,02
504,867	62,46
505,068	17,41
505,27	48,13
505,472	87,04
505,673	111,61
505,875	-39,94
506,077	17,41
506,278	56,32
506,48	-11,26
506,682	93,18
506,883	80,89
507,085	41,98
507,287	54,27
507,488	70,65
507,69	107,52
507,891	5,12
508,093	224,25
508,294	64,51
508,496	33,79
508,697	60,42
508,899	62,46
509,1	25,6
509,302	99,33
509,503	54,27
509,705	111,61
509,906	62,46
510,108	-7,17
510,309	29,7
510,51	132,09
510,712	58,37
510,913	64,51
511,114	89,09
511,316	-140,29
511,517	64,51
511,718	5,12
511,92	21,5
512,121	91,13
512,322	50,18
512,524	56,32
512,725	115,71
512,926	37,89
513,127	23,55
513,329	111,61
513,53	-11,26
513,731	74,75
513,932	64,51
514,133	5,12
514,334	-9,22
514,536	140,29
514,737	39,94
514,938	76,8
515,139	113,66
515,34	-23,55
515,541	138,24
515,742	35,84
515,943	91,13
516,144	31,74
516,345	109,57
516,546	25,6
516,747	121,85
516,948	74,75
517,149	103,42
517,35	-27,65
517,551	-3,07
517,752	70,65
517,953	60,42
518,154	97,28
518,355	136,19
518,556	70,65
518,756	144,38
518,957	62,46
519,158	211,96
519,359	146,43
519,56	70,65
519,761	80,89
519,961	144,38
520,162	162,81
520,363	84,99
520,564	-11,26
520,764	177,15
520,965	-3,07
521,166	50,18
521,366	37,89
521,567	37,89
521,768	9,22
521,968	7,17
522,169	78,85
522,37	13,31
522,57	111,61
522,771	78,85
522,972	-62,46
523,172	128
523,373	15,36
523,573	5,12
523,774	58,37
523,974	72,7
524,175	87,04
524,375	66,56
524,576	31,74
524,776	21,5
524,977	17,41
525,177	136,19
525,378	39,94
525,578	99,33
525,778	119,81
525,979	41,98
526,179	70,65
526,38	29,7
526,58	78,85
526,78	74,75
526,981	62,46
527,181	19,46
527,381	58,37
527,582	130,05
527,782	177,15
527,982	87,04
528,182	87,04
528,383	-44,03
528,583	-1,02
528,783	54,27
528,983	-11,26
529,183	-19,46
529,384	54,27
529,584	185,34
529,784	185,34
529,984	54,27
530,184	25,6
530,384	-29,7
530,584	78,85
530,784	103,42
530,984	7,17
531,185	99,33
531,385	136,19
531,585	80,89
531,785	136,19
531,985	82,94
532,185	44,03
532,385	-3,07
532,585	70,65
532,785	78,85
532,984	54,27
533,184	117,76
533,384	111,61
533,584	-15,36
533,784	164,86
533,984	121,85
534,184	-33,79
534,384	62,46
534,583	189,44
534,783	13,31
534,983	46,08
535,183	58,37
535,383	41,98
535,582	3,07
535,782	13,31
535,982	82,94
536,182	62,46
536,381	-44,03
536,581	-52,22
536,781	50,18
536,98	21,5
537,18	54,27
537,38	58,37
537,579	39,94
537,779	41,98
537,979	-54,27
538,178	33,79
538,378	76,8
538,577	-7,17
538,777	-17,41
538,976	-19,46
539,176	107,52
539,376	121,85
539,575	-17,41
539,774	111,61
539,974	15,36
540,173	99,33
540,373	46,08
540,572	1,02
540,772	7,17
540,971	-27,65
541,171	111,61
541,37	9,22
541,569	46,08
541,769	21,5
541,968	-15,36
542,167	76,8
542,367	-11,26
542,566	-3,07
542,765	31,74
542,965	39,94
543,164	-19,46
543,363	-1,02
543,562	3,07
543,761	37,89
543,961	177,15
544,16	-25,6
544,359	115,71
544,558	48,13
544,757	11,26
544,957	87,04
545,156	144,38
545,355	46,08
545,554	39,94
545,753	-58,37
545,952	-15,36
546,151	146,43
546,35	119,81
546,549	41,98
546,748	105,47
546,947	37,89
547,146	29,7
547,345	54,27
547,544	5,12
547,743	11,26
547,942	58,37
548,141	17,41
548,34	82,94
548,539	46,08
548,738	21,5
548,937	111,61
549,135	39,94
549,334	31,74
549,533	72,7
549,732	52,22
549,931	44,03
550,13	56,32
550,328	17,41
550,527	-35,84
550,726	84,99
550,925	-37,89
551,123	105,47
551,322	66,56
551,521	76,8
551,72	72,7
551,918	58,37
552,117	33,79
552,315	-3,07
552,514	48,13
552,713	101,37
552,911	-35,84
553,11	25,6
553,309	60,42
553,507	-19,46
553,706	-11,26
553,904	95,23
554,103	74,75
554,301	35,84
554,5	-46,08
554,698	27,65
554,897	48,13
555,095	-1,02
555,294	-99,33
555,492	-58,37
555,69	107,52
555,889	33,79
556,087	31,74
556,286	162,81
556,484	62,46
556,682	89,09
556,881	87,04
557,079	21,5
557,277	146,43
557,476	13,31
557,674	111,61
557,872	72,7
558,07	62,46
558,269	-52,22
558,467	44,03
558,665	74,75
558,863	-17,41
559,062	74,75
559,26	37,89
559,458	-68,61
559,656	33,79
559,854	48,13
560,052	39,94
560,25	60,42
560,449	195,58
560,647	58,37
560,845	29,7
561,043	121,85
561,241	150,53
561,439	136,19
561,637	13,31
561,835	50,18
562,033	41,98
562,231	-68,61
562,429	-23,55
562,627	-19,46
562,825	-11,26
563,023	54,27
563,221	-35,84
563,418	-31,74
563,616	-27,65
563,814	119,81
564,012	95,23
564,21	31,74
564,408	78,85
564,605	46,08
564,803	31,74
565,001	261,12
565,199	-58,37
565,397	-5,12
565,594	54,27
565,792	138,24
565,99	17,41
566,188	91,13
566,385	103,42
566,583	33,79
566,781	97,28
566,978	80,89
567,176	89,09
567,373	56,32
567,571	-17,41
567,769	41,98
567,966	-25,6
568,164	72,7
568,361	41,98
568,559	109,57
568,756	13,31
568,954	56,32
569,151	99,33
569,349	113,66
569,546	48,13
569,744	119,81
569,941	80,89
570,139	-9,22
570,336	1,02
570,534	119,81
570,731	-11,26
570,928	97,28
571,126	179,2
571,323	152,57
571,52	46,08
571,718	78,85
571,915	46,08
572,112	23,55
572,31	-13,31
572,507	95,23
572,704	29,7
572,901	29,7
573,099	-21,5
573,296	134,14
573,493	33,79
573,69	5,12
573,887	-5,12
574,085	111,61
574,282	50,18
574,479	54,27
574,676	132,09
574,873	44,03
575,07	80,89
575,267	-27,65
575,464	13,31
575,661	29,7
575,858	31,74
576,055	5,12
576,252	138,24
576,449	58,37
576,646	80,89
576,843	95,23
577,04	93,18
577,237	50,18
577,434	136,19
577,631	48,13
577,828	111,61
578,025	48,13
578,222	29,7
578,419	115,71
578,615	-3,07
578,812	23,55
579,009	5,12
579,206	23,55
579,403	128
579,599	156,67
579,796	50,18
579,993	152,57
580,19	3,07
580,386	70,65
580,583	95,23
580,78	80,89
580,976	93,18
581,173	29,7
581,37	82,94
581,566	56,32
581,763	15,36
581,96	72,7
582,156	93,18
582,353	50,18
582,549	152,57
582,746	-23,55
582,942	-52,22
583,139	46,08
583,335	33,79
583,532	54,27
583,728	21,5
583,925	3,07
584,121	-9,22
584,318	179,2
584,514	52,22
584,711	74,75
584,907	-3,07
585,103	-31,74
585,3	103,42
585,496	97,28
585,693	-9,22
585,889	72,7
586,085	29,7
586,281	82,94
586,478	95,23
586,674	1,02
586,87	99,33
587,067	46,08
587,263	119,81
587,459	107,52
587,655	78,85
587,851	134,14
588,048	187,39
588,244	21,5
588,44	87,04
588,636	58,37
588,832	46,08
589,028	132,09
589,224	29,7
589,42	-13,31
589,617	87,04
589,813	95,23
590,009	39,94
590,205	107,52
590,401	103,42
590,597	21,5
590,793	80,89
590,989	33,79
591,185	128
591,38	62,46
591,576	-19,46
591,772	70,65
591,968	48,13
592,164	33,79
592,36	136,19
592,556	-17,41
592,752	146,43
592,948	-54,27
593,143	31,74
593,339	-1,02
593,535	23,55
593,731	41,98
593,926	89,09
594,122	78,85
594,318	37,89
594,514	87,04
594,709	13,31
594,905	93,18
595,101	62,46
595,296	-39,94
595,492	136,19
595,688	111,61
595,883	128
596,079	107,52
596,275	29,7
596,47	89,09
596,666	68,61
596,861	33,79
597,057	31,74
597,252	17,41
597,448	84,99
597,643	93,18
597,839	201,72
598,034	39,94
598,23	37,89
598,425	82,94
598,621	91,13
598,816	-23,55
599,011	80,89
599,207	13,31
599,402	-7,17
599,597	138,24
599,793	103,42
599,988	31,74
600,183	95,23
600,379	89,09
600,574	72,7
600,769	99,33
600,965	87,04
601,16	37,89
601,355	-15,36
601,55	89,09
601,745	115,71
601,941	138,24
602,136	203,77
602,331	64,51
602,526	130,05
602,721	68,61
602,916	177,15
603,111	72,7
603,307	95,23
603,502	89,09
603,697	-35,84
603,892	97,28
604,087	70,65
604,282	146,43
604,477	146,43
604,672	111,61
604,867	54,27
605,062	56,32
605,257	64,51
605,452	103,42
605,646	119,81
605,841	91,13
606,036	50,18
606,231	-9,22
606,426	17,41
606,621	25,6
606,816	95,23
607,01	119,81
607,205	46,08
607,4	62,46
607,595	125,95
607,79	87,04
607,984	48,13
608,179	87,04
608,374	35,84
608,569	99,33
608,763	50,18
608,958	-19,46
609,153	168,96
609,347	152,57
609,542	54,27
609,736	146,43
609,931	66,56
610,126	29,7
610,32	13,31
610,515	46,08
610,709	263,16
610,904	13,31
611,098	-56,32
611,293	-25,6
611,487	39,94
611,682	3,07
611,876	74,75
612,071	46,08
612,265	103,42
612,46	9,22
612,654	70,65
612,848	41,98
613,043	39,94
613,237	60,42
613,432	-11,26
613,626	21,5
613,82	29,7
614,014	156,67
614,209	95,23
614,403	-66,56
614,597	173,05
614,792	113,66
614,986	173,05
615,18	361,47
615,374	259,07
615,568	279,55
615,763	308,22
615,957	316,41
616,151	345,08
616,345	340,99
616,539	316,41
616,733	236,54
616,927	162,81
617,121	121,85
617,316	228,35
617,51	130,05
617,704	177,15
617,898	103,42
618,092	-25,6
618,286	87,04
618,48	-15,36
618,674	142,33
618,868	62,46
619,061	41,98
619,255	117,76
619,449	1,02
619,643	-13,31
619,837	179,2
620,031	15,36
620,225	103,42
620,419	13,31
620,612	121,85
620,806	91,13
621	109,57
621,194	-44,03
621,388	19,46
621,581	82,94
621,775	21,5
621,969	41,98
622,162	56,32
622,356	-27,65
622,55	78,85
622,743	-1,02
622,937	35,84
623,131	23,55
623,324	152,57
623,518	-27,65
623,712	-41,98
623,905	70,65
624,099	107,52
624,292	54,27
624,486	64,51
624,679	62,46
624,873	37,89
625,066	74,75
625,26	21,5
625,453	-35,84
625,647	-3,07
625,84	35,84
626,034	97,28
626,227	76,8
626,42	78,85
626,614	-13,31
626,807	101,37
627	21,5
627,194	56,32
627,387	103,42
627,58	13,31
627,774	33,79
627,967	84,99
628,16	58,37
628,353	17,41
628,547	168,96
628,74	179,2
628,933	15,36
629,126	70,65
629,319	105,47
629,513	91,13
629,706	62,46
629,899	97,28
630,092	46,08
630,285	21,5
630,478	25,6
630,671	-3,07
630,864	103,42
631,057	23,55
631,25	72,7
631,443	121,85
631,636	58,37
631,829	119,81
632,022	148,48
632,215	103,42
632,408	103,42
632,601	136,19
632,794	-21,5
632,987	35,84
633,18	41,98
633,373	121,85
633,566	103,42
633,758	95,23
633,951	87,04
634,144	152,57
634,337	70,65
634,53	78,85
634,722	136,19
634,915	74,75
635,108	41,98
635,301	80,89
635,493	78,85
635,686	205,82
635,879	74,75
636,071	7,17
636,264	93,18
636,457	156,67
636,649	29,7
636,842	109,57
637,034	105,47
637,227	97,28
637,42	152,57
637,612	35,84
637,805	5,12
637,997	111,61
638,19	78,85
638,382	54,27
638,575	101,37
638,767	62,46
638,96	171,01
639,152	35,84
639,344	121,85
639,537	5,12
639,729	5,12
639,922	99,33
640,114	15,36
640,306	48,13
640,499	107,52
640,691	62,46
640,883	21,5
641,075	48,13
641,268	103,42
641,46	31,74
641,652	-11,26
641,844	31,74
642,037	5,12
642,229	31,74
642,421	89,09
642,613	54,27
642,805	29,7
642,998	15,36
643,19	64,51
643,382	168,96
643,574	70,65
643,766	64,51
643,958	142,33
644,15	97,28
644,342	148,48
644,534	154,62
644,726	-7,17
644,918	173,05
645,11	56,32
645,302	95,23
645,494	177,15
645,686	107,52
645,878	95,23
646,07	218,11
646,262	130,05
646,453	70,65
646,645	46,08
646,837	185,34
647,029	148,48
647,221	56,32
647,413	64,51
647,604	144,38
647,796	70,65
647,988	193,53
648,18	87,04
648,371	17,41
648,563	37,89
648,755	95,23
648,947	-39,94
649,138	25,6
649,33	128
649,521	185,34
649,713	64,51
649,905	146,43
650,096	152,57
650,288	144,38
650,479	-1,02
650,671	109,57
650,863	91,13
651,054	54,27
651,246	177,15
651,437	150,53
651,629	234,49
651,82	166,91
652,011	185,34
652,203	220,16
652,394	121,85
652,586	189,44
652,777	95,23
652,968	218,11
653,16	154,62
653,351	201,72
653,542	326,65
653,734	173,05
653,925	201,72
654,116	353,27
654,308	353,27
654,499	508,92
654,69	1520,62
654,881	4750,26
655,073	10097,51
655,264	17404,66
655,455	25881,21
655,646	36983,24
655,837	47130,93
656,028	56242,34
656,219	62179,4
656,411	64213,04
656,602	64213,04
656,793	64213,04
656,984	63692,85
657,175	57813,13
657,366	52766,94
657,557	44276,06
657,748	37906,88
657,939	32846,35
658,13	27875,93
658,321	22993,57
658,512	17781,49
658,703	12874,56
658,894	8301,44
659,084	5206,96
659,275	3390,41
659,466	2087,9
659,657	1432,55
659,848	1049,58
660,039	816,12
660,23	588,79
660,42	383,99
660,611	422,91
660,802	310,27
660,993	259,07
661,183	211,96
661,374	291,84
661,565	283,64
661,755	263,16
661,946	128
662,137	207,87
662,327	173,05
662,518	103,42
662,709	78,85
662,899	101,37
663,09	97,28
663,28	103,42
663,471	70,65
663,662	220,16
663,852	146,43
664,043	97,28
664,233	130,05
664,424	111,61
664,614	41,98
664,804	-37,89
664,995	205,82
665,185	138,24
665,376	54,27
665,566	146,43
665,756	50,18
665,947	78,85
666,137	95,23
666,328	160,77
666,518	41,98
666,708	87,04
666,898	54,27
667,089	128
667,279	95,23
667,469	7,17
667,659	89,09
667,85	144,38
668,04	48,13
668,23	74,75
668,42	33,79
668,61	5,12
668,8	76,8
668,991	103,42
669,181	123,9
669,371	48,13
669,561	62,46
669,751	181,25
669,941	123,9
670,131	62,46
670,321	105,47
670,511	62,46
670,701	62,46
670,891	64,51
671,081	119,81
671,271	46,08
671,461	-80,89
671,651	115,71
671,841	37,89
672,03	164,86
672,22	-31,74
672,41	132,09
672,6	87,04
672,79	103,42
672,98	54,27
673,169	13,31
673,359	23,55
673,549	111,61
673,739	-41,98
673,928	-27,65
674,118	78,85
674,308	48,13
674,497	93,18
674,687	-91,13
674,877	78,85
675,066	87,04
675,256	78,85
675,446	41,98
675,635	37,89
675,825	31,74
676,014	19,46
676,204	80,89
676,393	80,89
676,583	70,65
676,772	91,13
676,962	31,74
677,151	17,41
677,341	-17,41
677,53	23,55
677,72	37,89
677,909	37,89
678,099	-9,22
678,288	11,26
678,477	72,7
678,667	39,94
678,856	154,62
679,045	91,13
679,235	21,5
679,424	89,09
679,613	119,81
679,802	136,19
679,992	-35,84
680,181	54,27
680,37	97,28
680,559	84,99
680,748	113,66
680,938	54,27
681,127	17,41
681,316	115,71
681,505	23,55
681,694	46,08
681,883	70,65
682,072	39,94
682,261	-9,22
682,45	-33,79
682,639	72,7
682,828	70,65
683,017	160,77
683,206	41,98
683,395	62,46
683,584	197,63
683,773	117,76
683,962	13,31
684,151	-11,26
684,34	84,99
684,529	44,03
684,718	46,08
684,907	-9,22
685,095	15,36
685,284	152,57
685,473	78,85
685,662	-52,22
685,851	54,27
686,039	60,42
686,228	41,98
686,417	-74,75
686,606	115,71
686,794	50,18
686,983	-11,26
687,172	25,6
687,36	-91,13
687,549	41,98
687,738	5,12
687,926	-33,79
688,115	-35,84
688,303	62,46
688,492	-11,26
688,68	-68,61
688,869	-60,42
689,057	-17,41
689,246	13,31
689,434	29,7
689,623	-33,79
689,811	97,28
690	-60,42
690,188	-44,03
690,377	89,09
690,565	31,74
690,753	103,42
690,942	48,13
691,13	89,09
691,318	70,65
691,507	-35,84
691,695	39,94
691,883	70,65
692,072	46,08
692,26	78,85
692,448	93,18
692,636	-35,84
692,824	-105,47
693,013	156,67
693,201	119,81
693,389	1,02
693,577	62,46
693,765	95,23
693,953	-35,84
694,141	15,36
694,329	-107,52
694,518	113,66
694,706	58,37
694,894	33,79
695,082	11,26
695,27	7,17
695,458	80,89
695,646	101,37
695,834	91,13
696,022	-48,13
696,209	-23,55
696,397	46,08
696,585	-3,07
696,773	62,46
696,961	107,52
697,149	1,02
697,337	54,27
697,525	21,5
697,712	13,31
697,9	41,98
698,088	46,08
698,276	60,42
698,463	123,9
698,651	29,7
698,839	76,8
699,027	-3,07
699,214	9,22
699,402	7,17
699,59	35,84
699,777	-13,31
699,965	39,94
700,152	-29,7
700,34	23,55
700,528	54,27
700,715	1,02
700,903	46,08
701,09	5,12
701,278	37,89
701,465	162,81
701,653	15,36
701,84	-11,26
702,028	91,13
702,215	-7,17
702,402	37,89
702,59	13,31
702,777	46,08
702,965	9,22
703,152	27,65
703,339	113,66
703,527	23,55
703,714	35,84
703,901	62,46
704,088	-15,36
704,276	29,7
704,463	56,32
704,65	15,36
704,837	39,94
705,025	54,27
705,212	54,27
705,399	107,52
705,586	46,08
705,773	66,56
705,96	52,22
706,147	-5,12
706,335	54,27
706,522	103,42
706,709	-19,46
706,896	1,02
707,083	1,02
707,27	87,04
707,457	123,9
707,644	70,65
707,831	-3,07
708,018	-56,32
708,205	-25,6
708,392	15,36
708,578	152,57
708,765	-84,99
708,952	-82,94
709,139	-33,79
709,326	29,7
709,513	62,46
709,7	66,56
709,886	72,7
710,073	103,42
710,26	152,57
710,447	-7,17
710,633	17,41
710,82	-35,84
711,007	72,7
711,193	5,12
711,38	37,89
711,567	13,31
711,753	23,55
711,94	111,61
712,127	-31,74
712,313	111,61
712,5	-1,02
712,686	99,33
712,873	-15,36
713,059	19,46
713,246	113,66
713,432	46,08
713,619	-29,7
713,805	-1,02
713,992	60,42
714,178	46,08
714,365	54,27
714,551	189,44
714,737	56,32
714,924	-87,04
715,11	76,8
715,297	31,74
715,483	25,6
715,669	78,85
715,855	-19,46
716,042	62,46
716,228	-11,26
716,414	154,62
716,6	-23,55
716,787	99,33
716,973	15,36
717,159	50,18
717,345	19,46
717,531	-15,36
717,718	-1,02
717,904	13,31
718,09	29,7
718,276	64,51
718,462	29,7
718,648	62,46
718,834	-31,74
719,02	138,24
719,206	78,85
719,392	-1,02
719,578	64,51
719,764	-33,79
719,95	-60,42
720,136	111,61
720,322	21,5
720,508	64,51
720,694	13,31
720,879	-50,18
721,065	89,09
721,251	-3,07
721,437	64,51
721,623	187,39
721,809	144,38
721,994	62,46
722,18	33,79
722,366	3,07
722,552	48,13
722,737	-23,55
722,923	48,13
723,109	46,08
723,294	-17,41
723,48	138,24
723,666	99,33
723,851	21,5
724,037	119,81
724,222	136,19
724,408	54,27
724,593	89,09
724,779	-19,46
724,965	95,23
725,15	39,94
725,336	103,42
725,521	119,81
725,706	17,41
725,892	70,65
726,077	-19,46
726,263	68,61
726,448	136,19
726,634	31,74
726,819	144,38
727,004	97,28
727,19	78,85
727,375	107,52
727,56	-3,07
727,745	-31,74
727,931	136,19
728,116	-46,08
728,301	54,27
728,486	103,42
728,672	29,7
728,857	21,5
729,042	9,22
729,227	-41,98
729,412	80,89
729,597	60,42
729,783	31,74
729,968	50,18
730,153	72,7
730,338	37,89
730,523	72,7
730,708	21,5
730,893	39,94
731,078	44,03
731,263	39,94
731,448	-76,8
731,633	-11,26
731,818	-132,09
732,003	-52,22
732,187	-60,42
732,372	11,26
732,557	74,75
732,742	-66,56
732,927	25,6
733,112	89,09
733,297	48,13
733,481	-46,08
733,666	78,85
733,851	97,28
734,036	21,5
734,22	-33,79
734,405	181,25
734,59	-19,46
734,774	78,85
734,959	97,28
735,144	54,27
735,328	37,89
735,513	-23,55
735,698	115,71
735,882	113,66
736,067	97,28
736,251	80,89
736,436	-56,32
736,62	68,61
736,805	-19,46
736,989	1,02
737,174	7,17
737,358	-54,27
737,543	21,5
737,727	101,37
737,911	211,96
738,096	9,22
738,28	35,84
738,465	64,51
738,649	66,56
738,833	128
739,018	5,12
739,202	-58,37
739,386	-5,12
739,57	-39,94
739,755	105,47
739,939	37,89
740,123	-44,03
740,307	13,31
740,491	23,55
740,676	-5,12
740,86	50,18
741,044	-19,46
741,228	21,5
741,412	-19,46
741,596	-19,46
741,78	15,36
741,964	-11,26
742,148	74,75
742,332	37,89
742,516	-56,32
742,7	50,18
742,884	13,31
743,068	1,02
743,252	58,37
743,436	93,18
743,62	-119,81
743,804	218,11
743,988	189,44
744,172	78,85
744,356	-27,65
744,539	41,98
744,723	5,12
744,907	64,51
745,091	46,08
745,275	95,23
745,458	62,46
745,642	-1,02
745,826	37,89
746,009	105,47
746,193	56,32
746,377	113,66
746,56	25,6
746,744	160,77
746,928	37,89
747,111	144,38
747,295	-13,31
747,478	39,94
747,662	-35,84
747,846	95,23
748,029	97,28
748,213	89,09
748,396	136,19
748,58	23,55
748,763	29,7
748,946	-60,42
749,13	111,61
749,313	46,08
749,497	144,38
749,68	128
749,863	123,9
750,047	1,02
750,23	107,52
750,413	148,48
750,597	50,18
750,78	46,08
750,963	107,52
751,146	-54,27
751,33	21,5
751,513	41,98
751,696	58,37
751,879	74,75
752,062	37,89
752,246	46,08
752,429	89,09
752,612	58,37
752,795	15,36
752,978	-15,36
753,161	-64,51
753,344	46,08
753,527	72,7
753,71	87,04
753,893	-17,41
754,076	-27,65
754,259	60,42
754,442	-48,13
754,625	-5,12
754,808	87,04
754,991	64,51
755,174	-50,18
755,357	62,46
755,539	54,27
755,722	121,85
755,905	97,28
756,088	-17,41
756,271	37,89
756,453	41,98
756,636	-60,42
756,819	29,7
757,002	-15,36
757,184	128
757,367	60,42
757,55	87,04
757,732	152,57
757,915	23,55
758,098	37,89
758,28	31,74
758,463	91,13
758,645	78,85
758,828	80,89
759,011	74,75
759,193	33,79
759,376	78,85
759,558	-64,51
759,741	56,32
759,923	-64,51
760,105	44,03
760,288	52,22
760,47	-93,18
760,653	62,46
760,835	95,23
761,017	9,22
761,2	25,6
761,382	158,72
761,564	15,36
761,747	164,86
761,929	25,6
762,111	46,08
762,294	62,46
762,476	189,44
762,658	93,18
762,84	132,09
763,022	-23,55
763,205	33,79
763,387	89,09
763,569	31,74
763,751	-58,37
763,933	-41,98
764,115	-44,03
764,297	37,89
764,479	121,85
764,661	72,7
764,843	111,61
765,025	107,52
765,207	62,46
765,389	15,36
765,571	-35,84
765,753	46,08
765,935	52,22
766,117	132,09
766,299	113,66
766,481	171,01
766,663	31,74
766,845	17,41
767,026	80,89
767,208	50,18
767,39	-1,02
767,572	3,07
767,753	48,13
767,935	5,12
768,117	-3,07
768,299	148,48
768,48	21,5
768,662	136,19
768,844	-15,36
769,025	132,09
769,207	-37,89
769,389	-19,46
769,57	62,46
769,752	103,42
769,933	-11,26
770,115	171,01
770,296	29,7
770,478	144,38
770,659	-21,5
770,841	279,55
771,022	54,27
771,204	119,81
771,385	3,07
771,567	119,81
771,748	132,09
771,929	23,55
772,111	21,5
772,292	70,65
772,473	46,08
772,655	146,43
772,836	25,6
773,017	89,09
773,199	15,36
773,38	52,22
773,561	111,61
773,742	87,04
773,923	-3,07
774,105	107,52
774,286	37,89
774,467	-11,26
774,648	64,51
774,829	80,89
775,01	-17,41
775,191	-11,26
775,372	-19,46
775,553	66,56
775,734	39,94
775,915	111,61
776,096	441,34
776,277	1053,68
776,458	1760,23
776,639	2743,25
776,82	3503,05
777,001	4121,54
777,182	5075,89
777,363	5551,02
777,544	5854,12
777,725	5567,4
777,906	4889,53
778,086	4240,32
778,267	3724,23
778,448	3013,59
778,629	2419,68
778,809	2046,94
778,99	1635,3
779,171	1373,16
779,352	1326,06
779,532	1199,09
779,713	1145,84
779,894	1129,45
780,074	1164,27
780,255	924,66
780,435	910,32
780,616	713,72
780,797	498,68
780,977	318,46
781,158	130,05
781,338	222,2
781,519	171,01
781,699	324,6
781,88	48,13
782,06	103,42
782,241	37,89
782,421	-27,65
782,601	111,61
782,782	54,27
782,962	37,89
783,142	-52,22
783,323	9,22
783,503	87,04
783,683	103,42
783,864	107,52
784,044	95,23
784,224	113,66
784,404	54,27
784,585	121,85
784,765	46,08
784,945	162,81
785,125	5,12
785,305	107,52
785,485	171,01
785,666	78,85
785,846	25,6
786,026	-33,79
786,206	-3,07
786,386	95,23
786,566	-7,17
786,746	46,08
786,926	87,04
787,106	7,17
787,286	50,18
787,466	5,12
787,646	11,26
787,826	54,27
788,006	87,04
788,185	15,36
788,365	13,31
788,545	111,61
788,725	21,5
788,905	39,94
789,085	-9,22
789,264	-60,42
789,444	76,8
789,624	39,94
789,804	15,36
789,983	97,28
790,163	46,08
790,343	60,42
790,522	78,85
790,702	78,85
790,882	-44,03
791,061	138,24
791,241	50,18
791,42	-5,12
791,6	103,42
791,78	70,65
791,959	-35,84
792,139	-39,94
792,318	-35,84
792,498	62,46
792,677	97,28
792,856	-35,84
793,036	66,56
793,215	17,41
793,395	148,48
793,574	21,5
793,753	25,6
793,933	97,28
794,112	56,32
794,291	60,42
794,471	140,29
794,65	-1,02
794,829	46,08
795,008	48,13
795,188	78,85
795,367	121,85
795,546	115,71
795,725	78,85
795,904	29,7
796,084	99,33
796,263	-46,08
796,442	128
796,621	25,6
796,8	91,13
796,979	62,46
797,158	-74,75
797,337	-41,98
797,516	171,01
797,695	72,7
797,874	95,23
798,053	111,61
798,232	95,23
798,411	58,37
798,59	-74,75
798,769	-52,22
798,947	87,04
799,126	44,03
799,305	89,09
799,484	50,18
799,663	52,22
799,842	29,7
800,02	54,27
800,199	-56,32
800,378	39,94
800,557	7,17
800,735	-78,85
800,914	66,56
801,093	23,55
801,271	44,03
801,45	64,51
801,628	46,08
801,807	-39,94
801,986	46,08
802,164	29,7
802,343	-17,41
802,521	-3,07
802,7	115,71
802,878	74,75
803,057	21,5
803,235	39,94
803,414	140,29
803,592	87,04
803,771	27,65
803,949	70,65
804,127	39,94
804,306	23,55
804,484	-15,36
804,662	13,31
804,841	5,12
805,019	25,6
805,197	56,32
805,375	37,89
805,554	-50,18
805,732	-31,74
805,91	113,66
806,088	-11,26
806,266	-41,98
806,445	17,41
806,623	-31,74
806,801	25,6
806,979	64,51
807,157	39,94
807,335	21,5
807,513	1,02
807,691	62,46
807,869	-7,17
808,047	17,41
808,225	-105,47
808,403	158,72
808,581	-25,6
808,759	62,46
808,937	7,17
809,115	70,65
809,293	130,05
809,471	-58,37
809,649	130,05
809,826	87,04
810,004	23,55
810,182	-7,17
810,36	-1,02
810,538	70,65
810,715	25,6
810,893	11,26
811,071	5,12
811,248	91,13
811,426	3,07
811,604	64,51
811,781	13,31
811,959	27,65
812,137	-31,74
812,314	5,12
812,492	-17,41
812,669	62,46
812,847	-11,26
813,024	-3,07
813,202	29,7
813,379	97,28
813,557	119,81
813,734	128
813,912	103,42
814,089	-11,26
814,267	46,08
814,444	58,37
814,621	60,42
814,799	-68,61
814,976	54,27
815,153	144,38
815,331	-1,02
815,508	-33,79
815,685	62,46
815,862	31,74
816,04	33,79
816,217	29,7
816,394	72,7
816,571	21,5
816,748	160,77
816,926	103,42
817,103	355,32
817,28	31,74
817,457	-76,8
817,634	89,09
817,811	115,71
817,988	-44,03
818,165	72,7
818,342	52,22
818,519	48,13
818,696	15,36
818,873	60,42
819,05	78,85
819,227	9,22
819,404	60,42
819,581	64,51
819,758	21,5
819,934	78,85
820,111	56,32
820,288	-39,94
820,465	87,04
820,642	-15,36
820,818	52,22
820,995	-72,7
821,172	152,57
821,349	121,85
821,525	1,02
821,702	41,98
821,879	48,13
822,055	-29,7
822,232	-46,08
822,409	87,04
822,585	128
822,762	66,56
822,938	78,85
823,115	95,23
823,291	70,65
823,468	168,96
823,644	21,5
823,821	99,33
823,997	37,89
824,174	-1,02
824,35	95,23
824,527	89,09
824,703	78,85
824,879	-3,07
825,056	44,03
825,232	89,09
825,408	46,08
825,585	15,36
825,761	-54,27
825,937	-19,46
826,113	5,12
826,29	64,51
826,466	29,7
826,642	416,76
826,818	48,13
826,994	78,85
827,17	5,12
827,347	-91,13
827,523	-41,98
827,699	54,27
827,875	95,23
828,051	119,81
828,227	21,5
828,403	111,61
828,579	148,48
828,755	70,65
828,931	-19,46
829,107	111,61
829,283	115,71
829,459	-9,22
829,635	-33,79
829,811	5,12
829,986	78,85
830,162	9,22
830,338	103,42
830,514	-1,02
830,69	37,89
830,865	1,02
831,041	21,5
831,217	3,07
831,393	-19,46
831,568	-35,84
831,744	33,79
831,92	39,94
832,095	-48,13
832,271	-1,02
832,447	21,5
832,622	132,09
832,798	97,28
832,973	7,17
833,149	7,17
833,325	70,65
833,5	-3,07
833,676	37,89
833,851	105,47
834,027	-3,07
834,202	46,08
834,377	78,85
834,553	74,75
834,728	54,27
834,904	58,37
835,079	7,17
835,254	56,32
835,43	113,66
835,605	13,31
835,78	62,46
835,955	39,94
836,131	15,36
836,306	-50,18
836,481	60,42
836,656	68,61
836,832	39,94
837,007	-19,46
837,182	-7,17
837,357	-25,6
837,532	54,27
837,707	-3,07
837,882	80,89
838,057	121,85
838,232	99,33
838,407	62,46
838,582	-23,55
838,757	31,74
838,932	66,56
839,107	-21,5
839,282	-56,32
839,457	37,89
839,632	76,8
839,807	13,31
839,982	29,7
840,157	-23,55
840,332	107,52
840,506	-58,37
840,681	37,89
840,856	46,08
841,031	-25,6
841,205	-27,65
841,38	5,12
841,555	146,43
841,73	72,7
841,904	5,12
842,079	146,43
842,254	39,94
842,428	56,32
842,603	-80,89
842,777	-9,22
842,952	25,6
843,126	-15,36
843,301	31,74
843,476	158,72
843,65	537,59
843,825	875,51
843,999	1170,41
844,173	1258,48
844,348	1352,68
844,522	1582,06
844,697	1661,93
844,871	1405,93
845,045	1547,24
845,22	1192,94
845,394	1262,57
845,568	924,66
845,743	1039,34
845,917	750,58
846,091	742,39
846,265	666,61
846,44	656,37
846,614	637,94
846,788	580,6
846,962	562,17
847,136	582,65
847,31	463,86
847,485	578,55
847,659	416,76
847,833	476,15
848,007	398,33
848,181	457,72
848,355	381,95
848,529	357,37
848,703	230,4
848,877	111,61
849,051	154,62
849,225	138,24
849,399	56,32
849,573	-52,22
849,746	58,37
849,92	62,46
850,094	74,75
850,268	7,17
850,442	160,77
850,616	1,02
850,789	72,7
850,963	29,7
851,137	-29,7
851,311	105,47
851,484	80,89
851,658	70,65
851,832	9,22
852,005	27,65
852,179	11,26
852,352	33,79
852,526	-9,22
852,7	80,89
852,873	-11,26
853,047	-17,41
853,22	9,22
853,394	87,04
853,567	13,31
853,741	27,65
853,914	39,94
854,088	97,28
854,261	25,6
854,434	-11,26
854,608	-1,02
854,781	66,56
854,955	82,94
855,128	144,38
855,301	-3,07
855,475	7,17
855,648	58,37
855,821	70,65
855,994	111,61
856,168	78,85
856,341	64,51
856,514	-37,89
856,687	48,13
856,86	91,13
857,033	91,13
857,207	70,65
857,38	-19,46
857,553	130,05
857,726	113,66
857,899	123,9
858,072	13,31
858,245	15,36
858,418	-52,22
858,591	-13,31
858,764	-17,41
858,937	89,09
859,11	70,65
859,283	125,95
859,455	27,65
859,628	23,55
859,801	82,94
859,974	128
860,147	-50,18
860,32	62,46
860,492	39,94
860,665	-39,94
860,838	74,75
861,011	17,41
861,183	91,13
861,356	119,81
861,529	54,27
861,701	35,84
861,874	23,55
862,047	103,42
862,219	62,46
862,392	54,27
862,564	64,51
862,737	72,7
862,909	119,81
863,082	35,84
863,254	21,5
863,427	107,52
863,599	103,42
863,772	44,03
863,944	23,55
864,117	-3,07
864,289	62,46
864,461	5,12
864,634	95,23
864,806	23,55
864,978	136,19
865,151	5,12
865,323	179,2
865,495	160,77
865,667	23,55
865,84	209,92
866,012	-23,55
866,184	103,42
866,356	-23,55
866,528	21,5
866,7	-25,6
866,873	-97,28
867,045	33,79
867,217	-52,22
867,389	74,75
867,561	74,75
867,733	7,17
867,905	68,61
868,077	-1,02
868,249	-9,22
868,421	37,89
868,593	46,08
868,765	171,01
868,936	5,12
869,108	72,7
869,28	179,2
869,452	-9,22
869,624	7,17
869,796	56,32
869,968	74,75
870,139	142,33
870,311	-68,61
870,483	80,89
870,654	-62,46
870,826	-9,22
870,998	23,55
871,17	56,32
871,341	13,31
871,513	-11,26
871,684	33,79
871,856	35,84
872,028	119,81
872,199	-99,33
872,371	-27,65
872,542	-33,79
872,714	46,08
872,885	201,72
873,057	-17,41
873,228	-46,08
873,4	146,43
873,571	128
873,742	1,02
873,914	21,5
874,085	68,61
874,256	74,75
874,428	-19,46
874,599	15,36
874,77	72,7
874,942	25,6
875,113	62,46
875,284	31,74
875,455	-31,74
875,626	80,89
875,798	-19,46
875,969	87,04
876,14	21,5
876,311	97,28
876,482	201,72
876,653	70,65
876,824	74,75
876,995	29,7
877,166	76,8
877,337	5,12
877,508	-23,55
877,679	91,13
877,85	-44,03
878,021	-25,6
878,192	87,04
878,363	48,13
878,534	13,31
878,705	-9,22
878,876	-3,07
879,047	58,37
879,217	-11,26
879,388	74,75
879,559	-21,5
879,73	179,2
879,9	-39,94
880,071	62,46
880,242	74,75
880,413	66,56
880,583	80,89
880,754	46,08
880,924	54,27
881,095	-44,03
881,266	-35,84
881,436	29,7
881,607	136,19
881,777	29,7
881,948	-25,6
882,118	89,09
882,289	29,7
882,459	29,7
882,63	93,18
882,8	37,89
882,971	31,74
883,141	44,03
883,311	72,7
883,482	70,65
883,652	17,41
883,822	37,89
883,993	-17,41
884,163	115,71
884,333	87,04
884,504	66,56
884,674	152,57
884,844	72,7
885,014	-33,79
885,184	103,42
885,355	-9,22
885,525	-11,26
885,695	64,51
885,865	111,61
886,035	99,33
886,205	5,12
886,375	56,32
886,545	35,84
886,715	-66,56
886,885	70,65
887,055	56,32
887,225	-60,42
887,395	-7,17
887,565	113,66
887,735	54,27
887,905	50,18
888,075	23,55
888,244	54,27
888,414	21,5
888,584	-44,03
888,754	66,56
888,924	54,27
889,093	146,43
889,263	66,56
889,433	72,7
889,603	56,32
889,772	60,42
889,942	103,42
890,111	-11,26
890,281	9,22
890,451	66,56
890,62	13,31
890,79	21,5
890,959	66,56
891,129	64,51
891,298	78,85
891,468	70,65
891,637	15,36
891,807	29,7
891,976	21,5
892,146	-1,02
892,315	29,7
892,485	1,02
892,654	13,31
892,823	5,12
892,993	11,26
893,162	62,46
893,331	95,23
893,501	33,79
893,67	15,36
893,839	13,31
894,008	-19,46
894,177	72,7
894,347	70,65
894,516	132,09
894,685	19,46
894,854	31,74
895,023	91,13
895,192	-7,17
