Data from h2o_USB4F104161__7__11-48-46-746.txt Node

Date: Tue Apr 14 11:48:46 EDT 2026
User: LaboPhy
Spectrometer: USB4F10416
Trigger mode: 4
Integration Time (sec): 1,000000E-1
Scans to average: 1
Electric dark correction enabled: true
Nonlinearity correction enabled: false
Boxcar width: 0
XAxis mode: Wavelengths
Number of Pixels in Spectrum: 3648
>>>>>Begin Spectral Data<<<<<
177,847	-116,22
178,066	-116,22
178,284	-116,22
178,502	-183,81
178,72	-208,38
178,939	-22,02
179,157	88,57
179,375	49,66
179,593	20,99
179,812	-5,63
180,03	14,85
180,248	-13,82
180,466	-5,63
180,685	4,61
180,903	12,8
181,121	-136,7
181,339	-7,68
181,557	2,56
181,775	2,56
181,994	-44,54
182,212	-54,78
182,43	-56,83
182,648	12,8
182,866	10,75
183,084	137,73
183,302	27,14
183,52	14,85
183,739	76,29
183,957	43,52
184,175	29,18
184,393	-22,02
184,611	27,14
184,829	10,75
185,047	68,09
185,265	102,91
185,483	-19,97
185,701	39,42
185,919	84,48
186,137	4,61
186,355	-26,11
186,573	39,42
186,791	96,77
187,009	2,56
187,227	23,04
187,445	72,19
187,663	-54,78
187,881	-71,17
188,098	12,8
188,316	29,18
188,534	59,9
188,752	43,52
188,97	4,61
189,188	-58,88
189,406	68,09
189,624	70,14
189,841	-17,92
190,059	-48,64
190,277	-28,16
190,495	14,85
190,713	64
190,931	113,15
191,148	35,33
191,366	0,51
191,584	-38,4
191,802	51,71
192,019	92,67
192,237	68,09
192,455	14,85
192,673	76,29
192,89	-48,64
193,108	61,95
193,326	6,66
193,543	96,77
193,761	6,66
193,979	-22,02
194,196	-62,98
194,414	6,66
194,632	129,53
194,849	-120,32
195,067	51,71
195,285	14,85
195,502	-101,89
195,72	-65,02
195,937	-46,59
196,155	18,94
196,373	10,75
196,59	47,62
196,808	-19,97
197,025	94,72
197,243	258,56
197,46	76,29
197,678	125,44
197,895	2,56
198,113	51,71
198,33	-73,21
198,548	-22,02
198,765	-87,55
198,983	78,33
199,2	-13,82
199,418	4,61
199,635	51,71
199,853	43,52
200,07	72,19
200,288	27,14
200,505	-22,02
200,722	72,19
200,94	-52,74
201,157	-5,63
201,375	31,23
201,592	-62,98
201,809	-17,92
202,027	59,9
202,244	102,91
202,461	-36,35
202,679	2,56
202,896	-22,02
203,113	-103,93
203,331	2,56
203,548	16,9
203,765	76,29
203,982	59,9
204,2	-1,54
204,417	18,94
204,634	174,59
204,851	59,9
205,069	12,8
205,286	51,71
205,503	51,71
205,72	2,56
205,937	117,25
206,155	2,56
206,372	164,35
206,589	43,52
206,806	14,85
207,023	102,91
207,24	117,25
207,458	-36,35
207,675	59,9
207,892	4,61
208,109	-54,78
208,326	-28,16
208,543	4,61
208,76	39,42
208,977	100,86
209,194	31,23
209,411	-30,21
209,628	76,29
209,845	-9,73
210,062	-42,5
210,279	-56,83
210,496	55,81
210,713	-26,11
210,93	-28,16
211,147	45,57
211,364	12,8
211,581	43,52
211,798	68,09
212,015	-22,02
212,232	-30,21
212,449	-5,63
212,666	35,33
212,883	-42,5
213,1	20,99
213,317	-36,35
213,533	-11,78
213,75	18,94
213,967	6,66
214,184	-71,17
214,401	37,38
214,618	-28,16
214,835	10,75
215,051	59,9
215,268	53,76
215,485	61,95
215,702	-1,54
215,919	-15,87
216,135	127,49
216,352	-44,54
216,569	12,8
216,786	66,05
217,002	14,85
217,219	-11,78
217,436	-42,5
217,652	4,61
217,869	92,67
218,086	88,57
218,302	-50,69
218,519	18,94
218,736	-3,58
218,952	-44,54
219,169	76,29
219,386	68,09
219,602	-17,92
219,819	2,56
220,036	-54,78
220,252	92,67
220,469	-126,46
220,685	76,29
220,902	-69,12
221,118	-38,4
221,335	-13,82
221,552	43,52
221,768	70,14
221,985	-28,16
222,201	16,9
222,418	43,52
222,634	-75,26
222,851	92,67
223,067	4,61
223,284	-13,82
223,5	23,04
223,716	23,04
223,933	10,75
224,149	2,56
224,366	59,9
224,582	-71,17
224,799	-30,21
225,015	-116,22
225,231	78,33
225,448	-58,88
225,664	53,76
225,88	-38,4
226,097	61,95
226,313	27,14
226,529	-11,78
226,746	43,52
226,962	12,8
227,178	51,71
227,395	-11,78
227,611	2,56
227,827	20,99
228,044	14,85
228,26	33,28
228,476	59,9
228,692	131,58
228,909	-28,16
229,125	59,9
229,341	29,18
229,557	-40,45
229,773	-28,16
229,99	113,15
230,206	-30,21
230,422	-22,02
230,638	-30,21
230,854	4,61
231,07	-67,07
231,286	59,9
231,503	18,94
231,719	-17,92
231,935	14,85
232,151	41,47
232,367	125,44
232,583	-5,63
232,799	59,9
233,015	64
233,231	12,8
233,447	35,33
233,663	-42,5
233,879	-54,78
234,095	4,61
234,311	84,48
234,527	53,76
234,743	82,43
234,959	43,52
235,175	41,47
235,391	-5,63
235,607	53,76
235,823	12,8
236,039	-5,63
236,255	33,28
236,471	-3,58
236,687	-36,35
236,903	-19,97
237,118	64
237,334	-3,58
237,55	-5,63
237,766	-30,21
237,982	111,1
238,198	49,66
238,413	-22,02
238,629	86,53
238,845	-17,92
239,061	27,14
239,277	-17,92
239,492	-46,59
239,708	23,04
239,924	70,14
240,14	-5,63
240,355	78,33
240,571	-46,59
240,787	35,33
241,003	51,71
241,218	8,7
241,434	31,23
241,65	27,14
241,865	-5,63
242,081	76,29
242,297	-38,4
242,512	-52,74
242,728	80,38
242,944	-101,89
243,159	2,56
243,375	-22,02
243,59	-46,59
243,806	51,71
244,022	4,61
244,237	-62,98
244,453	35,33
244,668	80,38
244,884	127,49
245,099	31,23
245,315	43,52
245,53	133,63
245,746	123,39
245,961	117,25
246,177	92,67
246,392	119,29
246,608	61,95
246,823	92,67
247,039	23,04
247,254	-46,59
247,47	104,96
247,685	-52,74
247,9	18,94
248,116	23,04
248,331	-1,54
248,547	4,61
248,762	-69,12
248,977	-17,92
249,193	27,14
249,408	68,09
249,623	70,14
249,839	-26,11
250,054	-112,13
250,269	55,81
250,485	59,9
250,7	23,04
250,915	49,66
251,13	43,52
251,346	12,8
251,561	121,34
251,776	88,57
251,991	-60,93
252,207	94,72
252,422	-71,17
252,637	35,33
252,852	12,8
253,067	-44,54
253,283	84,48
253,498	45,57
253,713	-46,59
253,928	-5,63
254,143	33,28
254,358	31,23
254,573	-95,74
254,788	6,66
255,004	-5,63
255,219	-116,22
255,434	-28,16
255,649	-54,78
255,864	35,33
256,079	-5,63
256,294	4,61
256,509	-11,78
256,724	59,9
256,939	-36,35
257,154	45,57
257,369	-11,78
257,584	96,77
257,799	-3,58
258,014	-17,92
258,229	51,71
258,444	0,51
258,659	39,42
258,874	80,38
259,089	18,94
259,304	-7,68
259,518	-19,97
259,733	-60,93
259,948	-22,02
260,163	94,72
260,378	43,52
260,593	23,04
260,808	61,95
261,022	2,56
261,237	-1,54
261,452	45,57
261,667	-19,97
261,882	78,33
262,096	-5,63
262,311	66,05
262,526	-19,97
262,741	-11,78
262,955	-30,21
263,17	113,15
263,385	-65,02
263,6	-5,63
263,814	-71,17
264,029	-77,31
264,244	10,75
264,458	0,51
264,673	25,09
264,888	16,9
265,102	90,62
265,317	0,51
265,532	33,28
265,746	45,57
265,961	-5,63
266,175	-3,58
266,39	2,56
266,605	35,33
266,819	35,33
267,034	16,9
267,248	-30,21
267,463	23,04
267,677	31,23
267,892	-11,78
268,106	-101,89
268,321	-3,58
268,535	47,62
268,75	104,96
268,964	-46,59
269,179	68,09
269,393	-13,82
269,608	117,25
269,822	-46,59
270,036	-62,98
270,251	-44,54
270,465	-26,11
270,68	27,14
270,894	-30,21
271,108	119,29
271,323	-9,73
271,537	4,61
271,752	27,14
271,966	-46,59
272,18	-13,82
272,394	-73,21
272,609	-22,02
272,823	84,48
273,037	-34,3
273,252	-11,78
273,466	-13,82
273,68	68,09
273,894	51,71
274,109	18,94
274,323	-54,78
274,537	-38,4
274,751	-67,07
274,966	41,47
275,18	-99,84
275,394	-13,82
275,608	-11,78
275,822	-134,65
276,036	100,86
276,25	29,18
276,465	35,33
276,679	20,99
276,893	-22,02
277,107	18,94
277,321	-13,82
277,535	129,53
277,749	23,04
277,963	-22,02
278,177	-60,93
278,391	59,9
278,605	-87,55
278,819	43,52
279,033	-83,45
279,247	-38,4
279,461	-3,58
279,675	-19,97
279,889	59,9
280,103	-22,02
280,317	55,81
280,531	-22,02
280,745	-22,02
280,959	-26,11
281,173	102,91
281,387	-46,59
281,601	59,9
281,815	94,72
282,029	-28,16
282,242	25,09
282,456	18,94
282,67	33,28
282,884	37,38
283,098	-48,64
283,312	-79,36
283,525	51,71
283,739	2,56
283,953	35,33
284,167	78,33
284,381	49,66
284,594	-46,59
284,808	-60,93
285,022	-26,11
285,235	35,33
285,449	27,14
285,663	27,14
285,877	-79,36
286,09	57,86
286,304	80,38
286,518	51,71
286,731	-69,12
286,945	10,75
287,159	-56,83
287,372	4,61
287,586	90,62
287,799	61,95
288,013	-50,69
288,227	35,33
288,44	272,89
288,654	43,52
288,867	-81,41
289,081	-75,26
289,294	78,33
289,508	100,86
289,721	18,94
289,935	-22,02
290,148	47,62
290,362	4,61
290,575	127,49
290,789	-71,17
291,002	-28,16
291,216	125,44
291,429	53,76
291,643	35,33
291,856	-28,16
292,069	-19,97
292,283	-9,73
292,496	35,33
292,71	27,14
292,923	43,52
293,136	29,18
293,35	-11,78
293,563	-71,17
293,776	-60,93
293,99	104,96
294,203	2,56
294,416	-60,93
294,63	12,8
294,843	-11,78
295,056	59,9
295,269	-26,11
295,483	-112,13
295,696	119,29
295,909	2,56
296,122	68,09
296,335	-26,11
296,549	-5,63
296,762	18,94
296,975	-1,54
297,188	51,71
297,401	113,15
297,615	-95,74
297,828	-1,54
298,041	117,25
298,254	-44,54
298,467	14,85
298,68	20,99
298,893	-11,78
299,106	68,09
299,319	-11,78
299,532	72,19
299,745	-13,82
299,958	-26,11
300,171	-54,78
300,384	31,23
300,598	-138,75
300,81	43,52
301,023	-38,4
301,236	-54,78
301,449	-5,63
301,662	-9,73
301,875	-79,36
302,088	12,8
302,301	-56,83
302,514	-192
302,727	86,53
302,94	-13,82
303,153	6,66
303,366	-28,16
303,579	-13,82
303,791	4,61
304,004	-30,21
304,217	61,95
304,43	43,52
304,643	-7,68
304,855	-83,45
305,068	68,09
305,281	20,99
305,494	12,8
305,707	-5,63
305,919	137,73
306,132	-11,78
306,345	94,72
306,558	10,75
306,77	10,75
306,983	31,23
307,196	76,29
307,408	-5,63
307,621	-30,21
307,834	127,49
308,046	84,48
308,259	27,14
308,472	14,85
308,684	109,05
308,897	-22,02
309,109	29,18
309,322	-36,35
309,535	2,56
309,747	117,25
309,96	84,48
310,172	174,59
310,385	59,9
310,597	25,09
310,81	51,71
311,022	43,52
311,235	35,33
311,447	12,8
311,66	72,19
311,872	53,76
312,085	23,04
312,297	51,71
312,51	-83,45
312,722	27,14
312,934	82,43
313,147	37,38
313,359	-11,78
313,572	-1,54
313,784	-19,97
313,996	66,05
314,209	109,05
314,421	18,94
314,633	68,09
314,846	41,47
315,058	47,62
315,27	51,71
315,483	27,14
315,695	68,09
315,907	-5,63
316,119	-26,11
316,332	37,38
316,544	43,52
316,756	92,67
316,968	127,49
317,181	51,71
317,393	70,14
317,605	51,71
317,817	12,8
318,029	129,53
318,241	-46,59
318,454	-26,11
318,666	29,18
318,878	6,66
319,09	-87,55
319,302	84,48
319,514	2,56
319,726	-52,74
319,938	88,57
320,15	45,57
320,362	53,76
320,574	-17,92
320,786	-28,16
320,999	-7,68
321,211	84,48
321,423	61,95
321,635	-30,21
321,847	8,7
322,058	12,8
322,27	2,56
322,482	33,28
322,694	86,53
322,906	-11,78
323,118	92,67
323,33	74,24
323,542	-11,78
323,754	-38,4
323,966	-56,83
324,178	68,09
324,389	43,52
324,601	61,95
324,813	6,66
325,025	18,94
325,237	-19,97
325,449	25,09
325,66	84,48
325,872	39,42
326,084	27,14
326,296	-22,02
326,507	61,95
326,719	33,28
326,931	-140,8
327,143	86,53
327,354	92,67
327,566	82,43
327,778	29,18
327,989	100,86
328,201	-30,21
328,413	117,25
328,624	74,24
328,836	-52,74
329,048	-5,63
329,259	53,76
329,471	66,05
329,682	-17,92
329,894	-19,97
330,106	18,94
330,317	18,94
330,529	86,53
330,74	27,14
330,952	2,56
331,163	2,56
331,375	18,94
331,586	59,9
331,798	16,9
332,009	-32,26
332,221	8,7
332,432	55,81
332,644	76,29
332,855	-34,3
333,067	-5,63
333,278	12,8
333,489	49,66
333,701	-136,7
333,912	-46,59
334,124	-42,5
334,335	-40,45
334,546	-22,02
334,758	76,29
334,969	170,49
335,18	109,05
335,392	86,53
335,603	131,58
335,814	111,1
336,025	53,76
336,237	72,19
336,448	-3,58
336,659	125,44
336,87	162,3
337,082	223,74
337,293	78,33
337,504	109,05
337,715	102,91
337,926	61,95
338,138	45,57
338,349	45,57
338,56	59,9
338,771	27,14
338,982	35,33
339,193	37,38
339,404	35,33
339,616	-5,63
339,827	18,94
340,038	-28,16
340,249	-5,63
340,46	29,18
340,671	18,94
340,882	156,16
341,093	14,85
341,304	-48,64
341,515	-44,54
341,726	-46,59
341,937	55,81
342,148	10,75
342,359	-46,59
342,57	43,52
342,781	43,52
342,992	20,99
343,203	-62,98
343,414	92,67
343,624	2,56
343,835	-15,87
344,046	84,48
344,257	-26,11
344,468	-22,02
344,679	-91,65
344,89	53,76
345,1	-79,36
345,311	-75,26
345,522	-38,4
345,733	23,04
345,944	35,33
346,154	76,29
346,365	150,01
346,576	-60,93
346,787	72,19
346,997	135,68
347,208	37,38
347,419	-22,02
347,629	-54,78
347,84	68,09
348,051	-17,92
348,261	-1,54
348,472	-7,68
348,683	-1,54
348,893	12,8
349,104	-58,88
349,315	-19,97
349,525	55,81
349,736	100,86
349,946	12,8
350,157	154,11
350,368	84,48
350,578	2,56
350,789	61,95
350,999	2,56
351,21	10,75
351,42	2,56
351,631	18,94
351,841	-1,54
352,052	70,14
352,262	55,81
352,472	59,9
352,683	35,33
352,893	109,05
353,104	-13,82
353,314	190,97
353,525	461,3
353,735	51,71
353,945	29,18
354,156	37,38
354,366	80,38
354,576	195,07
354,787	23,04
354,997	-17,92
355,207	-32,26
355,418	90,62
355,628	59,9
355,838	86,53
356,048	76,29
356,259	193,02
356,469	94,72
356,679	170,49
356,889	186,88
357,1	145,92
357,31	90,62
357,52	141,82
357,73	68,09
357,94	176,64
358,15	57,86
358,361	104,96
358,571	88,57
358,781	76,29
358,991	2,56
359,201	72,19
359,411	-26,11
359,621	4,61
359,831	76,29
360,041	76,29
360,251	76,29
360,461	14,85
360,672	-38,4
360,882	-11,78
361,092	-34,3
361,302	2,56
361,512	2,56
361,721	2,56
361,931	82,43
362,141	4,61
362,351	10,75
362,561	100,86
362,771	-1,54
362,981	27,14
363,191	25,09
363,401	18,94
363,611	37,38
363,821	-44,54
364,03	-69,12
364,24	-22,02
364,45	25,09
364,66	371,19
364,87	-17,92
365,08	68,09
365,289	14,85
365,499	14,85
365,709	150,01
365,919	70,14
366,128	-13,82
366,338	45,57
366,548	-42,5
366,758	25,09
366,967	43,52
367,177	27,14
367,387	20,99
367,596	61,95
367,806	29,18
368,016	12,8
368,225	20,99
368,435	150,01
368,644	43,52
368,854	0,51
369,064	10,75
369,273	84,48
369,483	10,75
369,692	-24,06
369,902	64
370,111	133,63
370,321	-30,21
370,53	88,57
370,74	84,48
370,949	154,11
371,159	143,87
371,368	104,96
371,578	76,29
371,787	45,57
371,997	55,81
372,206	4,61
372,416	94,72
372,625	94,72
372,834	2,56
373,044	27,14
373,253	127,49
373,462	35,33
373,672	4,61
373,881	141,82
374,09	100,86
374,3	61,95
374,509	2,56
374,718	70,14
374,928	162,3
375,137	129,53
375,346	166,4
375,555	248,32
375,765	137,73
375,974	133,63
376,183	78,33
376,392	27,14
376,601	113,15
376,811	47,62
377,02	94,72
377,229	133,63
377,438	8,7
377,647	37,38
377,856	-44,54
378,065	33,28
378,275	-7,68
378,484	43,52
378,693	53,76
378,902	76,29
379,111	133,63
379,32	16,9
379,529	66,05
379,738	121,34
379,947	35,33
380,156	158,21
380,365	170,49
380,574	135,68
380,783	55,81
380,992	61,95
381,201	86,53
381,41	-67,07
381,619	-9,73
381,828	51,71
382,037	49,66
382,245	70,14
382,454	55,81
382,663	92,67
382,872	12,8
383,081	45,57
383,29	133,63
383,499	39,42
383,707	135,68
383,916	43,52
384,125	29,18
384,334	8,7
384,542	76,29
384,751	61,95
384,96	64
385,169	27,14
385,377	182,78
385,586	72,19
385,795	35,33
386,004	119,29
386,212	35,33
386,421	-30,21
386,63	70,14
386,838	100,86
387,047	47,62
387,255	76,29
387,464	102,91
387,673	55,81
387,881	125,44
388,09	137,73
388,298	117,25
388,507	176,64
388,715	111,1
388,924	199,16
389,133	51,71
389,341	51,71
389,55	70,14
389,758	29,18
389,967	88,57
390,175	29,18
390,383	111,1
390,592	107,01
390,8	86,53
391,009	72,19
391,217	72,19
391,426	180,73
391,634	-54,78
391,842	84,48
392,051	23,04
392,259	90,62
392,467	86,53
392,676	12,8
392,884	2,56
393,092	76,29
393,301	64
393,509	55,81
393,717	113,15
393,925	88,57
394,134	76,29
394,342	117,25
394,55	100,86
394,758	162,3
394,967	59,9
395,175	41,47
395,383	82,43
395,591	51,71
395,799	35,33
396,007	-36,35
396,216	182,78
396,424	100,86
396,632	84,48
396,84	129,53
397,048	51,71
397,256	125,44
397,464	182,78
397,672	166,4
397,88	68,09
398,088	12,8
398,296	70,14
398,504	27,14
398,712	47,62
398,92	150,01
399,128	100,86
399,336	76,29
399,544	68,09
399,752	70,14
399,96	135,68
400,168	100,86
400,376	53,76
400,584	59,9
400,792	68,09
401	2,56
401,207	43,52
401,415	80,38
401,623	61,95
401,831	49,66
402,039	78,33
402,247	80,38
402,454	135,68
402,662	-17,92
402,87	2,56
403,078	154,11
403,285	135,68
403,493	70,14
403,701	92,67
403,909	18,94
404,116	158,21
404,324	37,38
404,532	76,29
404,739	-1,54
404,947	100,86
405,155	86,53
405,362	-22,02
405,57	82,43
405,778	51,71
405,985	66,05
406,193	66,05
406,4	88,57
406,608	76,29
406,816	133,63
407,023	84,48
407,231	27,14
407,438	76,29
407,646	133,63
407,853	14,85
408,061	72,19
408,268	31,23
408,476	27,14
408,683	141,82
408,89	86,53
409,098	135,68
409,305	199,16
409,513	184,83
409,72	162,3
409,927	174,59
410,135	289,28
410,342	113,15
410,55	289,28
410,757	207,36
410,964	137,73
411,172	184,83
411,379	129,53
411,586	141,82
411,793	10,75
412,001	49,66
412,208	-26,11
412,415	96,77
412,622	53,76
412,83	100,86
413,037	119,29
413,244	-17,92
413,451	109,05
413,658	78,33
413,866	131,58
414,073	76,29
414,28	125,44
414,487	53,76
414,694	59,9
414,901	131,58
415,108	25,09
415,315	2,56
415,522	125,44
415,73	18,94
415,937	-28,16
416,144	88,57
416,351	-9,73
416,558	47,62
416,765	14,85
416,972	117,25
417,179	-13,82
417,386	109,05
417,593	10,75
417,8	-50,69
418,006	23,04
418,213	37,38
418,42	76,29
418,627	76,29
418,834	10,75
419,041	59,9
419,248	6,66
419,455	184,83
419,661	72,19
419,868	29,18
420,075	43,52
420,282	74,24
420,489	-7,68
420,696	84,48
420,902	88,57
421,109	96,77
421,316	-11,78
421,523	104,96
421,729	37,38
421,936	35,33
422,143	162,3
422,349	-15,87
422,556	-30,21
422,763	12,8
422,969	59,9
423,176	-58,88
423,383	-13,82
423,589	350,71
423,796	6,66
424,002	-19,97
424,209	94,72
424,416	119,29
424,622	-13,82
424,829	-3,58
425,035	-30,21
425,242	51,71
425,448	27,14
425,655	23,04
425,861	59,9
426,068	68,09
426,274	166,4
426,481	23,04
426,687	119,29
426,894	43,52
427,1	47,62
427,306	-17,92
427,513	78,33
427,719	51,71
427,926	76,29
428,132	82,43
428,338	18,94
428,545	-54,78
428,751	51,71
428,957	41,47
429,163	-77,31
429,37	127,49
429,576	41,47
429,782	145,92
429,989	59,9
430,195	35,33
430,401	47,62
430,607	2,56
430,813	-22,02
431,02	-38,4
431,226	61,95
431,432	-13,82
431,638	-3,58
431,844	-69,12
432,05	59,9
432,257	68,09
432,463	152,06
432,669	305,66
432,875	276,99
433,081	301,56
433,287	535,03
433,493	578,04
433,699	815,6
433,905	1024,5
434,111	961,01
434,317	1044,98
434,523	1055,22
434,729	932,34
434,935	645,62
435,141	619
435,347	297,47
435,553	293,37
435,759	248,32
435,965	201,21
436,171	61,95
436,377	178,69
436,582	109,05
436,788	86,53
436,994	182,78
437,2	29,18
437,406	76,29
437,612	125,44
437,818	104,96
438,023	-38,4
438,229	160,25
438,435	37,38
438,641	4,61
438,846	6,66
439,052	-11,78
439,258	109,05
439,464	-36,35
439,669	68,09
439,875	80,38
440,081	55,81
440,286	-24,06
440,492	96,77
440,698	6,66
440,903	-1,54
441,109	133,63
441,314	2,56
441,52	-77,31
441,726	94,72
441,931	-3,58
442,137	92,67
442,342	78,33
442,548	33,28
442,753	150,01
442,959	-54,78
443,164	47,62
443,37	35,33
443,575	-44,54
443,781	2,56
443,986	51,71
444,192	8,7
444,397	41,47
444,602	-5,63
444,808	-24,06
445,013	-40,45
445,219	-19,97
445,424	-1,54
445,629	61,95
445,835	68,09
446,04	39,42
446,245	-11,78
446,451	6,66
446,656	-58,88
446,861	18,94
447,066	27,14
447,272	41,47
447,477	2,56
447,682	-50,69
447,887	-5,63
448,093	10,75
448,298	113,15
448,503	2,56
448,708	29,18
448,913	18,94
449,118	43,52
449,324	121,34
449,529	127,49
449,734	31,23
449,939	10,75
450,144	113,15
450,349	4,61
450,554	20,99
450,759	92,67
450,964	84,48
451,169	37,38
451,374	-30,21
451,579	-69,12
451,784	27,14
451,989	-5,63
452,194	27,14
452,399	29,18
452,604	72,19
452,809	-7,68
453,014	12,8
453,219	-26,11
453,424	76,29
453,629	-67,07
453,833	18,94
454,038	86,53
454,243	92,67
454,448	109,05
454,653	68,09
454,858	68,09
455,062	43,52
455,267	-62,98
455,472	-13,82
455,677	29,18
455,882	2,56
456,086	64
456,291	0,51
456,496	-52,74
456,7	76,29
456,905	10,75
457,11	55,81
457,314	51,71
457,519	-13,82
457,724	10,75
457,928	53,76
458,133	68,09
458,338	43,52
458,542	37,38
458,747	27,14
458,951	29,18
459,156	133,63
459,36	-34,3
459,565	123,39
459,769	-38,4
459,974	145,92
460,178	57,86
460,383	-32,26
460,587	-5,63
460,792	76,29
460,996	-40,45
461,201	18,94
461,405	-44,54
461,61	111,1
461,814	-5,63
462,018	23,04
462,223	37,38
462,427	80,38
462,631	53,76
462,836	33,28
463,04	2,56
463,244	111,1
463,449	-62,98
463,653	125,44
463,857	45,57
464,062	94,72
464,266	-58,88
464,47	-5,63
464,674	-13,82
464,878	72,19
465,083	-44,54
465,287	64
465,491	12,8
465,695	51,71
465,899	-69,12
466,104	47,62
466,308	53,76
466,512	68,09
466,716	61,95
466,92	55,81
467,124	76,29
467,328	23,04
467,532	92,67
467,736	-1,54
467,94	121,34
468,144	47,62
468,348	-58,88
468,552	117,25
468,756	64
468,96	47,62
469,164	12,8
469,368	6,66
469,572	92,67
469,776	-1,54
469,98	29,18
470,184	-60,93
470,388	86,53
470,591	37,38
470,795	51,71
470,999	49,66
471,203	53,76
471,407	18,94
471,611	-1,54
471,814	59,9
472,018	-71,17
472,222	10,75
472,426	113,15
472,63	-9,73
472,833	76,29
473,037	59,9
473,241	10,75
473,444	88,57
473,648	477,69
473,852	23,04
474,055	68,09
474,259	59,9
474,463	18,94
474,666	76,29
474,87	6,66
475,074	59,9
475,277	68,09
475,481	88,57
475,684	-11,78
475,888	12,8
476,091	2,56
476,295	10,75
476,498	-30,21
476,702	25,09
476,905	135,68
477,109	70,14
477,312	-38,4
477,516	25,09
477,719	109,05
477,923	-5,63
478,126	72,19
478,329	18,94
478,533	61,95
478,736	80,38
478,94	35,33
479,143	-7,68
479,346	2,56
479,55	117,25
479,753	53,76
479,956	-26,11
480,159	-38,4
480,363	127,49
480,566	64
480,769	6,66
480,972	-50,69
481,176	8,7
481,379	135,68
481,582	117,25
481,785	10,75
481,988	88,57
482,192	111,1
482,395	27,14
482,598	82,43
482,801	45,57
483,004	158,21
483,207	14,85
483,41	76,29
483,613	145,92
483,817	127,49
484,02	158,21
484,223	268,8
484,426	643,57
484,629	1198,57
484,832	2023,91
485,035	2642,39
485,238	3725,77
485,441	4772,28
485,644	6203,81
485,846	7948,68
486,049	8976,76
486,252	10262,88
486,455	10430,82
486,658	9953,64
486,861	8698,24
487,064	7256,47
487,267	5466,54
487,47	4067,78
487,672	2820,56
487,875	1935,84
488,078	1245,68
488,281	813,56
488,484	455,16
488,686	291,32
488,889	127,49
489,092	102,91
489,295	70,14
489,497	207,36
489,7	41,47
489,903	88,57
490,105	-24,06
490,308	31,23
490,511	66,05
490,713	23,04
490,916	113,15
491,118	39,42
491,321	76,29
491,524	23,04
491,726	-38,4
491,929	-13,82
492,131	74,24
492,334	-50,69
492,536	59,9
492,739	23,04
492,941	59,9
493,144	125,44
493,346	39,42
493,549	12,8
493,751	51,71
493,954	109,05
494,156	80,38
494,359	133,63
494,561	-13,82
494,763	61,95
494,966	68,09
495,168	168,45
495,37	55,81
495,573	14,85
495,775	-50,69
495,977	64
496,18	27,14
496,382	178,69
496,584	59,9
496,787	172,54
496,989	45,57
497,191	61,95
497,393	150,01
497,595	51,71
497,798	8,7
498	18,94
498,202	76,29
498,404	29,18
498,606	18,94
498,808	68,09
499,011	-7,68
499,213	68,09
499,415	53,76
499,617	102,91
499,819	12,8
500,021	127,49
500,223	-36,35
500,425	2,56
500,627	-40,45
500,829	-17,92
501,031	96,77
501,233	43,52
501,435	-3,58
501,637	150,01
501,839	135,68
502,041	-5,63
502,243	51,71
502,445	-22,02
502,647	-93,69
502,848	37,38
503,05	12,8
503,252	92,67
503,454	125,44
503,656	-26,11
503,858	55,81
504,059	29,18
504,261	35,33
504,463	133,63
504,665	20,99
504,867	-11,78
505,068	88,57
505,27	72,19
505,472	156,16
505,673	-30,21
505,875	-75,26
506,077	8,7
506,278	-52,74
506,48	88,57
506,682	20,99
506,883	64
507,085	41,47
507,287	-26,11
507,488	64
507,69	2,56
507,891	-36,35
508,093	135,68
508,294	29,18
508,496	-22,02
508,697	18,94
508,899	-44,54
509,1	49,66
509,302	14,85
509,503	4,61
509,705	59,9
509,906	53,76
510,108	39,42
510,309	4,61
510,51	-9,73
510,712	27,14
510,913	-5,63
511,114	43,52
511,316	-85,5
511,517	2,56
511,718	2,56
511,92	76,29
512,121	86,53
512,322	43,52
512,524	78,33
512,725	-11,78
512,926	41,47
513,127	8,7
513,329	-1,54
513,53	43,52
513,731	-5,63
513,932	100,86
514,133	-17,92
514,334	-9,73
514,536	104,96
514,737	94,72
514,938	43,52
515,139	27,14
515,34	-26,11
515,541	84,48
515,742	43,52
515,943	51,71
516,144	152,06
516,345	18,94
516,546	45,57
516,747	90,62
516,948	18,94
517,149	-13,82
517,35	-52,74
517,551	29,18
517,752	18,94
517,953	88,57
518,154	51,71
518,355	68,09
518,556	12,8
518,756	84,48
518,957	92,67
519,158	137,73
519,359	100,86
519,56	47,62
519,761	139,77
519,961	84,48
520,162	174,59
520,363	-5,63
520,564	2,56
520,764	160,25
520,965	64
521,166	119,29
521,366	39,42
521,567	49,66
521,768	68,09
521,968	10,75
522,169	72,19
522,37	18,94
522,57	-62,98
522,771	6,66
522,972	-87,55
523,172	92,67
523,373	35,33
523,573	29,18
523,774	86,53
523,974	94,72
524,175	-13,82
524,375	51,71
524,576	18,94
524,776	49,66
524,977	59,9
525,177	154,11
525,378	-38,4
525,578	119,29
525,778	45,57
525,979	16,9
526,179	55,81
526,38	-38,4
526,58	43,52
526,78	-38,4
526,981	80,38
527,181	76,29
527,381	47,62
527,582	76,29
527,782	174,59
527,982	16,9
528,182	55,81
528,383	68,09
528,583	76,29
528,783	72,19
528,983	39,42
529,183	-13,82
529,384	27,14
529,584	152,06
529,784	147,97
529,984	123,39
530,184	4,61
530,384	70,14
530,584	-44,54
530,784	53,76
530,984	-34,3
531,185	168,45
531,385	127,49
531,585	23,04
531,785	25,09
531,985	-5,63
532,185	84,48
532,385	18,94
532,585	133,63
532,785	135,68
532,984	109,05
533,184	164,35
533,384	-3,58
533,584	2,56
533,784	43,52
533,984	123,39
534,184	45,57
534,384	-36,35
534,583	80,38
534,783	39,42
534,983	115,2
535,183	16,9
535,383	27,14
535,582	23,04
535,782	20,99
535,982	78,33
536,182	61,95
536,381	41,47
536,581	6,66
536,781	96,77
536,98	29,18
537,18	78,33
537,38	-22,02
537,579	57,86
537,779	-5,63
537,979	14,85
538,178	-1,54
538,378	88,57
538,577	61,95
538,777	-26,11
538,976	-62,98
539,176	27,14
539,376	33,28
539,575	37,38
539,774	55,81
539,974	-87,55
540,173	12,8
540,373	-9,73
540,572	18,94
540,772	-1,54
540,971	-22,02
541,171	51,71
541,37	-26,11
541,569	-15,87
541,769	6,66
541,968	35,33
542,167	-9,73
542,367	76,29
542,566	6,66
542,765	-13,82
542,965	31,23
543,164	37,38
543,363	4,61
543,562	-36,35
543,761	68,09
543,961	117,25
544,16	-13,82
544,359	164,35
544,558	92,67
544,757	-17,92
544,957	70,14
545,156	84,48
545,355	109,05
545,554	-1,54
545,753	-1,54
545,952	78,33
546,151	68,09
546,35	53,76
546,549	29,18
546,748	59,9
546,947	47,62
547,146	-46,59
547,345	6,66
547,544	-1,54
547,743	43,52
547,942	59,9
548,141	35,33
548,34	104,96
548,539	70,14
548,738	-60,93
548,937	129,53
549,135	-46,59
549,334	39,42
549,533	27,14
549,732	-11,78
549,931	59,9
550,13	84,48
550,328	-11,78
550,527	59,9
550,726	92,67
550,925	20,99
551,123	39,42
551,322	-46,59
551,521	102,91
551,72	33,28
551,918	20,99
552,117	41,47
552,315	41,47
552,514	-54,78
552,713	-5,63
552,911	37,38
553,11	-22,02
553,309	64
553,507	43,52
553,706	-50,69
553,904	35,33
554,103	10,75
554,301	104,96
554,5	10,75
554,698	68,09
554,897	31,23
555,095	23,04
555,294	12,8
555,492	33,28
555,69	76,29
555,889	18,94
556,087	43,52
556,286	100,86
556,484	2,56
556,682	4,61
556,881	109,05
557,079	-11,78
557,277	113,15
557,476	53,76
557,674	72,19
557,872	51,71
558,07	-79,36
558,269	-46,59
558,467	-54,78
558,665	45,57
558,863	-11,78
559,062	84,48
559,26	92,67
559,458	-13,82
559,656	-5,63
559,854	41,47
560,052	51,71
560,25	-58,88
560,449	250,36
560,647	-36,35
560,845	-42,5
561,043	2,56
561,241	100,86
561,439	104,96
561,637	-38,4
561,835	-46,59
562,033	51,71
562,231	76,29
562,429	-5,63
562,627	-28,16
562,825	-38,4
563,023	133,63
563,221	14,85
563,418	-62,98
563,616	12,8
563,814	129,53
564,012	27,14
564,21	10,75
564,408	51,71
564,605	2,56
564,803	-22,02
565,001	172,54
565,199	-19,97
565,397	37,38
565,594	51,71
565,792	43,52
565,99	-9,73
566,188	18,94
566,385	94,72
566,583	10,75
566,781	37,38
566,978	68,09
567,176	109,05
567,373	25,09
567,571	-13,82
567,769	-5,63
567,966	-13,82
568,164	-9,73
568,361	-13,82
568,559	12,8
568,756	-28,16
568,954	27,14
569,151	-9,73
569,349	45,57
569,546	-17,92
569,744	94,72
569,941	145,92
570,139	-5,63
570,336	-3,58
570,534	61,95
570,731	-30,21
570,928	53,76
571,126	145,92
571,323	35,33
571,52	-28,16
571,718	25,09
571,915	109,05
572,112	-46,59
572,31	104,96
572,507	145,92
572,704	-30,21
572,901	-36,35
573,099	53,76
573,296	96,77
573,493	-11,78
573,69	-5,63
573,887	25,09
574,085	51,71
574,282	111,1
574,479	78,33
574,676	23,04
574,873	55,81
575,07	80,38
575,267	-30,21
575,464	-42,5
575,661	76,29
575,858	27,14
576,055	-34,3
576,252	84,48
576,449	35,33
576,646	27,14
576,843	-67,07
577,04	129,53
577,237	84,48
577,434	76,29
577,631	51,71
577,828	86,53
578,025	47,62
578,222	4,61
578,419	-69,12
578,615	-9,73
578,812	35,33
579,009	31,23
579,206	76,29
579,403	6,66
579,599	121,34
579,796	-19,97
579,993	203,26
580,19	12,8
580,386	4,61
580,583	70,14
580,78	-13,82
580,976	68,09
581,173	12,8
581,37	131,58
581,566	37,38
581,763	4,61
581,96	84,48
582,156	-3,58
582,353	111,1
582,549	121,34
582,746	-60,93
582,942	-5,63
583,139	61,95
583,335	-3,58
583,532	141,82
583,728	20,99
583,925	31,23
584,121	39,42
584,318	107,01
584,514	102,91
584,711	72,19
584,907	25,09
585,103	-5,63
585,3	117,25
585,496	20,99
585,693	51,71
585,889	59,9
586,085	-46,59
586,281	43,52
586,478	70,14
586,674	86,53
586,87	127,49
587,067	53,76
587,263	68,09
587,459	96,77
587,655	-1,54
587,851	53,76
588,048	88,57
588,244	20,99
588,44	82,43
588,636	27,14
588,832	-3,58
589,028	186,88
589,224	-5,63
589,42	43,52
589,617	119,29
589,813	78,33
590,009	4,61
590,205	117,25
590,401	76,29
590,597	-42,5
590,793	70,14
590,989	59,9
591,185	125,44
591,38	20,99
591,576	35,33
591,772	59,9
591,968	143,87
592,164	35,33
592,36	84,48
592,556	35,33
592,752	141,82
592,948	-17,92
593,143	111,1
593,339	-60,93
593,535	64
593,731	20,99
593,926	131,58
594,122	35,33
594,318	23,04
594,514	117,25
594,709	-9,73
594,905	84,48
595,101	39,42
595,296	-11,78
595,492	74,24
595,688	2,56
595,883	70,14
596,079	94,72
596,275	43,52
596,47	92,67
596,666	-3,58
596,861	43,52
597,057	100,86
597,252	-5,63
597,448	-5,63
597,643	78,33
597,839	117,25
598,034	29,18
598,23	16,9
598,425	4,61
598,621	92,67
598,816	47,62
599,011	25,09
599,207	43,52
599,402	27,14
599,597	127,49
599,793	86,53
599,988	84,48
600,183	68,09
600,379	94,72
600,574	80,38
600,769	125,44
600,965	6,66
601,16	-36,35
601,355	18,94
601,55	74,24
601,745	72,19
601,941	35,33
602,136	170,49
602,331	59,9
602,526	27,14
602,721	-3,58
602,916	92,67
603,111	37,38
603,307	68,09
603,502	41,47
603,697	35,33
603,892	61,95
604,087	76,29
604,282	178,69
604,477	137,73
604,672	61,95
604,867	39,42
605,062	68,09
605,257	20,99
605,452	176,64
605,646	104,96
605,841	-28,16
606,036	59,9
606,231	-5,63
606,426	82,43
606,621	-46,59
606,816	-13,82
607,01	68,09
607,205	174,59
607,4	49,66
607,595	195,07
607,79	51,71
607,984	88,57
608,179	39,42
608,374	109,05
608,569	45,57
608,763	-97,79
608,958	-17,92
609,153	43,52
609,347	80,38
609,542	137,73
609,736	96,77
609,931	-5,63
610,126	27,14
610,32	-5,63
610,515	12,8
610,709	262,65
610,904	23,04
611,098	-62,98
611,293	-30,21
611,487	18,94
611,682	12,8
611,876	-54,78
612,071	84,48
612,265	27,14
612,46	-50,69
612,654	37,38
612,848	2,56
613,043	-13,82
613,237	4,61
613,432	-69,12
613,626	53,76
613,82	47,62
614,014	104,96
614,209	59,9
614,403	10,75
614,597	113,15
614,792	107,01
614,986	121,34
615,18	238,08
615,374	250,36
615,568	281,08
615,763	231,93
615,957	313,85
616,151	324,09
616,345	297,47
616,539	143,87
616,733	205,31
616,927	137,73
617,121	190,97
617,316	170,49
617,51	180,73
617,704	145,92
617,898	125,44
618,092	31,23
618,286	35,33
618,48	-13,82
618,674	84,48
618,868	84,48
619,061	-44,54
619,255	113,15
619,449	-30,21
619,643	-38,4
619,837	160,25
620,031	-19,97
620,225	43,52
620,419	12,8
620,612	129,53
620,806	70,14
621	70,14
621,194	25,09
621,388	20,99
621,581	59,9
621,775	14,85
621,969	80,38
622,162	-3,58
622,356	51,71
622,55	84,48
622,743	20,99
622,937	-5,63
623,131	53,76
623,324	76,29
623,518	25,09
623,712	-3,58
623,905	-44,54
624,099	76,29
624,292	-28,16
624,486	-26,11
624,679	47,62
624,873	-13,82
625,066	0,51
625,26	-3,58
625,453	23,04
625,647	-1,54
625,84	20,99
626,034	137,73
626,227	4,61
626,42	18,94
626,614	72,19
626,807	41,47
627	-28,16
627,194	57,86
627,387	51,71
627,58	-38,4
627,774	27,14
627,967	119,29
628,16	117,25
628,353	47,62
628,547	61,95
628,74	64
628,933	-71,17
629,126	70,14
629,319	31,23
629,513	43,52
629,706	37,38
629,899	49,66
630,092	-48,64
630,285	6,66
630,478	27,14
630,671	43,52
630,864	117,25
631,057	-62,98
631,25	131,58
631,443	37,38
631,636	84,48
631,829	57,86
632,022	217,6
632,215	100,86
632,408	43,52
632,601	125,44
632,794	109,05
632,987	-42,5
633,18	27,14
633,373	27,14
633,566	61,95
633,758	-46,59
633,951	68,09
634,144	76,29
634,337	18,94
634,53	51,71
634,722	168,45
634,915	6,66
635,108	10,75
635,301	59,9
635,493	45,57
635,686	150,01
635,879	20,99
636,071	-62,98
636,264	113,15
636,457	152,06
636,649	43,52
636,842	88,57
637,034	150,01
637,227	150,01
637,42	76,29
637,612	-95,74
637,805	10,75
637,997	64
638,19	70,14
638,382	-5,63
638,575	-22,02
638,767	4,61
638,96	117,25
639,152	43,52
639,344	143,87
639,537	12,8
639,729	59,9
639,922	51,71
640,114	72,19
640,306	90,62
640,499	92,67
640,691	-22,02
640,883	14,85
641,075	53,76
641,268	51,71
641,46	20,99
641,652	-11,78
641,844	80,38
642,037	-62,98
642,229	-5,63
642,421	109,05
642,613	-75,26
642,805	31,23
642,998	43,52
643,19	61,95
643,382	182,78
643,574	47,62
643,766	-3,58
643,958	43,52
644,15	10,75
644,342	104,96
644,534	190,97
644,726	-22,02
644,918	156,16
645,11	84,48
645,302	111,1
645,494	92,67
645,686	84,48
645,878	115,2
646,07	113,15
646,262	111,1
646,453	119,29
646,645	133,63
646,837	109,05
647,029	166,4
647,221	61,95
647,413	20,99
647,604	88,57
647,796	158,21
647,988	86,53
648,18	127,49
648,371	4,61
648,563	78,33
648,755	107,01
648,947	70,14
649,138	84,48
649,33	27,14
649,521	113,15
649,713	43,52
649,905	117,25
650,096	100,86
650,288	135,68
650,479	-17,92
650,671	86,53
650,863	100,86
651,054	158,21
651,246	215,55
651,437	129,53
651,629	250,36
651,82	174,59
652,011	178,69
652,203	266,75
652,394	193,02
652,586	193,02
652,777	137,73
652,968	137,73
653,16	51,71
653,351	102,91
653,542	289,28
653,734	221,69
653,925	152,06
654,116	264,7
654,308	317,95
654,499	494,07
654,69	1583,59
654,881	4835,77
655,073	9939,3
655,264	17176,83
655,455	25673,85
655,646	36452,31
655,837	46823,22
656,028	55867,05
656,219	61582,93
656,411	64194,09
656,602	64194,09
656,793	64194,09
656,984	63608,37
657,175	57632,4
657,366	52109,03
657,557	44150,62
657,748	37533,64
657,939	32843,79
658,13	27431,01
658,321	23079,07
658,512	17770,74
658,703	12673,34
658,894	8427,9
659,084	5228,98
659,275	3275,21
659,466	2204,13
659,657	1405,42
659,848	999,92
660,039	803,32
660,23	629,24
660,42	356,86
660,611	389,63
660,802	342,52
660,993	324,09
661,183	326,14
661,374	170,49
661,565	231,93
661,755	201,21
661,946	174,59
662,137	141,82
662,327	152,06
662,518	20,99
662,709	166,4
662,899	72,19
663,09	76,29
663,28	68,09
663,471	6,66
663,662	162,3
663,852	152,06
664,043	70,14
664,233	64
664,424	37,38
664,614	23,04
664,804	68,09
664,995	127,49
665,185	98,81
665,376	6,66
665,566	92,67
665,756	2,56
665,947	10,75
666,137	68,09
666,328	201,21
666,518	88,57
666,708	6,66
666,898	10,75
667,089	86,53
667,279	-5,63
667,469	-1,54
667,659	18,94
667,85	137,73
668,04	78,33
668,23	4,61
668,42	35,33
668,61	31,23
668,8	51,71
668,991	64
669,181	190,97
669,371	64
669,561	-32,26
669,751	137,73
669,941	43,52
670,131	59,9
670,321	86,53
670,511	37,38
670,701	37,38
670,891	92,67
671,081	-3,58
671,271	-13,82
671,461	66,05
671,651	61,95
671,841	-28,16
672,03	76,29
672,22	-34,3
672,41	88,57
672,6	20,99
672,79	-24,06
672,98	45,57
673,169	92,67
673,359	68,09
673,549	100,86
673,739	6,66
673,928	31,23
674,118	55,81
674,308	72,19
674,497	-5,63
674,687	-58,88
674,877	-11,78
675,066	-26,11
675,256	53,76
675,446	57,86
675,635	68,09
675,825	-22,02
676,014	35,33
676,204	4,61
676,393	-13,82
676,583	-36,35
676,772	43,52
676,962	-17,92
677,151	-44,54
677,341	-24,06
677,53	12,8
677,72	66,05
677,909	-5,63
678,099	27,14
678,288	-28,16
678,477	64
678,667	2,56
678,856	109,05
679,045	68,09
679,235	55,81
679,424	86,53
679,613	162,3
679,802	27,14
679,992	-50,69
680,181	18,94
680,37	53,76
680,559	133,63
680,748	64
680,938	29,18
681,127	43,52
681,316	113,15
681,505	4,61
681,694	-5,63
681,883	47,62
682,072	59,9
682,261	92,67
682,45	-46,59
682,639	-75,26
682,828	107,01
683,017	45,57
683,206	78,33
683,395	51,71
683,584	68,09
683,773	51,71
683,962	18,94
684,151	27,14
684,34	61,95
684,529	18,94
684,718	-19,97
684,907	-30,21
685,095	68,09
685,284	135,68
685,473	-42,5
685,662	-38,4
685,851	127,49
686,039	135,68
686,228	10,75
686,417	-38,4
686,606	150,01
686,794	-19,97
686,983	4,61
687,172	-22,02
687,36	-13,82
687,549	-22,02
687,738	-13,82
687,926	-17,92
688,115	39,42
688,303	-9,73
688,492	125,44
688,68	0,51
688,869	-95,74
689,057	-22,02
689,246	39,42
689,434	-15,87
689,623	-71,17
689,811	117,25
690	23,04
690,188	-5,63
690,377	12,8
690,565	88,57
690,753	-50,69
690,942	-1,54
691,13	10,75
691,318	2,56
691,507	-91,65
691,695	-19,97
691,883	47,62
692,072	68,09
692,26	43,52
692,448	88,57
692,636	-19,97
692,824	-95,74
693,013	-5,63
693,201	70,14
693,389	-28,16
693,577	86,53
693,765	70,14
693,953	6,66
694,141	-22,02
694,329	8,7
694,518	39,42
694,706	45,57
694,894	-30,21
695,082	-26,11
695,27	-15,87
695,458	100,86
695,646	27,14
695,834	111,1
696,022	18,94
696,209	76,29
696,397	61,95
696,585	-30,21
696,773	-50,69
696,961	33,28
697,149	2,56
697,337	-17,92
697,525	59,9
697,712	-46,59
697,9	29,18
698,088	-17,92
698,276	119,29
698,463	6,66
698,651	59,9
698,839	6,66
699,027	0,51
699,214	10,75
699,402	-65,02
699,59	25,09
699,777	-19,97
699,965	4,61
700,152	-75,26
700,34	35,33
700,528	-1,54
700,715	8,7
700,903	39,42
701,09	18,94
701,278	35,33
701,465	45,57
701,653	47,62
701,84	-13,82
702,028	84,48
702,215	37,38
702,402	27,14
702,59	31,23
702,777	10,75
702,965	-9,73
703,152	10,75
703,339	35,33
703,527	-87,55
703,714	2,56
703,901	-30,21
704,088	-15,87
704,276	27,14
704,463	23,04
704,65	-38,4
704,837	-91,65
705,025	27,14
705,212	-1,54
705,399	-13,82
705,586	29,18
705,773	43,52
705,96	4,61
706,147	51,71
706,335	-13,82
706,522	57,86
706,709	-17,92
706,896	-13,82
707,083	96,77
707,27	-22,02
707,457	59,9
707,644	-30,21
707,831	0,51
708,018	-71,17
708,205	-1,54
708,392	61,95
708,578	78,33
708,765	-36,35
708,952	2,56
709,139	-50,69
709,326	-7,68
709,513	35,33
709,7	2,56
709,886	127,49
710,073	113,15
710,26	94,72
710,447	-36,35
710,633	-3,58
710,82	84,48
711,007	59,9
711,193	23,04
711,38	2,56
711,567	4,61
711,753	-22,02
711,94	59,9
712,127	6,66
712,313	66,05
712,5	10,75
712,686	37,38
712,873	14,85
713,059	18,94
713,246	100,86
713,432	27,14
713,619	-11,78
713,805	4,61
713,992	145,92
714,178	-13,82
714,365	14,85
714,551	96,77
714,737	29,18
714,924	-73,21
715,11	33,28
715,297	-3,58
715,483	-58,88
715,669	-56,83
715,855	-5,63
716,042	31,23
716,228	-50,69
716,414	92,67
716,6	35,33
716,787	-5,63
716,973	-5,63
717,159	8,7
717,345	-71,17
717,531	-118,27
717,718	51,71
717,904	43,52
718,09	31,23
718,276	41,47
718,462	37,38
718,648	31,23
718,834	-69,12
719,02	4,61
719,206	68,09
719,392	10,75
719,578	72,19
719,764	-48,64
719,95	-13,82
720,136	92,67
720,322	47,62
720,508	100,86
720,694	-5,63
720,879	-3,58
721,065	78,33
721,251	6,66
721,437	39,42
721,623	152,06
721,809	37,38
721,994	76,29
722,18	12,8
722,366	-42,5
722,552	18,94
722,737	-11,78
722,923	2,56
723,109	-42,5
723,294	-13,82
723,48	68,09
723,666	23,04
723,851	31,23
724,037	18,94
724,222	117,25
724,408	4,61
724,593	37,38
724,779	43,52
724,965	2,56
725,15	4,61
725,336	-54,78
725,521	86,53
725,706	6,66
725,892	45,57
726,077	35,33
726,263	80,38
726,448	170,49
726,634	-11,78
726,819	88,57
727,004	66,05
727,19	37,38
727,375	100,86
727,56	-19,97
727,745	-46,59
727,931	59,9
728,116	-58,88
728,301	61,95
728,486	72,19
728,672	-46,59
728,857	31,23
729,042	-1,54
729,227	-5,63
729,412	51,71
729,597	-36,35
729,783	-3,58
729,968	-24,06
730,153	37,38
730,338	70,14
730,523	53,76
730,708	-13,82
730,893	27,14
731,078	29,18
731,263	57,86
731,448	-19,97
731,633	-9,73
731,818	-71,17
732,003	-28,16
732,187	72,19
732,372	37,38
732,557	39,42
732,742	-62,98
732,927	-101,89
733,112	12,8
733,297	-5,63
733,481	104,96
733,666	68,09
733,851	51,71
734,036	-85,5
734,22	12,8
734,405	141,82
734,59	-71,17
734,774	80,38
734,959	20,99
735,144	47,62
735,328	6,66
735,513	2,56
735,698	39,42
735,882	109,05
736,067	29,18
736,251	37,38
736,436	-7,68
736,62	88,57
736,805	-38,4
736,989	107,01
737,174	2,56
737,358	-69,12
737,543	109,05
737,727	78,33
737,911	53,76
738,096	-22,02
738,28	137,73
738,465	-3,58
738,649	76,29
738,833	70,14
739,018	-1,54
739,202	-11,78
739,386	-36,35
739,57	-19,97
739,755	-7,68
739,939	-36,35
740,123	-52,74
740,307	76,29
740,491	-5,63
740,676	-22,02
740,86	41,47
741,044	29,18
741,228	-46,59
741,412	-99,84
741,596	43,52
741,78	-44,54
741,964	27,14
742,148	-11,78
742,332	-17,92
742,516	-110,08
742,7	20,99
742,884	6,66
743,068	-36,35
743,252	84,48
743,436	12,8
743,62	-116,22
743,804	39,42
743,988	41,47
744,172	2,56
744,356	4,61
744,539	-75,26
744,723	27,14
744,907	-11,78
745,091	0,51
745,275	12,8
745,458	12,8
745,642	43,52
745,826	43,52
746,009	68,09
746,193	27,14
746,377	41,47
746,56	37,38
746,744	84,48
746,928	-11,78
747,111	37,38
747,295	64
747,478	92,67
747,662	29,18
747,846	117,25
748,029	43,52
748,213	6,66
748,396	35,33
748,58	20,99
748,763	55,81
748,946	-42,5
749,13	-9,73
749,313	4,61
749,497	70,14
749,68	18,94
749,863	-30,21
750,047	0,51
750,23	51,71
750,413	92,67
750,597	59,9
750,78	27,14
750,963	104,96
751,146	-1,54
751,33	59,9
751,513	98,81
751,696	-11,78
751,879	-7,68
752,062	-77,31
752,246	88,57
752,429	12,8
752,612	-46,59
752,795	18,94
752,978	-42,5
753,161	-151,04
753,344	31,23
753,527	111,1
753,71	-3,58
753,893	-3,58
754,076	-13,82
754,259	33,28
754,442	-54,78
754,625	4,61
754,808	135,68
754,991	20,99
755,174	6,66
755,357	-54,78
755,539	-13,82
755,722	102,91
755,905	-34,3
756,088	31,23
756,271	4,61
756,453	100,86
756,636	-54,78
756,819	76,29
757,002	-46,59
757,184	68,09
757,367	86,53
757,55	61,95
757,732	61,95
757,915	-13,82
758,098	6,66
758,28	25,09
758,463	-13,82
758,645	104,96
758,828	88,57
759,011	55,81
759,193	51,71
759,376	59,9
759,558	-79,36
759,741	4,61
759,923	-13,82
760,105	61,95
760,288	59,9
760,47	-34,3
760,653	0,51
760,835	-46,59
761,017	-46,59
761,2	27,14
761,382	18,94
761,564	57,86
761,747	33,28
761,929	68,09
762,111	10,75
762,294	-15,87
762,476	111,1
762,658	23,04
762,84	84,48
763,022	23,04
763,205	39,42
763,387	88,57
763,569	117,25
763,751	-71,17
763,933	-62,98
764,115	-118,27
764,297	-5,63
764,479	61,95
764,661	12,8
764,843	150,01
765,025	84,48
765,207	-17,92
765,389	27,14
765,571	-128,51
765,753	111,1
765,935	76,29
766,117	51,71
766,299	47,62
766,481	92,67
766,663	20,99
766,845	2,56
767,026	2,56
767,208	92,67
767,39	51,71
767,572	-48,64
767,753	119,29
767,935	-9,73
768,117	8,7
768,299	100,86
768,48	39,42
768,662	82,43
768,844	-30,21
769,025	207,36
769,207	18,94
769,389	-42,5
769,57	-28,16
769,752	18,94
769,933	-87,55
770,115	68,09
770,296	80,38
770,478	125,44
770,659	-13,82
770,841	254,46
771,022	43,52
771,204	76,29
771,385	29,18
771,567	66,05
771,748	88,57
771,929	12,8
772,111	10,75
772,292	76,29
772,473	35,33
772,655	68,09
772,836	51,71
773,017	158,21
773,199	82,43
773,38	-44,54
773,561	109,05
773,742	47,62
773,923	10,75
774,105	104,96
774,286	68,09
774,467	27,14
774,648	-52,74
774,829	113,15
775,01	20,99
775,191	43,52
775,372	35,33
775,553	35,33
775,734	53,76
775,915	72,19
776,096	430,59
776,277	1014,26
776,458	1661,41
776,639	2531,8
776,82	3518,92
777,001	4016,58
777,182	4927,92
777,363	5454,25
777,544	5663,15
777,725	5382,57
777,906	4792,76
778,086	4223,42
778,267	3791,3
778,448	2894,29
778,629	2312,67
778,809	2003,43
778,99	1767,91
779,171	1346,03
779,352	1292,78
779,532	1163,76
779,713	1219,05
779,894	985,58
780,074	1167,85
780,255	920,05
780,435	856,56
780,616	690,68
780,797	489,98
780,977	332,28
781,158	266,75
781,338	125,44
781,519	59,9
781,699	160,25
781,88	45,57
782,06	158,21
782,241	-36,35
782,421	-116,22
782,601	-36,35
782,782	84,48
782,962	113,15
783,142	-62,98
783,323	35,33
783,503	166,4
783,683	68,09
783,864	47,62
784,044	31,23
784,224	2,56
784,404	64
784,585	45,57
784,765	-22,02
784,945	84,48
785,125	-13,82
785,305	8,7
785,485	100,86
785,666	70,14
785,846	35,33
786,026	72,19
786,206	-28,16
786,386	37,38
786,566	35,33
786,746	-28,16
786,926	-5,63
787,106	10,75
787,286	-15,87
787,466	-22,02
787,646	18,94
787,826	10,75
788,006	47,62
788,185	29,18
788,365	53,76
788,545	51,71
788,725	2,56
788,905	31,23
789,085	-9,73
789,264	-22,02
789,444	27,14
789,624	-26,11
789,804	51,71
789,983	64
790,163	33,28
790,343	27,14
790,522	-36,35
790,702	96,77
790,882	51,71
791,061	111,1
791,241	53,76
791,42	-46,59
791,6	8,7
791,78	39,42
791,959	-99,84
792,139	-17,92
792,318	84,48
792,498	35,33
792,677	27,14
792,856	6,66
793,036	-60,93
793,215	-54,78
793,395	-22,02
793,574	6,66
793,753	-5,63
793,933	59,9
794,112	94,72
794,291	20,99
794,471	47,62
794,65	4,61
794,829	-30,21
795,008	51,71
795,188	61,95
795,367	109,05
795,546	76,29
795,725	43,52
795,904	92,67
796,084	158,21
796,263	166,4
796,442	94,72
796,621	-22,02
796,8	64
796,979	43,52
797,158	-13,82
797,337	55,81
797,516	31,23
797,695	109,05
797,874	2,56
798,053	-17,92
798,232	33,28
798,411	-7,68
798,59	-46,59
798,769	35,33
798,947	51,71
799,126	35,33
799,305	27,14
799,484	55,81
799,663	-38,4
799,842	23,04
800,02	94,72
800,199	-62,98
800,378	18,94
800,557	-50,69
800,735	-60,93
800,914	-13,82
801,093	45,57
801,271	27,14
801,45	-28,16
801,628	84,48
801,807	-17,92
801,986	6,66
802,164	18,94
802,343	-5,63
802,521	-5,63
802,7	27,14
802,878	78,33
803,057	-5,63
803,235	18,94
803,414	55,81
803,592	-42,5
803,771	51,71
803,949	-5,63
804,127	-38,4
804,306	41,47
804,484	16,9
804,662	29,18
804,841	-54,78
805,019	64
805,197	43,52
805,375	41,47
805,554	80,38
805,732	18,94
805,91	-19,97
806,088	-62,98
806,266	-89,6
806,445	-69,12
806,623	-13,82
806,801	-3,58
806,979	88,57
807,157	10,75
807,335	-17,92
807,513	43,52
807,691	86,53
807,869	-13,82
808,047	92,67
808,225	-118,27
808,403	2,56
808,581	31,23
808,759	158,21
808,937	35,33
809,115	-5,63
809,293	141,82
809,471	20,99
809,649	94,72
809,826	43,52
810,004	33,28
810,182	-30,21
810,36	18,94
810,538	100,86
810,715	39,42
810,893	49,66
811,071	-62,98
811,248	47,62
811,426	10,75
811,604	27,14
811,781	61,95
811,959	27,14
812,137	-67,07
812,314	8,7
812,492	49,66
812,669	43,52
812,847	27,14
813,024	35,33
813,202	100,86
813,379	-13,82
813,557	53,76
813,734	172,54
813,912	33,28
814,089	-11,78
814,267	51,71
814,444	51,71
814,621	39,42
814,799	-34,3
814,976	64
815,153	31,23
815,331	-22,02
815,508	-40,45
815,685	-13,82
815,862	43,52
816,04	-44,54
816,217	-44,54
816,394	-11,78
816,571	55,81
816,748	119,29
816,926	84,48
817,103	287,23
817,28	-11,78
817,457	92,67
817,634	125,44
817,811	-28,16
817,988	-7,68
818,165	51,71
818,342	-30,21
818,519	39,42
818,696	39,42
818,873	6,66
819,05	111,1
819,227	-83,45
819,404	6,66
819,581	41,47
819,758	43,52
819,934	72,19
820,111	-24,06
820,288	37,38
820,465	53,76
820,642	-46,59
820,818	53,76
820,995	-34,3
821,172	109,05
821,349	47,62
821,525	35,33
821,702	55,81
821,879	-50,69
822,055	8,7
822,232	-93,69
822,409	90,62
822,585	123,39
822,762	96,77
822,938	23,04
823,115	68,09
823,291	68,09
823,468	117,25
823,644	80,38
823,821	43,52
823,997	-44,54
824,174	-3,58
824,35	104,96
824,527	29,18
824,703	20,99
824,879	-46,59
825,056	-24,06
825,232	176,64
825,408	37,38
825,585	14,85
825,761	-9,73
825,937	-79,36
826,113	96,77
826,29	41,47
826,466	-54,78
826,642	344,57
826,818	4,61
826,994	23,04
827,17	-28,16
827,347	4,61
827,523	-38,4
827,699	16,9
827,875	59,9
828,051	20,99
828,227	4,61
828,403	117,25
828,579	70,14
828,755	76,29
828,931	14,85
829,107	53,76
829,283	82,43
829,459	-58,88
829,635	6,66
829,811	35,33
829,986	-11,78
830,162	12,8
830,338	78,33
830,514	-46,59
830,69	6,66
830,865	-13,82
831,041	-13,82
831,217	-17,92
831,393	-46,59
831,568	31,23
831,744	76,29
831,92	68,09
832,095	-69,12
832,271	35,33
832,447	2,56
832,622	176,64
832,798	72,19
832,973	12,8
833,149	92,67
833,325	43,52
833,5	27,14
833,676	20,99
833,851	100,86
834,027	-62,98
834,202	-19,97
834,377	39,42
834,553	72,19
834,728	23,04
834,904	-5,63
835,079	37,38
835,254	4,61
835,43	61,95
835,605	23,04
835,78	-62,98
835,955	104,96
836,131	84,48
836,306	-65,02
836,481	-5,63
836,656	76,29
836,832	47,62
837,007	51,71
837,182	0,51
837,357	35,33
837,532	0,51
837,707	111,1
837,882	12,8
838,057	51,71
838,232	203,26
838,407	61,95
838,582	-83,45
838,757	49,66
838,932	82,43
839,107	-60,93
839,282	-19,97
839,457	76,29
839,632	57,86
839,807	68,09
839,982	-22,02
840,157	-34,3
840,332	59,9
840,506	18,94
840,681	-5,63
840,856	37,38
841,031	-116,22
841,205	-87,55
841,38	66,05
841,555	70,14
841,73	35,33
841,904	-48,64
842,079	-7,68
842,254	92,67
842,428	92,67
842,603	-69,12
842,777	-46,59
842,952	-9,73
843,126	-46,59
843,301	92,67
843,476	147,97
843,65	399,87
843,825	801,27
843,999	1108,46
844,173	1198,57
844,348	1464,81
844,522	1614,31
844,697	1546,73
844,871	1526,25
845,045	1354,22
845,22	1208,81
845,394	1143,28
845,568	987,63
845,743	848,37
845,917	776,69
846,091	698,87
846,265	748,02
846,44	686,58
846,614	610,81
846,788	510,46
846,962	569,85
847,136	522,74
847,31	465,4
847,485	471,54
847,659	379,39
847,833	453,11
848,007	518,65
848,181	412,15
848,355	348,67
848,529	342,52
848,703	276,99
848,877	55,81
849,051	129,53
849,225	59,9
849,399	10,75
849,573	12,8
849,746	-11,78
849,92	14,85
850,094	45,57
850,268	29,18
850,442	78,33
850,616	27,14
850,789	-5,63
850,963	20,99
851,137	-1,54
851,311	117,25
851,484	0,51
851,658	37,38
851,832	35,33
852,005	2,56
852,179	4,61
852,352	-3,58
852,526	-7,68
852,7	43,52
852,873	27,14
853,047	-54,78
853,22	18,94
853,394	90,62
853,567	2,56
853,741	35,33
853,914	-60,93
854,088	31,23
854,261	31,23
854,434	-11,78
854,608	43,52
854,781	-79,36
854,955	-3,58
855,128	98,81
855,301	10,75
855,475	-3,58
855,648	-9,73
855,821	131,58
855,994	78,33
856,168	59,9
856,341	109,05
856,514	-69,12
856,687	92,67
856,86	47,62
857,033	23,04
857,207	49,66
857,38	-95,74
857,553	150,01
857,726	70,14
857,899	68,09
858,072	2,56
858,245	-69,12
858,418	2,56
858,591	10,75
858,764	-34,3
858,937	33,28
859,11	127,49
859,283	78,33
859,455	20,99
859,628	25,09
859,801	72,19
859,974	111,1
860,147	-79,36
860,32	51,71
860,492	25,09
860,665	-79,36
860,838	31,23
861,011	14,85
861,183	0,51
861,356	92,67
861,529	31,23
861,701	27,14
861,874	-22,02
862,047	59,9
862,219	-46,59
862,392	10,75
862,564	51,71
862,737	29,18
862,909	74,24
863,082	12,8
863,254	49,66
863,427	84,48
863,599	154,11
863,772	4,61
863,944	61,95
864,117	-17,92
864,289	18,94
864,461	-85,5
864,634	37,38
864,806	-3,58
864,978	84,48
865,151	-5,63
865,323	80,38
865,495	72,19
865,667	20,99
865,84	119,29
866,012	-22,02
866,184	88,57
866,356	-22,02
866,528	18,94
866,7	18,94
866,873	-46,59
867,045	-3,58
867,217	12,8
867,389	51,71
867,561	-22,02
867,733	-24,06
867,905	-19,97
868,077	70,14
868,249	86,53
868,421	-28,16
868,593	-24,06
868,765	27,14
868,936	-112,13
869,108	6,66
869,28	92,67
869,452	2,56
869,624	-26,11
869,796	29,18
869,968	31,23
870,139	59,9
870,311	-69,12
870,483	55,81
870,654	-11,78
870,826	20,99
870,998	18,94
871,17	18,94
871,341	-13,82
871,513	37,38
871,684	10,75
871,856	47,62
872,028	121,34
872,199	18,94
872,371	20,99
872,542	47,62
872,714	4,61
872,885	104,96
873,057	18,94
873,228	2,56
873,4	102,91
873,571	182,78
873,742	-5,63
873,914	23,04
874,085	78,33
874,256	55,81
874,428	-79,36
874,599	-15,87
874,77	78,33
874,942	-15,87
875,113	27,14
875,284	-93,69
875,455	-38,4
875,626	12,8
875,798	72,19
875,969	27,14
876,14	59,9
876,311	86,53
876,482	76,29
876,653	25,09
876,824	20,99
876,995	59,9
877,166	76,29
877,337	23,04
877,508	-5,63
877,679	-11,78
877,85	-71,17
878,021	18,94
878,192	59,9
878,363	-5,63
878,534	-42,5
878,705	10,75
878,876	61,95
879,047	16,9
879,217	-36,35
879,388	68,09
879,559	6,66
879,73	53,76
879,9	27,14
880,071	35,33
880,242	18,94
880,413	4,61
880,583	35,33
880,754	88,57
880,924	-42,5
881,095	27,14
881,266	18,94
881,436	18,94
881,607	86,53
881,777	-38,4
881,948	-128,51
882,118	20,99
882,289	-67,07
882,459	39,42
882,63	51,71
882,8	51,71
882,971	78,33
883,141	70,14
883,311	-95,74
883,482	37,38
883,652	8,7
883,822	-69,12
883,993	20,99
884,163	16,9
884,333	-36,35
884,504	86,53
884,674	37,38
884,844	-50,69
885,014	-81,41
885,184	-77,31
885,355	20,99
885,525	-22,02
885,695	12,8
885,865	86,53
886,035	49,66
886,205	4,61
886,375	94,72
886,545	43,52
886,715	-79,36
886,885	25,09
887,055	-22,02
887,225	43,52
887,395	20,99
887,565	70,14
887,735	-19,97
887,905	35,33
888,075	-1,54
888,244	-13,82
888,414	33,28
888,584	18,94
888,754	27,14
888,924	-40,45
889,093	174,59
889,263	33,28
889,433	-9,73
889,603	-5,63
889,772	20,99
889,942	-1,54
890,111	18,94
890,281	127,49
890,451	-5,63
890,62	-38,4
890,79	-3,58
890,959	18,94
891,129	57,86
891,298	66,05
891,468	23,04
891,637	43,52
891,807	51,71
891,976	2,56
892,146	-62,98
892,315	113,15
892,485	100,86
892,654	23,04
892,823	-26,11
892,993	-46,59
893,162	59,9
893,331	68,09
893,501	102,91
893,67	59,9
893,839	18,94
894,008	-11,78
894,177	61,95
894,347	-11,78
894,516	51,71
894,685	-3,58
894,854	-56,83
895,023	57,86
895,192	43,52
