Data from h2o_USB4F104161__9__11-48-46-922.txt Node

Date: Tue Apr 14 11:48:46 EDT 2026
User: LaboPhy
Spectrometer: USB4F10416
Trigger mode: 4
Integration Time (sec): 1,000000E-1
Scans to average: 1
Electric dark correction enabled: true
Nonlinearity correction enabled: false
Boxcar width: 0
XAxis mode: Wavelengths
Number of Pixels in Spectrum: 3648
>>>>>Begin Spectral Data<<<<<
177,847	-190,8
178,066	-190,8
178,284	-190,8
178,502	-192,85
178,72	-176,47
178,939	-41,3
179,157	-29,01
179,375	24,23
179,593	93,87
179,812	11,95
180,03	38,57
180,248	11,95
180,466	-12,63
180,685	44,71
180,903	-29,01
181,121	-61,78
181,339	-51,54
181,557	-16,73
181,775	-20,82
181,994	-74,07
182,212	1,71
182,43	24,23
182,648	1,71
182,866	85,67
183,084	93,87
183,302	5,8
183,52	-4,44
183,739	-16,73
183,957	28,33
184,175	-33,11
184,393	13,99
184,611	48,81
184,829	54,95
185,047	-2,39
185,265	44,71
185,483	-61,78
185,701	75,43
185,919	36,52
186,137	-86,36
186,355	36,52
186,573	3,75
186,791	44,71
187,009	36,52
187,227	48,81
187,445	-84,31
187,663	30,38
187,881	-90,45
188,098	93,87
188,316	28,33
188,534	112,3
188,752	11,95
188,97	-69,97
189,188	20,14
189,406	79,53
189,624	24,23
189,841	-10,58
190,059	-35,16
190,277	-4,44
190,495	-45,4
190,713	67,24
190,931	122,54
191,148	126,63
191,366	-57,68
191,584	16,04
191,802	-0,34
192,019	61,1
192,237	-18,77
192,455	28,33
192,673	110,25
192,89	-4,44
193,108	77,48
193,326	-53,59
193,543	110,25
193,761	20,14
193,979	-20,82
194,196	-51,54
194,414	30,38
194,632	65,19
194,849	-35,16
195,067	-53,59
195,285	5,8
195,502	-37,2
195,72	-20,82
195,937	5,8
196,155	1,71
196,373	-10,58
196,59	-12,63
196,808	-20,82
197,025	73,39
197,243	204,46
197,46	-35,16
197,678	81,58
197,895	-55,64
198,113	5,8
198,33	1,71
198,548	32,43
198,765	44,71
198,983	36,52
199,2	-53,59
199,418	20,14
199,635	-29,01
199,853	13,99
200,07	3,75
200,288	-16,73
200,505	-12,63
200,722	102,06
200,94	11,95
201,157	95,91
201,375	93,87
201,592	67,24
201,809	95,91
202,027	46,76
202,244	59,05
202,461	-37,2
202,679	-12,63
202,896	-37,2
203,113	-74,07
203,331	40,62
203,548	9,9
203,765	-20,82
203,982	57
204,2	40,62
204,417	-67,92
204,634	145,06
204,851	28,33
205,069	-65,88
205,286	63,15
205,503	7,85
205,72	-14,68
205,937	126,63
206,155	-37,2
206,372	44,71
206,589	-29,01
206,806	26,28
207,023	22,19
207,24	48,81
207,458	-53,59
207,675	36,52
207,892	69,29
208,109	-29,01
208,326	-24,92
208,543	16,04
208,76	11,95
208,977	81,58
209,194	38,57
209,411	-14,68
209,628	11,95
209,845	20,14
210,062	11,95
210,279	-100,69
210,496	3,75
210,713	-53,59
210,93	-55,64
211,147	81,58
211,364	-69,97
211,581	24,23
211,798	124,58
212,015	-84,31
212,232	11,95
212,449	38,57
212,666	34,47
212,883	-2,39
213,1	-22,87
213,317	-4,44
213,533	-6,49
213,75	13,99
213,967	36,52
214,184	-78,16
214,401	40,62
214,618	-43,35
214,835	-14,68
215,051	106,15
215,268	52,91
215,485	-18,77
215,702	-37,2
215,919	-45,4
216,135	183,98
216,352	3,75
216,569	36,52
216,786	145,06
217,002	3,75
217,219	11,95
217,436	-29,01
217,652	-33,11
217,869	24,23
218,086	106,15
218,302	30,38
218,519	73,39
218,736	-37,2
218,952	-33,11
219,169	69,29
219,386	-0,34
219,602	13,99
219,819	44,71
220,036	-2,39
220,252	67,24
220,469	-69,97
220,685	48,81
220,902	13,99
221,118	36,52
221,335	-94,55
221,552	22,19
221,768	40,62
221,985	44,71
222,201	-35,16
222,418	-4,44
222,634	-61,78
222,851	85,67
223,067	-69,97
223,284	-0,34
223,5	3,75
223,716	-29,01
223,933	61,1
224,149	30,38
224,366	-49,49
224,582	-18,77
224,799	-33,11
225,015	-12,63
225,231	-20,82
225,448	-29,01
225,664	-26,96
225,88	-20,82
226,097	102,06
226,313	-2,39
226,529	36,52
226,746	108,2
226,962	-4,44
227,178	-26,96
227,395	-94,55
227,611	-43,35
227,827	46,76
228,044	11,95
228,26	116,39
228,476	16,04
228,692	73,39
228,909	38,57
229,125	-51,54
229,341	20,14
229,557	24,23
229,773	-119,12
229,99	85,67
230,206	-123,22
230,422	65,19
230,638	44,71
230,854	-35,16
231,07	-61,78
231,286	28,33
231,503	13,99
231,719	-45,4
231,935	28,33
232,151	-61,78
232,367	110,25
232,583	28,33
232,799	22,19
233,015	77,48
233,231	-43,35
233,447	-33,11
233,663	-37,2
233,879	57
234,095	-57,68
234,311	-29,01
234,527	65,19
234,743	28,33
234,959	118,44
235,175	-12,63
235,391	-76,12
235,607	-0,34
235,823	77,48
236,039	13,99
236,255	-35,16
236,471	20,14
236,687	-59,73
236,903	-37,2
237,118	-53,59
237,334	-18,77
237,55	-61,78
237,766	-20,82
237,982	3,75
238,198	36,52
238,413	22,19
238,629	69,29
238,845	-20,82
239,061	7,85
239,277	-94,55
239,492	-69,97
239,708	-22,87
239,924	-67,92
240,14	-20,82
240,355	36,52
240,571	-16,73
240,787	44,71
241,003	28,33
241,218	-4,44
241,434	-100,69
241,65	18,09
241,865	-53,59
242,081	77,48
242,297	-61,78
242,512	-12,63
242,728	20,14
242,944	-12,63
243,159	7,85
243,375	-0,34
243,59	28,33
243,806	7,85
244,022	16,04
244,237	16,04
244,453	16,04
244,668	85,67
244,884	104,11
245,099	-57,68
245,315	87,72
245,53	69,29
245,746	11,95
245,961	57
246,177	-2,39
246,392	30,38
246,608	69,29
246,823	-12,63
247,039	-35,16
247,254	-33,11
247,47	40,62
247,685	-4,44
247,9	16,04
248,116	-49,49
248,331	5,8
248,547	85,67
248,762	-102,74
248,977	-18,77
249,193	13,99
249,408	38,57
249,623	36,52
249,839	-2,39
250,054	-94,55
250,269	-16,73
250,485	28,33
250,7	-8,53
250,915	52,91
251,13	-26,96
251,346	-45,4
251,561	124,58
251,776	120,49
251,991	-84,31
252,207	126,63
252,422	36,52
252,637	-0,34
252,852	-57,68
253,067	24,23
253,283	11,95
253,498	18,09
253,713	-59,73
253,928	-108,88
254,143	-55,64
254,358	-10,58
254,573	-14,68
254,788	-65,88
255,004	-35,16
255,219	-45,4
255,434	-20,82
255,649	36,52
255,864	3,75
256,079	16,04
256,294	20,14
256,509	-20,82
256,724	71,34
256,939	-37,2
257,154	11,95
257,369	69,29
257,584	-14,68
257,799	-14,68
258,014	20,14
258,229	151,21
258,444	48,81
258,659	93,87
258,874	75,43
259,089	102,06
259,304	-4,44
259,518	-59,73
259,733	13,99
259,948	-59,73
260,163	112,3
260,378	-29,01
260,593	73,39
260,808	77,48
261,022	-110,93
261,237	16,04
261,452	-22,87
261,667	5,8
261,882	28,33
262,096	11,95
262,311	63,15
262,526	-92,5
262,741	61,1
262,955	-14,68
263,17	46,76
263,385	-4,44
263,6	-49,49
263,814	-78,16
264,029	-6,49
264,244	20,14
264,458	-12,63
264,673	11,95
264,888	7,85
265,102	28,33
265,317	3,75
265,532	7,85
265,746	36,52
265,961	38,57
266,175	34,47
266,39	108,2
266,605	-22,87
266,819	69,29
267,034	42,67
267,248	-84,31
267,463	30,38
267,677	-24,92
267,892	5,8
268,106	-61,78
268,321	36,52
268,535	104,11
268,75	65,19
268,964	-67,92
269,179	61,1
269,393	22,19
269,608	30,38
269,822	-24,92
270,036	-31,06
270,251	-61,78
270,465	20,14
270,68	77,48
270,894	7,85
271,108	165,54
271,323	3,75
271,537	-26,96
271,752	11,95
271,966	7,85
272,18	-76,12
272,394	28,33
272,609	-26,96
272,823	-20,82
273,037	9,9
273,252	-86,36
273,466	-49,49
273,68	46,76
273,894	11,95
274,109	93,87
274,323	46,76
274,537	20,14
274,751	-86,36
274,966	11,95
275,18	-82,26
275,394	-26,96
275,608	-69,97
275,822	-69,97
276,036	-59,73
276,25	46,76
276,465	11,95
276,679	13,99
276,893	-78,16
277,107	52,91
277,321	13,99
277,535	-12,63
277,749	-12,63
277,963	36,52
278,177	-61,78
278,391	30,38
278,605	-29,01
278,819	134,82
279,033	-53,59
279,247	-4,44
279,461	-0,34
279,675	-67,92
279,889	57
280,103	-18,77
280,317	112,3
280,531	-59,73
280,745	36,52
280,959	-20,82
281,173	54,95
281,387	40,62
281,601	48,81
281,815	73,39
282,029	-53,59
282,242	28,33
282,456	-51,54
282,67	65,19
282,884	-2,39
283,098	-37,2
283,312	38,57
283,525	52,91
283,739	22,19
283,953	-12,63
284,167	81,58
284,381	-14,68
284,594	11,95
284,808	11,95
285,022	-2,39
285,235	-98,64
285,449	20,14
285,663	67,24
285,877	11,95
286,09	-12,63
286,304	30,38
286,518	54,95
286,731	-133,46
286,945	75,43
287,159	-51,54
287,372	-26,96
287,586	28,33
287,799	-4,44
288,013	-16,73
288,227	16,04
288,44	372,39
288,654	-16,73
288,867	5,8
289,081	-2,39
289,294	40,62
289,508	11,95
289,721	-61,78
289,935	67,24
290,148	40,62
290,362	69,29
290,575	95,91
290,789	-10,58
291,002	-24,92
291,216	44,71
291,429	-18,77
291,643	87,72
291,856	-2,39
292,069	-4,44
292,283	-86,36
292,496	-45,4
292,71	20,14
292,923	-8,53
293,136	-76,12
293,35	44,71
293,563	32,43
293,776	28,33
293,99	36,52
294,203	16,04
294,416	-12,63
294,63	52,91
294,843	54,95
295,056	-0,34
295,269	24,23
295,483	-65,88
295,696	-22,87
295,909	34,47
296,122	-37,2
296,335	44,71
296,549	85,67
296,762	-29,01
296,975	-0,34
297,188	28,33
297,401	44,71
297,615	44,71
297,828	-35,16
298,041	186,02
298,254	-102,74
298,467	28,33
298,68	-4,44
298,893	28,33
299,106	-16,73
299,319	-26,96
299,532	-10,58
299,745	-49,49
299,958	-24,92
300,171	-37,2
300,384	9,9
300,598	-67,92
300,81	52,91
301,023	-53,59
301,236	-108,88
301,449	77,48
301,662	-43,35
301,875	-61,78
302,088	-45,4
302,301	28,33
302,514	-78,16
302,727	44,71
302,94	3,75
303,153	28,33
303,366	-18,77
303,579	-61,78
303,791	75,43
304,004	22,19
304,217	-51,54
304,43	44,71
304,643	-49,49
304,855	-84,31
305,068	79,53
305,281	-69,97
305,494	-26,96
305,707	-20,82
305,919	69,29
306,132	38,57
306,345	24,23
306,558	95,91
306,77	-108,88
306,983	18,09
307,196	65,19
307,408	24,23
307,621	20,14
307,834	13,99
308,046	54,95
308,259	-45,4
308,472	44,71
308,684	48,81
308,897	-8,53
309,109	11,95
309,322	-26,96
309,535	5,8
309,747	134,82
309,96	36,52
310,172	112,3
310,385	48,81
310,597	69,29
310,81	11,95
311,022	9,9
311,235	-37,2
311,447	-63,83
311,66	-76,12
311,872	89,77
312,085	52,91
312,297	20,14
312,51	-12,63
312,722	-26,96
312,934	73,39
313,147	-53,59
313,359	36,52
313,572	16,04
313,784	34,47
313,996	20,14
314,209	54,95
314,421	38,57
314,633	-43,35
314,846	40,62
315,058	110,25
315,27	24,23
315,483	61,1
315,695	87,72
315,907	20,14
316,119	-29,01
316,332	11,95
316,544	145,06
316,756	110,25
316,968	7,85
317,181	-37,2
317,393	61,1
317,605	-61,78
317,817	-4,44
318,029	-4,44
318,241	65,19
318,454	36,52
318,666	50,86
318,878	3,75
319,09	42,67
319,302	87,72
319,514	3,75
319,726	-20,82
319,938	116,39
320,15	61,1
320,362	73,39
320,574	-76,12
320,786	-45,4
320,999	-51,54
321,211	143,02
321,423	46,76
321,635	7,85
321,847	13,99
322,058	30,38
322,27	83,63
322,482	81,58
322,694	-18,77
322,906	20,14
323,118	85,67
323,33	69,29
323,542	-86,36
323,754	38,57
323,966	-155,99
324,178	104,11
324,389	65,19
324,601	116,39
324,813	-29,01
325,025	-4,44
325,237	13,99
325,449	16,04
325,66	24,23
325,872	28,33
326,084	-20,82
326,296	-61,78
326,507	-12,63
326,719	34,47
326,931	-53,59
327,143	3,75
327,354	110,25
327,566	97,96
327,778	85,67
327,989	202,41
328,201	24,23
328,413	151,21
328,624	102,06
328,836	7,85
329,048	-86,36
329,259	79,53
329,471	44,71
329,682	16,04
329,894	34,47
330,106	-69,97
330,317	36,52
330,529	7,85
330,74	-20,82
330,952	63,15
331,163	-2,39
331,375	38,57
331,586	11,95
331,798	32,43
332,009	-10,58
332,221	-2,39
332,432	87,72
332,644	18,09
332,855	-65,88
333,067	20,14
333,278	-20,82
333,489	114,34
333,701	7,85
333,912	-45,4
334,124	71,34
334,335	-45,4
334,546	-45,4
334,758	44,71
334,969	171,69
335,18	69,29
335,392	151,21
335,603	134,82
335,814	155,3
336,025	-29,01
336,237	52,91
336,448	20,14
336,659	106,15
336,87	263,85
337,082	161,45
337,293	77,48
337,504	79,53
337,715	89,77
337,926	11,95
338,138	114,34
338,349	24,23
338,56	-8,53
338,771	-53,59
338,982	20,14
339,193	-4,44
339,404	63,15
339,616	38,57
339,827	-51,54
340,038	-41,3
340,249	87,72
340,46	93,87
340,671	5,8
340,882	114,34
341,093	3,75
341,304	-86,36
341,515	-65,88
341,726	-59,73
341,937	-43,35
342,148	-37,2
342,359	-33,11
342,57	-43,35
342,781	118,44
342,992	3,75
343,203	-10,58
343,414	50,86
343,624	-22,87
343,835	3,75
344,046	-4,44
344,257	22,19
344,468	-53,59
344,679	-53,59
344,89	-4,44
345,1	-35,16
345,311	-82,26
345,522	-10,58
345,733	95,91
345,944	34,47
346,154	77,48
346,365	77,48
346,576	-51,54
346,787	-33,11
346,997	65,19
347,208	46,76
347,419	-4,44
347,629	36,52
347,84	97,96
348,051	-59,73
348,261	36,52
348,472	-115,03
348,683	89,77
348,893	28,33
349,104	20,14
349,315	7,85
349,525	28,33
349,736	22,19
349,946	5,8
350,157	216,74
350,368	161,45
350,578	11,95
350,789	-24,92
350,999	46,76
351,21	-16,73
351,42	-12,63
351,631	48,81
351,841	30,38
352,052	5,8
352,262	126,63
352,472	-37,2
352,683	-24,92
352,893	67,24
353,104	9,9
353,314	177,83
353,525	462,5
353,735	110,25
353,945	87,72
354,156	52,91
354,366	130,73
354,576	167,59
354,787	69,29
354,997	-16,73
355,207	69,29
355,418	44,71
355,628	11,95
355,838	63,15
356,048	97,96
356,259	183,98
356,469	110,25
356,679	153,26
356,889	183,98
357,1	102,06
357,31	118,44
357,52	110,25
357,73	110,25
357,94	38,57
358,15	38,57
358,361	112,3
358,571	71,34
358,781	126,63
358,991	-14,68
359,201	32,43
359,411	-29,01
359,621	-10,58
359,831	132,78
360,041	87,72
360,251	46,76
360,461	-2,39
360,672	69,29
360,882	28,33
361,092	-100,69
361,302	54,95
361,512	11,95
361,721	-37,2
361,931	7,85
362,141	-2,39
362,351	87,72
362,561	85,67
362,771	-2,39
362,981	102,06
363,191	-24,92
363,401	48,81
363,611	-2,39
363,821	-57,68
364,03	-92,5
364,24	97,96
364,45	65,19
364,66	265,89
364,87	3,75
365,08	134,82
365,289	-0,34
365,499	3,75
365,709	69,29
365,919	11,95
366,128	11,95
366,338	-0,34
366,548	-45,4
366,758	73,39
366,967	52,91
367,177	63,15
367,387	44,71
367,596	59,05
367,806	3,75
368,016	-2,39
368,225	46,76
368,435	28,33
368,644	-35,16
368,854	54,95
369,064	110,25
369,273	36,52
369,483	65,19
369,692	24,23
369,902	83,63
370,111	145,06
370,321	46,76
370,53	20,14
370,74	28,33
370,949	134,82
371,159	95,91
371,368	83,63
371,578	11,95
371,787	106,15
371,997	11,95
372,206	71,34
372,416	36,52
372,625	48,81
372,834	-0,34
373,044	-16,73
373,253	97,96
373,462	93,87
373,672	54,95
373,881	120,49
374,09	73,39
374,3	97,96
374,509	73,39
374,718	44,71
374,928	151,21
375,137	52,91
375,346	102,06
375,555	196,26
375,765	102,06
375,974	130,73
376,183	30,38
376,392	-2,39
376,601	81,58
376,811	61,1
377,02	89,77
377,229	26,28
377,438	22,19
377,647	63,15
377,856	5,8
378,065	20,14
378,275	-69,97
378,484	-8,53
378,693	13,99
378,902	48,81
379,111	192,17
379,32	102,06
379,529	110,25
379,738	134,82
379,947	151,21
380,156	36,52
380,365	104,11
380,574	153,26
380,783	28,33
380,992	52,91
381,201	-12,63
381,41	3,75
381,619	20,14
381,828	-10,58
382,037	-2,39
382,245	71,34
382,454	54,95
382,663	3,75
382,872	34,47
383,081	32,43
383,29	110,25
383,499	-4,44
383,707	85,67
383,916	77,48
384,125	81,58
384,334	22,19
384,542	85,67
384,751	52,91
384,96	13,99
385,169	40,62
385,377	28,33
385,586	-4,44
385,795	89,77
386,004	69,29
386,212	48,81
386,421	-24,92
386,63	65,19
386,838	48,81
387,047	161,45
387,255	52,91
387,464	118,44
387,673	63,15
387,881	175,78
388,09	167,59
388,298	138,92
388,507	183,98
388,715	44,71
388,924	188,07
389,133	44,71
389,341	118,44
389,55	93,87
389,758	134,82
389,967	151,21
390,175	106,15
390,383	130,73
390,592	93,87
390,8	79,53
391,009	36,52
391,217	57
391,426	126,63
391,634	38,57
391,842	22,19
392,051	36,52
392,259	52,91
392,467	61,1
392,676	3,75
392,884	71,34
393,092	69,29
393,301	52,91
393,509	18,09
393,717	52,91
393,925	143,02
394,134	52,91
394,342	192,17
394,55	192,17
394,758	177,83
394,967	102,06
395,175	22,19
395,383	128,68
395,591	69,29
395,799	48,81
396,007	-33,11
396,216	138,92
396,424	77,48
396,632	93,87
396,84	106,15
397,048	40,62
397,256	79,53
397,464	44,71
397,672	110,25
397,88	3,75
398,088	118,44
398,296	-20,82
398,504	110,25
398,712	52,91
398,92	145,06
399,128	65,19
399,336	110,25
399,544	192,17
399,752	93,87
399,96	167,59
400,168	85,67
400,376	57
400,584	79,53
400,792	28,33
401	38,57
401,207	30,38
401,415	67,24
401,623	52,91
401,831	65,19
402,039	40,62
402,247	30,38
402,454	102,06
402,662	30,38
402,87	38,57
403,078	126,63
403,285	112,3
403,493	28,33
403,701	79,53
403,909	30,38
404,116	87,72
404,324	18,09
404,532	81,58
404,739	7,85
404,947	46,76
405,155	114,34
405,362	161,45
405,57	122,54
405,778	20,14
405,985	71,34
406,193	85,67
406,4	-8,53
406,608	52,91
406,816	-10,58
407,023	59,05
407,231	85,67
407,438	124,58
407,646	73,39
407,853	73,39
408,061	61,1
408,268	20,14
408,476	7,85
408,683	104,11
408,89	130,73
409,098	177,83
409,305	59,05
409,513	140,97
409,72	200,36
409,927	239,27
410,135	265,89
410,342	235,18
410,55	294,57
410,757	198,31
410,964	57
411,172	169,64
411,379	95,91
411,586	130,73
411,793	52,91
412,001	-8,53
412,208	-16,73
412,415	128,68
412,622	93,87
412,83	48,81
413,037	20,14
413,244	-10,58
413,451	65,19
413,658	112,3
413,866	147,11
414,073	7,85
414,28	181,93
414,487	-49,49
414,694	93,87
414,901	11,95
415,108	36,52
415,315	11,95
415,522	34,47
415,73	-43,35
415,937	13,99
416,144	13,99
416,351	36,52
416,558	-39,25
416,765	-2,39
416,972	79,53
417,179	44,71
417,386	87,72
417,593	16,04
417,8	-16,73
418,006	63,15
418,213	95,91
418,42	-22,87
418,627	63,15
418,834	40,62
419,041	59,05
419,248	46,76
419,455	61,1
419,661	69,29
419,868	28,33
420,075	77,48
420,282	28,33
420,489	20,14
420,696	-37,2
420,902	36,52
421,109	134,82
421,316	-12,63
421,523	36,52
421,729	65,19
421,936	20,14
422,143	48,81
422,349	-16,73
422,556	-26,96
422,763	22,19
422,969	20,14
423,176	-26,96
423,383	28,33
423,589	327,33
423,796	30,38
424,002	63,15
424,209	11,95
424,416	89,77
424,622	-31,06
424,829	-12,63
425,035	-92,5
425,242	46,76
425,448	57
425,655	91,82
425,861	40,62
426,068	46,76
426,274	175,78
426,481	95,91
426,687	40,62
426,894	61,1
427,1	85,67
427,306	44,71
427,513	52,91
427,719	59,05
427,926	106,15
428,132	59,05
428,338	-2,39
428,545	38,57
428,751	-45,4
428,957	52,91
429,163	28,33
429,37	145,06
429,576	52,91
429,782	-16,73
429,989	-26,96
430,195	-43,35
430,401	-37,2
430,607	-18,77
430,813	20,14
431,02	97,96
431,226	16,04
431,432	-45,4
431,638	73,39
431,844	-45,4
432,05	52,91
432,257	11,95
432,463	102,06
432,669	153,26
432,875	253,61
433,081	388,77
433,287	519,84
433,493	503,46
433,699	771,74
433,905	933,53
434,111	1037,98
434,317	962,2
434,523	1052,31
434,729	904,86
434,935	749,22
435,141	528,03
435,347	306,85
435,553	261,8
435,759	204,46
435,965	153,26
436,171	97,96
436,377	151,21
436,582	95,91
436,788	-2,39
436,994	159,4
437,2	87,72
437,406	128,68
437,612	122,54
437,818	106,15
438,023	-86,36
438,229	126,63
438,435	102,06
438,641	57
438,846	-39,25
439,052	83,63
439,258	69,29
439,464	-33,11
439,669	81,58
439,875	97,96
440,081	-29,01
440,286	-4,44
440,492	-43,35
440,698	9,9
440,903	28,33
441,109	110,25
441,314	28,33
441,52	-86,36
441,726	48,81
441,931	9,9
442,137	28,33
442,342	61,1
442,548	61,1
442,753	102,06
442,959	-43,35
443,164	30,38
443,37	13,99
443,575	52,91
443,781	11,95
443,986	130,73
444,192	-61,78
444,397	38,57
444,602	-110,93
444,808	44,71
445,013	22,19
445,219	-55,64
445,424	151,21
445,629	-39,25
445,835	114,34
446,04	-4,44
446,245	-53,59
446,451	-53,59
446,656	5,8
446,861	-12,63
447,066	46,76
447,272	20,14
447,477	95,91
447,682	54,95
447,887	-14,68
448,093	20,14
448,298	167,59
448,503	13,99
448,708	75,43
448,913	-35,16
449,118	73,39
449,324	40,62
449,529	65,19
449,734	13,99
449,939	-49,49
450,144	110,25
450,349	5,8
450,554	-12,63
450,759	24,23
450,964	83,63
451,169	-33,11
451,374	22,19
451,579	93,87
451,784	46,76
451,989	52,91
452,194	30,38
452,399	-10,58
452,604	5,8
452,809	-37,2
453,014	44,71
453,219	36,52
453,424	11,95
453,629	-29,01
453,833	11,95
454,038	22,19
454,243	28,33
454,448	5,8
454,653	69,29
454,858	65,19
455,062	-8,53
455,267	16,04
455,472	175,78
455,677	61,1
455,882	-29,01
456,086	188,07
456,291	11,95
456,496	-35,16
456,7	44,71
456,905	69,29
457,11	104,11
457,314	118,44
457,519	-53,59
457,724	30,38
457,928	-39,25
458,133	-20,82
458,338	93,87
458,542	44,71
458,747	3,75
458,951	3,75
459,156	48,81
459,36	-76,12
459,565	65,19
459,769	44,71
459,974	3,75
460,178	-10,58
460,383	-45,4
460,587	3,75
460,792	-8,53
460,996	-37,2
461,201	16,04
461,405	38,57
461,61	-45,4
461,814	44,71
462,018	-20,82
462,223	-2,39
462,427	36,52
462,631	30,38
462,836	79,53
463,04	63,15
463,244	128,68
463,449	-53,59
463,653	61,1
463,857	69,29
464,062	63,15
464,266	-0,34
464,47	44,71
464,674	54,95
464,878	13,99
465,083	-43,35
465,287	36,52
465,491	7,85
465,695	13,99
465,899	11,95
466,104	22,19
466,308	3,75
466,512	-12,63
466,716	-53,59
466,92	22,19
467,124	71,34
467,328	34,47
467,532	79,53
467,736	44,71
467,94	81,58
468,144	71,34
468,348	3,75
468,552	136,87
468,756	83,63
468,96	-8,53
469,164	-65,88
469,368	24,23
469,572	-4,44
469,776	54,95
469,98	24,23
470,184	48,81
470,388	57
470,591	36,52
470,795	48,81
470,999	44,71
471,203	102,06
471,407	65,19
471,611	65,19
471,814	9,9
472,018	-88,4
472,222	48,81
472,426	128,68
472,63	52,91
472,833	81,58
473,037	52,91
473,241	5,8
473,444	134,82
473,648	462,5
473,852	46,76
474,055	-18,77
474,259	36,52
474,463	50,86
474,666	89,77
474,87	-26,96
475,074	-49,49
475,277	20,14
475,481	54,95
475,684	-20,82
475,888	28,33
476,091	3,75
476,295	-0,34
476,498	-65,88
476,702	-29,01
476,905	112,3
477,109	67,24
477,312	-26,96
477,516	-59,73
477,719	149,16
477,923	-29,01
478,126	-45,4
478,329	20,14
478,533	-0,34
478,736	71,34
478,94	57
479,143	73,39
479,346	52,91
479,55	-29,01
479,753	22,19
479,956	-119,12
480,159	-31,06
480,363	126,63
480,566	32,43
480,769	20,14
480,972	54,95
481,176	112,3
481,379	157,35
481,582	77,48
481,785	-0,34
481,988	54,95
482,192	122,54
482,395	-10,58
482,598	102,06
482,801	42,67
483,004	81,58
483,207	-26,96
483,41	87,72
483,613	102,06
483,817	153,26
484,02	134,82
484,223	335,53
484,426	493,22
484,629	1175,19
484,832	1924,75
485,035	2588,29
485,238	3618,42
485,441	4726,37
485,644	6315,59
485,846	7835,19
486,049	9154,08
486,252	10135,06
486,455	10366,48
486,658	9864,72
486,861	8826,4
487,064	7261,76
487,267	5338,71
487,47	4109,93
487,672	2918,01
487,875	1838,73
488,078	1259,16
488,281	851,61
488,484	454,31
488,686	284,33
488,889	183,98
489,092	130,73
489,295	57
489,497	104,11
489,7	30,38
489,903	61,1
490,105	-12,63
490,308	3,75
490,511	57
490,713	38,57
490,916	16,04
491,118	54,95
491,321	65,19
491,524	-12,63
491,726	46,76
491,929	-59,73
492,131	-78,16
492,334	61,1
492,536	110,25
492,739	20,14
492,941	67,24
493,144	28,33
493,346	-33,11
493,549	77,48
493,751	89,77
493,954	102,06
494,156	59,05
494,359	77,48
494,561	-18,77
494,763	-0,34
494,966	-4,44
495,168	52,91
495,37	-20,82
495,573	36,52
495,775	63,15
495,977	59,05
496,18	-6,49
496,382	52,91
496,584	59,05
496,787	128,68
496,989	28,33
497,191	36,52
497,393	143,02
497,595	-24,92
497,798	-0,34
498	7,85
498,202	52,91
498,404	9,9
498,606	65,19
498,808	110,25
499,011	11,95
499,213	32,43
499,415	18,09
499,617	110,25
499,819	87,72
500,021	77,48
500,223	44,71
500,425	-35,16
500,627	54,95
500,829	38,57
501,031	-10,58
501,233	-29,01
501,435	126,63
501,637	44,71
501,839	130,73
502,041	30,38
502,243	118,44
502,445	-18,77
502,647	110,25
502,848	18,09
503,05	42,67
503,252	77,48
503,454	22,19
503,656	71,34
503,858	-20,82
504,059	32,43
504,261	69,29
504,463	143,02
504,665	26,28
504,867	-20,82
505,068	3,75
505,27	-0,34
505,472	79,53
505,673	-78,16
505,875	-4,44
506,077	-29,01
506,278	30,38
506,48	57
506,682	11,95
506,883	81,58
507,085	40,62
507,287	-45,4
507,488	-12,63
507,69	77,48
507,891	-10,58
508,093	186,02
508,294	-33,11
508,496	-39,25
508,697	-31,06
508,899	89,77
509,1	5,8
509,302	124,58
509,503	13,99
509,705	32,43
509,906	65,19
510,108	-2,39
510,309	-63,83
510,51	79,53
510,712	-26,96
510,913	-31,06
511,114	11,95
511,316	-102,74
511,517	93,87
511,718	11,95
511,92	75,43
512,121	16,04
512,322	7,85
512,524	89,77
512,725	97,96
512,926	36,52
513,127	3,75
513,329	190,12
513,53	-2,39
513,731	22,19
513,932	20,14
514,133	28,33
514,334	-100,69
514,536	89,77
514,737	52,91
514,938	-2,39
515,139	44,71
515,34	-57,68
515,541	97,96
515,742	-29,01
515,943	91,82
516,144	13,99
516,345	-12,63
516,546	79,53
516,747	108,2
516,948	61,1
517,149	-67,92
517,35	-4,44
517,551	40,62
517,752	28,33
517,953	163,5
518,154	11,95
518,355	175,78
518,556	69,29
518,756	104,11
518,957	-33,11
519,158	85,67
519,359	110,25
519,56	75,43
519,761	114,34
519,961	44,71
520,162	126,63
520,363	-24,92
520,564	-43,35
520,764	134,82
520,965	28,33
521,166	118,44
521,366	-2,39
521,567	97,96
521,768	32,43
521,968	5,8
522,169	-4,44
522,37	18,09
522,57	-53,59
522,771	7,85
522,972	-16,73
523,172	143,02
523,373	-4,44
523,573	-2,39
523,774	28,33
523,974	110,25
524,175	36,52
524,375	44,71
524,576	-43,35
524,776	3,75
524,977	-18,77
525,177	-4,44
525,378	36,52
525,578	-8,53
525,778	112,3
525,979	65,19
526,179	57
526,38	40,62
526,58	-74,07
526,78	5,8
526,981	32,43
527,181	69,29
527,381	61,1
527,582	13,99
527,782	102,06
527,982	40,62
528,182	24,23
528,383	13,99
528,583	106,15
528,783	-22,87
528,983	81,58
529,183	20,14
529,384	-0,34
529,584	167,59
529,784	163,5
529,984	46,76
530,184	48,81
530,384	79,53
530,584	54,95
530,784	36,52
530,984	-12,63
531,185	77,48
531,385	20,14
531,585	30,38
531,785	28,33
531,985	-29,01
532,185	-2,39
532,385	40,62
532,585	24,23
532,785	143,02
532,984	93,87
533,184	147,11
533,384	85,67
533,584	5,8
533,784	69,29
533,984	40,62
534,184	-20,82
534,384	-14,68
534,583	-6,49
534,783	-12,63
534,983	44,71
535,183	-41,3
535,383	-29,01
535,582	-4,44
535,782	-47,44
535,982	118,44
536,182	63,15
536,381	106,15
536,581	-35,16
536,781	40,62
536,98	44,71
537,18	18,09
537,38	3,75
537,579	16,04
537,779	-16,73
537,979	22,19
538,178	-10,58
538,378	81,58
538,577	-45,4
538,777	69,29
538,976	-24,92
539,176	46,76
539,376	97,96
539,575	28,33
539,774	16,04
539,974	-16,73
540,173	11,95
540,373	-35,16
540,572	42,67
540,772	36,52
540,971	-45,4
541,171	97,96
541,37	46,76
541,569	32,43
541,769	-53,59
541,968	40,62
542,167	73,39
542,367	124,58
542,566	-12,63
542,765	-0,34
542,965	-61,78
543,164	95,91
543,363	20,14
543,562	-10,58
543,761	26,28
543,961	95,91
544,16	-45,4
544,359	165,54
544,558	69,29
544,757	-43,35
544,957	54,95
545,156	69,29
545,355	36,52
545,554	-24,92
545,753	-108,88
545,952	-33,11
546,151	52,91
546,35	28,33
546,549	-20,82
546,748	118,44
546,947	126,63
547,146	-24,92
547,345	46,76
547,544	-53,59
547,743	63,15
547,942	16,04
548,141	52,91
548,34	28,33
548,539	-12,63
548,738	-24,92
548,937	38,57
549,135	65,19
549,334	30,38
549,533	3,75
549,732	-39,25
549,931	79,53
550,13	-59,73
550,328	18,09
550,527	-10,58
550,726	-8,53
550,925	-67,92
551,123	32,43
551,322	-39,25
551,521	52,91
551,72	26,28
551,918	46,76
552,117	46,76
552,315	36,52
552,514	3,75
552,713	52,91
552,911	16,04
553,11	-86,36
553,309	-49,49
553,507	11,95
553,706	44,71
553,904	85,67
554,103	28,33
554,301	46,76
554,5	-12,63
554,698	-18,77
554,897	-2,39
555,095	-69,97
555,294	-47,44
555,492	71,34
555,69	24,23
555,889	-45,4
556,087	-20,82
556,286	110,25
556,484	16,04
556,682	36,52
556,881	9,9
557,079	-37,2
557,277	-2,39
557,476	30,38
557,674	30,38
557,872	46,76
558,07	13,99
558,269	-65,88
558,467	-2,39
558,665	-12,63
558,863	32,43
559,062	28,33
559,26	61,1
559,458	-12,63
559,656	13,99
559,854	-29,01
560,052	22,19
560,25	-39,25
560,449	298,66
560,647	63,15
560,845	-41,3
561,043	-2,39
561,241	93,87
561,439	136,87
561,637	16,04
561,835	22,19
562,033	24,23
562,231	-53,59
562,429	28,33
562,627	38,57
562,825	-94,55
563,023	46,76
563,221	-20,82
563,418	16,04
563,616	13,99
563,814	104,11
564,012	7,85
564,21	38,57
564,408	97,96
564,605	-4,44
564,803	-18,77
565,001	179,88
565,199	-16,73
565,397	93,87
565,594	71,34
565,792	28,33
565,99	-35,16
566,188	28,33
566,385	71,34
566,583	16,04
566,781	52,91
566,978	91,82
567,176	138,92
567,373	28,33
567,571	69,29
567,769	-92,5
567,966	-20,82
568,164	44,71
568,361	63,15
568,559	73,39
568,756	28,33
568,954	20,14
569,151	67,24
569,349	83,63
569,546	-37,2
569,744	104,11
569,941	-26,96
570,139	46,76
570,336	30,38
570,534	93,87
570,731	-35,16
570,928	-12,63
571,126	212,65
571,323	89,77
571,52	11,95
571,718	75,43
571,915	7,85
572,112	-14,68
572,31	-29,01
572,507	102,06
572,704	-12,63
572,901	36,52
573,099	48,81
573,296	97,96
573,493	7,85
573,69	-53,59
573,887	-12,63
574,085	149,16
574,282	32,43
574,479	91,82
574,676	9,9
574,873	32,43
575,07	9,9
575,267	18,09
575,464	11,95
575,661	63,15
575,858	11,95
576,055	102,06
576,252	50,86
576,449	36,52
576,646	36,52
576,843	-41,3
577,04	102,06
577,237	138,92
577,434	3,75
577,631	-4,44
577,828	120,49
578,025	-65,88
578,222	79,53
578,419	40,62
578,615	-69,97
578,812	24,23
579,009	-4,44
579,206	52,91
579,403	120,49
579,599	169,64
579,796	-4,44
579,993	110,25
580,19	36,52
580,386	73,39
580,583	147,11
580,78	71,34
580,976	153,26
581,173	36,52
581,37	97,96
581,566	32,43
581,763	-10,58
581,96	1,71
582,156	3,75
582,353	26,28
582,549	192,17
582,746	-6,49
582,942	3,75
583,139	38,57
583,335	75,43
583,532	143,02
583,728	-37,2
583,925	28,33
584,121	54,95
584,318	85,67
584,514	-0,34
584,711	95,91
584,907	87,72
585,103	28,33
585,3	130,73
585,496	-18,77
585,693	-0,34
585,889	155,3
586,085	-65,88
586,281	28,33
586,478	-37,2
586,674	61,1
586,87	102,06
587,067	-20,82
587,263	93,87
587,459	110,25
587,655	-26,96
587,851	110,25
588,048	183,98
588,244	-55,64
588,44	61,1
588,636	77,48
588,832	63,15
589,028	167,59
589,224	36,52
589,42	-96,6
589,617	-4,44
589,813	61,1
590,009	-35,16
590,205	30,38
590,401	69,29
590,597	-20,82
590,793	11,95
590,989	85,67
591,185	130,73
591,38	54,95
591,576	5,8
591,772	71,34
591,968	34,47
592,164	7,85
592,36	7,85
592,556	-45,4
592,752	20,14
592,948	40,62
593,143	-35,16
593,339	40,62
593,535	57
593,731	44,71
593,926	71,34
594,122	38,57
594,318	28,33
594,514	91,82
594,709	67,24
594,905	89,77
595,101	69,29
595,296	52,91
595,492	89,77
595,688	-4,44
595,883	89,77
596,079	79,53
596,275	65,19
596,47	16,04
596,666	22,19
596,861	7,85
597,057	44,71
597,252	-22,87
597,448	81,58
597,643	73,39
597,839	69,29
598,034	-4,44
598,23	42,67
598,425	36,52
598,621	52,91
598,816	26,28
599,011	11,95
599,207	22,19
599,402	-10,58
599,597	89,77
599,793	143,02
599,988	73,39
600,183	40,62
600,379	24,23
600,574	36,52
600,769	145,06
600,965	38,57
601,16	38,57
601,355	36,52
601,55	93,87
601,745	69,29
601,941	102,06
602,136	110,25
602,331	71,34
602,526	20,14
602,721	-33,11
602,916	-4,44
603,111	-8,53
603,307	32,43
603,502	59,05
603,697	-45,4
603,892	85,67
604,087	54,95
604,282	130,73
604,477	30,38
604,672	5,8
604,867	54,95
605,062	7,85
605,257	-10,58
605,452	130,73
605,646	85,67
605,841	63,15
606,036	52,91
606,231	-12,63
606,426	-43,35
606,621	-37,2
606,816	54,95
607,01	95,91
607,205	20,14
607,4	-12,63
607,595	52,91
607,79	-2,39
607,984	69,29
608,179	46,76
608,374	79,53
608,569	-12,63
608,763	-61,78
608,958	46,76
609,153	20,14
609,347	61,1
609,542	-10,58
609,736	120,49
609,931	104,11
610,126	20,14
610,32	22,19
610,515	28,33
610,709	249,51
610,904	67,24
611,098	-12,63
611,293	-59,73
611,487	57
611,682	13,99
611,876	46,76
612,071	46,76
612,265	140,97
612,46	16,04
612,654	13,99
612,848	-2,39
613,043	1,71
613,237	-0,34
613,432	-29,01
613,626	5,8
613,82	-51,54
614,014	7,85
614,209	54,95
614,403	-106,84
614,597	120,49
614,792	153,26
614,986	85,67
615,18	188,07
615,374	241,32
615,568	175,78
615,763	186,02
615,957	249,51
616,151	321,19
616,345	347,81
616,539	175,78
616,733	188,07
616,927	259,75
617,121	110,25
617,316	159,4
617,51	128,68
617,704	175,78
617,898	110,25
618,092	-47,44
618,286	-18,77
618,48	-86,36
618,674	71,34
618,868	63,15
619,061	7,85
619,255	73,39
619,449	18,09
619,643	5,8
619,837	134,82
620,031	52,91
620,225	81,58
620,419	13,99
620,612	-45,4
620,806	-4,44
621	153,26
621,194	-78,16
621,388	20,14
621,581	57
621,775	7,85
621,969	36,52
622,162	-4,44
622,356	52,91
622,55	38,57
622,743	3,75
622,937	-53,59
623,131	18,09
623,324	71,34
623,518	-35,16
623,712	-69,97
623,905	-69,97
624,099	63,15
624,292	-4,44
624,486	69,29
624,679	20,14
624,873	-20,82
625,066	79,53
625,26	32,43
625,453	13,99
625,647	-39,25
625,84	77,48
626,034	110,25
626,227	36,52
626,42	110,25
626,614	67,24
626,807	151,21
627	3,75
627,194	-18,77
627,387	32,43
627,58	-24,92
627,774	-53,59
627,967	114,34
628,16	93,87
628,353	-14,68
628,547	89,77
628,74	110,25
628,933	-84,31
629,126	87,72
629,319	97,96
629,513	7,85
629,706	71,34
629,899	87,72
630,092	-8,53
630,285	-49,49
630,478	46,76
630,671	61,1
630,864	-0,34
631,057	-12,63
631,25	126,63
631,443	61,1
631,636	28,33
631,829	65,19
632,022	52,91
632,215	13,99
632,408	20,14
632,601	93,87
632,794	-29,01
632,987	32,43
633,18	36,52
633,373	54,95
633,566	-8,53
633,758	5,8
633,951	32,43
634,144	36,52
634,337	32,43
634,53	44,71
634,722	130,73
634,915	-29,01
635,108	-37,2
635,301	30,38
635,493	79,53
635,686	143,02
635,879	63,15
636,071	-53,59
636,264	61,1
636,457	87,72
636,649	9,9
636,842	61,1
637,034	87,72
637,227	40,62
637,42	44,71
637,612	32,43
637,805	-53,59
637,997	75,43
638,19	93,87
638,382	26,28
638,575	-20,82
638,767	18,09
638,96	77,48
639,152	28,33
639,344	79,53
639,537	32,43
639,729	16,04
639,922	-4,44
640,114	30,38
640,306	93,87
640,499	161,45
640,691	-6,49
640,883	3,75
641,075	104,11
641,268	102,06
641,46	-8,53
641,652	38,57
641,844	-4,44
642,037	34,47
642,229	28,33
642,421	38,57
642,613	44,71
642,805	81,58
642,998	22,19
643,19	22,19
643,382	85,67
643,574	108,2
643,766	9,9
643,958	145,06
644,15	93,87
644,342	167,59
644,534	40,62
644,726	30,38
644,918	52,91
645,11	42,67
645,302	61,1
645,494	159,4
645,686	102,06
645,878	97,96
646,07	104,11
646,262	54,95
646,453	22,19
646,645	93,87
646,837	104,11
647,029	89,77
647,221	136,87
647,413	48,81
647,604	38,57
647,796	102,06
647,988	118,44
648,18	-2,39
648,371	-0,34
648,563	169,64
648,755	110,25
648,947	5,8
649,138	36,52
649,33	11,95
649,521	-10,58
649,713	36,52
649,905	73,39
650,096	79,53
650,288	81,58
650,479	30,38
650,671	38,57
650,863	36,52
651,054	79,53
651,246	183,98
651,437	93,87
651,629	89,77
651,82	179,88
652,011	218,79
652,203	226,98
652,394	233,13
652,586	183,98
652,777	161,45
652,968	171,69
653,16	48,81
653,351	202,41
653,542	339,62
653,734	229,03
653,925	145,06
654,116	263,85
654,308	333,48
654,499	562,85
654,69	1609,36
654,881	4601,44
655,073	9700,89
655,264	16965,03
655,455	25394,47
655,646	35912,84
655,837	46312,42
656,028	54965,09
656,219	61268,74
656,411	64187,1
656,602	64187,1
656,793	64187,1
656,984	63275,75
657,175	57561,92
657,366	51788,69
657,557	43953,16
657,748	37608,56
657,939	32806,07
658,13	27221,26
658,321	23129,42
658,512	18134,42
658,703	12668,39
658,894	8179,25
659,084	5070,43
659,275	3210,87
659,466	2043,53
659,657	1449,62
659,848	964,25
660,039	773,79
660,23	663,2
660,42	378,53
660,611	372,39
660,802	315,05
660,993	278,18
661,183	259,75
661,374	186,02
661,565	265,89
661,755	143,02
661,946	171,69
662,137	159,4
662,327	136,87
662,518	48,81
662,709	38,57
662,899	7,85
663,09	52,91
663,28	40,62
663,471	40,62
663,662	177,83
663,852	118,44
664,043	-61,78
664,233	61,1
664,424	87,72
664,614	50,86
664,804	16,04
664,995	153,26
665,185	32,43
665,376	-29,01
665,566	93,87
665,756	-33,11
665,947	83,63
666,137	87,72
666,328	171,69
666,518	-37,2
666,708	59,05
666,898	79,53
667,089	61,1
667,279	81,58
667,469	61,1
667,659	-0,34
667,85	151,21
668,04	5,8
668,23	-24,92
668,42	-20,82
668,61	-24,92
668,8	69,29
668,991	-29,01
669,181	79,53
669,371	36,52
669,561	77,48
669,751	77,48
669,941	-24,92
670,131	104,11
670,321	20,14
670,511	65,19
670,701	32,43
670,891	-4,44
671,081	-4,44
671,271	-61,78
671,461	-65,88
671,651	71,34
671,841	30,38
672,03	65,19
672,22	-26,96
672,41	159,4
672,6	61,1
672,79	5,8
672,98	-12,63
673,169	120,49
673,359	50,86
673,549	38,57
673,739	-33,11
673,928	-14,68
674,118	22,19
674,308	77,48
674,497	71,34
674,687	20,14
674,877	-29,01
675,066	28,33
675,256	16,04
675,446	22,19
675,635	5,8
675,825	3,75
676,014	1,71
676,204	-45,4
676,393	20,14
676,583	46,76
676,772	77,48
676,962	-49,49
677,151	28,33
677,341	38,57
677,53	102,06
677,72	46,76
677,909	73,39
678,099	36,52
678,288	-4,44
678,477	3,75
678,667	9,9
678,856	93,87
679,045	126,63
679,235	-2,39
679,424	110,25
679,613	130,73
679,802	61,1
679,992	26,28
680,181	-37,2
680,37	-4,44
680,559	36,52
680,748	102,06
680,938	52,91
681,127	24,23
681,316	38,57
681,505	13,99
681,694	-51,54
681,883	57
682,072	85,67
682,261	3,75
682,45	-86,36
682,639	-43,35
682,828	-33,11
683,017	69,29
683,206	36,52
683,395	-47,44
683,584	3,75
683,773	69,29
683,962	-18,77
684,151	11,95
684,34	7,85
684,529	11,95
684,718	-88,4
684,907	-6,49
685,095	38,57
685,284	59,05
685,473	-12,63
685,662	69,29
685,851	11,95
686,039	28,33
686,228	69,29
686,417	-67,92
686,606	175,78
686,794	5,8
686,983	-35,16
687,172	-4,44
687,36	57
687,549	-67,92
687,738	5,8
687,926	-84,31
688,115	-12,63
688,303	63,15
688,492	110,25
688,68	-121,17
688,869	-82,26
689,057	-45,4
689,246	-20,82
689,434	-26,96
689,623	40,62
689,811	48,81
690	-2,39
690,188	-49,49
690,377	22,19
690,565	61,1
690,753	69,29
690,942	-20,82
691,13	11,95
691,318	-47,44
691,507	-0,34
691,695	-49,49
691,883	61,1
692,072	-6,49
692,26	69,29
692,448	52,91
692,636	-90,45
692,824	-20,82
693,013	59,05
693,201	-26,96
693,389	48,81
693,577	11,95
693,765	104,11
693,953	-92,5
694,141	-43,35
694,329	-53,59
694,518	-35,16
694,706	69,29
694,894	11,95
695,082	-78,16
695,27	48,81
695,458	61,1
695,646	3,75
695,834	40,62
696,022	67,24
696,209	-4,44
696,397	-29,01
696,585	-37,2
696,773	7,85
696,961	-33,11
697,149	-14,68
697,337	-0,34
697,525	13,99
697,712	-6,49
697,9	-2,39
698,088	24,23
698,276	97,96
698,463	-39,25
698,651	42,67
698,839	-78,16
699,027	-10,58
699,214	50,86
699,402	3,75
699,59	-65,88
699,777	-65,88
699,965	-20,82
700,152	-37,2
700,34	-4,44
700,528	3,75
700,715	28,33
700,903	28,33
701,09	24,23
701,278	38,57
701,465	36,52
701,653	9,9
701,84	73,39
702,028	13,99
702,215	-20,82
702,402	-12,63
702,59	54,95
702,777	61,1
702,965	16,04
703,152	-26,96
703,339	69,29
703,527	5,8
703,714	-37,2
703,901	-74,07
704,088	-59,73
704,276	-18,77
704,463	75,43
704,65	54,95
704,837	-29,01
705,025	36,52
705,212	-51,54
705,399	30,38
705,586	-20,82
705,773	-8,53
705,96	-53,59
706,147	63,15
706,335	28,33
706,522	71,34
706,709	5,8
706,896	-41,3
707,083	40,62
707,27	-78,16
707,457	71,34
707,644	-20,82
707,831	87,72
708,018	-69,97
708,205	-43,35
708,392	22,19
708,578	7,85
708,765	11,95
708,952	-86,36
709,139	-18,77
709,326	-20,82
709,513	-4,44
709,7	3,75
709,886	44,71
710,073	67,24
710,26	188,07
710,447	-84,31
710,633	20,14
710,82	-69,97
711,007	61,1
711,193	28,33
711,38	-76,12
711,567	22,19
711,753	-26,96
711,94	-12,63
712,127	65,19
712,313	3,75
712,5	-37,2
712,686	-4,44
712,873	9,9
713,059	-53,59
713,246	69,29
713,432	28,33
713,619	-59,73
713,805	-4,44
713,992	130,73
714,178	1,71
714,365	-12,63
714,551	95,91
714,737	5,8
714,924	-100,69
715,11	40,62
715,297	36,52
715,483	-47,44
715,669	-18,77
715,855	-76,12
716,042	30,38
716,228	20,14
716,414	28,33
716,6	5,8
716,787	13,99
716,973	-45,4
717,159	11,95
717,345	42,67
717,531	42,67
717,718	30,38
717,904	16,04
718,09	11,95
718,276	20,14
718,462	-10,58
718,648	104,11
718,834	-53,59
719,02	87,72
719,206	-29,01
719,392	-55,64
719,578	16,04
719,764	-20,82
719,95	38,57
720,136	112,3
720,322	3,75
720,508	13,99
720,694	-12,63
720,879	-51,54
721,065	42,67
721,251	-4,44
721,437	-117,08
721,623	40,62
721,809	-45,4
721,994	20,14
722,18	-131,41
722,366	40,62
722,552	-8,53
722,737	-20,82
722,923	97,96
723,109	48,81
723,294	11,95
723,48	46,76
723,666	73,39
723,851	-45,4
724,037	40,62
724,222	77,48
724,408	54,95
724,593	-37,2
724,779	75,43
724,965	36,52
725,15	40,62
725,336	24,23
725,521	110,25
725,706	71,34
725,892	-2,39
726,077	-12,63
726,263	-45,4
726,448	132,78
726,634	118,44
726,819	32,43
727,004	110,25
727,19	5,8
727,375	83,63
727,56	-39,25
727,745	-57,68
727,931	3,75
728,116	-18,77
728,301	77,48
728,486	95,91
728,672	-53,59
728,857	36,52
729,042	81,58
729,227	-78,16
729,412	77,48
729,597	-8,53
729,783	-22,87
729,968	-4,44
730,153	-12,63
730,338	-29,01
730,523	36,52
730,708	52,91
730,893	54,95
731,078	-12,63
731,263	20,14
731,448	-18,77
731,633	11,95
731,818	-139,6
732,003	22,19
732,187	11,95
732,372	-102,74
732,557	18,09
732,742	-135,51
732,927	-31,06
733,112	46,76
733,297	20,14
733,481	13,99
733,666	3,75
733,851	-4,44
734,036	-53,59
734,22	-47,44
734,405	175,78
734,59	-43,35
734,774	-18,77
734,959	-14,68
735,144	159,4
735,328	48,81
735,513	-65,88
735,698	26,28
735,882	89,77
736,067	95,91
736,251	69,29
736,436	-10,58
736,62	-67,92
736,805	16,04
736,989	65,19
737,174	-37,2
737,358	-53,59
737,543	97,96
737,727	-37,2
737,911	128,68
738,096	5,8
738,28	59,05
738,465	-37,2
738,649	67,24
738,833	63,15
739,018	-4,44
739,202	-10,58
739,386	-65,88
739,57	-4,44
739,755	-35,16
739,939	24,23
740,123	-10,58
740,307	110,25
740,491	54,95
740,676	-12,63
740,86	11,95
741,044	7,85
741,228	28,33
741,412	-43,35
741,596	-65,88
741,78	-41,3
741,964	87,72
742,148	-53,59
742,332	-41,3
742,516	11,95
742,7	122,54
742,884	-47,44
743,068	32,43
743,252	-18,77
743,436	-20,82
743,62	-59,73
743,804	89,77
743,988	130,73
744,172	28,33
744,356	-24,92
744,539	-8,53
744,723	-47,44
744,907	-65,88
745,091	-51,54
745,275	-37,2
745,458	67,24
745,642	9,9
745,826	-20,82
746,009	110,25
746,193	44,71
746,377	85,67
746,56	52,91
746,744	22,19
746,928	-4,44
747,111	30,38
747,295	24,23
747,478	20,14
747,662	3,75
747,846	61,1
748,029	69,29
748,213	28,33
748,396	67,24
748,58	87,72
748,763	36,52
748,946	-4,44
749,13	-57,68
749,313	-69,97
749,497	44,71
749,68	44,71
749,863	32,43
750,047	-10,58
750,23	3,75
750,413	93,87
750,597	-8,53
750,78	-86,36
750,963	63,15
751,146	5,8
751,33	-65,88
751,513	36,52
751,696	-53,59
751,879	-20,82
752,062	-69,97
752,246	44,71
752,429	28,33
752,612	32,43
752,795	1,71
752,978	-29,01
753,161	-108,88
753,344	-35,16
753,527	22,19
753,71	-47,44
753,893	11,95
754,076	-35,16
754,259	69,29
754,442	-51,54
754,625	52,91
754,808	120,49
754,991	-16,73
755,174	-61,78
755,357	-14,68
755,539	-8,53
755,722	77,48
755,905	-72,02
756,088	7,85
756,271	-20,82
756,453	44,71
756,636	-35,16
756,819	73,39
757,002	-45,4
757,184	147,11
757,367	20,14
757,55	28,33
757,732	65,19
757,915	7,85
758,098	54,95
758,28	-12,63
758,463	32,43
758,645	3,75
758,828	85,67
759,011	3,75
759,193	89,77
759,376	57
759,558	-37,2
759,741	3,75
759,923	-57,68
760,105	-10,58
760,288	44,71
760,47	-92,5
760,653	-37,2
760,835	44,71
761,017	-98,64
761,2	-4,44
761,382	116,39
761,564	22,19
761,747	61,1
761,929	-24,92
762,111	-53,59
762,294	-12,63
762,476	171,69
762,658	36,52
762,84	118,44
763,022	-12,63
763,205	22,19
763,387	69,29
763,569	71,34
763,751	-121,17
763,933	-37,2
764,115	-10,58
764,297	61,1
764,479	93,87
764,661	-61,78
764,843	63,15
765,025	28,33
765,207	11,95
765,389	-53,59
765,571	-201,04
765,753	-37,2
765,935	63,15
766,117	54,95
766,299	112,3
766,481	122,54
766,663	-53,59
766,845	-80,21
767,026	-29,01
767,208	22,19
767,39	-12,63
767,572	-59,73
767,753	30,38
767,935	11,95
768,117	7,85
768,299	42,67
768,48	-16,73
768,662	-12,63
768,844	-20,82
769,025	143,02
769,207	-94,55
769,389	-18,77
769,57	61,1
769,752	-18,77
769,933	-41,3
770,115	22,19
770,296	32,43
770,478	102,06
770,659	-12,63
770,841	186,02
771,022	-24,92
771,204	-12,63
771,385	79,53
771,567	126,63
771,748	102,06
771,929	11,95
772,111	1,71
772,292	48,81
772,473	130,73
772,655	52,91
772,836	36,52
773,017	50,86
773,199	28,33
773,38	95,91
773,561	114,34
773,742	-4,44
773,923	-16,73
774,105	130,73
774,286	44,71
774,467	-26,96
774,648	11,95
774,829	52,91
775,01	3,75
775,191	-72,02
775,372	120,49
775,553	-26,96
775,734	87,72
775,915	71,34
776,096	396,96
776,277	962,2
776,458	1666,71
776,639	2621,06
776,82	3477,11
777,001	4107,88
777,182	4902,5
777,363	5310,04
777,544	5559,89
777,725	5336,67
777,906	4912,74
778,086	4173,42
778,267	3698,29
778,448	2895,49
778,629	2420,36
778,809	2066,06
778,99	1765,01
779,171	1537,68
779,352	1363,61
779,532	1097,37
779,713	1142,43
779,894	1003,16
780,074	1076,89
780,255	945,82
780,435	829,09
780,616	601,76
780,797	519,84
780,977	249,51
781,158	126,63
781,338	63,15
781,519	143,02
781,699	210,6
781,88	54,95
782,06	143,02
782,241	28,33
782,421	-78,16
782,601	22,19
782,782	46,76
782,962	173,74
783,142	3,75
783,323	61,1
783,503	104,11
783,683	61,1
783,864	-2,39
784,044	28,33
784,224	69,29
784,404	-59,73
784,585	20,14
784,765	22,19
784,945	106,15
785,125	-20,82
785,305	110,25
785,485	102,06
785,666	32,43
785,846	-76,12
786,026	36,52
786,206	-67,92
786,386	-16,73
786,566	30,38
786,746	-16,73
786,926	52,91
787,106	-10,58
787,286	5,8
787,466	46,76
787,646	24,23
787,826	3,75
788,006	59,05
788,185	3,75
788,365	-51,54
788,545	11,95
788,725	7,85
788,905	28,33
789,085	77,48
789,264	-2,39
789,444	3,75
789,624	54,95
789,804	16,04
789,983	122,54
790,163	38,57
790,343	65,19
790,522	28,33
790,702	40,62
790,882	-14,68
791,061	110,25
791,241	61,1
791,42	-24,92
791,6	116,39
791,78	-12,63
791,959	-12,63
792,139	36,52
792,318	13,99
792,498	-35,16
792,677	77,48
792,856	102,06
793,036	-12,63
793,215	-12,63
793,395	69,29
793,574	-20,82
793,753	38,57
793,933	61,1
794,112	151,21
794,291	-26,96
794,471	81,58
794,65	-53,59
794,829	3,75
795,008	-29,01
795,188	28,33
795,367	95,91
795,546	-20,82
795,725	73,39
795,904	65,19
796,084	138,92
796,263	-43,35
796,442	95,91
796,621	46,76
796,8	61,1
796,979	52,91
797,158	11,95
797,337	-12,63
797,516	9,9
797,695	48,81
797,874	30,38
798,053	46,76
798,232	-12,63
798,411	-57,68
798,59	-33,11
798,769	-45,4
798,947	42,67
799,126	28,33
799,305	32,43
799,484	9,9
799,663	-84,31
799,842	54,95
800,02	-35,16
800,199	-4,44
800,378	126,63
800,557	-90,45
800,735	-35,16
800,914	-8,53
801,093	46,76
801,271	48,81
801,45	40,62
801,628	20,14
801,807	16,04
801,986	-12,63
802,164	57
802,343	16,04
802,521	-69,97
802,7	46,76
802,878	20,14
803,057	-29,01
803,235	-33,11
803,414	-0,34
803,592	5,8
803,771	28,33
803,949	42,67
804,127	-41,3
804,306	79,53
804,484	-63,83
804,662	-37,2
804,841	-51,54
805,019	-10,58
805,197	48,81
805,375	16,04
805,554	-4,44
805,732	-72,02
805,91	30,38
806,088	28,33
806,266	11,95
806,445	-16,73
806,623	7,85
806,801	-24,92
806,979	63,15
807,157	38,57
807,335	-119,12
807,513	-16,73
807,691	36,52
807,869	-45,4
808,047	3,75
808,225	28,33
808,403	65,19
808,581	44,71
808,759	38,57
808,937	5,8
809,115	20,14
809,293	81,58
809,471	-8,53
809,649	-2,39
809,826	11,95
810,004	-8,53
810,182	-108,88
810,36	-8,53
810,538	22,19
810,715	-12,63
810,893	-90,45
811,071	20,14
811,248	114,34
811,426	1,71
811,604	63,15
811,781	-18,77
811,959	54,95
812,137	-61,78
812,314	24,23
812,492	18,09
812,669	26,28
812,847	-22,87
813,024	-45,4
813,202	85,67
813,379	28,33
813,557	-33,11
813,734	93,87
813,912	61,1
814,089	-6,49
814,267	52,91
814,444	-26,96
814,621	44,71
814,799	-53,59
814,976	143,02
815,153	54,95
815,331	-29,01
815,508	130,73
815,685	-35,16
815,862	36,52
816,04	40,62
816,217	-29,01
816,394	-6,49
816,571	46,76
816,748	61,1
816,926	69,29
817,103	200,36
817,28	13,99
817,457	13,99
817,634	-10,58
817,811	-53,59
817,988	-69,97
818,165	-18,77
818,342	24,23
818,519	36,52
818,696	-2,39
818,873	-29,01
819,05	97,96
819,227	-69,97
819,404	52,91
819,581	11,95
819,758	-69,97
819,934	46,76
820,111	-141,65
820,288	11,95
820,465	85,67
820,642	61,1
820,818	28,33
820,995	-8,53
821,172	-10,58
821,349	24,23
821,525	20,14
821,702	50,86
821,879	-47,44
822,055	9,9
822,232	-53,59
822,409	22,19
822,585	22,19
822,762	52,91
822,938	52,91
823,115	79,53
823,291	-35,16
823,468	97,96
823,644	44,71
823,821	40,62
823,997	-59,73
824,174	-10,58
824,35	-65,88
824,527	57
824,703	-2,39
824,879	59,05
825,056	-12,63
825,232	48,81
825,408	-33,11
825,585	-82,26
825,761	5,8
825,937	-47,44
826,113	69,29
826,29	13,99
826,466	-72,02
826,642	442,02
826,818	5,8
826,994	-29,01
827,17	-76,12
827,347	-29,01
827,523	-16,73
827,699	20,14
827,875	26,28
828,051	24,23
828,227	-10,58
828,403	57
828,579	63,15
828,755	95,91
828,931	-0,34
829,107	32,43
829,283	102,06
829,459	-74,07
829,635	36,52
829,811	65,19
829,986	61,1
830,162	16,04
830,338	36,52
830,514	-2,39
830,69	28,33
830,865	-10,58
831,041	7,85
831,217	26,28
831,393	-51,54
831,568	20,14
831,744	38,57
831,92	38,57
832,095	-45,4
832,271	-22,87
832,447	3,75
832,622	67,24
832,798	-0,34
832,973	85,67
833,149	28,33
833,325	34,47
833,5	54,95
833,676	50,86
833,851	-4,44
834,027	-20,82
834,202	71,34
834,377	22,19
834,553	-20,82
834,728	7,85
834,904	61,1
835,079	-100,69
835,254	-33,11
835,43	32,43
835,605	-59,73
835,78	-61,78
835,955	-57,68
836,131	-41,3
836,306	-69,97
836,481	-29,01
836,656	52,91
836,832	95,91
837,007	-43,35
837,182	-16,73
837,357	16,04
837,532	57
837,707	-24,92
837,882	77,48
838,057	44,71
838,232	28,33
838,407	30,38
838,582	13,99
838,757	54,95
838,932	102,06
839,107	-14,68
839,282	-0,34
839,457	32,43
839,632	93,87
839,807	38,57
839,982	-22,87
840,157	-86,36
840,332	36,52
840,506	-69,97
840,681	22,19
840,856	87,72
841,031	-63,83
841,205	-4,44
841,38	-2,39
841,555	97,96
841,73	-29,01
841,904	46,76
842,079	-59,73
842,254	-18,77
842,428	-94,55
842,603	-110,93
842,777	-26,96
842,952	-74,07
843,126	18,09
843,301	77,48
843,476	218,79
843,65	499,36
843,825	876,19
843,999	1175,19
844,173	1060,51
844,348	1396,37
844,522	1576,59
844,697	1527,44
844,871	1472,15
845,045	1355,41
845,22	1111,71
845,394	1119,9
845,568	972,44
845,743	929,44
845,917	673,44
846,091	650,91
846,265	695,97
846,44	566,95
846,614	593,57
846,788	470,69
846,962	550,56
847,136	501,41
847,31	439,97
847,485	589,47
847,659	317,09
847,833	454,31
848,007	437,92
848,181	356,01
848,355	384,68
848,529	374,44
848,703	186,02
848,877	85,67
849,051	93,87
849,225	134,82
849,399	28,33
849,573	-53,59
849,746	-29,01
849,92	36,52
850,094	36,52
850,268	36,52
850,442	97,96
850,616	5,8
850,789	-8,53
850,963	-0,34
851,137	-90,45
851,311	108,2
851,484	79,53
851,658	79,53
851,832	-26,96
852,005	-10,58
852,179	-29,01
852,352	1,71
852,526	-14,68
852,7	71,34
852,873	32,43
853,047	126,63
853,22	44,71
853,394	65,19
853,567	73,39
853,741	-37,2
853,914	57
854,088	134,82
854,261	-51,54
854,434	-98,64
854,608	-59,73
854,781	-10,58
854,955	18,09
855,128	44,71
855,301	3,75
855,475	-4,44
855,648	-12,63
855,821	38,57
855,994	126,63
856,168	28,33
856,341	20,14
856,514	-59,73
856,687	28,33
856,86	50,86
857,033	85,67
857,207	11,95
857,38	-55,64
857,553	36,52
857,726	85,67
857,899	69,29
858,072	-2,39
858,245	-24,92
858,418	-8,53
858,591	26,28
858,764	-20,82
858,937	16,04
859,11	-2,39
859,283	61,1
859,455	20,14
859,628	20,14
859,801	73,39
859,974	93,87
860,147	11,95
860,32	7,85
860,492	30,38
860,665	-82,26
860,838	-4,44
861,011	-45,4
861,183	3,75
861,356	77,48
861,529	13,99
861,701	11,95
861,874	38,57
862,047	73,39
862,219	-43,35
862,392	18,09
862,564	-26,96
862,737	-16,73
862,909	77,48
863,082	-26,96
863,254	20,14
863,427	-45,4
863,599	120,49
863,772	-119,12
863,944	54,95
864,117	18,09
864,289	85,67
864,461	-8,53
864,634	61,1
864,806	-8,53
864,978	7,85
865,151	-18,77
865,323	126,63
865,495	38,57
865,667	44,71
865,84	100,01
866,012	44,71
866,184	20,14
866,356	-61,78
866,528	77,48
866,7	-43,35
866,873	-29,01
867,045	-43,35
867,217	20,14
867,389	50,86
867,561	36,52
867,733	13,99
867,905	18,09
868,077	38,57
868,249	11,95
868,421	-8,53
868,593	-53,59
868,765	52,91
868,936	-35,16
869,108	69,29
869,28	89,77
869,452	7,85
869,624	-37,2
869,796	71,34
869,968	61,1
870,139	93,87
870,311	-117,08
870,483	85,67
870,654	3,75
870,826	28,33
870,998	44,71
871,17	30,38
871,341	-51,54
871,513	77,48
871,684	-35,16
871,856	-33,11
872,028	5,8
872,199	-53,59
872,371	-12,63
872,542	36,52
872,714	3,75
872,885	112,3
873,057	28,33
873,228	73,39
873,4	73,39
873,571	118,44
873,742	-4,44
873,914	85,67
874,085	-18,77
874,256	-8,53
874,428	-20,82
874,599	3,75
874,77	63,15
874,942	-82,26
875,113	48,81
875,284	-6,49
875,455	-10,58
875,626	-33,11
875,798	-16,73
875,969	-53,59
876,14	-16,73
876,311	104,11
876,482	93,87
876,653	11,95
876,824	97,96
876,995	-4,44
877,166	69,29
877,337	20,14
877,508	-10,58
877,679	-26,96
877,85	-29,01
878,021	-61,78
878,192	81,58
878,363	-69,97
878,534	-10,58
878,705	-108,88
878,876	5,8
879,047	93,87
879,217	-43,35
879,388	28,33
879,559	1,71
879,73	89,77
879,9	-37,2
880,071	30,38
880,242	22,19
880,413	118,44
880,583	61,1
880,754	65,19
880,924	32,43
881,095	-51,54
881,266	-33,11
881,436	5,8
881,607	65,19
881,777	-49,49
881,948	-10,58
882,118	28,33
882,289	44,71
882,459	-4,44
882,63	38,57
882,8	-4,44
882,971	30,38
883,141	-33,11
883,311	3,75
883,482	110,25
883,652	36,52
883,822	-4,44
883,993	-65,88
884,163	28,33
884,333	28,33
884,504	75,43
884,674	38,57
884,844	11,95
885,014	-22,87
885,184	13,99
885,355	-94,55
885,525	61,1
885,695	81,58
885,865	110,25
886,035	24,23
886,205	-16,73
886,375	32,43
886,545	81,58
886,715	-131,41
886,885	69,29
887,055	-0,34
887,225	-53,59
887,395	5,8
887,565	136,87
887,735	22,19
887,905	85,67
888,075	-49,49
888,244	73,39
888,414	32,43
888,584	28,33
888,754	-18,77
888,924	40,62
889,093	175,78
889,263	-59,73
889,433	-0,34
889,603	1,71
889,772	-67,92
889,942	102,06
890,111	34,47
890,281	59,05
890,451	20,14
890,62	11,95
890,79	-4,44
890,959	40,62
891,129	-12,63
891,298	52,91
891,468	36,52
891,637	11,95
891,807	22,19
891,976	-39,25
892,146	-18,77
892,315	-8,53
892,485	63,15
892,654	-37,2
892,823	-35,16
892,993	-12,63
893,162	11,95
893,331	83,63
893,501	-10,58
893,67	124,58
893,839	38,57
894,008	24,23
894,177	69,29
894,347	61,1
894,516	110,25
894,685	44,71
894,854	9,9
895,023	-2,39
895,192	20,14
