Data from h2o_USB4F104161__11__11-48-47-098.txt Node

Date: Tue Apr 14 11:48:47 EDT 2026
User: LaboPhy
Spectrometer: USB4F10416
Trigger mode: 4
Integration Time (sec): 1,000000E-1
Scans to average: 1
Electric dark correction enabled: true
Nonlinearity correction enabled: false
Boxcar width: 0
XAxis mode: Wavelengths
Number of Pixels in Spectrum: 3648
>>>>>Begin Spectral Data<<<<<
177,847	-211,96
178,066	-211,96
178,284	-211,96
178,502	-201,72
178,72	-179,2
178,939	35,84
179,157	21,5
179,375	-64,51
179,593	41,98
179,812	-11,26
180,03	25,6
180,248	-31,74
180,466	37,89
180,685	-23,55
180,903	-23,55
181,121	-7,17
181,339	-1,02
181,557	-78,85
181,775	-3,07
181,994	-7,17
182,212	-56,32
182,43	-54,27
182,648	41,98
182,866	41,98
183,084	29,7
183,302	1,02
183,52	19,46
183,739	33,79
183,957	82,94
184,175	-7,17
184,393	50,18
184,611	35,84
184,829	84,99
185,047	-15,36
185,265	50,18
185,483	-3,07
185,701	37,89
185,919	123,9
186,137	11,26
186,355	-89,09
186,573	-44,03
186,791	1,02
187,009	70,65
187,227	41,98
187,445	17,41
187,663	-54,27
187,881	-31,74
188,098	-44,03
188,316	39,94
188,534	27,65
188,752	25,6
188,97	-103,42
189,188	13,31
189,406	9,22
189,624	25,6
189,841	-29,7
190,059	-162,81
190,277	-31,74
190,495	17,41
190,713	60,42
190,931	95,23
191,148	3,07
191,366	-11,26
191,584	-72,7
191,802	21,5
192,019	35,84
192,237	21,5
192,455	11,26
192,673	27,65
192,89	-48,13
193,108	-7,17
193,326	-48,13
193,543	41,98
193,761	9,22
193,979	54,27
194,196	-19,46
194,414	74,75
194,632	117,76
194,849	-41,98
195,067	-103,42
195,285	19,46
195,502	-52,22
195,72	-27,65
195,937	-39,94
196,155	13,31
196,373	19,46
196,59	-15,36
196,808	5,12
197,025	62,46
197,243	68,61
197,46	46,08
197,678	41,98
197,895	-52,22
198,113	-27,65
198,33	9,22
198,548	-7,17
198,765	-105,47
198,983	-64,51
199,2	-78,85
199,418	44,03
199,635	44,03
199,853	25,6
200,07	-84,99
200,288	-62,46
200,505	17,41
200,722	103,42
200,94	25,6
201,157	33,79
201,375	66,56
201,592	-13,31
201,809	-7,17
202,027	87,04
202,244	62,46
202,461	-7,17
202,679	46,08
202,896	9,22
203,113	17,41
203,331	21,5
203,548	58,37
203,765	-15,36
203,982	50,18
204,2	-7,17
204,417	-70,65
204,634	158,72
204,851	41,98
205,069	27,65
205,286	9,22
205,503	41,98
205,72	-29,7
205,937	29,7
206,155	-46,08
206,372	44,03
206,589	-48,13
206,806	-15,36
207,023	-56,32
207,24	44,03
207,458	-52,22
207,675	-72,7
207,892	-27,65
208,109	-54,27
208,326	-56,32
208,543	70,65
208,76	-1,02
208,977	25,6
209,194	54,27
209,411	-52,22
209,628	-39,94
209,845	-48,13
210,062	-5,12
210,279	-95,23
210,496	50,18
210,713	-11,26
210,93	-66,56
211,147	82,94
211,364	-48,13
211,581	-23,55
211,798	125,95
212,015	-105,47
212,232	-17,41
212,449	-9,22
212,666	-15,36
212,883	-80,89
213,1	-72,7
213,317	-27,65
213,533	-7,17
213,75	-17,41
213,967	-33,79
214,184	-101,37
214,401	-21,5
214,618	33,79
214,835	13,31
215,051	-46,08
215,268	-15,36
215,485	33,79
215,702	-46,08
215,919	-7,17
216,135	150,53
216,352	-48,13
216,569	-21,5
216,786	25,6
217,002	44,03
217,219	33,79
217,436	-31,74
217,652	1,02
217,869	-5,12
218,086	46,08
218,302	-7,17
218,519	-1,02
218,736	-23,55
218,952	-46,08
219,169	25,6
219,386	23,55
219,602	-97,28
219,819	44,03
220,036	-56,32
220,252	54,27
220,469	-70,65
220,685	-46,08
220,902	27,65
221,118	-37,89
221,335	-27,65
221,552	-105,47
221,768	-3,07
221,985	-39,94
222,201	-5,12
222,418	-7,17
222,634	1,02
222,851	-5,12
223,067	-25,6
223,284	60,42
223,5	13,31
223,716	9,22
223,933	78,85
224,149	-113,66
224,366	-19,46
224,582	-91,13
224,799	-13,31
225,015	3,07
225,231	48,13
225,448	-89,09
225,664	1,02
225,88	-11,26
226,097	25,6
226,313	-39,94
226,529	-7,17
226,746	-15,36
226,962	33,79
227,178	-25,6
227,395	-7,17
227,611	33,79
227,827	39,94
228,044	25,6
228,26	80,89
228,476	37,89
228,692	91,13
228,909	-60,42
229,125	21,5
229,341	1,02
229,557	13,31
229,773	-87,04
229,99	29,7
230,206	-44,03
230,422	11,26
230,638	-27,65
230,854	-39,94
231,07	-72,7
231,286	-31,74
231,503	-37,89
231,719	-62,46
231,935	-1,02
232,151	-78,85
232,367	50,18
232,583	50,18
232,799	33,79
233,015	74,75
233,231	-52,22
233,447	1,02
233,663	-37,89
233,879	64,51
234,095	17,41
234,311	68,61
234,527	-70,65
234,743	-3,07
234,959	-48,13
235,175	17,41
235,391	-25,6
235,607	-29,7
235,823	41,98
236,039	-76,8
236,255	-46,08
236,471	50,18
236,687	-52,22
236,903	60,42
237,118	103,42
237,334	11,26
237,55	66,56
237,766	-128
237,982	-23,55
238,198	11,26
238,413	-11,26
238,629	9,22
238,845	-64,51
239,061	-27,65
239,277	-13,31
239,492	9,22
239,708	-3,07
239,924	-70,65
240,14	-11,26
240,355	82,94
240,571	-9,22
240,787	25,6
241,003	17,41
241,218	-7,17
241,434	1,02
241,65	9,22
241,865	-72,7
242,081	11,26
242,297	-54,27
242,512	41,98
242,728	-37,89
242,944	9,22
243,159	-54,27
243,375	-25,6
243,59	1,02
243,806	-37,89
244,022	-11,26
244,237	41,98
244,453	-3,07
244,668	39,94
244,884	44,03
245,099	-11,26
245,315	99,33
245,53	9,22
245,746	33,79
245,961	125,95
246,177	-15,36
246,392	70,65
246,608	15,36
246,823	-39,94
247,039	1,02
247,254	-31,74
247,47	33,79
247,685	-15,36
247,9	-39,94
248,116	11,26
248,331	-74,75
248,547	-17,41
248,762	-101,37
248,977	21,5
249,193	15,36
249,408	29,7
249,623	46,08
249,839	-39,94
250,054	-109,57
250,269	1,02
250,485	68,61
250,7	17,41
250,915	-15,36
251,13	-15,36
251,346	-46,08
251,561	19,46
251,776	58,37
251,991	-64,51
252,207	37,89
252,422	-13,31
252,637	-80,89
252,852	-50,18
253,067	50,18
253,283	27,65
253,498	9,22
253,713	-78,85
253,928	-82,94
254,143	17,41
254,358	35,84
254,573	-37,89
254,788	-113,66
255,004	-7,17
255,219	-11,26
255,434	70,65
255,649	-31,74
255,864	29,7
256,079	-13,31
256,294	3,07
256,509	11,26
256,724	5,12
256,939	-121,85
257,154	-46,08
257,369	-27,65
257,584	64,51
257,799	-23,55
258,014	-17,41
258,229	-17,41
258,444	-15,36
258,659	66,56
258,874	50,18
259,089	78,85
259,304	-80,89
259,518	-15,36
259,733	39,94
259,948	29,7
260,163	33,79
260,378	11,26
260,593	23,55
260,808	11,26
261,022	-84,99
261,237	52,22
261,452	25,6
261,667	-56,32
261,882	19,46
262,096	37,89
262,311	158,72
262,526	-72,7
262,741	-58,37
262,955	-35,84
263,17	46,08
263,385	-56,32
263,6	-29,7
263,814	-15,36
264,029	-74,75
264,244	-11,26
264,458	-19,46
264,673	-7,17
264,888	44,03
265,102	17,41
265,317	-7,17
265,532	9,22
265,746	15,36
265,961	41,98
266,175	-13,31
266,39	23,55
266,605	-37,89
266,819	31,74
267,034	52,22
267,248	-35,84
267,463	-62,46
267,677	-80,89
267,892	52,22
268,106	-101,37
268,321	-74,75
268,535	1,02
268,75	50,18
268,964	-29,7
269,179	35,84
269,393	50,18
269,608	-3,07
269,822	-46,08
270,036	-52,22
270,251	17,41
270,465	33,79
270,68	19,46
270,894	1,02
271,108	158,72
271,323	-3,07
271,537	58,37
271,752	-31,74
271,966	29,7
272,18	-87,04
272,394	21,5
272,609	17,41
272,823	-39,94
273,037	9,22
273,252	37,89
273,466	5,12
273,68	111,61
273,894	50,18
274,109	-19,46
274,323	-13,31
274,537	48,13
274,751	-23,55
274,966	5,12
275,18	-27,65
275,394	-109,57
275,608	-78,85
275,822	-64,51
276,036	-64,51
276,25	3,07
276,465	91,13
276,679	-13,31
276,893	-54,27
277,107	66,56
277,321	-29,7
277,535	-9,22
277,749	37,89
277,963	87,04
278,177	-95,23
278,391	33,79
278,605	-76,8
278,819	31,74
279,033	-31,74
279,247	25,6
279,461	-54,27
279,675	-39,94
279,889	-23,55
280,103	-15,36
280,317	44,03
280,531	-60,42
280,745	-3,07
280,959	-15,36
281,173	66,56
281,387	103,42
281,601	17,41
281,815	109,57
282,029	-89,09
282,242	-35,84
282,456	-15,36
282,67	-25,6
282,884	-46,08
283,098	-76,8
283,312	9,22
283,525	-44,03
283,739	9,22
283,953	-31,74
284,167	72,7
284,381	46,08
284,594	-56,32
284,808	15,36
285,022	-31,74
285,235	17,41
285,449	-3,07
285,663	25,6
285,877	21,5
286,09	11,26
286,304	3,07
286,518	-39,94
286,731	-101,37
286,945	46,08
287,159	-78,85
287,372	-21,5
287,586	-5,12
287,799	-27,65
288,013	-48,13
288,227	-39,94
288,44	164,86
288,654	-3,07
288,867	50,18
289,081	-7,17
289,294	-46,08
289,508	87,04
289,721	-56,32
289,935	50,18
290,148	19,46
290,362	9,22
290,575	46,08
290,789	-31,74
291,002	-35,84
291,216	50,18
291,429	-31,74
291,643	66,56
291,856	-15,36
292,069	33,79
292,283	-3,07
292,496	-21,5
292,71	46,08
292,923	9,22
293,136	-39,94
293,35	-39,94
293,563	46,08
293,776	3,07
293,99	25,6
294,203	-23,55
294,416	-48,13
294,63	17,41
294,843	-50,18
295,056	19,46
295,269	-95,23
295,483	-64,51
295,696	-13,31
295,909	-21,5
296,122	23,55
296,335	-29,7
296,549	1,02
296,762	52,22
296,975	-13,31
297,188	-15,36
297,401	46,08
297,615	27,65
297,828	68,61
298,041	119,81
298,254	-54,27
298,467	-5,12
298,68	-72,7
298,893	-72,7
299,106	9,22
299,319	134,14
299,532	58,37
299,745	1,02
299,958	-31,74
300,171	-74,75
300,384	-15,36
300,598	-82,94
300,81	54,27
301,023	-29,7
301,236	-27,65
301,449	33,79
301,662	-72,7
301,875	-29,7
302,088	-52,22
302,301	3,07
302,514	-23,55
302,727	35,84
302,94	-48,13
303,153	-97,28
303,366	3,07
303,579	-58,37
303,791	50,18
304,004	-68,61
304,217	5,12
304,43	9,22
304,643	-66,56
304,855	-29,7
305,068	56,32
305,281	27,65
305,494	54,27
305,707	-60,42
305,919	128
306,132	-7,17
306,345	5,12
306,558	25,6
306,77	27,65
306,983	-13,31
307,196	91,13
307,408	-21,5
307,621	41,98
307,834	-93,18
308,046	7,17
308,259	52,22
308,472	48,13
308,684	50,18
308,897	13,31
309,109	17,41
309,322	-31,74
309,535	-37,89
309,747	91,13
309,96	87,04
310,172	123,9
310,385	162,81
310,597	-5,12
310,81	44,03
311,022	-48,13
311,235	-3,07
311,447	-5,12
311,66	58,37
311,872	11,26
312,085	-44,03
312,297	-35,84
312,51	5,12
312,722	41,98
312,934	1,02
313,147	-48,13
313,359	-29,7
313,572	-29,7
313,784	-7,17
313,996	107,52
314,209	50,18
314,421	19,46
314,633	-80,89
314,846	-52,22
315,058	58,37
315,27	37,89
315,483	27,65
315,695	58,37
315,907	52,22
316,119	-35,84
316,332	13,31
316,544	95,23
316,756	70,65
316,968	56,32
317,181	15,36
317,393	25,6
317,605	-7,17
317,817	39,94
318,029	74,75
318,241	-7,17
318,454	-27,65
318,666	-39,94
318,878	-11,26
319,09	-56,32
319,302	35,84
319,514	54,27
319,726	-23,55
319,938	87,04
320,15	35,84
320,362	15,36
320,574	-68,61
320,786	-7,17
320,999	-80,89
321,211	44,03
321,423	41,98
321,635	-11,26
321,847	35,84
322,058	-23,55
322,27	29,7
322,482	52,22
322,694	50,18
322,906	-35,84
323,118	11,26
323,33	50,18
323,542	-7,17
323,754	-5,12
323,966	-123,9
324,178	-9,22
324,389	101,37
324,601	123,9
324,813	-15,36
325,025	9,22
325,237	29,7
325,449	-1,02
325,66	93,18
325,872	13,31
326,084	-39,94
326,296	9,22
326,507	41,98
326,719	-1,02
326,931	-48,13
327,143	58,37
327,354	60,42
327,566	27,65
327,778	17,41
327,989	76,8
328,201	13,31
328,413	-54,27
328,624	93,18
328,836	-68,61
329,048	-121,85
329,259	-7,17
329,471	1,02
329,682	1,02
329,894	-52,22
330,106	-72,7
330,317	58,37
330,529	68,61
330,74	-111,61
330,952	25,6
331,163	19,46
331,375	-3,07
331,586	9,22
331,798	-72,7
332,009	33,79
332,221	84,99
332,432	-7,17
332,644	25,6
332,855	-76,8
333,067	97,28
333,278	21,5
333,489	76,8
333,701	-27,65
333,912	-35,84
334,124	-72,7
334,335	-48,13
334,546	-7,17
334,758	95,23
334,969	207,87
335,18	99,33
335,392	9,22
335,603	164,86
335,814	164,86
336,025	35,84
336,237	101,37
336,448	25,6
336,659	179,2
336,87	138,24
337,082	205,82
337,293	54,27
337,504	58,37
337,715	41,98
337,926	41,98
338,138	41,98
338,349	74,75
338,56	52,22
338,771	9,22
338,982	52,22
339,193	-48,13
339,404	82,94
339,616	35,84
339,827	74,75
340,038	-15,36
340,249	58,37
340,46	-72,7
340,671	21,5
340,882	125,95
341,093	91,13
341,304	-31,74
341,515	-56,32
341,726	-31,74
341,937	-1,02
342,148	-29,7
342,359	-41,98
342,57	-48,13
342,781	119,81
342,992	-23,55
343,203	50,18
343,414	33,79
343,624	-35,84
343,835	-56,32
344,046	9,22
344,257	27,65
344,468	-7,17
344,679	-60,42
344,89	27,65
345,1	-35,84
345,311	-11,26
345,522	11,26
345,733	-27,65
345,944	76,8
346,154	48,13
346,365	27,65
346,576	-80,89
346,787	-31,74
346,997	-3,07
347,208	52,22
347,419	21,5
347,629	11,26
347,84	11,26
348,051	-97,28
348,261	89,09
348,472	-11,26
348,683	25,6
348,893	-74,75
349,104	19,46
349,315	-44,03
349,525	25,6
349,736	62,46
349,946	15,36
350,157	39,94
350,368	101,37
350,578	-66,56
350,789	-13,31
350,999	-39,94
351,21	33,79
351,42	-37,89
351,631	-31,74
351,841	-46,08
352,052	1,02
352,262	87,04
352,472	-9,22
352,683	46,08
352,893	103,42
353,104	-19,46
353,314	160,77
353,525	447,48
353,735	105,47
353,945	29,7
354,156	35,84
354,366	115,71
354,576	181,25
354,787	9,22
354,997	-64,51
355,207	-46,08
355,418	60,42
355,628	41,98
355,838	119,81
356,048	115,71
356,259	164,86
356,469	189,44
356,679	175,1
356,889	156,67
357,1	107,52
357,31	87,04
357,52	72,7
357,73	101,37
357,94	-23,55
358,15	66,56
358,361	58,37
358,571	54,27
358,781	21,5
358,991	-11,26
359,201	-60,42
359,411	-23,55
359,621	-78,85
359,831	58,37
360,041	33,79
360,251	19,46
360,461	-3,07
360,672	-56,32
360,882	-13,31
361,092	1,02
361,302	60,42
361,512	-15,36
361,721	-11,26
361,931	117,76
362,141	50,18
362,351	91,13
362,561	1,02
362,771	21,5
362,981	9,22
363,191	-50,18
363,401	91,13
363,611	-9,22
363,821	-35,84
364,03	-54,27
364,24	64,51
364,45	103,42
364,66	220,16
364,87	-23,55
365,08	60,42
365,289	-31,74
365,499	11,26
365,709	37,89
365,919	41,98
366,128	-11,26
366,338	19,46
366,548	58,37
366,758	17,41
366,967	44,03
367,177	44,03
367,387	52,22
367,596	62,46
367,806	91,13
368,016	37,89
368,225	11,26
368,435	60,42
368,644	52,22
368,854	-33,79
369,064	-3,07
369,273	5,12
369,483	15,36
369,692	46,08
369,902	13,31
370,111	44,03
370,321	-13,31
370,53	82,94
370,74	-27,65
370,949	70,65
371,159	164,86
371,368	48,13
371,578	101,37
371,787	136,19
371,997	25,6
372,206	52,22
372,416	78,85
372,625	58,37
372,834	25,6
373,044	-23,55
373,253	54,27
373,462	78,85
373,672	52,22
373,881	95,23
374,09	44,03
374,3	82,94
374,509	107,52
374,718	-62,46
374,928	109,57
375,137	54,27
375,346	76,8
375,555	175,1
375,765	99,33
375,974	105,47
376,183	44,03
376,392	17,41
376,601	93,18
376,811	58,37
377,02	109,57
377,229	103,42
377,438	140,29
377,647	-31,74
377,856	-62,46
378,065	15,36
378,275	70,65
378,484	-27,65
378,693	50,18
378,902	97,28
379,111	152,57
379,32	74,75
379,529	76,8
379,738	39,94
379,947	87,04
380,156	95,23
380,365	74,75
380,574	156,67
380,783	3,07
380,992	9,22
381,201	11,26
381,41	-60,42
381,619	44,03
381,828	9,22
382,037	23,55
382,245	41,98
382,454	144,38
382,663	15,36
382,872	9,22
383,081	7,17
383,29	109,57
383,499	-41,98
383,707	150,53
383,916	95,23
384,125	41,98
384,334	17,41
384,542	109,57
384,751	1,02
384,96	46,08
385,169	41,98
385,377	74,75
385,586	11,26
385,795	66,56
386,004	128
386,212	-78,85
386,421	60,42
386,63	76,8
386,838	66,56
387,047	44,03
387,255	111,61
387,464	105,47
387,673	25,6
387,881	140,29
388,09	148,48
388,298	142,33
388,507	87,04
388,715	70,65
388,924	150,53
389,133	1,02
389,341	-1,02
389,55	58,37
389,758	58,37
389,967	115,71
390,175	35,84
390,383	156,67
390,592	121,85
390,8	66,56
391,009	89,09
391,217	-21,5
391,426	84,99
391,634	-84,99
391,842	1,02
392,051	33,79
392,259	136,19
392,467	82,94
392,676	17,41
392,884	-7,17
393,092	68,61
393,301	91,13
393,509	84,99
393,717	173,05
393,925	156,67
394,134	11,26
394,342	162,81
394,55	156,67
394,758	146,43
394,967	44,03
395,175	-21,5
395,383	41,98
395,591	52,22
395,799	76,8
396,007	3,07
396,216	152,57
396,424	74,75
396,632	107,52
396,84	25,6
397,048	62,46
397,256	50,18
397,464	91,13
397,672	183,29
397,88	-15,36
398,088	70,65
398,296	76,8
398,504	23,55
398,712	140,29
398,92	150,53
399,128	5,12
399,336	50,18
399,544	66,56
399,752	58,37
399,96	66,56
400,168	66,56
400,376	89,09
400,584	115,71
400,792	19,46
401	35,84
401,207	-64,51
401,415	58,37
401,623	5,12
401,831	-21,5
402,039	93,18
402,247	-37,89
402,454	93,18
402,662	99,33
402,87	58,37
403,078	181,25
403,285	119,81
403,493	-37,89
403,701	52,22
403,909	17,41
404,116	68,61
404,324	37,89
404,532	19,46
404,739	103,42
404,947	33,79
405,155	115,71
405,362	76,8
405,57	33,79
405,778	-7,17
405,985	46,08
406,193	29,7
406,4	-89,09
406,608	-31,74
406,816	50,18
407,023	35,84
407,231	-1,02
407,438	-3,07
407,646	136,19
407,853	35,84
408,061	1,02
408,268	11,26
408,476	-41,98
408,683	99,33
408,89	111,61
409,098	166,91
409,305	91,13
409,513	197,63
409,72	72,7
409,927	158,72
410,135	330,75
410,342	220,16
410,55	259,07
410,757	148,48
410,964	76,8
411,172	158,72
411,379	82,94
411,586	27,65
411,793	46,08
412,001	70,65
412,208	-72,7
412,415	41,98
412,622	46,08
412,83	50,18
413,037	60,42
413,244	-44,03
413,451	68,61
413,658	128
413,866	168,96
414,073	76,8
414,28	117,76
414,487	-15,36
414,694	-7,17
414,901	60,42
415,108	-13,31
415,315	-23,55
415,522	136,19
415,73	-23,55
415,937	-46,08
416,144	-7,17
416,351	-13,31
416,558	-62,46
416,765	-11,26
416,972	-15,36
417,179	-7,17
417,386	52,22
417,593	21,5
417,8	-1,02
418,006	66,56
418,213	35,84
418,42	46,08
418,627	37,89
418,834	-23,55
419,041	-21,5
419,248	44,03
419,455	-7,17
419,661	93,18
419,868	-1,02
420,075	64,51
420,282	-44,03
420,489	58,37
420,696	-11,26
420,902	27,65
421,109	123,9
421,316	5,12
421,523	99,33
421,729	62,46
421,936	76,8
422,143	60,42
422,349	54,27
422,556	-35,84
422,763	46,08
422,969	-7,17
423,176	-27,65
423,383	1,02
423,589	222,2
423,796	78,85
424,002	27,65
424,209	62,46
424,416	144,38
424,622	-21,5
424,829	29,7
425,035	-35,84
425,242	66,56
425,448	-37,89
425,655	58,37
425,861	29,7
426,068	103,42
426,274	54,27
426,481	52,22
426,687	54,27
426,894	66,56
427,1	1,02
427,306	1,02
427,513	11,26
427,719	58,37
427,926	76,8
428,132	15,36
428,338	-15,36
428,545	-5,12
428,751	29,7
428,957	21,5
429,163	-89,09
429,37	99,33
429,576	-3,07
429,782	-37,89
429,989	11,26
430,195	-31,74
430,401	58,37
430,607	-37,89
430,813	-5,12
431,02	11,26
431,226	3,07
431,432	-15,36
431,638	78,85
431,844	1,02
432,05	29,7
432,257	115,71
432,463	197,63
432,669	156,67
432,875	263,16
433,081	343,03
433,287	476,15
433,493	486,39
433,699	875,51
433,905	992,24
434,111	1000,43
434,317	1020,91
434,523	906,23
434,729	869,36
434,935	654,33
435,141	615,41
435,347	349,18
435,553	242,68
435,759	189,44
435,965	134,14
436,171	103,42
436,377	142,33
436,582	232,44
436,788	-27,65
436,994	74,75
437,2	87,04
437,406	1,02
437,612	91,13
437,818	21,5
438,023	-21,5
438,229	121,85
438,435	91,13
438,641	-7,17
438,846	-56,32
439,052	39,94
439,258	125,95
439,464	-5,12
439,669	115,71
439,875	121,85
440,081	-15,36
440,286	-13,31
440,492	37,89
440,698	25,6
440,903	-7,17
441,109	160,77
441,314	-23,55
441,52	-3,07
441,726	29,7
441,931	37,89
442,137	64,51
442,342	52,22
442,548	50,18
442,753	99,33
442,959	-21,5
443,164	-15,36
443,37	-29,7
443,575	-84,99
443,781	-54,27
443,986	76,8
444,192	31,74
444,397	9,22
444,602	-19,46
444,808	27,65
445,013	29,7
445,219	-3,07
445,424	107,52
445,629	-3,07
445,835	109,57
446,04	-5,12
446,245	-68,61
446,451	-39,94
446,656	-74,75
446,861	72,7
447,066	-21,5
447,272	-23,55
447,477	41,98
447,682	-5,12
447,887	17,41
448,093	13,31
448,298	152,57
448,503	44,03
448,708	-15,36
448,913	-23,55
449,118	58,37
449,324	33,79
449,529	62,46
449,734	25,6
449,939	50,18
450,144	25,6
450,349	76,8
450,554	27,65
450,759	136,19
450,964	74,75
451,169	52,22
451,374	-64,51
451,579	41,98
451,784	64,51
451,989	25,6
452,194	68,61
452,399	3,07
452,604	-1,02
452,809	-72,7
453,014	21,5
453,219	123,9
453,424	-19,46
453,629	-39,94
453,833	-17,41
454,038	9,22
454,243	48,13
454,448	103,42
454,653	11,26
454,858	87,04
455,062	-11,26
455,267	-29,7
455,472	72,7
455,677	-5,12
455,882	132,09
456,086	58,37
456,291	31,74
456,496	-64,51
456,7	46,08
456,905	60,42
457,11	-3,07
457,314	70,65
457,519	-3,07
457,724	27,65
457,928	11,26
458,133	11,26
458,338	-37,89
458,542	-13,31
458,747	-46,08
458,951	-72,7
459,156	99,33
459,36	-56,32
459,565	107,52
459,769	15,36
459,974	33,79
460,178	-44,03
460,383	-13,31
460,587	41,98
460,792	76,8
460,996	-46,08
461,201	-7,17
461,405	-15,36
461,61	-29,7
461,814	35,84
462,018	-11,26
462,223	23,55
462,427	-7,17
462,631	37,89
462,836	50,18
463,04	136,19
463,244	115,71
463,449	-37,89
463,653	76,8
463,857	-15,36
464,062	107,52
464,266	29,7
464,47	41,98
464,674	-5,12
464,878	48,13
465,083	91,13
465,287	70,65
465,491	19,46
465,695	41,98
465,899	-7,17
466,104	9,22
466,308	-3,07
466,512	35,84
466,716	23,55
466,92	7,17
467,124	58,37
467,328	33,79
467,532	107,52
467,736	3,07
467,94	74,75
468,144	-3,07
468,348	1,02
468,552	189,44
468,756	25,6
468,96	-56,32
469,164	-87,04
469,368	82,94
469,572	27,65
469,776	25,6
469,98	66,56
470,184	-44,03
470,388	80,89
470,591	19,46
470,795	29,7
470,999	15,36
471,203	-46,08
471,407	35,84
471,611	-15,36
471,814	1,02
472,018	-56,32
472,222	68,61
472,426	44,03
472,63	17,41
472,833	84,99
473,037	33,79
473,241	44,03
473,444	-27,65
473,648	441,34
473,852	23,55
474,055	50,18
474,259	60,42
474,463	17,41
474,666	50,18
474,87	-21,5
475,074	66,56
475,277	60,42
475,481	115,71
475,684	-1,02
475,888	-84,99
476,091	-35,84
476,295	-56,32
476,498	-76,8
476,702	74,75
476,905	87,04
477,109	5,12
477,312	31,74
477,516	5,12
477,719	25,6
477,923	-5,12
478,126	-3,07
478,329	-19,46
478,533	-19,46
478,736	82,94
478,94	58,37
479,143	21,5
479,346	91,13
479,55	-5,12
479,753	9,22
479,956	-15,36
480,159	-3,07
480,363	109,57
480,566	74,75
480,769	-11,26
480,972	-44,03
481,176	-64,51
481,379	41,98
481,582	50,18
481,785	-33,79
481,988	33,79
482,192	128
482,395	-19,46
482,598	54,27
482,801	95,23
483,004	41,98
483,207	60,42
483,41	115,71
483,613	91,13
483,817	29,7
484,02	101,37
484,223	261,12
484,426	629,75
484,629	1119,21
484,832	1967,07
485,035	2728,92
485,238	3695,56
485,441	4838,33
485,644	6237,09
485,846	7766,92
486,049	9145,2
486,252	10109,8
486,455	10447,71
486,658	9905
486,861	8831,87
487,064	7242,64
487,267	5358,51
487,47	4107,2
487,672	2954,19
487,875	1872,87
488,078	1221,61
488,281	844,79
488,484	459,77
488,686	216,06
488,889	148,48
489,092	123,9
489,295	160,77
489,497	173,05
489,7	-27,65
489,903	-3,07
490,105	-31,74
490,308	39,94
490,511	72,7
490,713	33,79
490,916	-7,17
491,118	31,74
491,321	78,85
491,524	-128
491,726	-50,18
491,929	-29,7
492,131	29,7
492,334	-56,32
492,536	-15,36
492,739	-48,13
492,941	70,65
493,144	-3,07
493,346	9,22
493,549	1,02
493,751	72,7
493,954	27,65
494,156	29,7
494,359	-11,26
494,561	5,12
494,763	50,18
494,966	-41,98
495,168	111,61
495,37	9,22
495,573	-52,22
495,775	31,74
495,977	33,79
496,18	23,55
496,382	119,81
496,584	74,75
496,787	82,94
496,989	37,89
497,191	-35,84
497,393	62,46
497,595	-60,42
497,798	72,7
498	37,89
498,202	-64,51
498,404	91,13
498,606	-72,7
498,808	121,85
499,011	33,79
499,213	-27,65
499,415	-5,12
499,617	21,5
499,819	82,94
500,021	-23,55
500,223	82,94
500,425	15,36
500,627	37,89
500,829	41,98
501,031	-3,07
501,233	17,41
501,435	50,18
501,637	70,65
501,839	50,18
502,041	-23,55
502,243	39,94
502,445	-52,22
502,647	-7,17
502,848	21,5
503,05	-31,74
503,252	74,75
503,454	93,18
503,656	-29,7
503,858	3,07
504,059	-21,5
504,261	68,61
504,463	158,72
504,665	7,17
504,867	1,02
505,068	64,51
505,27	-60,42
505,472	46,08
505,673	-39,94
505,875	11,26
506,077	-3,07
506,278	17,41
506,48	35,84
506,682	-15,36
506,883	9,22
507,085	41,98
507,287	-29,7
507,488	33,79
507,69	62,46
507,891	9,22
508,093	60,42
508,294	-31,74
508,496	-3,07
508,697	-11,26
508,899	-21,5
509,1	107,52
509,302	99,33
509,503	9,22
509,705	3,07
509,906	9,22
510,108	1,02
510,309	78,85
510,51	-19,46
510,712	41,98
510,913	9,22
511,114	37,89
511,316	-76,8
511,517	-7,17
511,718	-15,36
511,92	60,42
512,121	-23,55
512,322	21,5
512,524	93,18
512,725	50,18
512,926	74,75
513,127	3,07
513,329	11,26
513,53	-13,31
513,731	-3,07
513,932	21,5
514,133	17,41
514,334	-31,74
514,536	84,99
514,737	160,77
514,938	1,02
515,139	37,89
515,34	-72,7
515,541	82,94
515,742	-76,8
515,943	134,14
516,144	50,18
516,345	25,6
516,546	109,57
516,747	62,46
516,948	66,56
517,149	62,46
517,35	-15,36
517,551	-29,7
517,752	27,65
517,953	41,98
518,154	68,61
518,355	89,09
518,556	41,98
518,756	44,03
518,957	37,89
519,158	62,46
519,359	-15,36
519,56	29,7
519,761	111,61
519,961	103,42
520,162	132,09
520,363	-19,46
520,564	29,7
520,764	132,09
520,965	-60,42
521,166	74,75
521,366	21,5
521,567	70,65
521,768	33,79
521,968	-13,31
522,169	-46,08
522,37	-80,89
522,57	-52,22
522,771	-5,12
522,972	-119,81
523,172	111,61
523,373	-31,74
523,573	-80,89
523,774	66,56
523,974	123,9
524,175	50,18
524,375	64,51
524,576	-21,5
524,776	-31,74
524,977	-5,12
525,177	97,28
525,378	1,02
525,578	7,17
525,778	109,57
525,979	41,98
526,179	52,22
526,38	-17,41
526,58	-21,5
526,78	-31,74
526,981	60,42
527,181	19,46
527,381	11,26
527,582	68,61
527,782	99,33
527,982	41,98
528,182	46,08
528,383	11,26
528,583	1,02
528,783	13,31
528,983	21,5
529,183	-15,36
529,384	11,26
529,584	207,87
529,784	123,9
529,984	99,33
530,184	1,02
530,384	7,17
530,584	-5,12
530,784	3,07
530,984	-15,36
531,185	82,94
531,385	35,84
531,585	70,65
531,785	107,52
531,985	9,22
532,185	50,18
532,385	-5,12
532,585	68,61
532,785	84,99
532,984	25,6
533,184	91,13
533,384	9,22
533,584	-39,94
533,784	46,08
533,984	66,56
534,184	-39,94
534,384	25,6
534,583	52,22
534,783	50,18
534,983	136,19
535,183	-31,74
535,383	-89,09
535,582	-35,84
535,782	101,37
535,982	115,71
536,182	31,74
536,381	54,27
536,581	-31,74
536,781	35,84
536,98	50,18
537,18	-35,84
537,38	72,7
537,579	50,18
537,779	29,7
537,979	-13,31
538,178	-56,32
538,378	41,98
538,577	17,41
538,777	62,46
538,976	-5,12
539,176	87,04
539,376	19,46
539,575	-23,55
539,774	119,81
539,974	-29,7
540,173	-7,17
540,373	-7,17
540,572	15,36
540,772	50,18
540,971	-91,13
541,171	-13,31
541,37	19,46
541,569	91,13
541,769	50,18
541,968	15,36
542,167	29,7
542,367	48,13
542,566	-128
542,765	33,79
542,965	-21,5
543,164	-7,17
543,363	50,18
543,562	1,02
543,761	13,31
543,961	78,85
544,16	-27,65
544,359	115,71
544,558	93,18
544,757	41,98
544,957	76,8
545,156	115,71
545,355	62,46
545,554	31,74
545,753	-56,32
545,952	-15,36
546,151	19,46
546,35	9,22
546,549	44,03
546,748	3,07
546,947	-3,07
547,146	-80,89
547,345	37,89
547,544	-52,22
547,743	-21,5
547,942	9,22
548,141	33,79
548,34	74,75
548,539	-31,74
548,738	-93,18
548,937	160,77
549,135	103,42
549,334	-37,89
549,533	58,37
549,732	13,31
549,931	9,22
550,13	-19,46
550,328	-74,75
550,527	-62,46
550,726	-23,55
550,925	-39,94
551,123	9,22
551,322	-7,17
551,521	35,84
551,72	-46,08
551,918	13,31
552,117	-31,74
552,315	-19,46
552,514	-21,5
552,713	-46,08
552,911	-39,94
553,11	-162,81
553,309	-21,5
553,507	-62,46
553,706	-31,74
553,904	58,37
554,103	-78,85
554,301	-7,17
554,5	-64,51
554,698	-5,12
554,897	52,22
555,095	11,26
555,294	-64,51
555,492	11,26
555,69	41,98
555,889	-54,27
556,087	-21,5
556,286	37,89
556,484	-21,5
556,682	9,22
556,881	-5,12
557,079	58,37
557,277	50,18
557,476	-3,07
557,674	107,52
557,872	1,02
558,07	-62,46
558,269	-39,94
558,467	-1,02
558,665	87,04
558,863	-78,85
559,062	93,18
559,26	25,6
559,458	-89,09
559,656	19,46
559,854	9,22
560,052	29,7
560,25	39,94
560,449	283,64
560,647	58,37
560,845	-23,55
561,043	-48,13
561,241	74,75
561,439	152,57
561,637	-44,03
561,835	44,03
562,033	107,52
562,231	-58,37
562,429	-44,03
562,627	50,18
562,825	7,17
563,023	44,03
563,221	-11,26
563,418	-89,09
563,616	78,85
563,814	136,19
564,012	-82,94
564,21	17,41
564,408	-48,13
564,605	-15,36
564,803	-97,28
565,001	181,25
565,199	-35,84
565,397	44,03
565,594	82,94
565,792	95,23
565,99	27,65
566,188	56,32
566,385	21,5
566,583	-54,27
566,781	52,22
566,978	-11,26
567,176	93,18
567,373	50,18
567,571	21,5
567,769	58,37
567,966	-89,09
568,164	23,55
568,361	-19,46
568,559	-7,17
568,756	58,37
568,954	87,04
569,151	33,79
569,349	27,65
569,546	17,41
569,744	41,98
569,941	-3,07
570,139	-41,98
570,336	-37,89
570,534	29,7
570,731	-62,46
570,928	-64,51
571,126	164,86
571,323	82,94
571,52	-80,89
571,718	1,02
571,915	13,31
572,112	-62,46
572,31	33,79
572,507	58,37
572,704	31,74
572,901	-5,12
573,099	-7,17
573,296	115,71
573,493	-80,89
573,69	-29,7
573,887	11,26
574,085	27,65
574,282	-37,89
574,479	21,5
574,676	-29,7
574,873	41,98
575,07	-15,36
575,267	-89,09
575,464	-15,36
575,661	41,98
575,858	9,22
576,055	-25,6
576,252	21,5
576,449	-44,03
576,646	11,26
576,843	-37,89
577,04	39,94
577,237	41,98
577,434	33,79
577,631	33,79
577,828	-23,55
578,025	5,12
578,222	-37,89
578,419	58,37
578,615	-13,31
578,812	-19,46
579,009	-39,94
579,206	-7,17
579,403	105,47
579,599	140,29
579,796	-64,51
579,993	115,71
580,19	-64,51
580,386	58,37
580,583	54,27
580,78	-13,31
580,976	109,57
581,173	33,79
581,37	33,79
581,566	11,26
581,763	95,23
581,96	-56,32
582,156	-48,13
582,353	91,13
582,549	136,19
582,746	-3,07
582,942	17,41
583,139	74,75
583,335	-7,17
583,532	27,65
583,728	1,02
583,925	25,6
584,121	25,6
584,318	62,46
584,514	50,18
584,711	173,05
584,907	-7,17
585,103	70,65
585,3	134,14
585,496	25,6
585,693	-19,46
585,889	35,84
586,085	-23,55
586,281	13,31
586,478	17,41
586,674	25,6
586,87	74,75
587,067	41,98
587,263	15,36
587,459	33,79
587,655	-11,26
587,851	74,75
588,048	119,81
588,244	-64,51
588,44	-5,12
588,636	93,18
588,832	70,65
589,028	140,29
589,224	-3,07
589,42	-3,07
589,617	-23,55
589,813	-1,02
590,009	74,75
590,205	29,7
590,401	25,6
590,597	-21,5
590,793	41,98
590,989	-15,36
591,185	41,98
591,38	99,33
591,576	33,79
591,772	50,18
591,968	-23,55
592,164	101,37
592,36	-19,46
592,556	-37,89
592,752	68,61
592,948	-46,08
593,143	-23,55
593,339	-11,26
593,535	17,41
593,731	5,12
593,926	29,7
594,122	-31,74
594,318	-7,17
594,514	58,37
594,709	-44,03
594,905	-13,31
595,101	11,26
595,296	-19,46
595,492	82,94
595,688	66,56
595,883	60,42
596,079	48,13
596,275	41,98
596,47	35,84
596,666	101,37
596,861	3,07
597,057	-21,5
597,252	-56,32
597,448	29,7
597,643	107,52
597,839	150,53
598,034	37,89
598,23	3,07
598,425	13,31
598,621	-29,7
598,816	-7,17
599,011	41,98
599,207	-39,94
599,402	13,31
599,597	91,13
599,793	58,37
599,988	19,46
600,183	58,37
600,379	91,13
600,574	-23,55
600,769	19,46
600,965	27,65
601,16	9,22
601,355	-37,89
601,55	82,94
601,745	44,03
601,941	46,08
602,136	107,52
602,331	99,33
602,526	29,7
602,721	23,55
602,916	-15,36
603,111	70,65
603,307	25,6
603,502	21,5
603,697	9,22
603,892	58,37
604,087	119,81
604,282	101,37
604,477	125,95
604,672	5,12
604,867	-21,5
605,062	66,56
605,257	82,94
605,452	105,47
605,646	76,8
605,841	-31,74
606,036	11,26
606,231	-29,7
606,426	54,27
606,621	-31,74
606,816	-60,42
607,01	156,67
607,205	-31,74
607,4	-39,94
607,595	33,79
607,79	35,84
607,984	134,14
608,179	46,08
608,374	21,5
608,569	56,32
608,763	-56,32
608,958	5,12
609,153	-15,36
609,347	27,65
609,542	123,9
609,736	68,61
609,931	21,5
610,126	9,22
610,32	84,99
610,515	29,7
610,709	207,87
610,904	41,98
611,098	1,02
611,293	-64,51
611,487	17,41
611,682	-68,61
611,876	-3,07
612,071	-41,98
612,265	50,18
612,46	-70,65
612,654	35,84
612,848	27,65
613,043	35,84
613,237	-74,75
613,432	-134,14
613,626	-7,17
613,82	27,65
614,014	125,95
614,209	1,02
614,403	58,37
614,597	60,42
614,792	236,54
614,986	17,41
615,18	82,94
615,374	271,36
615,568	189,44
615,763	275,45
615,957	246,78
616,151	304,12
616,345	283,64
616,539	136,19
616,733	201,72
616,927	257,02
617,121	132,09
617,316	142,33
617,51	158,72
617,704	52,22
617,898	218,11
618,092	29,7
618,286	-39,94
618,48	-72,7
618,674	107,52
618,868	37,89
619,061	-56,32
619,255	44,03
619,449	87,04
619,643	-44,03
619,837	101,37
620,031	19,46
620,225	115,71
620,419	-33,79
620,612	93,18
620,806	19,46
621	46,08
621,194	-19,46
621,388	1,02
621,581	33,79
621,775	-27,65
621,969	27,65
622,162	-15,36
622,356	-7,17
622,55	19,46
622,743	-29,7
622,937	-15,36
623,131	-21,5
623,324	111,61
623,518	-39,94
623,712	-9,22
623,905	-7,17
624,099	3,07
624,292	11,26
624,486	50,18
624,679	-15,36
624,873	29,7
625,066	3,07
625,26	-27,65
625,453	-17,41
625,647	-72,7
625,84	17,41
626,034	41,98
626,227	-15,36
626,42	93,18
626,614	-56,32
626,807	-9,22
627	52,22
627,194	17,41
627,387	87,04
627,58	-93,18
627,774	25,6
627,967	64,51
628,16	52,22
628,353	41,98
628,547	17,41
628,74	123,9
628,933	-39,94
629,126	33,79
629,319	-66,56
629,513	25,6
629,706	41,98
629,899	107,52
630,092	-7,17
630,285	-31,74
630,478	1,02
630,671	62,46
630,864	119,81
631,057	46,08
631,25	7,17
631,443	-11,26
631,636	35,84
631,829	50,18
632,022	123,9
632,215	35,84
632,408	68,61
632,601	95,23
632,794	-3,07
632,987	-56,32
633,18	87,04
633,373	29,7
633,566	-23,55
633,758	-115,71
633,951	41,98
634,144	-27,65
634,337	35,84
634,53	74,75
634,722	107,52
634,915	1,02
635,108	-7,17
635,301	101,37
635,493	1,02
635,686	37,89
635,879	35,84
636,071	-64,51
636,264	58,37
636,457	89,09
636,649	-46,08
636,842	-62,46
637,034	91,13
637,227	113,66
637,42	60,42
637,612	3,07
637,805	-39,94
637,997	150,53
638,19	60,42
638,382	23,55
638,575	87,04
638,767	5,12
638,96	101,37
639,152	3,07
639,344	84,99
639,537	-19,46
639,729	93,18
639,922	-25,6
640,114	44,03
640,306	29,7
640,499	56,32
640,691	-19,46
640,883	58,37
641,075	9,22
641,268	103,42
641,46	44,03
641,652	37,89
641,844	-13,31
642,037	9,22
642,229	-7,17
642,421	107,52
642,613	17,41
642,805	33,79
642,998	1,02
643,19	-21,5
643,382	105,47
643,574	152,57
643,766	-5,12
643,958	21,5
644,15	84,99
644,342	41,98
644,534	115,71
644,726	39,94
644,918	60,42
645,11	50,18
645,302	13,31
645,494	50,18
645,686	1,02
645,878	41,98
646,07	33,79
646,262	119,81
646,453	50,18
646,645	50,18
646,837	113,66
647,029	144,38
647,221	68,61
647,413	70,65
647,604	46,08
647,796	17,41
647,988	111,61
648,18	60,42
648,371	23,55
648,563	29,7
648,755	-50,18
648,947	-7,17
649,138	41,98
649,33	101,37
649,521	123,9
649,713	-11,26
649,905	74,75
650,096	66,56
650,288	7,17
650,479	35,84
650,671	56,32
650,863	58,37
651,054	35,84
651,246	201,72
651,437	56,32
651,629	259,07
651,82	183,29
652,011	181,25
652,203	189,44
652,394	123,9
652,586	158,72
652,777	117,76
652,968	181,25
653,16	70,65
653,351	175,1
653,542	259,07
653,734	246,78
653,925	168,96
654,116	295,93
654,308	271,36
654,499	537,59
654,69	1524,71
654,881	4606,91
655,073	9905
655,264	17085,18
655,455	25754,23
655,646	35879,39
655,837	47051,06
656,028	55292,08
656,219	61429,85
656,411	64176,17
656,602	64176,17
656,793	64176,17
656,984	63246,39
657,175	57856,14
657,366	52068,58
657,557	44179,81
657,748	37945,79
657,939	32410,13
658,13	27718,23
658,321	22815,4
658,512	17943,28
658,703	12700,48
658,894	8338,3
659,084	5098,42
659,275	3228,62
659,466	2116,58
659,657	1338,35
659,848	1041,39
660,039	766,96
660,23	549,88
660,42	306,17
660,611	328,7
660,802	246,78
660,993	308,22
661,183	287,74
661,374	238,59
661,565	304,12
661,755	224,25
661,946	181,25
662,137	107,52
662,327	197,63
662,518	138,24
662,709	107,52
662,899	33,79
663,09	-31,74
663,28	50,18
663,471	17,41
663,662	185,34
663,852	82,94
664,043	1,02
664,233	25,6
664,424	-11,26
664,614	50,18
664,804	-7,17
664,995	125,95
665,185	144,38
665,376	-19,46
665,566	93,18
665,756	25,6
665,947	62,46
666,137	37,89
666,328	216,06
666,518	11,26
666,708	68,61
666,898	37,89
667,089	80,89
667,279	80,89
667,469	44,03
667,659	23,55
667,85	148,48
668,04	-23,55
668,23	7,17
668,42	-7,17
668,61	72,7
668,8	76,8
668,991	17,41
669,181	150,53
669,371	68,61
669,561	-62,46
669,751	103,42
669,941	150,53
670,131	152,57
670,321	1,02
670,511	58,37
670,701	15,36
670,891	-17,41
671,081	-13,31
671,271	-35,84
671,461	-56,32
671,651	11,26
671,841	-29,7
672,03	54,27
672,22	5,12
672,41	17,41
672,6	60,42
672,79	52,22
672,98	19,46
673,169	56,32
673,359	-23,55
673,549	13,31
673,739	-7,17
673,928	-7,17
674,118	3,07
674,308	-35,84
674,497	66,56
674,687	-37,89
674,877	70,65
675,066	41,98
675,256	66,56
675,446	11,26
675,635	1,02
675,825	17,41
676,014	13,31
676,204	-7,17
676,393	76,8
676,583	-19,46
676,772	60,42
676,962	-52,22
677,151	-11,26
677,341	-27,65
677,53	27,65
677,72	29,7
677,909	25,6
678,099	-97,28
678,288	15,36
678,477	5,12
678,667	-21,5
678,856	27,65
679,045	50,18
679,235	39,94
679,424	9,22
679,613	181,25
679,802	35,84
679,992	-11,26
680,181	-80,89
680,37	-17,41
680,559	54,27
680,748	9,22
680,938	50,18
681,127	21,5
681,316	66,56
681,505	-48,13
681,694	-35,84
681,883	33,79
682,072	-64,51
682,261	58,37
682,45	-113,66
682,639	-56,32
682,828	50,18
683,017	25,6
683,206	-23,55
683,395	-46,08
683,584	9,22
683,773	74,75
683,962	-5,12
684,151	-52,22
684,34	132,09
684,529	5,12
684,718	-31,74
684,907	33,79
685,095	115,71
685,284	107,52
685,473	-23,55
685,662	-19,46
685,851	3,07
686,039	5,12
686,228	58,37
686,417	-87,04
686,606	33,79
686,794	9,22
686,983	-39,94
687,172	-56,32
687,36	-78,85
687,549	-15,36
687,738	25,6
687,926	-46,08
688,115	-15,36
688,303	-56,32
688,492	-15,36
688,68	-39,94
688,869	-39,94
689,057	-35,84
689,246	-56,32
689,434	31,74
689,623	-50,18
689,811	-11,26
690	-1,02
690,188	-70,65
690,377	-89,09
690,565	29,7
690,753	70,65
690,942	-31,74
691,13	119,81
691,318	19,46
691,507	-52,22
691,695	99,33
691,883	35,84
692,072	33,79
692,26	62,46
692,448	41,98
692,636	-101,37
692,824	-21,5
693,013	-7,17
693,201	-7,17
693,389	-101,37
693,577	13,31
693,765	-5,12
693,953	-29,7
694,141	-31,74
694,329	-66,56
694,518	-23,55
694,706	19,46
694,894	-39,94
695,082	9,22
695,27	25,6
695,458	64,51
695,646	68,61
695,834	-15,36
696,022	33,79
696,209	103,42
696,397	-33,79
696,585	17,41
696,773	11,26
696,961	-89,09
697,149	5,12
697,337	29,7
697,525	-15,36
697,712	-44,03
697,9	21,5
698,088	-48,13
698,276	9,22
698,463	-31,74
698,651	56,32
698,839	-56,32
699,027	50,18
699,214	134,14
699,402	-7,17
699,59	-1,02
699,777	-23,55
699,965	-21,5
700,152	9,22
700,34	1,02
700,528	-11,26
700,715	-21,5
700,903	3,07
701,09	64,51
701,278	-7,17
701,465	58,37
701,653	-72,7
701,84	-31,74
702,028	33,79
702,215	5,12
702,402	7,17
702,59	-13,31
702,777	37,89
702,965	-1,02
703,152	-19,46
703,339	35,84
703,527	-91,13
703,714	-44,03
703,901	50,18
704,088	-1,02
704,276	50,18
704,463	66,56
704,65	-46,08
704,837	33,79
705,025	58,37
705,212	60,42
705,399	-13,31
705,586	-15,36
705,773	74,75
705,96	-87,04
706,147	52,22
706,335	-48,13
706,522	9,22
706,709	-64,51
706,896	21,5
707,083	-33,79
707,27	9,22
707,457	-27,65
707,644	17,41
707,831	-56,32
708,018	-60,42
708,205	-35,84
708,392	15,36
708,578	41,98
708,765	-54,27
708,952	-54,27
709,139	9,22
709,326	-21,5
709,513	9,22
709,7	-52,22
709,886	33,79
710,073	91,13
710,26	115,71
710,447	-54,27
710,633	-15,36
710,82	17,41
711,007	44,03
711,193	15,36
711,38	-7,17
711,567	-89,09
711,753	-84,99
711,94	50,18
712,127	-31,74
712,313	-21,5
712,5	9,22
712,686	87,04
712,873	37,89
713,059	-3,07
713,246	58,37
713,432	68,61
713,619	-31,74
713,805	19,46
713,992	-7,17
714,178	-68,61
714,365	-15,36
714,551	87,04
714,737	44,03
714,924	-95,23
715,11	29,7
715,297	-56,32
715,483	-37,89
715,669	-48,13
715,855	17,41
716,042	66,56
716,228	37,89
716,414	56,32
716,6	3,07
716,787	25,6
716,973	1,02
717,159	-21,5
717,345	-95,23
717,531	-15,36
717,718	41,98
717,904	33,79
718,09	-48,13
718,276	-13,31
718,462	-7,17
718,648	95,23
718,834	-19,46
719,02	15,36
719,206	60,42
719,392	-95,23
719,578	11,26
719,764	-21,5
719,95	5,12
720,136	91,13
720,322	-5,12
720,508	-3,07
720,694	1,02
720,879	-52,22
721,065	107,52
721,251	-48,13
721,437	-35,84
721,623	84,99
721,809	-15,36
721,994	-23,55
722,18	-103,42
722,366	-23,55
722,552	-64,51
722,737	-5,12
722,923	17,41
723,109	33,79
723,294	-11,26
723,48	50,18
723,666	37,89
723,851	-37,89
724,037	103,42
724,222	78,85
724,408	27,65
724,593	17,41
724,779	41,98
724,965	19,46
725,15	-23,55
725,336	31,74
725,521	35,84
725,706	-68,61
725,892	-52,22
726,077	60,42
726,263	17,41
726,448	82,94
726,634	41,98
726,819	50,18
727,004	164,86
727,19	-37,89
727,375	87,04
727,56	44,03
727,745	-80,89
727,931	58,37
728,116	-21,5
728,301	46,08
728,486	78,85
728,672	-95,23
728,857	50,18
729,042	74,75
729,227	-56,32
729,412	58,37
729,597	-54,27
729,783	35,84
729,968	-54,27
730,153	54,27
730,338	-7,17
730,523	-46,08
730,708	-21,5
730,893	-29,7
731,078	9,22
731,263	35,84
731,448	-31,74
731,633	-17,41
731,818	-25,6
732,003	1,02
732,187	-70,65
732,372	-25,6
732,557	9,22
732,742	-15,36
732,927	-87,04
733,112	91,13
733,297	1,02
733,481	13,31
733,666	-15,36
733,851	-13,31
734,036	33,79
734,22	-39,94
734,405	95,23
734,59	-21,5
734,774	-48,13
734,959	13,31
735,144	82,94
735,328	35,84
735,513	-5,12
735,698	-50,18
735,882	58,37
736,067	46,08
736,251	-13,31
736,436	33,79
736,62	-48,13
736,805	-15,36
736,989	152,57
737,174	-1,02
737,358	-48,13
737,543	-3,07
737,727	-7,17
737,911	84,99
738,096	-56,32
738,28	50,18
738,465	39,94
738,649	-11,26
738,833	91,13
739,018	13,31
739,202	-72,7
739,386	-13,31
739,57	-113,66
739,755	1,02
739,939	50,18
740,123	-37,89
740,307	19,46
740,491	13,31
740,676	-23,55
740,86	41,98
741,044	-7,17
741,228	13,31
741,412	-17,41
741,596	-105,47
741,78	-27,65
741,964	13,31
742,148	-31,74
742,332	-13,31
742,516	-72,7
742,7	-5,12
742,884	25,6
743,068	-31,74
743,252	27,65
743,436	54,27
743,62	-72,7
743,804	91,13
743,988	99,33
744,172	50,18
744,356	-39,94
744,539	-80,89
744,723	-185,34
744,907	-19,46
745,091	-48,13
745,275	68,61
745,458	33,79
745,642	-23,55
745,826	-7,17
746,009	115,71
746,193	66,56
746,377	66,56
746,56	74,75
746,744	119,81
746,928	-1,02
747,111	46,08
747,295	-52,22
747,478	-15,36
747,662	21,5
747,846	111,61
748,029	76,8
748,213	9,22
748,396	37,89
748,58	46,08
748,763	-52,22
748,946	-89,09
749,13	-58,37
749,313	-48,13
749,497	13,31
749,68	50,18
749,863	68,61
750,047	-23,55
750,23	-5,12
750,413	50,18
750,597	33,79
750,78	-27,65
750,963	54,27
751,146	11,26
751,33	25,6
751,513	44,03
751,696	84,99
751,879	33,79
752,062	-35,84
752,246	35,84
752,429	78,85
752,612	15,36
752,795	25,6
752,978	-58,37
753,161	-105,47
753,344	27,65
753,527	76,8
753,71	-41,98
753,893	3,07
754,076	-39,94
754,259	35,84
754,442	-41,98
754,625	-11,26
754,808	105,47
754,991	17,41
755,174	-97,28
755,357	-29,7
755,539	33,79
755,722	84,99
755,905	-58,37
756,088	46,08
756,271	-1,02
756,453	-9,22
756,636	1,02
756,819	74,75
757,002	23,55
757,184	39,94
757,367	142,33
757,55	-11,26
757,732	68,61
757,915	41,98
758,098	-33,79
758,28	9,22
758,463	-68,61
758,645	54,27
758,828	54,27
759,011	54,27
759,193	-1,02
759,376	-23,55
759,558	-5,12
759,741	11,26
759,923	-56,32
760,105	41,98
760,288	-1,02
760,47	-72,7
760,653	3,07
760,835	11,26
761,017	-56,32
761,2	17,41
761,382	58,37
761,564	-7,17
761,747	84,99
761,929	13,31
762,111	27,65
762,294	11,26
762,476	152,57
762,658	-15,36
762,84	74,75
763,022	17,41
763,205	72,7
763,387	91,13
763,569	66,56
763,751	-87,04
763,933	-31,74
764,115	-13,31
764,297	-70,65
764,479	-5,12
764,661	80,89
764,843	29,7
765,025	-23,55
765,207	11,26
765,389	-39,94
765,571	-44,03
765,753	68,61
765,935	1,02
766,117	17,41
766,299	44,03
766,481	134,14
766,663	3,07
766,845	-97,28
767,026	-44,03
767,208	62,46
767,39	-56,32
767,572	1,02
767,753	21,5
767,935	25,6
768,117	-31,74
768,299	74,75
768,48	9,22
768,662	21,5
768,844	5,12
769,025	128
769,207	-7,17
769,389	-46,08
769,57	25,6
769,752	58,37
769,933	3,07
770,115	37,89
770,296	-19,46
770,478	60,42
770,659	-31,74
770,841	132,09
771,022	17,41
771,204	25,6
771,385	-3,07
771,567	19,46
771,748	68,61
771,929	-78,85
772,111	50,18
772,292	29,7
772,473	-48,13
772,655	66,56
772,836	9,22
773,017	62,46
773,199	39,94
773,38	15,36
773,561	109,57
773,742	1,02
773,923	-23,55
774,105	91,13
774,286	74,75
774,467	-37,89
774,648	-17,41
774,829	87,04
775,01	-23,55
775,191	-27,65
775,372	-48,13
775,553	41,98
775,734	91,13
775,915	199,68
776,096	410,62
776,277	936,95
776,458	1606,63
776,639	2647
776,82	3490,76
777,001	4156,35
777,182	4772,79
777,363	5397,42
777,544	5757,86
777,725	5219,25
777,906	4864,95
778,086	4289,47
778,267	3834,82
778,448	2929,62
778,629	2581,46
778,809	1965,03
778,99	1684,45
779,171	1537
779,352	1270,76
779,532	1172,46
779,713	1033,2
779,894	1027,06
780,074	977,91
780,255	934,9
780,435	793,59
780,616	635,89
780,797	453,63
780,977	193,53
781,158	128
781,338	164,86
781,519	78,85
781,699	164,86
781,88	115,71
782,06	78,85
782,241	-46,08
782,421	5,12
782,601	74,75
782,782	152,57
782,962	87,04
783,142	-41,98
783,323	11,26
783,503	95,23
783,683	33,79
783,864	9,22
784,044	58,37
784,224	50,18
784,404	-29,7
784,585	3,07
784,765	25,6
784,945	68,61
785,125	-50,18
785,305	99,33
785,485	72,7
785,666	27,65
785,846	-31,74
786,026	23,55
786,206	25,6
786,386	33,79
786,566	66,56
786,746	29,7
786,926	82,94
787,106	-7,17
787,286	-7,17
787,466	35,84
787,646	70,65
787,826	99,33
788,006	119,81
788,185	-35,84
788,365	-54,27
788,545	107,52
788,725	9,22
788,905	35,84
789,085	-48,13
789,264	-70,65
789,444	21,5
789,624	-7,17
789,804	17,41
789,983	-78,85
790,163	-48,13
790,343	56,32
790,522	-3,07
790,702	17,41
790,882	-60,42
791,061	84,99
791,241	-15,36
791,42	50,18
791,6	78,85
791,78	17,41
791,959	-23,55
792,139	1,02
792,318	-7,17
792,498	72,7
792,677	44,03
792,856	-48,13
793,036	-46,08
793,215	-23,55
793,395	113,66
793,574	-9,22
793,753	3,07
793,933	107,52
794,112	52,22
794,291	-7,17
794,471	115,71
794,65	-29,7
794,829	-31,74
795,008	-48,13
795,188	27,65
795,367	146,43
795,546	-9,22
795,725	-27,65
795,904	-15,36
796,084	-48,13
796,263	25,6
796,442	13,31
796,621	1,02
796,8	123,9
796,979	11,26
797,158	-37,89
797,337	-52,22
797,516	13,31
797,695	50,18
797,874	7,17
798,053	48,13
798,232	1,02
798,411	-72,7
798,59	1,02
798,769	-7,17
798,947	-13,31
799,126	-31,74
799,305	1,02
799,484	1,02
799,663	-11,26
799,842	-5,12
800,02	29,7
800,199	-64,51
800,378	44,03
800,557	-11,26
800,735	11,26
800,914	-37,89
801,093	-13,31
801,271	-9,22
801,45	82,94
801,628	76,8
801,807	1,02
801,986	44,03
802,164	-21,5
802,343	-115,71
802,521	-23,55
802,7	-3,07
802,878	62,46
803,057	-109,57
803,235	56,32
803,414	27,65
803,592	84,99
803,771	17,41
803,949	-5,12
804,127	-23,55
804,306	41,98
804,484	-62,46
804,662	1,02
804,841	-162,81
805,019	50,18
805,197	25,6
805,375	-31,74
805,554	41,98
805,732	-13,31
805,91	-27,65
806,088	1,02
806,266	5,12
806,445	-33,79
806,623	25,6
806,801	37,89
806,979	17,41
807,157	-7,17
807,335	-7,17
807,513	41,98
807,691	-1,02
807,869	-64,51
808,047	-64,51
808,225	-134,14
808,403	99,33
808,581	-46,08
808,759	103,42
808,937	58,37
809,115	68,61
809,293	99,33
809,471	-11,26
809,649	31,74
809,826	-39,94
810,004	21,5
810,182	-19,46
810,36	9,22
810,538	9,22
810,715	1,02
810,893	-76,8
811,071	-7,17
811,248	1,02
811,426	11,26
811,604	11,26
811,781	56,32
811,959	21,5
812,137	70,65
812,314	-23,55
812,492	17,41
812,669	74,75
812,847	5,12
813,024	33,79
813,202	91,13
813,379	-68,61
813,557	3,07
813,734	132,09
813,912	37,89
814,089	-23,55
814,267	41,98
814,444	17,41
814,621	-23,55
814,799	-21,5
814,976	33,79
815,153	-23,55
815,331	3,07
815,508	44,03
815,685	-70,65
815,862	35,84
816,04	9,22
816,217	-1,02
816,394	9,22
816,571	66,56
816,748	136,19
816,926	136,19
817,103	308,22
817,28	-27,65
817,457	56,32
817,634	121,85
817,811	5,12
817,988	-39,94
818,165	-39,94
818,342	7,17
818,519	46,08
818,696	-76,8
818,873	17,41
819,05	91,13
819,227	-31,74
819,404	-31,74
819,581	-23,55
819,758	-27,65
819,934	-21,5
820,111	-35,84
820,288	-15,36
820,465	31,74
820,642	-7,17
820,818	15,36
820,995	29,7
821,172	1,02
821,349	107,52
821,525	-23,55
821,702	58,37
821,879	-113,66
822,055	70,65
822,232	-78,85
822,409	56,32
822,585	52,22
822,762	21,5
822,938	37,89
823,115	-7,17
823,291	-15,36
823,468	115,71
823,644	19,46
823,821	52,22
823,997	-37,89
824,174	-48,13
824,35	87,04
824,527	13,31
824,703	41,98
824,879	-48,13
825,056	54,27
825,232	115,71
825,408	-48,13
825,585	11,26
825,761	-29,7
825,937	-35,84
826,113	-48,13
826,29	-31,74
826,466	-52,22
826,642	420,86
826,818	-31,74
826,994	-15,36
827,17	-64,51
827,347	-27,65
827,523	-138,24
827,699	-5,12
827,875	50,18
828,051	17,41
828,227	-62,46
828,403	125,95
828,579	168,96
828,755	78,85
828,931	-41,98
829,107	91,13
829,283	125,95
829,459	-72,7
829,635	-60,42
829,811	-19,46
829,986	41,98
830,162	-19,46
830,338	44,03
830,514	-25,6
830,69	15,36
830,865	-31,74
831,041	25,6
831,217	-41,98
831,393	-21,5
831,568	-3,07
831,744	21,5
831,92	-5,12
832,095	-76,8
832,271	-54,27
832,447	19,46
832,622	82,94
832,798	13,31
832,973	50,18
833,149	66,56
833,325	1,02
833,5	-19,46
833,676	-29,7
833,851	48,13
834,027	17,41
834,202	-52,22
834,377	-15,36
834,553	41,98
834,728	-11,26
834,904	82,94
835,079	-29,7
835,254	27,65
835,43	-39,94
835,605	-35,84
835,78	-54,27
835,955	-7,17
836,131	87,04
836,306	-72,7
836,481	-3,07
836,656	37,89
836,832	74,75
837,007	-48,13
837,182	-44,03
837,357	66,56
837,532	-29,7
837,707	-31,74
837,882	-52,22
838,057	41,98
838,232	121,85
838,407	-31,74
838,582	-27,65
838,757	-60,42
838,932	13,31
839,107	-11,26
839,282	-21,5
839,457	70,65
839,632	37,89
839,807	9,22
839,982	62,46
840,157	-39,94
840,332	74,75
840,506	-39,94
840,681	-37,89
840,856	-41,98
841,031	-130,05
841,205	-82,94
841,38	1,02
841,555	97,28
841,73	9,22
841,904	-21,5
842,079	11,26
842,254	50,18
842,428	33,79
842,603	-31,74
842,777	-111,61
842,952	-3,07
843,126	-64,51
843,301	91,13
843,476	140,29
843,65	355,32
843,825	789,49
843,999	1022,96
844,173	1223,66
844,348	1377,26
844,522	1422,31
844,697	1520,62
844,871	1459,18
845,045	1412,07
845,22	1178,61
845,394	1135,6
845,568	906,23
845,743	869,36
845,917	809,97
846,091	730,1
846,265	697,33
846,44	666,61
846,614	699,38
846,788	541,69
846,962	439,29
847,136	541,69
847,31	388,09
847,485	525,3
847,659	371,71
847,833	447,48
848,007	394,23
848,181	314,36
848,355	291,84
848,529	263,16
848,703	183,29
848,877	128
849,051	123,9
849,225	76,8
849,399	23,55
849,573	-54,27
849,746	-9,22
849,92	-76,8
850,094	29,7
850,268	-37,89
850,442	99,33
850,616	-87,04
850,789	-25,6
850,963	3,07
851,137	-37,89
851,311	74,75
851,484	84,99
851,658	44,03
851,832	-56,32
852,005	44,03
852,179	39,94
852,352	-15,36
852,526	-27,65
852,7	89,09
852,873	-7,17
853,047	101,37
853,22	13,31
853,394	17,41
853,567	52,22
853,741	-7,17
853,914	-7,17
854,088	21,5
854,261	29,7
854,434	9,22
854,608	-31,74
854,781	-162,81
854,955	56,32
855,128	41,98
855,301	-27,65
855,475	66,56
855,648	-46,08
855,821	29,7
855,994	-1,02
856,168	-48,13
856,341	87,04
856,514	-72,7
856,687	50,18
856,86	46,08
857,033	-5,12
857,207	-31,74
857,38	-23,55
857,553	150,53
857,726	54,27
857,899	136,19
858,072	-39,94
858,245	-54,27
858,418	3,07
858,591	-76,8
858,764	-31,74
858,937	-44,03
859,11	44,03
859,283	5,12
859,455	17,41
859,628	-62,46
859,801	54,27
859,974	84,99
860,147	-89,09
860,32	13,31
860,492	-25,6
860,665	-113,66
860,838	7,17
861,011	25,6
861,183	35,84
861,356	82,94
861,529	44,03
861,701	44,03
861,874	50,18
862,047	1,02
862,219	-87,04
862,392	52,22
862,564	9,22
862,737	-56,32
862,909	41,98
863,082	-48,13
863,254	11,26
863,427	-72,7
863,599	35,84
863,772	-7,17
863,944	31,74
864,117	-9,22
864,289	25,6
864,461	1,02
864,634	58,37
864,806	-23,55
864,978	13,31
865,151	-9,22
865,323	66,56
865,495	74,75
865,667	35,84
865,84	134,14
866,012	-44,03
866,184	29,7
866,356	-56,32
866,528	9,22
866,7	-74,75
866,873	-80,89
867,045	-56,32
867,217	-54,27
867,389	99,33
867,561	-21,5
867,733	1,02
867,905	-15,36
868,077	-5,12
868,249	17,41
868,421	-31,74
868,593	-15,36
868,765	41,98
868,936	-89,09
869,108	9,22
869,28	76,8
869,452	-39,94
869,624	-130,05
869,796	66,56
869,968	37,89
870,139	1,02
870,311	-31,74
870,483	56,32
870,654	5,12
870,826	-15,36
870,998	-29,7
871,17	50,18
871,341	-125,95
871,513	58,37
871,684	-17,41
871,856	1,02
872,028	58,37
872,199	-35,84
872,371	-78,85
872,542	-1,02
872,714	-7,17
872,885	13,31
873,057	-29,7
873,228	29,7
873,4	33,79
873,571	117,76
873,742	-62,46
873,914	82,94
874,085	87,04
874,256	11,26
874,428	-27,65
874,599	-29,7
874,77	148,48
874,942	-84,99
875,113	29,7
875,284	-168,96
875,455	1,02
875,626	15,36
875,798	-56,32
875,969	-23,55
876,14	33,79
876,311	132,09
876,482	62,46
876,653	35,84
876,824	54,27
876,995	-17,41
877,166	191,49
877,337	-15,36
877,508	-31,74
877,679	-15,36
877,85	21,5
878,021	1,02
878,192	70,65
878,363	-19,46
878,534	-68,61
878,705	-119,81
878,876	-97,28
879,047	70,65
879,217	-89,09
879,388	35,84
879,559	21,5
879,73	158,72
879,9	-27,65
880,071	25,6
880,242	1,02
880,413	-5,12
880,583	25,6
880,754	37,89
880,924	1,02
881,095	-103,42
881,266	41,98
881,436	-15,36
881,607	87,04
881,777	3,07
881,948	-11,26
882,118	31,74
882,289	-27,65
882,459	21,5
882,63	9,22
882,8	1,02
882,971	66,56
883,141	29,7
883,311	17,41
883,482	50,18
883,652	-52,22
883,822	-37,89
883,993	-23,55
884,163	-19,46
884,333	17,41
884,504	123,9
884,674	35,84
884,844	1,02
885,014	-44,03
885,184	-48,13
885,355	-60,42
885,525	-9,22
885,695	25,6
885,865	128
886,035	29,7
886,205	-15,36
886,375	3,07
886,545	41,98
886,715	25,6
886,885	60,42
887,055	-7,17
887,225	-84,99
887,395	-17,41
887,565	113,66
887,735	17,41
887,905	-27,65
888,075	-35,84
888,244	37,89
888,414	35,84
888,584	1,02
888,754	-37,89
888,924	-13,31
889,093	156,67
889,263	-23,55
889,433	15,36
889,603	66,56
889,772	60,42
889,942	50,18
890,111	-7,17
890,281	66,56
890,451	15,36
890,62	-15,36
890,79	-48,13
890,959	-21,5
891,129	5,12
891,298	64,51
891,468	17,41
891,637	9,22
891,807	60,42
891,976	82,94
892,146	-58,37
892,315	-35,84
892,485	37,89
892,654	27,65
892,823	-21,5
892,993	-56,32
893,162	60,42
893,331	60,42
893,501	-23,55
893,67	41,98
893,839	21,5
894,008	58,37
894,177	-56,32
894,347	19,46
894,516	115,71
894,685	66,56
894,854	-11,26
895,023	-17,41
895,192	52,22
