Data from h2o_USB4F104161__1__11-48-46-163.txt Node

Date: Tue Apr 14 11:48:46 EDT 2026
User: LaboPhy
Spectrometer: USB4F10416
Trigger mode: 4
Integration Time (sec): 1,000000E-1
Scans to average: 1
Electric dark correction enabled: true
Nonlinearity correction enabled: false
Boxcar width: 0
XAxis mode: Wavelengths
Number of Pixels in Spectrum: 3648
>>>>>Begin Spectral Data<<<<<
177,847	-164,52
178,066	-164,52
178,284	-164,52
178,502	-101,03
178,72	-234,15
178,939	71
179,157	-35,5
179,375	-29,35
179,593	32,08
179,812	32,08
180,03	27,99
180,248	11,61
180,466	19,8
180,685	30,04
180,903	3,41
181,121	-144,04
181,339	-19,11
181,557	21,84
181,775	-29,35
181,994	-37,55
182,212	-70,31
182,43	-45,74
182,648	23,89
182,866	89,43
183,084	126,29
183,302	-76,46
183,52	-4,78
183,739	-35,5
183,957	99,67
184,175	-4,78
184,393	5,46
184,611	77,14
184,829	48,47
185,047	-127,66
185,265	52,56
185,483	21,84
185,701	44,37
185,919	60,76
186,137	52,56
186,355	85,33
186,573	44,37
186,791	48,47
187,009	-10,92
187,227	44,37
187,445	3,41
187,663	-10,92
187,881	-29,35
188,098	-19,11
188,316	58,71
188,534	68,95
188,752	54,61
188,97	11,61
189,188	3,41
189,406	87,38
189,624	36,18
189,841	36,18
190,059	-12,97
190,277	32,08
190,495	-29,35
190,713	34,13
190,931	81,24
191,148	-0,68
191,366	13,65
191,584	122,2
191,802	7,51
192,019	109,91
192,237	40,28
192,455	85,33
192,673	87,38
192,89	-37,55
193,108	103,76
193,326	-62,12
193,543	71
193,761	62,8
193,979	25,94
194,196	-21,16
194,414	21,84
194,632	40,28
194,849	-51,88
195,067	-37,55
195,285	-12,97
195,502	-94,89
195,72	9,56
195,937	9,56
196,155	138,58
196,373	52,56
196,59	-60,07
196,808	44,37
197,025	85,33
197,243	163,15
197,46	30,04
197,678	52,56
197,895	71
198,113	-29,35
198,33	-45,74
198,548	1,37
198,765	-8,87
198,983	79,19
199,2	-35,5
199,418	95,57
199,635	-45,74
199,853	36,18
200,07	11,61
200,288	21,84
200,505	42,32
200,722	79,19
200,94	93,52
201,157	85,33
201,375	11,61
201,592	-31,4
201,809	54,61
202,027	85,33
202,244	46,42
202,461	7,51
202,679	-4,78
202,896	15,7
203,113	5,46
203,331	27,99
203,548	-45,74
203,765	27,99
203,982	89,43
204,2	32,08
204,417	13,65
204,634	134,48
204,851	52,56
205,069	11,61
205,286	85,33
205,503	93,52
205,72	48,47
205,937	142,68
206,155	-37,55
206,372	62,8
206,589	11,61
206,806	36,18
207,023	-55,98
207,24	13,65
207,458	-2,73
207,675	-21,16
207,892	91,48
208,109	-37,55
208,326	27,99
208,543	-35,5
208,76	15,7
208,977	118,1
209,194	32,08
209,411	25,94
209,628	19,8
209,845	-37,55
210,062	-0,68
210,279	3,41
210,496	-6,83
210,713	-21,16
210,93	-37,55
211,147	122,2
211,364	3,41
211,581	19,8
211,798	68,95
212,015	-27,31
212,232	-37,55
212,449	44,37
212,666	-29,35
212,883	-10,92
213,1	77,14
213,317	-33,45
213,533	52,56
213,75	-62,12
213,967	36,18
214,184	27,99
214,401	56,66
214,618	-62,12
214,835	-0,68
215,051	60,76
215,268	75,09
215,485	85,33
215,702	27,99
215,919	5,46
216,135	97,62
216,352	-19,11
216,569	34,13
216,786	36,18
217,002	44,37
217,219	62,8
217,436	11,61
217,652	5,46
217,869	73,04
218,086	75,09
218,302	101,72
218,519	93,52
218,736	-39,59
218,952	-10,92
219,169	36,18
219,386	60,76
219,602	7,51
219,819	19,8
220,036	19,8
220,252	105,81
220,469	-12,97
220,685	19,8
220,902	77,14
221,118	-8,87
221,335	25,94
221,552	-41,64
221,768	89,43
221,985	15,7
222,201	21,84
222,418	21,84
222,634	19,8
222,851	-43,69
223,067	81,24
223,284	71
223,5	71
223,716	-21,16
223,933	130,39
224,149	13,65
224,366	7,51
224,582	-119,46
224,799	-103,08
225,015	5,46
225,231	44,37
225,448	-12,97
225,664	46,42
225,88	-68,27
226,097	62,8
226,313	-37,55
226,529	23,89
226,746	60,76
226,962	38,23
227,178	-12,97
227,395	-8,87
227,611	46,42
227,827	-51,88
228,044	48,47
228,26	89,43
228,476	-2,73
228,692	120,15
228,909	-37,55
229,125	60,76
229,341	-4,78
229,557	-58,03
229,773	3,41
229,99	60,76
230,206	34,13
230,422	77,14
230,638	-2,73
230,854	3,41
231,07	-86,7
231,286	85,33
231,503	32,08
231,719	-47,79
231,935	40,28
232,151	-68,27
232,367	138,58
232,583	27,99
232,799	79,19
233,015	107,86
233,231	38,23
233,447	38,23
233,663	-2,73
233,879	52,56
234,095	-19,11
234,311	103,76
234,527	-27,31
234,743	66,9
234,959	93,52
235,175	32,08
235,391	-64,17
235,607	-12,97
235,823	77,14
236,039	13,65
236,255	44,37
236,471	-58,03
236,687	60,76
236,903	-21,16
237,118	48,47
237,334	-76,46
237,55	-15,02
237,766	-68,27
237,982	19,8
238,198	-27,31
238,413	-62,12
238,629	77,14
238,845	48,47
239,061	-17,07
239,277	44,37
239,492	-45,74
239,708	23,89
239,924	118,1
240,14	17,75
240,355	167,25
240,571	42,32
240,787	-35,5
241,003	89,43
241,218	38,23
241,434	-53,93
241,65	62,8
241,865	-45,74
242,081	79,19
242,297	-103,08
242,512	19,8
242,728	52,56
242,944	-12,97
243,159	3,41
243,375	-45,74
243,59	11,61
243,806	77,14
244,022	-37,55
244,237	-10,92
244,453	60,76
244,668	68,95
244,884	126,29
245,099	-53,93
245,315	148,82
245,53	44,37
245,746	142,68
245,961	111,96
246,177	44,37
246,392	109,91
246,608	109,91
246,823	-49,83
247,039	38,23
247,254	-78,51
247,47	79,19
247,685	-2,73
247,9	-82,6
248,116	23,89
248,331	-2,73
248,547	97,62
248,762	-33,45
248,977	48,47
249,193	71
249,408	85,33
249,623	144,72
249,839	15,7
250,054	-107,18
250,269	-15,02
250,485	71
250,7	-10,92
250,915	5,46
251,13	30,04
251,346	-21,16
251,561	93,52
251,776	48,47
251,991	-80,55
252,207	150,87
252,422	5,46
252,637	19,8
252,852	15,7
253,067	30,04
253,283	13,65
253,498	50,52
253,713	-62,12
253,928	-6,83
254,143	58,71
254,358	-31,4
254,573	-70,31
254,788	-29,35
255,004	66,9
255,219	-47,79
255,434	36,18
255,649	-66,22
255,864	60,76
256,079	-29,35
256,294	-33,45
256,509	-10,92
256,724	3,41
256,939	-8,87
257,154	5,46
257,369	36,18
257,584	40,28
257,799	30,04
258,014	3,41
258,229	50,52
258,444	-8,87
258,659	3,41
258,874	38,23
259,089	48,47
259,304	-6,83
259,518	-12,97
259,733	17,75
259,948	19,8
260,163	93,52
260,378	54,61
260,593	46,42
260,808	62,8
261,022	-62,12
261,237	79,19
261,452	85,33
261,667	60,76
261,882	60,76
262,096	101,72
262,311	71
262,526	-19,11
262,741	-0,68
262,955	-4,78
263,17	23,89
263,385	-12,97
263,6	71
263,814	-45,74
264,029	19,8
264,244	50,52
264,458	-2,73
264,673	81,24
264,888	68,95
265,102	68,95
265,317	-55,98
265,532	23,89
265,746	-4,78
265,961	111,96
266,175	42,32
266,39	-0,68
266,605	-23,21
266,819	3,41
267,034	128,34
267,248	-12,97
267,463	60,76
267,677	-53,93
267,892	40,28
268,106	-76,46
268,321	46,42
268,535	111,96
268,75	79,19
268,964	38,23
269,179	60,76
269,393	-0,68
269,608	114
269,822	-33,45
270,036	-49,83
270,251	-4,78
270,465	-4,78
270,68	-47,79
270,894	-8,87
271,108	171,35
271,323	34,13
271,537	-6,83
271,752	-37,55
271,966	44,37
272,18	-21,16
272,394	3,41
272,609	38,23
272,823	60,76
273,037	-41,64
273,252	38,23
273,466	50,52
273,68	-4,78
273,894	-49,83
274,109	-37,55
274,323	62,8
274,537	21,84
274,751	-72,36
274,966	-27,31
275,18	-27,31
275,394	-45,74
275,608	-45,74
275,822	13,65
276,036	-4,78
276,25	73,04
276,465	-25,26
276,679	36,18
276,893	-37,55
277,107	118,1
277,321	-92,84
277,535	3,41
277,749	114
277,963	38,23
278,177	-12,97
278,391	75,09
278,605	-72,36
278,819	81,24
279,033	-94,89
279,247	-12,97
279,461	97,62
279,675	32,08
279,889	48,47
280,103	32,08
280,317	114
280,531	27,99
280,745	32,08
280,959	5,46
281,173	171,35
281,387	60,76
281,601	3,41
281,815	75,09
282,029	-62,12
282,242	3,41
282,456	-12,97
282,67	-4,78
282,884	-49,83
283,098	77,14
283,312	-37,55
283,525	-17,07
283,739	93,52
283,953	-2,73
284,167	58,71
284,381	-35,5
284,594	66,9
284,808	-10,92
285,022	-4,78
285,235	-37,55
285,449	-43,69
285,663	3,41
285,877	5,46
286,09	-21,16
286,304	64,85
286,518	27,99
286,731	-135,85
286,945	30,04
287,159	17,75
287,372	-17,07
287,586	32,08
287,799	52,56
288,013	-35,5
288,227	-15,02
288,44	249,17
288,654	60,76
288,867	44,37
289,081	11,61
289,294	30,04
289,508	77,14
289,721	-27,31
289,935	5,46
290,148	56,66
290,362	85,33
290,575	85,33
290,789	-111,27
291,002	-23,21
291,216	60,76
291,429	-4,78
291,643	79,19
291,856	-31,4
292,069	3,41
292,283	-35,5
292,496	-37,55
292,71	95,57
292,923	-29,35
293,136	-12,97
293,35	1,37
293,563	1,37
293,776	-8,87
293,99	-2,73
294,203	11,61
294,416	27,99
294,63	25,94
294,843	21,84
295,056	73,04
295,269	64,85
295,483	-53,93
295,696	17,75
295,909	-53,93
296,122	71
296,335	-8,87
296,549	36,18
296,762	40,28
296,975	-90,79
297,188	1,37
297,401	-29,35
297,615	128,34
297,828	-58,03
298,041	64,85
298,254	-111,27
298,467	30,04
298,68	-27,31
298,893	-17,07
299,106	-66,22
299,319	71
299,532	44,37
299,745	-68,27
299,958	-51,88
300,171	-35,5
300,384	46,42
300,598	-53,93
300,81	66,9
301,023	-25,26
301,236	-33,45
301,449	62,8
301,662	11,61
301,875	-43,69
302,088	-53,93
302,301	36,18
302,514	109,91
302,727	60,76
302,94	-31,4
303,153	-10,92
303,366	11,61
303,579	-29,35
303,791	120,15
304,004	-37,55
304,217	77,14
304,43	54,61
304,643	-2,73
304,855	-58,03
305,068	64,85
305,281	23,89
305,494	-21,16
305,707	-58,03
305,919	128,34
306,132	3,41
306,345	27,99
306,558	73,04
306,77	-60,07
306,983	-90,79
307,196	73,04
307,408	-90,79
307,621	165,2
307,834	3,41
308,046	-21,16
308,259	-15,02
308,472	-4,78
308,684	89,43
308,897	48,47
309,109	-29,35
309,322	3,41
309,535	118,1
309,747	175,44
309,96	62,8
310,172	77,14
310,385	165,2
310,597	46,42
310,81	11,61
311,022	44,37
311,235	-45,74
311,447	30,04
311,66	-41,64
311,872	105,81
312,085	13,65
312,297	101,72
312,51	19,8
312,722	48,47
312,934	101,72
313,147	9,56
313,359	62,8
313,572	-0,68
313,784	5,46
313,996	42,32
314,209	73,04
314,421	-33,45
314,633	-33,45
314,846	118,1
315,058	62,8
315,27	56,66
315,483	93,52
315,695	36,18
315,907	27,99
316,119	46,42
316,332	46,42
316,544	200,02
316,756	171,35
316,968	111,96
317,181	60,76
317,393	44,37
317,605	23,89
317,817	42,32
318,029	109,91
318,241	81,24
318,454	46,42
318,666	13,65
318,878	-45,74
319,09	-43,69
319,302	38,23
319,514	27,99
319,726	-12,97
319,938	136,53
320,15	71
320,362	30,04
320,574	-25,26
320,786	-10,92
320,999	44,37
321,211	52,56
321,423	-33,45
321,635	-47,79
321,847	48,47
322,058	-45,74
322,27	44,37
322,482	77,14
322,694	85,33
322,906	-0,68
323,118	21,84
323,33	27,99
323,542	-25,26
323,754	36,18
323,966	-29,35
324,178	109,91
324,389	85,33
324,601	79,19
324,813	11,61
325,025	62,8
325,237	-4,78
325,449	32,08
325,66	68,95
325,872	-27,31
326,084	40,28
326,296	44,37
326,507	93,52
326,719	46,42
326,931	-25,26
327,143	224,59
327,354	126,29
327,566	56,66
327,778	38,23
327,989	54,61
328,201	-10,92
328,413	105,81
328,624	73,04
328,836	93,52
329,048	-84,65
329,259	60,76
329,471	19,8
329,682	13,65
329,894	5,46
330,106	5,46
330,317	32,08
330,529	56,66
330,74	-2,73
330,952	21,84
331,163	-45,74
331,375	19,8
331,586	3,41
331,798	-60,07
332,009	-43,69
332,221	-17,07
332,432	136,53
332,644	-35,5
332,855	85,33
333,067	-0,68
333,278	30,04
333,489	85,33
333,701	-160,42
333,912	-2,73
334,124	13,65
334,335	-66,22
334,546	-21,16
334,758	56,66
334,969	191,83
335,18	103,76
335,392	77,14
335,603	97,62
335,814	128,34
336,025	167,25
336,237	97,62
336,448	87,38
336,659	109,91
336,87	210,26
337,082	234,83
337,293	32,08
337,504	71
337,715	93,52
337,926	52,56
338,138	68,95
338,349	64,85
338,56	48,47
338,771	-23,21
338,982	21,84
339,193	-62,12
339,404	101,72
339,616	-25,26
339,827	79,19
340,038	-111,27
340,249	19,8
340,46	-70,31
340,671	68,95
340,882	144,72
341,093	32,08
341,304	11,61
341,515	-92,84
341,726	-12,97
341,937	44,37
342,148	38,23
342,359	-12,97
342,57	-12,97
342,781	77,14
342,992	38,23
343,203	-103,08
343,414	111,96
343,624	-21,16
343,835	-21,16
344,046	19,8
344,257	17,75
344,468	-4,78
344,679	-37,55
344,89	-2,73
345,1	-68,27
345,311	-10,92
345,522	44,37
345,733	38,23
345,944	40,28
346,154	21,84
346,365	52,56
346,576	-19,11
346,787	7,51
346,997	68,95
347,208	73,04
347,419	-8,87
347,629	-2,73
347,84	128,34
348,051	-41,64
348,261	36,18
348,472	-27,31
348,683	52,56
348,893	62,8
349,104	52,56
349,315	81,24
349,525	44,37
349,736	71
349,946	44,37
350,157	85,33
350,368	120,15
350,578	-35,5
350,789	36,18
350,999	-4,78
351,21	93,52
351,42	-51,88
351,631	-17,07
351,841	11,61
352,052	71
352,262	130,39
352,472	40,28
352,683	-4,78
352,893	60,76
353,104	79,19
353,314	177,49
353,525	421,2
353,735	128,34
353,945	109,91
354,156	46,42
354,366	97,62
354,576	120,15
354,787	5,46
354,997	38,23
355,207	21,84
355,418	32,08
355,628	81,24
355,838	85,33
356,048	64,85
356,259	179,54
356,469	60,76
356,679	120,15
356,889	220,5
357,1	152,91
357,31	40,28
357,52	109,91
357,73	87,38
357,94	134,48
358,15	19,8
358,361	66,9
358,571	-37,55
358,781	107,86
358,991	-141,99
359,201	-2,73
359,411	19,8
359,621	-12,97
359,831	71
360,041	32,08
360,251	56,66
360,461	-45,74
360,672	-45,74
360,882	-37,55
361,092	-21,16
361,302	111,96
361,512	62,8
361,721	-49,83
361,931	66,9
362,141	75,09
362,351	-47,79
362,561	52,56
362,771	36,18
362,981	93,52
363,191	-27,31
363,401	62,8
363,611	52,56
363,821	-45,74
364,03	-70,31
364,24	38,23
364,45	38,23
364,66	222,55
364,87	-62,12
365,08	32,08
365,289	-68,27
365,499	46,42
365,709	85,33
365,919	77,14
366,128	52,56
366,338	79,19
366,548	-29,35
366,758	32,08
366,967	52,56
367,177	7,51
367,387	-19,11
367,596	54,61
367,806	-19,11
368,016	97,62
368,225	56,66
368,435	109,91
368,644	11,61
368,854	21,84
369,064	146,77
369,273	-12,97
369,483	17,75
369,692	-2,73
369,902	30,04
370,111	171,35
370,321	11,61
370,53	36,18
370,74	46,42
370,949	60,76
371,159	126,29
371,368	85,33
371,578	44,37
371,787	19,8
371,997	19,8
372,206	95,57
372,416	62,8
372,625	-4,78
372,834	-41,64
373,044	-2,73
373,253	58,71
373,462	38,23
373,672	36,18
373,881	77,14
374,09	77,14
374,3	40,28
374,509	128,34
374,718	79,19
374,928	167,25
375,137	122,2
375,346	109,91
375,555	208,21
375,765	93,52
375,974	21,84
376,183	81,24
376,392	44,37
376,601	122,2
376,811	93,52
377,02	79,19
377,229	54,61
377,438	93,52
377,647	7,51
377,856	23,89
378,065	30,04
378,275	32,08
378,484	-29,35
378,693	30,04
378,902	81,24
379,111	101,72
379,32	48,47
379,529	103,76
379,738	132,44
379,947	161,11
380,156	161,11
380,365	107,86
380,574	185,68
380,783	60,76
380,992	36,18
381,201	62,8
381,41	-33,45
381,619	5,46
381,828	-12,97
382,037	-37,55
382,245	138,58
382,454	68,95
382,663	87,38
382,872	-29,35
383,081	23,89
383,29	19,8
383,499	66,9
383,707	107,86
383,916	13,65
384,125	142,68
384,334	99,67
384,542	44,37
384,751	40,28
384,96	21,84
385,169	38,23
385,377	38,23
385,586	44,37
385,795	32,08
386,004	124,24
386,212	25,94
386,421	23,89
386,63	99,67
386,838	83,28
387,047	93,52
387,255	60,76
387,464	109,91
387,673	89,43
387,881	105,81
388,09	204,11
388,298	107,86
388,507	114
388,715	85,33
388,924	175,44
389,133	95,57
389,341	81,24
389,55	77,14
389,758	27,99
389,967	68,95
390,175	79,19
390,383	126,29
390,592	87,38
390,8	40,28
391,009	154,96
391,217	93,52
391,426	150,87
391,634	-27,31
391,842	85,33
392,051	-19,11
392,259	27,99
392,467	52,56
392,676	-8,87
392,884	23,89
393,092	36,18
393,301	161,11
393,509	-4,78
393,717	138,58
393,925	126,29
394,134	93,52
394,342	114
394,55	183,63
394,758	60,76
394,967	-8,87
395,175	-10,92
395,383	83,28
395,591	111,96
395,799	87,38
396,007	44,37
396,216	202,07
396,424	109,91
396,632	95,57
396,84	48,47
397,048	109,91
397,256	114
397,464	68,95
397,672	118,1
397,88	87,38
398,088	105,81
398,296	54,61
398,504	85,33
398,712	44,37
398,92	89,43
399,128	60,76
399,336	85,33
399,544	132,44
399,752	77,14
399,96	60,76
400,168	62,8
400,376	42,32
400,584	107,86
400,792	11,61
401	-8,87
401,207	11,61
401,415	54,61
401,623	60,76
401,831	-19,11
402,039	79,19
402,247	-19,11
402,454	114
402,662	7,51
402,87	-10,92
403,078	169,3
403,285	175,44
403,493	-29,35
403,701	114
403,909	38,23
404,116	60,76
404,324	68,95
404,532	95,57
404,739	3,41
404,947	64,85
405,155	216,4
405,362	167,25
405,57	157,01
405,778	17,75
405,985	71
406,193	50,52
406,4	52,56
406,608	105,81
406,816	105,81
407,023	93,52
407,231	-10,92
407,438	93,52
407,646	103,76
407,853	58,71
408,061	-35,5
408,268	150,87
408,476	1,37
408,683	77,14
408,89	177,49
409,098	171,35
409,305	195,92
409,513	226,64
409,72	157,01
409,927	185,68
410,135	261,46
410,342	234,83
410,55	314,7
410,757	224,59
410,964	146,77
411,172	238,93
411,379	122,2
411,586	150,87
411,793	79,19
412,001	38,23
412,208	-27,31
412,415	11,61
412,622	105,81
412,83	36,18
413,037	126,29
413,244	-10,92
413,451	103,76
413,658	161,11
413,866	97,62
414,073	25,94
414,28	152,91
414,487	85,33
414,694	46,42
414,901	-2,73
415,108	79,19
415,315	52,56
415,522	146,77
415,73	13,65
415,937	-64,17
416,144	-0,68
416,351	21,84
416,558	36,18
416,765	5,46
416,972	27,99
417,179	64,85
417,386	130,39
417,593	21,84
417,8	11,61
418,006	136,53
418,213	111,96
418,42	134,48
418,627	60,76
418,834	-0,68
419,041	30,04
419,248	105,81
419,455	71
419,661	136,53
419,868	27,99
420,075	58,71
420,282	71
420,489	-17,07
420,696	71
420,902	116,05
421,109	130,39
421,316	-27,31
421,523	52,56
421,729	-21,16
421,936	40,28
422,143	93,52
422,349	52,56
422,556	-92,84
422,763	38,23
422,969	79,19
423,176	-133,8
423,383	11,61
423,589	208,21
423,796	11,61
424,002	36,18
424,209	32,08
424,416	71
424,622	-78,51
424,829	7,51
425,035	-37,55
425,242	27,99
425,448	-49,83
425,655	116,05
425,861	64,85
426,068	7,51
426,274	202,07
426,481	52,56
426,687	48,47
426,894	87,38
427,1	126,29
427,306	-12,97
427,513	68,95
427,719	122,2
427,926	52,56
428,132	42,32
428,338	19,8
428,545	19,8
428,751	77,14
428,957	68,95
429,163	3,41
429,37	54,61
429,576	77,14
429,782	114
429,989	48,47
430,195	73,04
430,401	11,61
430,607	11,61
430,813	-78,51
431,02	68,95
431,226	107,86
431,432	44,37
431,638	32,08
431,844	9,56
432,05	-19,11
432,257	150,87
432,463	152,91
432,669	286,03
432,875	290,13
433,081	308,56
433,287	441,68
433,493	531,79
433,699	757,07
433,905	1062,21
434,111	986,44
434,317	1027,4
434,523	963,91
434,729	873,8
434,935	638,28
435,141	636,24
435,347	312,66
435,553	218,45
435,759	208,21
435,965	216,4
436,171	179,54
436,377	150,87
436,582	157,01
436,788	77,14
436,994	236,88
437,2	79,19
437,406	38,23
437,612	159,06
437,818	58,71
438,023	-96,94
438,229	230,74
438,435	48,47
438,641	-0,68
438,846	109,91
439,052	27,99
439,258	134,48
439,464	56,66
439,669	21,84
439,875	167,25
440,081	91,48
440,286	-27,31
440,492	-21,16
440,698	64,85
440,903	27,99
441,109	144,72
441,314	11,61
441,52	3,41
441,726	19,8
441,931	77,14
442,137	103,76
442,342	62,8
442,548	32,08
442,753	138,58
442,959	42,32
443,164	54,61
443,37	52,56
443,575	3,41
443,781	-21,16
443,986	56,66
444,192	44,37
444,397	-12,97
444,602	-60,07
444,808	-27,31
445,013	25,94
445,219	15,7
445,424	159,06
445,629	50,52
445,835	183,63
446,04	-4,78
446,245	-76,46
446,451	38,23
446,656	-4,78
446,861	77,14
447,066	152,91
447,272	93,52
447,477	19,8
447,682	21,84
447,887	7,51
448,093	3,41
448,298	101,72
448,503	-53,93
448,708	11,61
448,913	-12,97
449,118	89,43
449,324	21,84
449,529	60,76
449,734	118,1
449,939	-21,16
450,144	97,62
450,349	-12,97
450,554	5,46
450,759	183,63
450,964	120,15
451,169	105,81
451,374	60,76
451,579	13,65
451,784	66,9
451,989	126,29
452,194	87,38
452,399	23,89
452,604	-76,46
452,809	54,61
453,014	-10,92
453,219	60,76
453,424	13,65
453,629	-103,08
453,833	-29,35
454,038	15,7
454,243	64,85
454,448	17,75
454,653	68,95
454,858	68,95
455,062	-17,07
455,267	-12,97
455,472	85,33
455,677	38,23
455,882	-0,68
456,086	77,14
456,291	54,61
456,496	-35,5
456,7	38,23
456,905	36,18
457,11	107,86
457,314	54,61
457,519	50,52
457,724	36,18
457,928	89,43
458,133	81,24
458,338	111,96
458,542	11,61
458,747	46,42
458,951	30,04
459,156	42,32
459,36	-21,16
459,565	101,72
459,769	30,04
459,974	71
460,178	-37,55
460,383	-53,93
460,587	-33,45
460,792	11,61
460,996	30,04
461,201	-21,16
461,405	-84,65
461,61	-90,79
461,814	138,58
462,018	-21,16
462,223	56,66
462,427	64,85
462,631	89,43
462,836	54,61
463,04	27,99
463,244	216,4
463,449	40,28
463,653	150,87
463,857	34,13
464,062	21,84
464,266	-10,92
464,47	54,61
464,674	3,41
464,878	71
465,083	21,84
465,287	85,33
465,491	5,46
465,695	-10,92
465,899	23,89
466,104	-10,92
466,308	77,14
466,512	27,99
466,716	5,46
466,92	101,72
467,124	111,96
467,328	77,14
467,532	77,14
467,736	27,99
467,94	85,33
468,144	42,32
468,348	54,61
468,552	83,28
468,756	-21,16
468,96	-4,78
469,164	-101,03
469,368	1,37
469,572	11,61
469,776	60,76
469,98	77,14
470,184	-29,35
470,388	109,91
470,591	25,94
470,795	118,1
470,999	11,61
471,203	-21,16
471,407	3,41
471,611	-10,92
471,814	-29,35
472,018	-86,7
472,222	32,08
472,426	109,91
472,63	38,23
472,833	103,76
473,037	159,06
473,241	11,61
473,444	85,33
473,648	423,25
473,852	3,41
474,055	101,72
474,259	36,18
474,463	64,85
474,666	109,91
474,87	32,08
475,074	83,28
475,277	60,76
475,481	79,19
475,684	79,19
475,888	3,41
476,091	21,84
476,295	-39,59
476,498	-21,16
476,702	77,14
476,905	46,42
477,109	150,87
477,312	62,8
477,516	-41,64
477,719	77,14
477,923	13,65
478,126	46,42
478,329	46,42
478,533	17,75
478,736	44,37
478,94	-25,26
479,143	27,99
479,346	93,52
479,55	68,95
479,753	109,91
479,956	-0,68
480,159	48,47
480,363	111,96
480,566	23,89
480,769	64,85
480,972	66,9
481,176	54,61
481,379	175,44
481,582	138,58
481,785	-78,51
481,988	13,65
482,192	165,2
482,395	32,08
482,598	120,15
482,801	27,99
483,004	142,68
483,207	73,04
483,41	114
483,613	161,11
483,817	150,87
484,02	159,06
484,223	251,22
484,426	752,97
484,629	1207,62
484,832	1926,46
485,035	2649,39
485,238	3616,03
485,441	4701,45
485,644	6204,66
485,846	7642,34
486,049	9225,42
486,252	10038,46
486,455	10276,02
486,658	10022,08
486,861	8568,02
487,064	7519,46
487,267	5434,63
487,47	4076,82
487,672	2964,78
487,875	1889,59
488,078	1322,31
488,281	818,5
488,484	404,82
488,686	306,51
488,889	118,1
489,092	68,95
489,295	71
489,497	206,16
489,7	36,18
489,903	23,89
490,105	11,61
490,308	-43,69
490,511	34,13
490,713	83,28
490,916	5,46
491,118	44,37
491,321	89,43
491,524	11,61
491,726	46,42
491,929	-70,31
492,131	46,42
492,334	27,99
492,536	52,56
492,739	-12,97
492,941	44,37
493,144	46,42
493,346	93,52
493,549	5,46
493,751	87,38
493,954	-6,83
494,156	62,8
494,359	161,11
494,561	15,7
494,763	85,33
494,966	159,06
495,168	152,91
495,37	-31,4
495,573	83,28
495,775	54,61
495,977	77,14
496,18	56,66
496,382	142,68
496,584	77,14
496,787	111,96
496,989	60,76
497,191	-10,92
497,393	62,8
497,595	-21,16
497,798	32,08
498	97,62
498,202	-12,97
498,404	-33,45
498,606	-29,35
498,808	97,62
499,011	19,8
499,213	60,76
499,415	77,14
499,617	130,39
499,819	122,2
500,021	111,96
500,223	-19,11
500,425	118,1
500,627	-33,45
500,829	19,8
501,031	46,42
501,233	25,94
501,435	60,76
501,637	105,81
501,839	116,05
502,041	15,7
502,243	36,18
502,445	38,23
502,647	38,23
502,848	27,99
503,05	-17,07
503,252	7,51
503,454	36,18
503,656	56,66
503,858	-21,16
504,059	56,66
504,261	68,95
504,463	200,02
504,665	-21,16
504,867	48,47
505,068	19,8
505,27	52,56
505,472	93,52
505,673	138,58
505,875	5,46
506,077	68,95
506,278	-10,92
506,48	118,1
506,682	5,46
506,883	111,96
507,085	120,15
507,287	-12,97
507,488	85,33
507,69	38,23
507,891	-62,12
508,093	93,52
508,294	-37,55
508,496	27,99
508,697	-19,11
508,899	-12,97
509,1	77,14
509,302	120,15
509,503	77,14
509,705	75,09
509,906	85,33
510,108	-53,93
510,309	-4,78
510,51	19,8
510,712	13,65
510,913	5,46
511,114	32,08
511,316	-17,07
511,517	85,33
511,718	15,7
511,92	21,84
512,121	32,08
512,322	36,18
512,524	159,06
512,725	-17,07
512,926	-12,97
513,127	-33,45
513,329	30,04
513,53	3,41
513,731	-0,68
513,932	38,23
514,133	30,04
514,334	17,75
514,536	126,29
514,737	85,33
514,938	5,46
515,139	30,04
515,34	-10,92
515,541	77,14
515,742	-0,68
515,943	126,29
516,144	85,33
516,345	134,48
516,546	60,76
516,747	36,18
516,948	30,04
517,149	-12,97
517,35	-55,98
517,551	19,8
517,752	3,41
517,953	103,76
518,154	60,76
518,355	68,95
518,556	109,91
518,756	54,61
518,957	77,14
519,158	85,33
519,359	142,68
519,56	93,52
519,761	171,35
519,961	138,58
520,162	224,59
520,363	77,14
520,564	38,23
520,764	200,02
520,965	11,61
521,166	87,38
521,366	11,61
521,567	85,33
521,768	64,85
521,968	71
522,169	30,04
522,37	-25,26
522,57	-103,08
522,771	-53,93
522,972	-39,59
523,172	138,58
523,373	52,56
523,573	5,46
523,774	19,8
523,974	150,87
524,175	62,8
524,375	-8,87
524,576	-4,78
524,776	15,7
524,977	11,61
525,177	126,29
525,378	97,62
525,578	46,42
525,778	52,56
525,979	89,43
526,179	27,99
526,38	11,61
526,58	36,18
526,78	-62,12
526,981	79,19
527,181	50,52
527,381	34,13
527,582	30,04
527,782	89,43
527,982	66,9
528,182	-10,92
528,383	27,99
528,583	3,41
528,783	89,43
528,983	52,56
529,183	-10,92
529,384	36,18
529,584	183,63
529,784	144,72
529,984	89,43
530,184	87,38
530,384	38,23
530,584	-2,73
530,784	118,1
530,984	-66,22
531,185	95,57
531,385	120,15
531,585	128,34
531,785	212,31
531,985	19,8
532,185	3,41
532,385	21,84
532,585	134,48
532,785	68,95
532,984	150,87
533,184	191,83
533,384	21,84
533,584	-41,64
533,784	71
533,984	48,47
534,184	11,61
534,384	-12,97
534,583	144,72
534,783	32,08
534,983	66,9
535,183	11,61
535,383	-4,78
535,582	85,33
535,782	1,37
535,982	93,52
536,182	52,56
536,381	38,23
536,581	-21,16
536,781	38,23
536,98	30,04
537,18	60,76
537,38	7,51
537,579	-53,93
537,779	1,37
537,979	-12,97
538,178	21,84
538,378	40,28
538,577	-4,78
538,777	71
538,976	44,37
539,176	68,95
539,376	23,89
539,575	-12,97
539,774	71
539,974	-17,07
540,173	27,99
540,373	89,43
540,572	-21,16
540,772	93,52
540,971	-45,74
541,171	11,61
541,37	79,19
541,569	-8,87
541,769	11,61
541,968	21,84
542,167	48,47
542,367	52,56
542,566	62,8
542,765	-17,07
542,965	-35,5
543,164	38,23
543,363	38,23
543,562	3,41
543,761	46,42
543,961	144,72
544,16	-103,08
544,359	132,44
544,558	101,72
544,757	-29,35
544,957	-10,92
545,156	40,28
545,355	19,8
545,554	60,76
545,753	-84,65
545,952	13,65
546,151	-15,02
546,35	38,23
546,549	32,08
546,748	60,76
546,947	54,61
547,146	-68,27
547,345	36,18
547,544	-2,73
547,743	-12,97
547,942	44,37
548,141	77,14
548,34	11,61
548,539	60,76
548,738	-43,69
548,937	40,28
549,135	77,14
549,334	42,32
549,533	56,66
549,732	52,56
549,931	32,08
550,13	13,65
550,328	-37,55
550,527	27,99
550,726	87,38
550,925	-49,83
551,123	3,41
551,322	13,65
551,521	68,95
551,72	23,89
551,918	13,65
552,117	5,46
552,315	38,23
552,514	38,23
552,713	27,99
552,911	-4,78
553,11	-68,27
553,309	85,33
553,507	71
553,706	3,41
553,904	79,19
554,103	154,96
554,301	-0,68
554,5	-4,78
554,698	25,94
554,897	62,8
555,095	68,95
555,294	-60,07
555,492	42,32
555,69	15,7
555,889	-68,27
556,087	54,61
556,286	111,96
556,484	44,37
556,682	66,9
556,881	-41,64
557,079	44,37
557,277	85,33
557,476	109,91
557,674	-21,16
557,872	136,53
558,07	15,7
558,269	30,04
558,467	11,61
558,665	36,18
558,863	44,37
559,062	-12,97
559,26	-62,12
559,458	-76,46
559,656	71
559,854	-12,97
560,052	40,28
560,25	91,48
560,449	154,96
560,647	60,76
560,845	-37,55
561,043	79,19
561,241	134,48
561,439	144,72
561,637	13,65
561,835	11,61
562,033	142,68
562,231	-47,79
562,429	-2,73
562,627	-33,45
562,825	13,65
563,023	54,61
563,221	-19,11
563,418	-43,69
563,616	79,19
563,814	185,68
564,012	77,14
564,21	60,76
564,408	73,04
564,605	-33,45
564,803	-6,83
565,001	183,63
565,199	-62,12
565,397	71
565,594	68,95
565,792	111,96
565,99	17,75
566,188	71
566,385	30,04
566,583	3,41
566,781	13,65
566,978	46,42
567,176	114
567,373	138,58
567,571	60,76
567,769	87,38
567,966	-12,97
568,164	68,95
568,361	87,38
568,559	85,33
568,756	38,23
568,954	1,37
569,151	87,38
569,349	114
569,546	9,56
569,744	19,8
569,941	-8,87
570,139	44,37
570,336	11,61
570,534	38,23
570,731	-58,03
570,928	21,84
571,126	142,68
571,323	77,14
571,52	-37,55
571,718	93,52
571,915	3,41
572,112	-39,59
572,31	-0,68
572,507	11,61
572,704	-29,35
572,901	-45,74
573,099	3,41
573,296	142,68
573,493	13,65
573,69	-49,83
573,887	7,51
574,085	97,62
574,282	64,85
574,479	54,61
574,676	48,47
574,873	1,37
575,07	56,66
575,267	23,89
575,464	9,56
575,661	19,8
575,858	9,56
576,055	19,8
576,252	99,67
576,449	77,14
576,646	17,75
576,843	-12,97
577,04	46,42
577,237	97,62
577,434	48,47
577,631	54,61
577,828	93,52
578,025	9,56
578,222	-45,74
578,419	42,32
578,615	-43,69
578,812	38,23
579,009	54,61
579,206	107,86
579,403	93,52
579,599	150,87
579,796	38,23
579,993	122,2
580,19	34,13
580,386	89,43
580,583	103,76
580,78	38,23
580,976	105,81
581,173	21,84
581,37	167,25
581,566	77,14
581,763	-17,07
581,96	68,95
582,156	-25,26
582,353	44,37
582,549	89,43
582,746	54,61
582,942	36,18
583,139	19,8
583,335	71
583,532	71
583,728	-33,45
583,925	15,7
584,121	44,37
584,318	40,28
584,514	120,15
584,711	97,62
584,907	85,33
585,103	9,56
585,3	73,04
585,496	-19,11
585,693	-58,03
585,889	54,61
586,085	-27,31
586,281	99,67
586,478	36,18
586,674	19,8
586,87	93,52
587,067	52,56
587,263	23,89
587,459	66,9
587,655	-0,68
587,851	66,9
588,048	111,96
588,244	81,24
588,44	13,65
588,636	87,38
588,832	95,57
589,028	159,06
589,224	19,8
589,42	11,61
589,617	11,61
589,813	216,4
590,009	23,89
590,205	56,66
590,401	44,37
590,597	11,61
590,793	52,56
590,989	62,8
591,185	169,3
591,38	36,18
591,576	-4,78
591,772	38,23
591,968	48,47
592,164	109,91
592,36	-27,31
592,556	68,95
592,752	85,33
592,948	66,9
593,143	32,08
593,339	-53,93
593,535	60,76
593,731	-12,97
593,926	62,8
594,122	-8,87
594,318	21,84
594,514	134,48
594,709	-17,07
594,905	58,71
595,101	19,8
595,296	93,52
595,492	87,38
595,688	85,33
595,883	85,33
596,079	79,19
596,275	111,96
596,47	136,53
596,666	77,14
596,861	79,19
597,057	11,61
597,252	-17,07
597,448	19,8
597,643	56,66
597,839	77,14
598,034	77,14
598,23	68,95
598,425	85,33
598,621	154,96
598,816	9,56
599,011	-35,5
599,207	38,23
599,402	-10,92
599,597	87,38
599,793	11,61
599,988	-12,97
600,183	130,39
600,379	124,24
600,574	40,28
600,769	77,14
600,965	44,37
601,16	48,47
601,355	-21,16
601,55	99,67
601,745	77,14
601,941	159,06
602,136	95,57
602,331	77,14
602,526	54,61
602,721	109,91
602,916	83,28
603,111	79,19
603,307	89,43
603,502	77,14
603,697	54,61
603,892	142,68
604,087	77,14
604,282	111,96
604,477	77,14
604,672	64,85
604,867	73,04
605,062	87,38
605,257	40,28
605,452	144,72
605,646	68,95
605,841	52,56
606,036	60,76
606,231	15,7
606,426	44,37
606,621	44,37
606,816	42,32
607,01	114
607,205	27,99
607,4	11,61
607,595	44,37
607,79	79,19
607,984	97,62
608,179	-2,73
608,374	3,41
608,569	114
608,763	3,41
608,958	1,37
609,153	73,04
609,347	107,86
609,542	54,61
609,736	81,24
609,931	64,85
610,126	23,89
610,32	71
610,515	-4,78
610,709	245,07
610,904	54,61
611,098	109,91
611,293	-37,55
611,487	3,41
611,682	11,61
611,876	-51,88
612,071	27,99
612,265	19,8
612,46	-60,07
612,654	68,95
612,848	-49,83
613,043	3,41
613,237	95,57
613,432	1,37
613,626	-23,21
613,82	-62,12
614,014	138,58
614,209	5,46
614,403	19,8
614,597	114
614,792	161,11
614,986	208,21
615,18	257,36
615,374	154,96
615,568	197,97
615,763	161,11
615,957	230,74
616,151	265,55
616,345	308,56
616,539	290,13
616,733	202,07
616,927	275,79
617,121	183,63
617,316	175,44
617,51	204,11
617,704	126,29
617,898	134,48
618,092	62,8
618,286	9,56
618,48	-12,97
618,674	71
618,868	48,47
619,061	-49,83
619,255	175,44
619,449	32,08
619,643	-27,31
619,837	150,87
620,031	40,28
620,225	85,33
620,419	1,37
620,612	93,52
620,806	73,04
621	167,25
621,194	-25,26
621,388	54,61
621,581	27,99
621,775	36,18
621,969	19,8
622,162	-10,92
622,356	27,99
622,55	71
622,743	-82,6
622,937	48,47
623,131	52,56
623,324	99,67
623,518	40,28
623,712	54,61
623,905	79,19
624,099	138,58
624,292	-51,88
624,486	3,41
624,679	-29,35
624,873	32,08
625,066	-12,97
625,26	68,95
625,453	46,42
625,647	-0,68
625,84	126,29
626,034	30,04
626,227	13,65
626,42	54,61
626,614	85,33
626,807	77,14
627	83,28
627,194	36,18
627,387	118,1
627,58	3,41
627,774	3,41
627,967	64,85
628,16	36,18
628,353	77,14
628,547	79,19
628,74	77,14
628,933	27,99
629,126	68,95
629,319	23,89
629,513	13,65
629,706	36,18
629,899	36,18
630,092	32,08
630,285	52,56
630,478	101,72
630,671	11,61
630,864	64,85
631,057	-2,73
631,25	138,58
631,443	46,42
631,636	38,23
631,829	202,07
632,022	91,48
632,215	56,66
632,408	71
632,601	85,33
632,794	21,84
632,987	101,72
633,18	-8,87
633,373	52,56
633,566	44,37
633,758	21,84
633,951	46,42
634,144	27,99
634,337	-4,78
634,53	105,81
634,722	142,68
634,915	36,18
635,108	9,56
635,301	56,66
635,493	79,19
635,686	97,62
635,879	11,61
636,071	-12,97
636,264	68,95
636,457	114
636,649	48,47
636,842	48,47
637,034	142,68
637,227	101,72
637,42	116,05
637,612	-37,55
637,805	-4,78
637,997	109,91
638,19	-33,45
638,382	-15,02
638,575	44,37
638,767	38,23
638,96	83,28
639,152	126,29
639,344	152,91
639,537	-92,84
639,729	89,43
639,922	81,24
640,114	36,18
640,306	44,37
640,499	85,33
640,691	38,23
640,883	-2,73
641,075	130,39
641,268	183,63
641,46	38,23
641,652	77,14
641,844	19,8
642,037	36,18
642,229	60,76
642,421	109,91
642,613	60,76
642,805	15,7
642,998	44,37
643,19	85,33
643,382	77,14
643,574	99,67
643,766	3,41
643,958	136,53
644,15	85,33
644,342	107,86
644,534	187,73
644,726	27,99
644,918	144,72
645,11	7,51
645,302	118,1
645,494	175,44
645,686	144,72
645,878	46,42
646,07	161,11
646,262	148,82
646,453	48,47
646,645	134,48
646,837	52,56
647,029	142,68
647,221	85,33
647,413	25,94
647,604	15,7
647,796	48,47
647,988	157,01
648,18	62,8
648,371	3,41
648,563	40,28
648,755	-4,78
648,947	-19,11
649,138	44,37
649,33	120,15
649,521	132,44
649,713	56,66
649,905	95,57
650,096	60,76
650,288	73,04
650,479	-8,87
650,671	44,37
650,863	71
651,054	60,76
651,246	183,63
651,437	130,39
651,629	228,69
651,82	177,49
652,011	173,39
652,203	253,27
652,394	208,21
652,586	101,72
652,777	144,72
652,968	212,31
653,16	19,8
653,351	183,63
653,542	240,98
653,734	183,63
653,925	148,82
654,116	290,13
654,308	314,7
654,499	593,23
654,69	1547,58
654,881	4566,29
655,073	9893,05
655,264	16985,17
655,455	25127,89
655,646	35765,04
655,837	46174,87
656,028	54551,06
656,219	61133,23
656,411	64194,95
656,602	64194,95
656,793	64194,95
656,984	63308,18
657,175	57428,46
657,366	52302,39
657,557	44143,28
657,748	37679,89
657,939	32441,19
658,13	27478,96
658,321	23034,87
658,512	17855,56
658,703	12899,47
658,894	8367,32
659,084	5156,1
659,275	3349,79
659,466	2051,38
659,657	1508,67
659,848	1103,17
660,039	740,68
660,23	535,89
660,42	402,77
660,611	390,48
660,802	333,14
660,993	222,55
661,183	247,12
661,374	240,98
661,565	314,7
661,755	175,44
661,946	163,15
662,137	183,63
662,327	138,58
662,518	77,14
662,709	87,38
662,899	38,23
663,09	118,1
663,28	118,1
663,471	27,99
663,662	177,49
663,852	183,63
664,043	44,37
664,233	95,57
664,424	56,66
664,614	60,76
664,804	44,37
664,995	85,33
665,185	130,39
665,376	-27,31
665,566	126,29
665,756	-43,69
665,947	36,18
666,137	54,61
666,328	202,07
666,518	109,91
666,708	60,76
666,898	93,52
667,089	46,42
667,279	85,33
667,469	32,08
667,659	19,8
667,85	175,44
668,04	-25,26
668,23	-17,07
668,42	27,99
668,61	36,18
668,8	48,47
668,991	52,56
669,181	130,39
669,371	11,61
669,561	-10,92
669,751	146,77
669,941	58,71
670,131	-29,35
670,321	85,33
670,511	27,99
670,701	-4,78
670,891	54,61
671,081	77,14
671,271	-37,55
671,461	38,23
671,651	52,56
671,841	21,84
672,03	38,23
672,22	-25,26
672,41	87,38
672,6	107,86
672,79	25,94
672,98	32,08
673,169	40,28
673,359	62,8
673,549	134,48
673,739	-37,55
673,928	107,86
674,118	48,47
674,308	77,14
674,497	85,33
674,687	-39,59
674,877	54,61
675,066	30,04
675,256	25,94
675,446	34,13
675,635	44,37
675,825	46,42
676,014	-25,26
676,204	-12,97
676,393	52,56
676,583	68,95
676,772	7,51
676,962	27,99
677,151	77,14
677,341	-4,78
677,53	27,99
677,72	103,76
677,909	101,72
678,099	-82,6
678,288	-53,93
678,477	23,89
678,667	-12,97
678,856	116,05
679,045	9,56
679,235	9,56
679,424	71
679,613	48,47
679,802	-17,07
679,992	-33,45
680,181	5,46
680,37	7,51
680,559	62,8
680,748	138,58
680,938	36,18
681,127	-21,16
681,316	99,67
681,505	97,62
681,694	25,94
681,883	-29,35
682,072	-68,27
682,261	-21,16
682,45	-45,74
682,639	-58,03
682,828	52,56
683,017	68,95
683,206	-27,31
683,395	25,94
683,584	25,94
683,773	152,91
683,962	-10,92
684,151	-45,74
684,34	71
684,529	-4,78
684,718	-12,97
684,907	48,47
685,095	118,1
685,284	46,42
685,473	42,32
685,662	-41,64
685,851	105,81
686,039	46,42
686,228	-8,87
686,417	-21,16
686,606	140,63
686,794	-27,31
686,983	-21,16
687,172	89,43
687,36	-17,07
687,549	-25,26
687,738	-53,93
687,926	-70,31
688,115	58,71
688,303	27,99
688,492	77,14
688,68	-33,45
688,869	-12,97
689,057	-25,26
689,246	-29,35
689,434	36,18
689,623	-8,87
689,811	71
690	-17,07
690,188	-68,27
690,377	-21,16
690,565	163,15
690,753	111,96
690,942	105,81
691,13	71
691,318	-12,97
691,507	-68,27
691,695	50,52
691,883	-2,73
692,072	42,32
692,26	52,56
692,448	58,71
692,636	-53,93
692,824	-12,97
693,013	77,14
693,201	95,57
693,389	-111,27
693,577	-10,92
693,765	-8,87
693,953	-39,59
694,141	46,42
694,329	-49,83
694,518	-84,65
694,706	23,89
694,894	32,08
695,082	32,08
695,27	46,42
695,458	-33,45
695,646	159,06
695,834	58,71
696,022	-31,4
696,209	36,18
696,397	58,71
696,585	21,84
696,773	25,94
696,961	19,8
697,149	3,41
697,337	83,28
697,525	126,29
697,712	-4,78
697,9	-29,35
698,088	5,46
698,276	87,38
698,463	-2,73
698,651	44,37
698,839	-19,11
699,027	60,76
699,214	159,06
699,402	-25,26
699,59	-29,35
699,777	46,42
699,965	19,8
700,152	-19,11
700,34	-90,79
700,528	19,8
700,715	3,41
700,903	93,52
701,09	73,04
701,278	-37,55
701,465	73,04
701,653	48,47
701,84	-49,83
702,028	52,56
702,215	54,61
702,402	9,56
702,59	68,95
702,777	50,52
702,965	9,56
703,152	40,28
703,339	-10,92
703,527	5,46
703,714	27,99
703,901	-29,35
704,088	5,46
704,276	-10,92
704,463	11,61
704,65	50,52
704,837	101,72
705,025	85,33
705,212	-0,68
705,399	-21,16
705,586	62,8
705,773	-10,92
705,96	-0,68
706,147	-53,93
706,335	-47,79
706,522	-4,78
706,709	-29,35
706,896	19,8
707,083	38,23
707,27	19,8
707,457	68,95
707,644	25,94
707,831	13,65
708,018	-45,74
708,205	-86,7
708,392	79,19
708,578	111,96
708,765	-53,93
708,952	-17,07
709,139	7,51
709,326	-4,78
709,513	68,95
709,7	30,04
709,886	-4,78
710,073	52,56
710,26	134,48
710,447	-27,31
710,633	36,18
710,82	101,72
711,007	118,1
711,193	-0,68
711,38	11,61
711,567	9,56
711,753	-10,92
711,94	-70,31
712,127	36,18
712,313	89,43
712,5	46,42
712,686	95,57
712,873	-68,27
713,059	-21,16
713,246	-19,11
713,432	52,56
713,619	7,51
713,805	13,65
713,992	64,85
714,178	11,61
714,365	64,85
714,551	101,72
714,737	-27,31
714,924	-27,31
715,11	11,61
715,297	68,95
715,483	-25,26
715,669	21,84
715,855	40,28
716,042	-2,73
716,228	3,41
716,414	73,04
716,6	48,47
716,787	48,47
716,973	48,47
717,159	7,51
717,345	-8,87
717,531	-74,41
717,718	-21,16
717,904	36,18
718,09	68,95
718,276	64,85
718,462	56,66
718,648	27,99
718,834	11,61
719,02	42,32
719,206	60,76
719,392	-72,36
719,578	7,51
719,764	-43,69
719,95	-12,97
720,136	103,76
720,322	73,04
720,508	-17,07
720,694	-12,97
720,879	-0,68
721,065	56,66
721,251	126,29
721,437	-4,78
721,623	95,57
721,809	87,38
721,994	71
722,18	-78,51
722,366	38,23
722,552	21,84
722,737	44,37
722,923	23,89
723,109	40,28
723,294	5,46
723,48	21,84
723,666	81,24
723,851	-33,45
724,037	54,61
724,222	19,8
724,408	60,76
724,593	68,95
724,779	1,37
724,965	-8,87
725,15	44,37
725,336	111,96
725,521	77,14
725,706	46,42
725,892	101,72
726,077	7,51
726,263	-41,64
726,448	179,54
726,634	56,66
726,819	93,52
727,004	60,76
727,19	-4,78
727,375	89,43
727,56	3,41
727,745	-35,5
727,931	21,84
728,116	19,8
728,301	62,8
728,486	19,8
728,672	-4,78
728,857	-8,87
729,042	17,75
729,227	-74,41
729,412	-4,78
729,597	-103,08
729,783	32,08
729,968	32,08
730,153	13,65
730,338	-37,55
730,523	32,08
730,708	-0,68
730,893	-25,26
731,078	87,38
731,263	21,84
731,448	-17,07
731,633	19,8
731,818	23,89
732,003	71
732,187	-19,11
732,372	-53,93
732,557	95,57
732,742	-86,7
732,927	-12,97
733,112	48,47
733,297	-6,83
733,481	-0,68
733,666	34,13
733,851	54,61
734,036	-2,73
734,22	-12,97
734,405	105,81
734,59	-19,11
734,774	-6,83
734,959	-29,35
735,144	118,1
735,328	19,8
735,513	-43,69
735,698	27,99
735,882	44,37
736,067	3,41
736,251	30,04
736,436	-66,22
736,62	-37,55
736,805	-68,27
736,989	134,48
737,174	-12,97
737,358	-68,27
737,543	85,33
737,727	38,23
737,911	126,29
738,096	-53,93
738,28	62,8
738,465	-2,73
738,649	77,14
738,833	36,18
739,018	56,66
739,202	62,8
739,386	-2,73
739,57	-12,97
739,755	-29,35
739,939	34,13
740,123	-45,74
740,307	42,32
740,491	-8,87
740,676	21,84
740,86	40,28
741,044	19,8
741,228	87,38
741,412	-25,26
741,596	-76,46
741,78	19,8
741,964	-62,12
742,148	-21,16
742,332	-2,73
742,516	-35,5
742,7	36,18
742,884	13,65
743,068	52,56
743,252	11,61
743,436	32,08
743,62	-76,46
743,804	165,2
743,988	111,96
744,172	-0,68
744,356	21,84
744,539	-12,97
744,723	-35,5
744,907	-27,31
745,091	11,61
745,275	93,52
745,458	27,99
745,642	-10,92
745,826	-10,92
746,009	111,96
746,193	58,71
746,377	77,14
746,56	95,57
746,744	140,63
746,928	5,46
747,111	50,52
747,295	27,99
747,478	-21,16
747,662	32,08
747,846	114
748,029	146,77
748,213	-0,68
748,396	85,33
748,58	68,95
748,763	-66,22
748,946	-31,4
749,13	75,09
749,313	17,75
749,497	93,52
749,68	87,38
749,863	130,39
750,047	-31,4
750,23	-19,11
750,413	36,18
750,597	40,28
750,78	-12,97
750,963	101,72
751,146	71
751,33	73,04
751,513	19,8
751,696	11,61
751,879	46,42
752,062	-37,55
752,246	89,43
752,429	38,23
752,612	101,72
752,795	-6,83
752,978	46,42
753,161	-49,83
753,344	34,13
753,527	93,52
753,71	5,46
753,893	42,32
754,076	-45,74
754,259	85,33
754,442	1,37
754,625	-84,65
754,808	52,56
754,991	21,84
755,174	-17,07
755,357	1,37
755,539	11,61
755,722	77,14
755,905	30,04
756,088	-19,11
756,271	-41,64
756,453	-0,68
756,636	-53,93
756,819	87,38
757,002	-33,45
757,184	126,29
757,367	48,47
757,55	-19,11
757,732	95,57
757,915	-78,51
758,098	-35,5
758,28	62,8
758,463	38,23
758,645	73,04
758,828	62,8
759,011	42,32
759,193	-66,22
759,376	62,8
759,558	-74,41
759,741	7,51
759,923	38,23
760,105	-2,73
760,288	36,18
760,47	-90,79
760,653	5,46
760,835	-27,31
761,017	-41,64
761,2	54,61
761,382	42,32
761,564	-31,4
761,747	52,56
761,929	32,08
762,111	17,75
762,294	-43,69
762,476	212,31
762,658	13,65
762,84	157,01
763,022	-4,78
763,205	46,42
763,387	60,76
763,569	62,8
763,751	-103,08
763,933	-74,41
764,115	-53,93
764,297	32,08
764,479	103,76
764,661	19,8
764,843	46,42
765,025	19,8
765,207	19,8
765,389	-90,79
765,571	-35,5
765,753	89,43
765,935	1,37
766,117	30,04
766,299	21,84
766,481	161,11
766,663	19,8
766,845	-107,18
767,026	7,51
767,208	21,84
767,39	3,41
767,572	-29,35
767,753	73,04
767,935	15,7
768,117	36,18
768,299	60,76
768,48	19,8
768,662	81,24
768,844	21,84
769,025	95,57
769,207	44,37
769,389	48,47
769,57	81,24
769,752	140,63
769,933	30,04
770,115	3,41
770,296	27,99
770,478	93,52
770,659	-17,07
770,841	138,58
771,022	50,52
771,204	27,99
771,385	3,41
771,567	62,8
771,748	89,43
771,929	15,7
772,111	-0,68
772,292	101,72
772,473	52,56
772,655	46,42
772,836	40,28
773,017	109,91
773,199	181,59
773,38	101,72
773,561	52,56
773,742	81,24
773,923	-47,79
774,105	128,34
774,286	71
774,467	-37,55
774,648	118,1
774,829	46,42
775,01	-43,69
775,191	13,65
775,372	-8,87
775,553	21,84
775,734	36,18
775,915	101,72
776,096	462,16
776,277	996,68
776,458	1682,75
776,639	2596,14
776,82	3493,15
777,001	4205,85
777,182	4988,17
777,363	5373,19
777,544	5713,15
777,725	5311,75
777,906	4945,16
778,086	4058,39
778,267	3716,38
778,448	2837,8
778,629	2469,17
778,809	2035
778,99	1776,95
779,171	1535,29
779,352	1428,8
779,532	1133,89
779,713	1101,12
779,894	1013,06
780,074	998,73
780,255	945,48
780,435	896,33
780,616	675,15
780,797	537,93
780,977	226,64
781,158	224,59
781,338	165,2
781,519	144,72
781,699	216,4
781,88	50,52
782,06	97,62
782,241	-21,16
782,421	-19,11
782,601	68,95
782,782	138,58
782,962	93,52
783,142	-25,26
783,323	7,51
783,503	91,48
783,683	11,61
783,864	68,95
784,044	54,61
784,224	71
784,404	109,91
784,585	38,23
784,765	-12,97
784,945	101,72
785,125	-21,16
785,305	38,23
785,485	179,54
785,666	3,41
785,846	19,8
786,026	42,32
786,206	-41,64
786,386	11,61
786,566	44,37
786,746	32,08
786,926	52,56
787,106	-21,16
787,286	-80,55
787,466	1,37
787,646	-0,68
787,826	54,61
788,006	136,53
788,185	-8,87
788,365	-68,27
788,545	148,82
788,725	-31,4
788,905	-49,83
789,085	19,8
789,264	-10,92
789,444	60,76
789,624	36,18
789,804	19,8
789,983	36,18
790,163	1,37
790,343	36,18
790,522	85,33
790,702	128,34
790,882	48,47
791,061	130,39
791,241	75,09
791,42	38,23
791,6	118,1
791,78	-10,92
791,959	-29,35
792,139	-70,31
792,318	30,04
792,498	126,29
792,677	62,8
792,856	-115,37
793,036	-35,5
793,215	5,46
793,395	46,42
793,574	-76,46
793,753	95,57
793,933	44,37
794,112	11,61
794,291	36,18
794,471	152,91
794,65	48,47
794,829	44,37
795,008	-12,97
795,188	54,61
795,367	130,39
795,546	-37,55
795,725	64,85
795,904	11,61
796,084	109,91
796,263	38,23
796,442	85,33
796,621	32,08
796,8	120,15
796,979	27,99
797,158	-39,59
797,337	-0,68
797,516	52,56
797,695	-4,78
797,874	19,8
798,053	27,99
798,232	17,75
798,411	3,41
798,59	5,46
798,769	-45,74
798,947	44,37
799,126	120,15
799,305	36,18
799,484	36,18
799,663	19,8
799,842	85,33
800,02	-0,68
800,199	-37,55
800,378	71
800,557	-51,88
800,735	-21,16
800,914	13,65
801,093	36,18
801,271	85,33
801,45	32,08
801,628	-12,97
801,807	44,37
801,986	19,8
802,164	-25,26
802,343	54,61
802,521	-25,26
802,7	120,15
802,878	60,76
803,057	25,94
803,235	-0,68
803,414	25,94
803,592	46,42
803,771	79,19
803,949	36,18
804,127	21,84
804,306	71
804,484	62,8
804,662	-27,31
804,841	-101,03
805,019	-21,16
805,197	36,18
805,375	-4,78
805,554	-12,97
805,732	36,18
805,91	15,7
806,088	48,47
806,266	40,28
806,445	-45,74
806,623	-37,55
806,801	52,56
806,979	142,68
807,157	19,8
807,335	-12,97
807,513	32,08
807,691	15,7
807,869	-17,07
808,047	-21,16
808,225	3,41
808,403	42,32
808,581	-0,68
808,759	144,72
808,937	21,84
809,115	118,1
809,293	101,72
809,471	-49,83
809,649	87,38
809,826	134,48
810,004	-62,12
810,182	-49,83
810,36	3,41
810,538	85,33
810,715	23,89
810,893	-19,11
811,071	-6,83
811,248	111,96
811,426	11,61
811,604	103,76
811,781	77,14
811,959	23,89
812,137	23,89
812,314	3,41
812,492	-17,07
812,669	23,89
812,847	23,89
813,024	77,14
813,202	30,04
813,379	7,51
813,557	44,37
813,734	109,91
813,912	38,23
814,089	-4,78
814,267	150,87
814,444	-12,97
814,621	38,23
814,799	-37,55
814,976	79,19
815,153	27,99
815,331	-29,35
815,508	-8,87
815,685	-51,88
815,862	101,72
816,04	-70,31
816,217	3,41
816,394	40,28
816,571	30,04
816,748	159,06
816,926	154,96
817,103	298,32
817,28	5,46
817,457	3,41
817,634	109,91
817,811	-58,03
817,988	-47,79
818,165	68,95
818,342	32,08
818,519	56,66
818,696	-60,07
818,873	-68,27
819,05	48,47
819,227	-4,78
819,404	36,18
819,581	81,24
819,758	-2,73
819,934	5,46
820,111	-109,23
820,288	-72,36
820,465	30,04
820,642	27,99
820,818	9,56
820,995	-49,83
821,172	34,13
821,349	27,99
821,525	-37,55
821,702	-33,45
821,879	-74,41
822,055	71
822,232	30,04
822,409	25,94
822,585	71
822,762	140,63
822,938	52,56
823,115	23,89
823,291	30,04
823,468	185,68
823,644	-12,97
823,821	19,8
823,997	-90,79
824,174	36,18
824,35	36,18
824,527	77,14
824,703	11,61
824,879	48,47
825,056	-10,92
825,232	146,77
825,408	-41,64
825,585	-68,27
825,761	27,99
825,937	-78,51
826,113	11,61
826,29	97,62
826,466	56,66
826,642	351,57
826,818	19,8
826,994	21,84
827,17	-43,69
827,347	7,51
827,523	-29,35
827,699	126,29
827,875	13,65
828,051	-10,92
828,227	-21,16
828,403	79,19
828,579	21,84
828,755	19,8
828,931	62,8
829,107	126,29
829,283	126,29
829,459	-0,68
829,635	-2,73
829,811	54,61
829,986	44,37
830,162	38,23
830,338	5,46
830,514	-21,16
830,69	-2,73
830,865	15,7
831,041	128,34
831,217	3,41
831,393	-0,68
831,568	71
831,744	3,41
831,92	60,76
832,095	-45,74
832,271	-37,55
832,447	11,61
832,622	146,77
832,798	13,65
832,973	-37,55
833,149	85,33
833,325	-0,68
833,5	19,8
833,676	44,37
833,851	32,08
834,027	38,23
834,202	-8,87
834,377	46,42
834,553	30,04
834,728	19,8
834,904	54,61
835,079	17,75
835,254	-29,35
835,43	23,89
835,605	-45,74
835,78	-17,07
835,955	19,8
836,131	36,18
836,306	-15,02
836,481	-12,97
836,656	-12,97
836,832	3,41
837,007	-103,08
837,182	-37,55
837,357	11,61
837,532	62,8
837,707	-12,97
837,882	62,8
838,057	73,04
838,232	27,99
838,407	54,61
838,582	5,46
838,757	5,46
838,932	32,08
839,107	89,43
839,282	-53,93
839,457	-45,74
839,632	42,32
839,807	27,99
839,982	62,8
840,157	-0,68
840,332	46,42
840,506	32,08
840,681	-119,46
840,856	68,95
841,031	-49,83
841,205	-17,07
841,38	46,42
841,555	95,57
841,73	-12,97
841,904	56,66
842,079	-45,74
842,254	3,41
842,428	52,56
842,603	-111,27
842,777	-27,31
842,952	-25,26
843,126	3,41
843,301	111,96
843,476	165,2
843,65	511,31
843,825	779,59
843,999	1043,78
844,173	1142,08
844,348	1387,84
844,522	1525,05
844,697	1436,99
844,871	1373,5
845,045	1396,03
845,22	1209,67
845,394	1084,74
845,568	963,91
845,743	855,37
845,917	718,15
846,091	695,63
846,265	683,34
846,44	669
846,614	673,1
846,788	527,69
846,962	550,22
847,136	562,51
847,31	441,68
847,485	572,75
847,659	380,24
847,833	451,92
848,007	400,72
848,181	441,68
848,355	298,32
848,529	281,94
848,703	283,98
848,877	138,58
849,051	154,96
849,225	54,61
849,399	-19,11
849,573	-21,16
849,746	44,37
849,92	-12,97
850,094	19,8
850,268	56,66
850,442	87,38
850,616	-78,51
850,789	-27,31
850,963	-4,78
851,137	-21,16
851,311	126,29
851,484	79,19
851,658	101,72
851,832	-4,78
852,005	5,46
852,179	-166,57
852,352	-29,35
852,526	68,95
852,7	56,66
852,873	36,18
853,047	11,61
853,22	58,71
853,394	89,43
853,567	21,84
853,741	-62,12
853,914	50,52
854,088	99,67
854,261	-0,68
854,434	3,41
854,608	-10,92
854,781	27,99
854,955	-35,5
855,128	93,52
855,301	-4,78
855,475	-51,88
855,648	52,56
855,821	38,23
855,994	93,52
856,168	-6,83
856,341	44,37
856,514	-125,61
856,687	15,7
856,86	56,66
857,033	85,33
857,207	3,41
857,38	-4,78
857,553	152,91
857,726	30,04
857,899	126,29
858,072	-37,55
858,245	27,99
858,418	11,61
858,591	27,99
858,764	17,75
858,937	-35,5
859,11	136,53
859,283	32,08
859,455	68,95
859,628	77,14
859,801	15,7
859,974	120,15
860,147	-27,31
860,32	-10,92
860,492	-17,07
860,665	-0,68
860,838	-55,98
861,011	-4,78
861,183	75,09
861,356	60,76
861,529	120,15
861,701	27,99
861,874	-12,97
862,047	11,61
862,219	-45,74
862,392	64,85
862,564	-62,12
862,737	-4,78
862,909	15,7
863,082	11,61
863,254	105,81
863,427	71
863,599	71
863,772	-8,87
863,944	54,61
864,117	40,28
864,289	19,8
864,461	-37,55
864,634	77,14
864,806	3,41
864,978	122,2
865,151	3,41
865,323	97,62
865,495	118,1
865,667	48,47
865,84	130,39
866,012	-29,35
866,184	36,18
866,356	-82,6
866,528	93,52
866,7	-21,16
866,873	-2,73
867,045	-21,16
867,217	-8,87
867,389	79,19
867,561	5,46
867,733	-21,16
867,905	-41,64
868,077	68,95
868,249	62,8
868,421	-37,55
868,593	-53,93
868,765	89,43
868,936	-33,45
869,108	107,86
869,28	89,43
869,452	5,46
869,624	-21,16
869,796	77,14
869,968	-4,78
870,139	56,66
870,311	-19,11
870,483	103,76
870,654	-86,7
870,826	17,75
870,998	23,89
871,17	73,04
871,341	-37,55
871,513	87,38
871,684	-29,35
871,856	-45,74
872,028	9,56
872,199	-12,97
872,371	17,75
872,542	62,8
872,714	-15,02
872,885	89,43
873,057	48,47
873,228	27,99
873,4	52,56
873,571	124,24
873,742	19,8
873,914	32,08
874,085	30,04
874,256	52,56
874,428	-27,31
874,599	-103,08
874,77	23,89
874,942	40,28
875,113	-47,79
875,284	-72,36
875,455	-27,31
875,626	36,18
875,798	-17,07
875,969	13,65
876,14	32,08
876,311	54,61
876,482	32,08
876,653	19,8
876,824	79,19
876,995	-4,78
877,166	154,96
877,337	46,42
877,508	44,37
877,679	-53,93
877,85	-82,6
878,021	19,8
878,192	15,7
878,363	-0,68
878,534	-60,07
878,705	-29,35
878,876	-19,11
879,047	109,91
879,217	-2,73
879,388	52,56
879,559	1,37
879,73	109,91
879,9	11,61
880,071	64,85
880,242	-29,35
880,413	38,23
880,583	27,99
880,754	54,61
880,924	-0,68
881,095	-129,7
881,266	-6,83
881,436	130,39
881,607	85,33
881,777	-4,78
881,948	-45,74
882,118	60,76
882,289	-92,84
882,459	5,46
882,63	38,23
882,8	32,08
882,971	7,51
883,141	36,18
883,311	91,48
883,482	118,1
883,652	-2,73
883,822	-53,93
883,993	-8,87
884,163	11,61
884,333	3,41
884,504	62,8
884,674	114
884,844	-8,87
885,014	-51,88
885,184	-10,92
885,355	52,56
885,525	-103,08
885,695	91,48
885,865	122,2
886,035	60,76
886,205	-37,55
886,375	140,63
886,545	-4,78
886,715	-8,87
886,885	3,41
887,055	30,04
887,225	-19,11
887,395	-2,73
887,565	54,61
887,735	30,04
887,905	95,57
888,075	85,33
888,244	103,76
888,414	93,52
888,584	52,56
888,754	-25,26
888,924	38,23
889,093	187,73
889,263	-4,78
889,433	-29,35
889,603	-53,93
889,772	-2,73
889,942	40,28
890,111	25,94
890,281	32,08
890,451	19,8
890,62	-2,73
890,79	-2,73
890,959	3,41
891,129	-41,64
891,298	44,37
891,468	21,84
891,637	27,99
891,807	73,04
891,976	54,61
892,146	-35,5
892,315	52,56
892,485	93,52
892,654	27,99
892,823	-45,74
892,993	-25,26
893,162	-4,78
893,331	89,43
893,501	36,18
893,67	101,72
893,839	3,41
894,008	68,95
894,177	30,04
894,347	-27,31
894,516	120,15
894,685	-4,78
894,854	-12,97
895,023	-51,88
895,192	46,42
