Data from h2o_USB4F104161__6__11-48-46-647.txt Node

Date: Tue Apr 14 11:48:46 EDT 2026
User: LaboPhy
Spectrometer: USB4F10416
Trigger mode: 4
Integration Time (sec): 1,000000E-1
Scans to average: 1
Electric dark correction enabled: true
Nonlinearity correction enabled: false
Boxcar width: 0
XAxis mode: Wavelengths
Number of Pixels in Spectrum: 3648
>>>>>Begin Spectral Data<<<<<
177,847	-141,14
178,066	-141,14
178,284	-141,14
178,502	-180,05
178,72	-153,43
178,939	0,17
179,157	49,32
179,375	6,31
179,593	37,03
179,812	28,84
180,03	43,18
180,248	-57,17
180,466	-18,26
180,685	110,76
180,903	-67,41
181,121	-57,17
181,339	-75,6
181,557	4,27
181,775	4,27
181,994	-20,31
182,212	47,27
182,43	24,75
182,648	32,94
182,866	59,56
183,084	61,61
183,302	32,94
183,52	-20,31
183,739	4,27
183,957	65,71
184,175	-28,5
184,393	32,94
184,611	37,03
184,829	6,31
185,047	-42,84
185,265	30,89
185,483	-3,93
185,701	49,32
185,919	6,31
186,137	-18,26
186,355	-24,4
186,573	71,85
186,791	37,03
187,009	-8,02
187,227	37,03
187,445	-53,08
187,663	-3,93
187,881	-75,6
188,098	57,51
188,316	-1,88
188,534	127,14
188,752	-26,45
188,97	-12,12
189,188	-57,17
189,406	94,38
189,624	82,09
189,841	-12,12
190,059	-67,41
190,277	-44,88
190,495	-36,69
190,713	88,23
190,931	196,78
191,148	69,8
191,366	-40,79
191,584	12,46
191,802	53,42
192,019	71,85
192,237	-57,17
192,455	39,08
192,673	82,09
192,89	-3,93
193,108	26,79
193,326	37,03
193,543	63,66
193,761	-8,02
193,979	45,23
194,196	-110,42
194,414	12,46
194,632	86,19
194,849	-61,27
195,067	-118,61
195,285	67,75
195,502	-57,17
195,72	-10,07
195,937	12,46
196,155	61,61
196,373	-5,97
196,59	6,31
196,808	-61,27
197,025	80,04
197,243	250,02
197,46	137,38
197,678	61,61
197,895	-18,26
198,113	24,75
198,33	-42,84
198,548	51,37
198,765	-69,46
198,983	63,66
199,2	-44,88
199,418	43,18
199,635	-5,97
199,853	-30,55
200,07	-34,64
200,288	57,51
200,505	-100,18
200,722	55,47
200,94	14,51
201,157	37,03
201,375	94,38
201,592	20,65
201,809	102,57
202,027	151,72
202,244	24,75
202,461	47,27
202,679	0,17
202,896	77,99
203,113	-12,12
203,331	94,38
203,548	96,43
203,765	86,19
203,982	102,57
204,2	24,75
204,417	-44,88
204,634	137,38
204,851	71,85
205,069	77,99
205,286	61,61
205,503	82,09
205,72	67,75
205,937	102,57
206,155	0,17
206,372	155,82
206,589	-36,69
206,806	20,65
207,023	24,75
207,24	26,79
207,458	61,61
207,675	16,55
207,892	-16,21
208,109	-12,12
208,326	8,36
208,543	18,6
208,76	28,84
208,977	127,14
209,194	-3,93
209,411	39,08
209,628	106,67
209,845	71,85
210,062	41,13
210,279	-53,08
210,496	-34,64
210,713	-20,31
210,93	-96,08
211,147	114,86
211,364	-61,27
211,581	53,42
211,798	161,96
212,015	-48,98
212,232	39,08
212,449	-36,69
212,666	-28,5
212,883	30,89
213,1	45,23
213,317	20,65
213,533	41,13
213,75	-77,65
213,967	-38,74
214,184	16,55
214,401	37,03
214,618	69,8
214,835	30,89
215,051	92,33
215,268	61,61
215,485	41,13
215,702	-20,31
215,919	-10,07
216,135	196,78
216,352	0,17
216,569	30,89
216,786	-3,93
217,002	12,46
217,219	-38,74
217,436	-34,64
217,652	8,36
217,869	61,61
218,086	143,53
218,302	26,79
218,519	-36,69
218,736	37,03
218,952	-3,93
219,169	69,8
219,386	69,8
219,602	-14,17
219,819	6,31
220,036	-57,17
220,252	22,7
220,469	45,23
220,685	-16,21
220,902	98,47
221,118	28,84
221,335	-61,27
221,552	-16,21
221,768	24,75
221,985	28,84
222,201	-32,6
222,418	37,03
222,634	-16,21
222,851	-20,31
223,067	59,56
223,284	28,84
223,5	32,94
223,716	-26,45
223,933	63,66
224,149	18,6
224,366	24,75
224,582	-16,21
224,799	43,18
225,015	-34,64
225,231	-18,26
225,448	-1,88
225,664	-3,93
225,88	-73,56
226,097	96,43
226,313	-53,08
226,529	45,23
226,746	28,84
226,962	12,46
227,178	49,32
227,395	-53,08
227,611	12,46
227,827	-12,12
228,044	53,42
228,26	98,47
228,476	26,79
228,692	24,75
228,909	-8,02
229,125	-10,07
229,341	53,42
229,557	-73,56
229,773	-10,07
229,99	4,27
230,206	-34,64
230,422	-3,93
230,638	-53,08
230,854	39,08
231,07	-53,08
231,286	86,19
231,503	4,27
231,719	-94,04
231,935	45,23
232,151	-57,17
232,367	159,91
232,583	86,19
232,799	110,76
233,015	-3,93
233,231	30,89
233,447	-20,31
233,663	22,7
233,879	-20,31
234,095	-18,26
234,311	63,66
234,527	28,84
234,743	12,46
234,959	37,03
235,175	-1,88
235,391	-26,45
235,607	-12,12
235,823	57,51
236,039	-18,26
236,255	4,27
236,471	30,89
236,687	-85,84
236,903	77,99
237,118	-20,31
237,334	10,41
237,55	16,55
237,766	-32,6
237,982	51,37
238,198	123,05
238,413	37,03
238,629	49,32
238,845	12,46
239,061	96,43
239,277	-53,08
239,492	-1,88
239,708	-24,4
239,924	26,79
240,14	32,94
240,355	137,38
240,571	63,66
240,787	-28,5
241,003	30,89
241,218	16,55
241,434	77,99
241,65	104,62
241,865	0,17
242,081	86,19
242,297	-89,94
242,512	24,75
242,728	106,67
242,944	-83,8
243,159	55,47
243,375	39,08
243,59	-44,88
243,806	14,51
244,022	77,99
244,237	14,51
244,453	22,7
244,668	61,61
244,884	166,06
245,099	-69,46
245,315	102,57
245,53	129,19
245,746	94,38
245,961	12,46
246,177	45,23
246,392	123,05
246,608	118,95
246,823	16,55
247,039	12,46
247,254	6,31
247,47	121
247,685	-12,12
247,9	4,27
248,116	-12,12
248,331	-69,46
248,547	57,51
248,762	-42,84
248,977	63,66
249,193	37,03
249,408	53,42
249,623	94,38
249,839	22,7
250,054	-3,93
250,269	4,27
250,485	43,18
250,7	-16,21
250,915	-24,4
251,13	135,34
251,346	18,6
251,561	82,09
251,776	45,23
251,991	-114,52
252,207	86,19
252,422	28,84
252,637	-34,64
252,852	12,46
253,067	71,85
253,283	96,43
253,498	86,19
253,713	22,7
253,928	-42,84
254,143	30,89
254,358	-12,12
254,573	-57,17
254,788	-36,69
255,004	20,65
255,219	-48,98
255,434	37,03
255,649	-102,23
255,864	90,28
256,079	6,31
256,294	20,65
256,509	-38,74
256,724	-12,12
256,939	-20,31
257,154	53,42
257,369	41,13
257,584	45,23
257,799	-28,5
258,014	-12,12
258,229	112,81
258,444	0,17
258,659	53,42
258,874	49,32
259,089	12,46
259,304	-20,31
259,518	37,03
259,733	45,23
259,948	41,13
260,163	47,27
260,378	135,34
260,593	12,46
260,808	43,18
261,022	-87,89
261,237	53,42
261,452	14,51
261,667	20,65
261,882	67,75
262,096	45,23
262,311	51,37
262,526	22,7
262,741	22,7
262,955	-48,98
263,17	24,75
263,385	-12,12
263,6	-42,84
263,814	2,22
264,029	-20,31
264,244	51,37
264,458	-32,6
264,673	4,27
264,888	6,31
265,102	12,46
265,317	-1,88
265,532	-10,07
265,746	73,9
265,961	96,43
266,175	53,42
266,39	53,42
266,605	0,17
266,819	45,23
267,034	63,66
267,248	-85,84
267,463	49,32
267,677	-51,03
267,892	-8,02
268,106	-59,22
268,321	94,38
268,535	94,38
268,75	147,62
268,964	-61,27
269,179	30,89
269,393	26,79
269,608	69,8
269,822	-46,93
270,036	-22,36
270,251	37,03
270,465	-40,79
270,68	-28,5
270,894	20,65
271,108	135,34
271,323	12,46
271,537	16,55
271,752	63,66
271,966	37,03
272,18	-32,6
272,394	-44,88
272,609	14,51
272,823	-18,26
273,037	20,65
273,252	65,71
273,466	-67,41
273,68	26,79
273,894	-8,02
274,109	-1,88
274,323	26,79
274,537	-57,17
274,751	-94,04
274,966	53,42
275,18	-44,88
275,394	-36,69
275,608	-91,99
275,822	-42,84
276,036	32,94
276,25	102,57
276,465	-18,26
276,679	-24,4
276,893	-73,56
277,107	114,86
277,321	-51,03
277,535	45,23
277,749	-5,97
277,963	59,56
278,177	-18,26
278,391	94,38
278,605	-94,04
278,819	61,61
279,033	-59,22
279,247	47,27
279,461	88,23
279,675	57,51
279,889	53,42
280,103	4,27
280,317	176,3
280,531	-63,32
280,745	8,36
280,959	-51,03
281,173	12,46
281,387	63,66
281,601	49,32
281,815	37,03
282,029	-24,4
282,242	-44,88
282,456	20,65
282,67	18,6
282,884	-36,69
283,098	-48,98
283,312	-20,31
283,525	-28,5
283,739	53,42
283,953	-24,4
284,167	47,27
284,381	51,37
284,594	39,08
284,808	69,8
285,022	4,27
285,235	34,99
285,449	77,99
285,663	69,8
285,877	-53,08
286,09	53,42
286,304	131,24
286,518	-36,69
286,731	-59,22
286,945	55,47
287,159	-16,21
287,372	30,89
287,586	6,31
287,799	-18,26
288,013	-32,6
288,227	-34,64
288,44	209,06
288,654	63,66
288,867	-12,12
289,081	2,22
289,294	12,46
289,508	77,99
289,721	-42,84
289,935	77,99
290,148	57,51
290,362	47,27
290,575	-1,88
290,789	-36,69
291,002	-12,12
291,216	20,65
291,429	55,47
291,643	28,84
291,856	-83,8
292,069	-44,88
292,283	-108,37
292,496	-44,88
292,71	80,04
292,923	-38,74
293,136	49,32
293,35	-10,07
293,563	24,75
293,776	28,84
293,99	43,18
294,203	4,27
294,416	-12,12
294,63	45,23
294,843	-44,88
295,056	-10,07
295,269	-10,07
295,483	-20,31
295,696	2,22
295,909	-42,84
296,122	-20,31
296,335	45,23
296,549	47,27
296,762	55,47
296,975	-51,03
297,188	12,46
297,401	67,75
297,615	57,51
297,828	12,46
298,041	168,1
298,254	-40,79
298,467	100,52
298,68	-36,69
298,893	47,27
299,106	45,23
299,319	127,14
299,532	47,27
299,745	-61,27
299,958	-44,88
300,171	20,65
300,384	-32,6
300,598	-38,74
300,81	131,24
301,023	-83,8
301,236	12,46
301,449	57,51
301,662	-85,84
301,875	47,27
302,088	-44,88
302,301	20,65
302,514	-44,88
302,727	53,42
302,94	-53,08
303,153	-26,45
303,366	8,36
303,579	-28,5
303,791	77,99
304,004	-18,26
304,217	71,85
304,43	86,19
304,643	41,13
304,855	-132,95
305,068	14,51
305,281	-32,6
305,494	71,85
305,707	-12,12
305,919	184,49
306,132	26,79
306,345	28,84
306,558	90,28
306,77	-32,6
306,983	37,03
307,196	80,04
307,408	-12,12
307,621	123,05
307,834	-10,07
308,046	8,36
308,259	53,42
308,472	53,42
308,684	104,62
308,897	-40,79
309,109	-36,69
309,322	-48,98
309,535	61,61
309,747	98,47
309,96	114,86
310,172	153,77
310,385	24,75
310,597	34,99
310,81	57,51
311,022	-61,27
311,235	-40,79
311,447	8,36
311,66	63,66
311,872	96,43
312,085	61,61
312,297	71,85
312,51	-44,88
312,722	-26,45
312,934	53,42
313,147	0,17
313,359	-20,31
313,572	-28,5
313,784	28,84
313,996	12,46
314,209	77,99
314,421	30,89
314,633	-36,69
314,846	14,51
315,058	90,28
315,27	30,89
315,483	61,61
315,695	96,43
315,907	24,75
316,119	26,79
316,332	16,55
316,544	86,19
316,756	47,27
316,968	82,09
317,181	-36,69
317,393	39,08
317,605	49,32
317,817	-5,97
318,029	86,19
318,241	8,36
318,454	-16,21
318,666	80,04
318,878	-44,88
319,09	-61,27
319,302	73,9
319,514	8,36
319,726	-42,84
319,938	96,43
320,15	69,8
320,362	102,57
320,574	-44,88
320,786	63,66
320,999	-110,42
321,211	26,79
321,423	6,31
321,635	-28,5
321,847	30,89
322,058	-3,93
322,27	94,38
322,482	129,19
322,694	98,47
322,906	45,23
323,118	34,99
323,33	69,8
323,542	47,27
323,754	61,61
323,966	-51,03
324,178	65,71
324,389	77,99
324,601	96,43
324,813	-8,02
325,025	61,61
325,237	-42,84
325,449	53,42
325,66	41,13
325,872	16,55
326,084	-16,21
326,296	41,13
326,507	26,79
326,719	106,67
326,931	18,6
327,143	143,53
327,354	168,1
327,566	86,19
327,778	96,43
327,989	139,43
328,201	45,23
328,413	30,89
328,624	86,19
328,836	4,27
329,048	-57,17
329,259	12,46
329,471	0,17
329,682	45,23
329,894	-18,26
330,106	0,17
330,317	20,65
330,529	6,31
330,74	-10,07
330,952	0,17
331,163	45,23
331,375	47,27
331,586	61,61
331,798	8,36
332,009	-1,88
332,221	20,65
332,432	133,29
332,644	37,03
332,855	-1,88
333,067	-1,88
333,278	127,14
333,489	47,27
333,701	-3,93
333,912	-22,36
334,124	-32,6
334,335	-59,22
334,546	-1,88
334,758	39,08
334,969	299,17
335,18	131,24
335,392	43,18
335,603	114,86
335,814	161,96
336,025	37,03
336,237	102,57
336,448	45,23
336,659	217,26
336,87	168,1
337,082	145,58
337,293	116,9
337,504	110,76
337,715	104,62
337,926	53,42
338,138	102,57
338,349	34,99
338,56	20,65
338,771	12,46
338,982	118,95
339,193	28,84
339,404	98,47
339,616	-26,45
339,827	12,46
340,038	4,27
340,249	108,71
340,46	-87,89
340,671	28,84
340,882	118,95
341,093	45,23
341,304	-53,08
341,515	-20,31
341,726	-20,31
341,937	28,84
342,148	4,27
342,359	-40,79
342,57	4,27
342,781	143,53
342,992	22,7
343,203	20,65
343,414	51,37
343,624	28,84
343,835	16,55
344,046	-42,84
344,257	53,42
344,468	24,75
344,679	-26,45
344,89	-20,31
345,1	-16,21
345,311	53,42
345,522	4,27
345,733	12,46
345,944	-61,27
346,154	32,94
346,365	77,99
346,576	-51,03
346,787	8,36
346,997	80,04
347,208	184,49
347,419	-36,69
347,629	28,84
347,84	94,38
348,051	-26,45
348,261	63,66
348,472	-12,12
348,683	90,28
348,893	39,08
349,104	-26,45
349,315	-3,93
349,525	22,7
349,736	12,46
349,946	6,31
350,157	90,28
350,368	94,38
350,578	-32,6
350,789	110,76
350,999	49,32
351,21	73,9
351,42	-20,31
351,631	-53,08
351,841	-12,12
352,052	55,47
352,262	157,86
352,472	-12,12
352,683	30,89
352,893	116,9
353,104	49,32
353,314	186,54
353,525	446,63
353,735	77,99
353,945	88,23
354,156	61,61
354,366	106,67
354,576	106,67
354,787	71,85
354,997	-32,6
355,207	20,65
355,418	92,33
355,628	-12,12
355,838	92,33
356,048	65,71
356,259	188,58
356,469	61,61
356,679	213,16
356,889	143,53
357,1	61,61
357,31	63,66
357,52	213,16
357,73	69,8
357,94	77,99
358,15	39,08
358,361	82,09
358,571	104,62
358,781	41,13
358,991	-61,27
359,201	43,18
359,411	12,46
359,621	49,32
359,831	73,9
360,041	-30,55
360,251	37,03
360,461	-69,46
360,672	22,7
360,882	45,23
361,092	-18,26
361,302	69,8
361,512	71,85
361,721	-75,6
361,931	-36,69
362,141	14,51
362,351	61,61
362,561	77,99
362,771	-12,12
362,981	94,38
363,191	-77,65
363,401	-28,5
363,611	39,08
363,821	-5,97
364,03	-67,41
364,24	63,66
364,45	118,95
364,66	260,26
364,87	-55,12
365,08	30,89
365,289	-14,17
365,499	-61,27
365,709	69,8
365,919	57,51
366,128	69,8
366,338	32,94
366,548	16,55
366,758	20,65
366,967	118,95
367,177	41,13
367,387	63,66
367,596	63,66
367,806	118,95
368,016	32,94
368,225	55,47
368,435	12,46
368,644	59,56
368,854	55,47
369,064	55,47
369,273	59,56
369,483	18,6
369,692	-42,84
369,902	20,65
370,111	164,01
370,321	55,47
370,53	-14,17
370,74	55,47
370,949	98,47
371,159	161,96
371,368	112,81
371,578	57,51
371,787	125,1
371,997	-1,88
372,206	14,51
372,416	77,99
372,625	71,85
372,834	-24,4
373,044	20,65
373,253	16,55
373,462	80,04
373,672	53,42
373,881	118,95
374,09	4,27
374,3	118,95
374,509	73,9
374,718	47,27
374,928	209,06
375,137	170,15
375,346	94,38
375,555	295,08
375,765	129,19
375,974	116,9
376,183	151,72
376,392	65,71
376,601	110,76
376,811	112,81
377,02	143,53
377,229	116,9
377,438	110,76
377,647	47,27
377,856	-3,93
378,065	73,9
378,275	14,51
378,484	63,66
378,693	80,04
378,902	24,75
379,111	80,04
379,32	86,19
379,529	112,81
379,738	84,14
379,947	82,09
380,156	159,91
380,365	121
380,574	223,4
380,783	22,7
380,992	71,85
381,201	37,03
381,41	0,17
381,619	37,03
381,828	49,32
382,037	28,84
382,245	157,86
382,454	121
382,663	94,38
382,872	-26,45
383,081	8,36
383,29	159,91
383,499	30,89
383,707	57,51
383,916	131,24
384,125	65,71
384,334	18,6
384,542	90,28
384,751	-1,88
384,96	37,03
385,169	32,94
385,377	118,95
385,586	-3,93
385,795	96,43
386,004	157,86
386,212	20,65
386,421	14,51
386,63	65,71
386,838	82,09
387,047	86,19
387,255	118,95
387,464	55,47
387,673	57,51
387,881	43,18
388,09	147,62
388,298	153,77
388,507	121
388,715	108,71
388,924	159,91
389,133	65,71
389,341	143,53
389,55	63,66
389,758	102,57
389,967	114,86
390,175	65,71
390,383	151,72
390,592	168,1
390,8	20,65
391,009	-20,31
391,217	61,61
391,426	90,28
391,634	-26,45
391,842	69,8
392,051	8,36
392,259	161,96
392,467	94,38
392,676	-18,26
392,884	110,76
393,092	88,23
393,301	143,53
393,509	114,86
393,717	221,35
393,925	155,82
394,134	47,27
394,342	190,63
394,55	192,68
394,758	127,14
394,967	151,72
395,175	57,51
395,383	104,62
395,591	84,14
395,799	194,73
396,007	45,23
396,216	123,05
396,424	123,05
396,632	139,43
396,84	8,36
397,048	37,03
397,256	118,95
397,464	47,27
397,672	82,09
397,88	53,42
398,088	67,75
398,296	57,51
398,504	30,89
398,712	69,8
398,92	53,42
399,128	143,53
399,336	106,67
399,544	102,57
399,752	37,03
399,96	176,3
400,168	114,86
400,376	12,46
400,584	153,77
400,792	-1,88
401	-26,45
401,207	24,75
401,415	32,94
401,623	12,46
401,831	45,23
402,039	129,19
402,247	-32,6
402,454	61,61
402,662	53,42
402,87	20,65
403,078	135,34
403,285	94,38
403,493	127,14
403,701	75,95
403,909	110,76
404,116	159,91
404,324	26,79
404,532	86,19
404,739	45,23
404,947	92,33
405,155	73,9
405,362	84,14
405,57	104,62
405,778	28,84
405,985	137,38
406,193	131,24
406,4	65,71
406,608	73,9
406,816	49,32
407,023	65,71
407,231	30,89
407,438	20,65
407,646	32,94
407,853	-18,26
408,061	39,08
408,268	63,66
408,476	39,08
408,683	118,95
408,89	139,43
409,098	151,72
409,305	176,3
409,513	153,77
409,72	147,62
409,927	196,78
410,135	311,46
410,342	225,45
410,55	317,61
410,757	217,26
410,964	135,34
411,172	141,48
411,379	96,43
411,586	135,34
411,793	32,94
412,001	-34,64
412,208	8,36
412,415	102,57
412,622	121
412,83	22,7
413,037	143,53
413,244	-10,07
413,451	53,42
413,658	194,73
413,866	127,14
414,073	168,1
414,28	80,04
414,487	-36,69
414,694	63,66
414,901	22,7
415,108	86,19
415,315	102,57
415,522	100,52
415,73	4,27
415,937	-46,93
416,144	-24,4
416,351	-32,6
416,558	-16,21
416,765	71,85
416,972	28,84
417,179	6,31
417,386	63,66
417,593	-10,07
417,8	61,61
418,006	90,28
418,213	100,52
418,42	125,1
418,627	20,65
418,834	-20,31
419,041	28,84
419,248	86,19
419,455	104,62
419,661	131,24
419,868	-8,02
420,075	59,56
420,282	-3,93
420,489	45,23
420,696	39,08
420,902	94,38
421,109	127,14
421,316	61,61
421,523	28,84
421,729	8,36
421,936	47,27
422,143	104,62
422,349	4,27
422,556	16,55
422,763	73,9
422,969	-40,79
423,176	-40,79
423,383	88,23
423,589	209,06
423,796	20,65
424,002	-18,26
424,209	4,27
424,416	112,81
424,622	-18,26
424,829	34,99
425,035	0,17
425,242	16,55
425,448	16,55
425,655	30,89
425,861	28,84
426,068	98,47
426,274	102,57
426,481	4,27
426,687	112,81
426,894	30,89
427,1	37,03
427,306	61,61
427,513	86,19
427,719	37,03
427,926	16,55
428,132	82,09
428,338	-12,12
428,545	-1,88
428,751	37,03
428,957	53,42
429,163	47,27
429,37	123,05
429,576	-34,64
429,782	86,19
429,989	45,23
430,195	28,84
430,401	-30,55
430,607	-28,5
430,813	-34,64
431,02	57,51
431,226	63,66
431,432	61,61
431,638	-22,36
431,844	-22,36
432,05	73,9
432,257	114,86
432,463	188,58
432,669	211,11
432,875	278,69
433,081	405,67
433,287	475,3
433,493	544,93
433,699	864,41
433,905	997,53
434,111	929,95
434,317	938,14
434,523	987,29
434,729	979,1
434,935	639,14
435,141	585,89
435,347	393,38
435,553	245,93
435,759	170,15
435,965	143,53
436,171	184,49
436,377	209,06
436,582	129,19
436,788	55,47
436,994	184,49
437,2	16,55
437,406	127,14
437,612	86,19
437,818	86,19
438,023	-83,8
438,229	104,62
438,435	90,28
438,641	28,84
438,846	53,42
439,052	37,03
439,258	151,72
439,464	82,09
439,669	92,33
439,875	178,34
440,081	39,08
440,286	41,13
440,492	63,66
440,698	24,75
440,903	63,66
441,109	106,67
441,314	-69,46
441,52	55,47
441,726	41,13
441,931	73,9
442,137	77,99
442,342	41,13
442,548	57,51
442,753	61,61
442,959	-73,56
443,164	22,7
443,37	69,8
443,575	-69,46
443,781	12,46
443,986	196,78
444,192	-24,4
444,397	8,36
444,602	-3,93
444,808	-16,21
445,013	63,66
445,219	-28,5
445,424	143,53
445,629	4,27
445,835	86,19
446,04	-12,12
446,245	-34,64
446,451	49,32
446,656	-10,07
446,861	-28,5
447,066	94,38
447,272	110,76
447,477	20,65
447,682	-12,12
447,887	-28,5
448,093	-28,5
448,298	151,72
448,503	45,23
448,708	71,85
448,913	-12,12
449,118	77,99
449,324	39,08
449,529	94,38
449,734	6,31
449,939	32,94
450,144	141,48
450,349	73,9
450,554	16,55
450,759	20,65
450,964	155,82
451,169	100,52
451,374	-53,08
451,579	-28,5
451,784	77,99
451,989	-12,12
452,194	112,81
452,399	47,27
452,604	39,08
452,809	-18,26
453,014	-67,41
453,219	77,99
453,424	53,42
453,629	-26,45
453,833	49,32
454,038	80,04
454,243	-36,69
454,448	-36,69
454,653	88,23
454,858	-3,93
455,062	-16,21
455,267	28,84
455,472	96,43
455,677	8,36
455,882	61,61
456,086	96,43
456,291	30,89
456,496	-3,93
456,7	28,84
456,905	61,61
457,11	155,82
457,314	37,03
457,519	26,79
457,724	63,66
457,928	20,65
458,133	-18,26
458,338	77,99
458,542	55,47
458,747	6,31
458,951	-71,51
459,156	88,23
459,36	-26,45
459,565	100,52
459,769	20,65
459,974	57,51
460,178	8,36
460,383	-106,32
460,587	28,84
460,792	39,08
460,996	37,03
461,201	57,51
461,405	-42,84
461,61	-75,6
461,814	41,13
462,018	16,55
462,223	47,27
462,427	57,51
462,631	102,57
462,836	108,71
463,04	57,51
463,244	30,89
463,449	-44,88
463,653	184,49
463,857	16,55
464,062	90,28
464,266	-3,93
464,47	80,04
464,674	6,31
464,878	77,99
465,083	69,8
465,287	137,38
465,491	6,31
465,695	65,71
465,899	4,27
466,104	57,51
466,308	30,89
466,512	90,28
466,716	20,65
466,92	86,19
467,124	139,43
467,328	-12,12
467,532	127,14
467,736	-48,98
467,94	30,89
468,144	69,8
468,348	34,99
468,552	172,2
468,756	-1,88
468,96	-20,31
469,164	-36,69
469,368	-16,21
469,572	-28,5
469,776	61,61
469,98	47,27
470,184	6,31
470,388	116,9
470,591	65,71
470,795	127,14
470,999	102,57
471,203	18,6
471,407	26,79
471,611	-20,31
471,814	57,51
472,018	6,31
472,222	69,8
472,426	127,14
472,63	20,65
472,833	73,9
473,037	84,14
473,241	18,6
473,444	47,27
473,648	491,68
473,852	14,51
474,055	69,8
474,259	24,75
474,463	55,47
474,666	28,84
474,87	-20,31
475,074	39,08
475,277	12,46
475,481	69,8
475,684	-14,17
475,888	14,51
476,091	-94,04
476,295	14,51
476,498	-28,5
476,702	123,05
476,905	67,75
477,109	86,19
477,312	6,31
477,516	-3,93
477,719	75,95
477,923	55,47
478,126	53,42
478,329	37,03
478,533	53,42
478,736	12,46
478,94	41,13
479,143	24,75
479,346	4,27
479,55	63,66
479,753	22,7
479,956	12,46
480,159	12,46
480,363	94,38
480,566	102,57
480,769	20,65
480,972	-42,84
481,176	43,18
481,379	127,14
481,582	153,77
481,785	-61,27
481,988	59,56
482,192	209,06
482,395	94,38
482,598	22,7
482,801	65,71
483,004	102,57
483,207	59,56
483,41	96,43
483,613	135,34
483,817	147,62
484,02	0,17
484,223	372,9
484,426	684,19
484,629	1187,99
484,832	1990,8
485,035	2683,01
485,238	3752,05
485,441	4708,45
485,644	6338,63
485,846	7804,98
486,049	9091,1
486,252	10268,69
486,455	10498,06
486,658	9916,44
486,861	8689,7
487,064	7168,06
487,267	5357,66
487,47	4190,31
487,672	2875,52
487,875	1939,6
488,078	1245,34
488,281	856,22
488,484	469,16
488,686	293,03
488,889	164,01
489,092	94,38
489,295	49,32
489,497	137,38
489,7	-28,5
489,903	20,65
490,105	26,79
490,308	80,04
490,511	51,37
490,713	8,36
490,916	-26,45
491,118	53,42
491,321	61,61
491,524	32,94
491,726	67,75
491,929	37,03
492,131	-20,31
492,334	-12,12
492,536	6,31
492,739	61,61
492,941	71,85
493,144	47,27
493,346	86,19
493,549	55,47
493,751	65,71
493,954	71,85
494,156	47,27
494,359	69,8
494,561	14,51
494,763	71,85
494,966	65,71
495,168	77,99
495,37	-73,56
495,573	28,84
495,775	69,8
495,977	133,29
496,18	28,84
496,382	106,67
496,584	-42,84
496,787	127,14
496,989	49,32
497,191	69,8
497,393	71,85
497,595	77,99
497,798	63,66
498	80,04
498,202	-20,31
498,404	-24,4
498,606	12,46
498,808	143,53
499,011	137,38
499,213	45,23
499,415	8,36
499,617	86,19
499,819	55,47
500,021	67,75
500,223	71,85
500,425	14,51
500,627	37,03
500,829	131,24
501,031	102,57
501,233	12,46
501,435	114,86
501,637	94,38
501,839	151,72
502,041	-20,31
502,243	41,13
502,445	12,46
502,647	16,55
502,848	86,19
503,05	0,17
503,252	71,85
503,454	102,57
503,656	8,36
503,858	45,23
504,059	-12,12
504,261	77,99
504,463	125,1
504,665	43,18
504,867	14,51
505,068	102,57
505,27	135,34
505,472	110,76
505,673	28,84
505,875	-24,4
506,077	20,65
506,278	-40,79
506,48	14,51
506,682	45,23
506,883	110,76
507,085	63,66
507,287	-16,21
507,488	22,7
507,69	75,95
507,891	-12,12
508,093	137,38
508,294	-26,45
508,496	-26,45
508,697	12,46
508,899	61,61
509,1	-3,93
509,302	-1,88
509,503	55,47
509,705	12,46
509,906	110,76
510,108	28,84
510,309	20,65
510,51	-16,21
510,712	45,23
510,913	-83,8
511,114	20,65
511,316	-28,5
511,517	69,8
511,718	-24,4
511,92	4,27
512,121	65,71
512,322	0,17
512,524	67,75
512,725	88,23
512,926	123,05
513,127	-16,21
513,329	106,67
513,53	24,75
513,731	102,57
513,932	61,61
514,133	32,94
514,334	-65,36
514,536	129,19
514,737	153,77
514,938	86,19
515,139	63,66
515,34	-85,84
515,541	67,75
515,742	-3,93
515,943	82,09
516,144	39,08
516,345	94,38
516,546	20,65
516,747	28,84
516,948	110,76
517,149	24,75
517,35	-61,27
517,551	-18,26
517,752	77,99
517,953	63,66
518,154	55,47
518,355	123,05
518,556	123,05
518,756	-61,27
518,957	45,23
519,158	176,3
519,359	96,43
519,56	63,66
519,761	147,62
519,961	153,77
520,162	221,35
520,363	-51,03
520,564	-42,84
520,764	180,39
520,965	30,89
521,166	102,57
521,366	51,37
521,567	94,38
521,768	51,37
521,968	-18,26
522,169	77,99
522,37	-1,88
522,57	45,23
522,771	-3,93
522,972	-55,12
523,172	178,34
523,373	110,76
523,573	45,23
523,774	69,8
523,974	80,04
524,175	86,19
524,375	45,23
524,576	28,84
524,776	-24,4
524,977	37,03
525,177	176,3
525,378	14,51
525,578	80,04
525,778	139,43
525,979	106,67
526,179	57,51
526,38	14,51
526,58	-69,46
526,78	-42,84
526,981	110,76
527,181	12,46
527,381	69,8
527,582	45,23
527,782	86,19
527,982	102,57
528,182	-8,02
528,383	45,23
528,583	-53,08
528,783	24,75
528,983	53,42
529,183	-5,97
529,384	8,36
529,584	51,37
529,784	204,97
529,984	53,42
530,184	-18,26
530,384	20,65
530,584	-14,17
530,784	86,19
530,984	-12,12
531,185	106,67
531,385	88,23
531,585	96,43
531,785	4,27
531,985	16,55
532,185	86,19
532,385	69,8
532,585	121
532,785	161,96
532,984	22,7
533,184	104,62
533,384	47,27
533,584	4,27
533,784	121
533,984	57,51
534,184	37,03
534,384	12,46
534,583	121
534,783	43,18
534,983	0,17
535,183	-32,6
535,383	-20,31
535,582	37,03
535,782	90,28
535,982	159,91
536,182	4,27
536,381	37,03
536,581	-20,31
536,781	53,42
536,98	69,8
537,18	12,46
537,38	45,23
537,579	28,84
537,779	14,51
537,979	57,51
538,178	55,47
538,378	71,85
538,577	49,32
538,777	-26,45
538,976	-20,31
539,176	61,61
539,376	0,17
539,575	-3,93
539,774	67,75
539,974	-16,21
540,173	-59,22
540,373	28,84
540,572	39,08
540,772	-59,22
540,971	-3,93
541,171	43,18
541,37	4,27
541,569	-44,88
541,769	18,6
541,968	37,03
542,167	22,7
542,367	77,99
542,566	94,38
542,765	-91,99
542,965	28,84
543,164	32,94
543,363	63,66
543,562	28,84
543,761	75,95
543,961	88,23
544,16	-69,46
544,359	123,05
544,558	73,9
544,757	61,61
544,957	69,8
545,156	139,43
545,355	34,99
545,554	53,42
545,753	-83,8
545,952	51,37
546,151	71,85
546,35	12,46
546,549	4,27
546,748	77,99
546,947	28,84
547,146	30,89
547,345	0,17
547,544	-59,22
547,743	28,84
547,942	-48,98
548,141	67,75
548,34	59,56
548,539	53,42
548,738	18,6
548,937	139,43
549,135	28,84
549,334	30,89
549,533	69,8
549,732	14,51
549,931	61,61
550,13	-12,12
550,328	-44,88
550,527	45,23
550,726	32,94
550,925	14,51
551,123	39,08
551,322	4,27
551,521	110,76
551,72	108,71
551,918	69,8
552,117	16,55
552,315	45,23
552,514	-22,36
552,713	69,8
552,911	28,84
553,11	-42,84
553,309	65,71
553,507	-38,74
553,706	71,85
553,904	84,14
554,103	47,27
554,301	118,95
554,5	4,27
554,698	86,19
554,897	45,23
555,095	37,03
555,294	-77,65
555,492	18,6
555,69	80,04
555,889	4,27
556,087	10,41
556,286	139,43
556,484	8,36
556,682	39,08
556,881	-24,4
557,079	28,84
557,277	-36,69
557,476	22,7
557,674	-48,98
557,872	34,99
558,07	-1,88
558,269	-53,08
558,467	-3,93
558,665	102,57
558,863	10,41
559,062	16,55
559,26	24,75
559,458	-18,26
559,656	8,36
559,854	20,65
560,052	57,51
560,25	57,51
560,449	204,97
560,647	34,99
560,845	-26,45
561,043	18,6
561,241	168,1
561,439	47,27
561,637	-36,69
561,835	4,27
562,033	55,47
562,231	37,03
562,429	-28,5
562,627	6,31
562,825	-67,41
563,023	4,27
563,221	-59,22
563,418	6,31
563,616	55,47
563,814	143,53
564,012	37,03
564,21	94,38
564,408	94,38
564,605	20,65
564,803	-44,88
565,001	200,87
565,199	-44,88
565,397	63,66
565,594	94,38
565,792	80,04
565,99	-42,84
566,188	123,05
566,385	12,46
566,583	77,99
566,781	53,42
566,978	14,51
567,176	69,8
567,373	71,85
567,571	12,46
567,769	28,84
567,966	-28,5
568,164	110,76
568,361	-85,84
568,559	86,19
568,756	-3,93
568,954	77,99
569,151	61,61
569,349	125,1
569,546	37,03
569,744	16,55
569,941	2,22
570,139	69,8
570,336	-77,65
570,534	63,66
570,731	-16,21
570,928	-44,88
571,126	180,39
571,323	102,57
571,52	-69,46
571,718	-36,69
571,915	63,66
572,112	-18,26
572,31	-12,12
572,507	65,71
572,704	-26,45
572,901	-22,36
573,099	6,31
573,296	28,84
573,493	-53,08
573,69	-3,93
573,887	-10,07
574,085	98,47
574,282	22,7
574,479	75,95
574,676	53,42
574,873	104,62
575,07	4,27
575,267	-26,45
575,464	80,04
575,661	57,51
575,858	14,51
576,055	20,65
576,252	86,19
576,449	28,84
576,646	-36,69
576,843	-53,08
577,04	55,47
577,237	94,38
577,434	94,38
577,631	57,51
577,828	121
578,025	47,27
578,222	4,27
578,419	98,47
578,615	39,08
578,812	141,48
579,009	39,08
579,206	37,03
579,403	88,23
579,599	186,54
579,796	-18,26
579,993	96,43
580,19	0,17
580,386	22,7
580,583	61,61
580,78	4,27
580,976	39,08
581,173	32,94
581,37	143,53
581,566	-12,12
581,763	-12,12
581,96	63,66
582,156	104,62
582,353	84,14
582,549	94,38
582,746	-5,97
582,942	-83,8
583,139	12,46
583,335	20,65
583,532	166,06
583,728	-38,74
583,925	-18,26
584,121	100,52
584,318	114,86
584,514	106,67
584,711	110,76
584,907	82,09
585,103	53,42
585,3	168,1
585,496	63,66
585,693	4,27
585,889	6,31
586,085	-10,07
586,281	69,8
586,478	110,76
586,674	71,85
586,87	112,81
587,067	-3,93
587,263	12,46
587,459	47,27
587,655	39,08
587,851	37,03
588,048	98,47
588,244	28,84
588,44	121
588,636	80,04
588,832	77,99
589,028	157,86
589,224	53,42
589,42	20,65
589,617	-3,93
589,813	73,9
590,009	-69,46
590,205	82,09
590,401	63,66
590,597	20,65
590,793	-36,69
590,989	49,32
591,185	-61,27
591,38	63,66
591,576	-14,17
591,772	77,99
591,968	39,08
592,164	6,31
592,36	77,99
592,556	-28,5
592,752	41,13
592,948	-61,27
593,143	20,65
593,339	45,23
593,535	-24,4
593,731	67,75
593,926	135,34
594,122	22,7
594,318	22,7
594,514	151,72
594,709	-1,88
594,905	73,9
595,101	6,31
595,296	37,03
595,492	106,67
595,688	53,42
595,883	153,77
596,079	102,57
596,275	45,23
596,47	22,7
596,666	14,51
596,861	51,37
597,057	47,27
597,252	4,27
597,448	41,13
597,643	53,42
597,839	-53,08
598,034	45,23
598,23	4,27
598,425	39,08
598,621	22,7
598,816	14,51
599,011	63,66
599,207	-3,93
599,402	-18,26
599,597	88,23
599,793	145,58
599,988	8,36
600,183	-3,93
600,379	90,28
600,574	65,71
600,769	-28,5
600,965	88,23
601,16	77,99
601,355	-51,03
601,55	88,23
601,745	170,15
601,941	102,57
602,136	145,58
602,331	75,95
602,526	88,23
602,721	88,23
602,916	8,36
603,111	90,28
603,307	26,79
603,502	112,81
603,697	-34,64
603,892	65,71
604,087	61,61
604,282	178,34
604,477	84,14
604,672	65,71
604,867	26,79
605,062	28,84
605,257	127,14
605,452	164,01
605,646	149,67
605,841	-16,21
606,036	77,99
606,231	-12,12
606,426	20,65
606,621	-1,88
606,816	82,09
607,01	129,19
607,205	67,75
607,4	24,75
607,595	88,23
607,79	106,67
607,984	65,71
608,179	-40,79
608,374	110,76
608,569	127,14
608,763	-8,02
608,958	0,17
609,153	24,75
609,347	57,51
609,542	86,19
609,736	63,66
609,931	37,03
610,126	12,46
610,32	30,89
610,515	-44,88
610,709	215,21
610,904	14,51
611,098	-36,69
611,293	-94,04
611,487	14,51
611,682	24,75
611,876	-20,31
612,071	86,19
612,265	30,89
612,46	2,22
612,654	88,23
612,848	28,84
613,043	0,17
613,237	-30,55
613,432	12,46
613,626	-32,6
613,82	2,22
614,014	159,91
614,209	96,43
614,403	-8,02
614,597	153,77
614,792	139,43
614,986	102,57
615,18	252,07
615,374	225,45
615,568	168,1
615,763	200,87
615,957	219,3
616,151	299,17
616,345	348,33
616,539	184,49
616,733	243,88
616,927	209,06
617,121	211,11
617,316	155,82
617,51	161,96
617,704	127,14
617,898	82,09
618,092	-53,08
618,286	8,36
618,48	-51,03
618,674	88,23
618,868	30,89
619,061	0,17
619,255	45,23
619,449	4,27
619,643	-20,31
619,837	110,76
620,031	-5,97
620,225	151,72
620,419	-20,31
620,612	61,61
620,806	26,79
621	112,81
621,194	20,65
621,388	-3,93
621,581	-1,88
621,775	34,99
621,969	55,47
622,162	4,27
622,356	18,6
622,55	39,08
622,743	20,65
622,937	6,31
623,131	4,27
623,324	112,81
623,518	8,36
623,712	-12,12
623,905	-8,02
624,099	77,99
624,292	80,04
624,486	67,75
624,679	22,7
624,873	28,84
625,066	28,84
625,26	20,65
625,453	-20,31
625,647	69,8
625,84	61,61
626,034	110,76
626,227	82,09
626,42	-1,88
626,614	-12,12
626,807	145,58
627	51,37
627,194	-81,75
627,387	14,51
627,58	28,84
627,774	-20,31
627,967	112,81
628,16	86,19
628,353	86,19
628,547	86,19
628,74	151,72
628,933	-22,36
629,126	90,28
629,319	-61,27
629,513	61,61
629,706	94,38
629,899	45,23
630,092	118,95
630,285	-8,02
630,478	-51,03
630,671	0,17
630,864	32,94
631,057	37,03
631,25	129,19
631,443	110,76
631,636	92,33
631,829	135,34
632,022	84,14
632,215	28,84
632,408	20,65
632,601	77,99
632,794	98,47
632,987	4,27
633,18	63,66
633,373	47,27
633,566	6,31
633,758	-44,88
633,951	-44,88
634,144	98,47
634,337	-28,5
634,53	26,79
634,722	110,76
634,915	-8,02
635,108	-36,69
635,301	61,61
635,493	80,04
635,686	139,43
635,879	24,75
636,071	-77,65
636,264	176,3
636,457	73,9
636,649	49,32
636,842	24,75
637,034	110,76
637,227	106,67
637,42	82,09
637,612	26,79
637,805	10,41
637,997	32,94
638,19	69,8
638,382	-3,93
638,575	-20,31
638,767	39,08
638,96	164,01
639,152	0,17
639,344	118,95
639,537	-3,93
639,729	4,27
639,922	37,03
640,114	53,42
640,306	125,1
640,499	41,13
640,691	-10,07
640,883	28,84
641,075	69,8
641,268	112,81
641,46	26,79
641,652	14,51
641,844	41,13
642,037	-12,12
642,229	-10,07
642,421	127,14
642,613	63,66
642,805	104,62
642,998	53,42
643,19	65,71
643,382	77,99
643,574	145,58
643,766	41,13
643,958	28,84
644,15	135,34
644,342	121
644,534	98,47
644,726	94,38
644,918	82,09
645,11	28,84
645,302	127,14
645,494	170,15
645,686	131,24
645,878	141,48
646,07	176,3
646,262	80,04
646,453	106,67
646,645	110,76
646,837	151,72
647,029	80,04
647,221	73,9
647,413	28,84
647,604	116,9
647,796	161,96
647,988	102,57
648,18	53,42
648,371	-24,4
648,563	94,38
648,755	45,23
648,947	22,7
649,138	114,86
649,33	53,42
649,521	24,75
649,713	77,99
649,905	39,08
650,096	80,04
650,288	53,42
650,479	-1,88
650,671	37,03
650,863	39,08
651,054	131,24
651,246	192,68
651,437	20,65
651,629	258,21
651,82	200,87
652,011	192,68
652,203	211,11
652,394	184,49
652,586	168,1
652,777	49,32
652,968	151,72
653,16	86,19
653,351	135,34
653,542	272,55
653,734	260,26
653,925	112,81
654,116	301,22
654,308	290,98
654,499	559,27
654,69	1446,04
654,881	4542,57
655,073	9809,94
655,264	17076,13
655,455	25403,18
655,646	36175,49
655,837	46476,77
656,028	55586,14
656,219	61469,95
656,411	64195,8
656,602	64195,8
656,793	64195,8
656,984	63266,02
657,175	57371,97
657,366	52180,37
657,557	44412,42
657,748	37762,67
657,939	32911,03
658,13	27342,6
658,321	22564,69
658,512	17854,36
658,703	13012,96
658,894	8241,2
659,084	5161,05
659,275	3289,21
659,466	2089,1
659,657	1487
659,848	1036,44
660,039	778,4
660,23	635,04
660,42	331,94
660,611	397,48
660,802	301,22
660,993	340,13
661,183	192,68
661,374	184,49
661,565	342,18
661,755	145,58
661,946	209,06
662,137	100,52
662,327	98,47
662,518	127,14
662,709	86,19
662,899	4,27
663,09	118,95
663,28	112,81
663,471	20,65
663,662	168,1
663,852	75,95
664,043	69,8
664,233	43,18
664,424	133,29
664,614	34,99
664,804	57,51
664,995	118,95
665,185	108,71
665,376	6,31
665,566	94,38
665,756	30,89
665,947	12,46
666,137	12,46
666,328	299,17
666,518	112,81
666,708	12,46
666,898	57,51
667,089	84,14
667,279	90,28
667,469	-46,93
667,659	20,65
667,85	155,82
668,04	-16,21
668,23	49,32
668,42	45,23
668,61	41,13
668,8	20,65
668,991	80,04
669,181	153,77
669,371	-32,6
669,561	84,14
669,751	161,96
669,941	22,7
670,131	63,66
670,321	41,13
670,511	-24,4
670,701	80,04
670,891	61,61
671,081	53,42
671,271	-28,5
671,461	65,71
671,651	41,13
671,841	-16,21
672,03	151,72
672,22	-40,79
672,41	-5,97
672,6	63,66
672,79	123,05
672,98	61,61
673,169	37,03
673,359	18,6
673,549	94,38
673,739	-12,12
673,928	28,84
674,118	41,13
674,308	-12,12
674,497	80,04
674,687	18,6
674,877	4,27
675,066	-1,88
675,256	8,36
675,446	47,27
675,635	10,41
675,825	-32,6
676,014	55,47
676,204	55,47
676,393	-26,45
676,583	63,66
676,772	118,95
676,962	-10,07
677,151	28,84
677,341	-44,88
677,53	55,47
677,72	4,27
677,909	80,04
678,099	-30,55
678,288	-12,12
678,477	20,65
678,667	28,84
678,856	141,48
679,045	45,23
679,235	-61,27
679,424	139,43
679,613	168,1
679,802	86,19
679,992	0,17
680,181	8,36
680,37	18,6
680,559	10,41
680,748	55,47
680,938	47,27
681,127	12,46
681,316	12,46
681,505	-24,4
681,694	-57,17
681,883	0,17
682,072	53,42
682,261	53,42
682,45	-73,56
682,639	-71,51
682,828	55,47
683,017	61,61
683,206	110,76
683,395	28,84
683,584	98,47
683,773	80,04
683,962	0,17
684,151	-34,64
684,34	104,62
684,529	20,65
684,718	-8,02
684,907	-44,88
685,095	86,19
685,284	41,13
685,473	20,65
685,662	4,27
685,851	155,82
686,039	-12,12
686,228	-3,93
686,417	12,46
686,606	90,28
686,794	-59,22
686,983	-1,88
687,172	8,36
687,36	24,75
687,549	12,46
687,738	10,41
687,926	4,27
688,115	61,61
688,303	53,42
688,492	30,89
688,68	-81,75
688,869	-3,93
689,057	-85,84
689,246	-32,6
689,434	-36,69
689,623	-69,46
689,811	37,03
690	-12,12
690,188	-147,28
690,377	-10,07
690,565	28,84
690,753	86,19
690,942	12,46
691,13	-8,02
691,318	37,03
691,507	0,17
691,695	86,19
691,883	16,55
692,072	51,37
692,26	28,84
692,448	80,04
692,636	-110,42
692,824	-77,65
693,013	94,38
693,201	49,32
693,389	8,36
693,577	-8,02
693,765	32,94
693,953	71,85
694,141	-61,27
694,329	-59,22
694,518	8,36
694,706	30,89
694,894	-26,45
695,082	-12,12
695,27	-1,88
695,458	24,75
695,646	96,43
695,834	106,67
696,022	-22,36
696,209	22,7
696,397	4,27
696,585	53,42
696,773	39,08
696,961	106,67
697,149	4,27
697,337	-57,17
697,525	28,84
697,712	24,75
697,9	45,23
698,088	37,03
698,276	86,19
698,463	77,99
698,651	86,19
698,839	77,99
699,027	28,84
699,214	75,95
699,402	-57,17
699,59	4,27
699,777	41,13
699,965	75,95
700,152	-26,45
700,34	37,03
700,528	24,75
700,715	4,27
700,903	30,89
701,09	88,23
701,278	45,23
701,465	45,23
701,653	22,7
701,84	6,31
702,028	80,04
702,215	-28,5
702,402	-20,31
702,59	53,42
702,777	57,51
702,965	-3,93
703,152	-8,02
703,339	-5,97
703,527	-114,52
703,714	41,13
703,901	-36,69
704,088	34,99
704,276	2,22
704,463	37,03
704,65	-18,26
704,837	-12,12
705,025	37,03
705,212	-3,93
705,399	47,27
705,586	14,51
705,773	86,19
705,96	2,22
706,147	63,66
706,335	-24,4
706,522	65,71
706,709	-3,93
706,896	-40,79
707,083	4,27
707,27	6,31
707,457	110,76
707,644	-42,84
707,831	-3,93
708,018	-102,23
708,205	-38,74
708,392	65,71
708,578	129,19
708,765	0,17
708,952	-28,5
709,139	-20,31
709,326	-16,21
709,513	69,8
709,7	-3,93
709,886	61,61
710,073	20,65
710,26	94,38
710,447	26,79
710,633	-10,07
710,82	92,33
711,007	22,7
711,193	-38,74
711,38	12,46
711,567	-28,5
711,753	-1,88
711,94	110,76
712,127	-1,88
712,313	53,42
712,5	-89,94
712,686	4,27
712,873	-16,21
713,059	24,75
713,246	6,31
713,432	47,27
713,619	-26,45
713,805	6,31
713,992	14,51
714,178	12,46
714,365	14,51
714,551	137,38
714,737	8,36
714,924	-48,98
715,11	118,95
715,297	37,03
715,483	-14,17
715,669	30,89
715,855	69,8
716,042	47,27
716,228	28,84
716,414	94,38
716,6	-18,26
716,787	-18,26
716,973	-12,12
717,159	45,23
717,345	-18,26
717,531	-44,88
717,718	-22,36
717,904	18,6
718,09	0,17
718,276	2,22
718,462	-10,07
718,648	80,04
718,834	-57,17
719,02	118,95
719,206	69,8
719,392	16,55
719,578	-36,69
719,764	-30,55
719,95	-3,93
720,136	147,62
720,322	-36,69
720,508	41,13
720,694	12,46
720,879	-18,26
721,065	96,43
721,251	32,94
721,437	-40,79
721,623	106,67
721,809	20,65
721,994	-10,07
722,18	-14,17
722,366	-44,88
722,552	-44,88
722,737	-42,84
722,923	92,33
723,109	45,23
723,294	39,08
723,48	49,32
723,666	73,9
723,851	-10,07
724,037	63,66
724,222	137,38
724,408	110,76
724,593	94,38
724,779	-3,93
724,965	30,89
725,15	86,19
725,336	96,43
725,521	202,92
725,706	47,27
725,892	14,51
726,077	-73,56
726,263	82,09
726,448	104,62
726,634	6,31
726,819	75,95
727,004	61,61
727,19	-77,65
727,375	118,95
727,56	-5,97
727,745	-18,26
727,931	71,85
728,116	37,03
728,301	-1,88
728,486	22,7
728,672	-53,08
728,857	-1,88
729,042	6,31
729,227	-65,36
729,412	-42,84
729,597	77,99
729,783	69,8
729,968	20,65
730,153	37,03
730,338	-3,93
730,523	-3,93
730,708	20,65
730,893	14,51
731,078	-42,84
731,263	26,79
731,448	77,99
731,633	12,46
731,818	-57,17
732,003	-34,64
732,187	-34,64
732,372	-36,69
732,557	100,52
732,742	-83,8
732,927	-20,31
733,112	-40,79
733,297	41,13
733,481	28,84
733,666	69,8
733,851	39,08
734,036	-16,21
734,22	-42,84
734,405	71,85
734,59	-12,12
734,774	114,86
734,959	-26,45
735,144	135,34
735,328	-1,88
735,513	-51,03
735,698	4,27
735,882	96,43
736,067	100,52
736,251	77,99
736,436	37,03
736,62	28,84
736,805	-18,26
736,989	55,47
737,174	-51,03
737,358	-36,69
737,543	61,61
737,727	73,9
737,911	20,65
738,096	-63,32
738,28	10,41
738,465	-20,31
738,649	73,9
738,833	47,27
739,018	16,55
739,202	45,23
739,386	-20,31
739,57	28,84
739,755	12,46
739,939	-1,88
740,123	-40,79
740,307	65,71
740,491	55,47
740,676	-12,12
740,86	12,46
741,044	75,95
741,228	-8,02
741,412	-69,46
741,596	-3,93
741,78	-16,21
741,964	-34,64
742,148	-10,07
742,332	0,17
742,516	-34,64
742,7	61,61
742,884	47,27
743,068	-3,93
743,252	20,65
743,436	69,8
743,62	-12,12
743,804	94,38
743,988	137,38
744,172	45,23
744,356	-1,88
744,539	-10,07
744,723	-3,93
744,907	20,65
745,091	49,32
745,275	53,42
745,458	116,9
745,642	20,65
745,826	8,36
746,009	88,23
746,193	-20,31
746,377	94,38
746,56	37,03
746,744	137,38
746,928	39,08
747,111	55,47
747,295	-24,4
747,478	6,31
747,662	37,03
747,846	141,48
748,029	41,13
748,213	96,43
748,396	-26,45
748,58	86,19
748,763	30,89
748,946	-36,69
749,13	4,27
749,313	-14,17
749,497	123,05
749,68	20,65
749,863	32,94
750,047	-59,22
750,23	30,89
750,413	37,03
750,597	47,27
750,78	77,99
750,963	73,9
751,146	82,09
751,33	18,6
751,513	116,9
751,696	-42,84
751,879	-8,02
752,062	-91,99
752,246	94,38
752,429	-3,93
752,612	82,09
752,795	-28,5
752,978	10,41
753,161	-85,84
753,344	-44,88
753,527	41,13
753,71	16,55
753,893	98,47
754,076	-40,79
754,259	-102,23
754,442	-20,31
754,625	-26,45
754,808	121
754,991	39,08
755,174	-24,4
755,357	16,55
755,539	67,75
755,722	147,62
755,905	18,6
756,088	-18,26
756,271	12,46
756,453	59,56
756,636	-18,26
756,819	32,94
757,002	34,99
757,184	57,51
757,367	112,81
757,55	12,46
757,732	168,1
757,915	-3,93
758,098	71,85
758,28	8,36
758,463	86,19
758,645	0,17
758,828	32,94
759,011	20,65
759,193	-26,45
759,376	45,23
759,558	39,08
759,741	-22,36
759,923	16,55
760,105	-36,69
760,288	22,7
760,47	-102,23
760,653	-20,31
760,835	-77,65
761,017	-42,84
761,2	-53,08
761,382	176,3
761,564	-36,69
761,747	96,43
761,929	24,75
762,111	55,47
762,294	4,27
762,476	151,72
762,658	45,23
762,84	127,14
763,022	61,61
763,205	16,55
763,387	59,56
763,569	24,75
763,751	-53,08
763,933	-44,88
764,115	-83,8
764,297	30,89
764,479	123,05
764,661	-26,45
764,843	110,76
765,025	39,08
765,207	57,51
765,389	-24,4
765,571	69,8
765,753	86,19
765,935	61,61
766,117	4,27
766,299	159,91
766,481	61,61
766,663	-3,93
766,845	-57,17
767,026	-3,93
767,208	94,38
767,39	118,95
767,572	12,46
767,753	129,19
767,935	-42,84
768,117	59,56
768,299	170,15
768,48	45,23
768,662	61,61
768,844	-36,69
769,025	166,06
769,207	0,17
769,389	-48,98
769,57	61,61
769,752	8,36
769,933	41,13
770,115	28,84
770,296	-32,6
770,478	82,09
770,659	-44,88
770,841	213,16
771,022	53,42
771,204	-20,31
771,385	37,03
771,567	127,14
771,748	114,86
771,929	39,08
772,111	69,8
772,292	94,38
772,473	53,42
772,655	69,8
772,836	57,51
773,017	114,86
773,199	45,23
773,38	28,84
773,561	39,08
773,742	-24,4
773,923	71,85
774,105	149,67
774,286	94,38
774,467	39,08
774,648	65,71
774,829	94,38
775,01	-12,12
775,191	26,79
775,372	55,47
775,553	69,8
775,734	8,36
775,915	121
776,096	360,61
776,277	964,76
776,458	1693,84
776,639	2723,97
776,82	3510,39
777,001	4137,07
777,182	4968,54
777,363	5374,04
777,544	5740,63
777,725	5255,26
777,906	4911,2
778,086	4368,49
778,267	3782,77
778,448	3006,59
778,629	2373,77
778,809	2035,85
778,99	1708,18
779,171	1517,72
779,352	1335,45
779,532	1151,13
779,713	1085,59
779,894	1034,39
780,074	1071,26
780,255	950,43
780,435	872,61
780,616	727,2
780,797	549,03
780,977	254,12
781,158	176,3
781,338	94,38
781,519	121
781,699	233,64
781,88	90,28
782,06	-12,12
782,241	-40,79
782,421	-18,26
782,601	57,51
782,782	61,61
782,962	88,23
783,142	12,46
783,323	12,46
783,503	71,85
783,683	45,23
783,864	102,57
784,044	39,08
784,224	65,71
784,404	30,89
784,585	53,42
784,765	67,75
784,945	102,57
785,125	-8,02
785,305	90,28
785,485	102,57
785,666	30,89
785,846	0,17
786,026	-53,08
786,206	63,66
786,386	32,94
786,566	-16,21
786,746	-18,26
786,926	20,65
787,106	96,43
787,286	-53,08
787,466	2,22
787,646	20,65
787,826	49,32
788,006	102,57
788,185	24,75
788,365	-53,08
788,545	106,67
788,725	8,36
788,905	65,71
789,085	28,84
789,264	-51,03
789,444	4,27
789,624	-14,17
789,804	69,8
789,983	55,47
790,163	-8,02
790,343	37,03
790,522	-32,6
790,702	30,89
790,882	0,17
791,061	77,99
791,241	69,8
791,42	16,55
791,6	196,78
791,78	37,03
791,959	-40,79
792,139	-81,75
792,318	-16,21
792,498	80,04
792,677	61,61
792,856	39,08
793,036	30,89
793,215	-1,88
793,395	65,71
793,574	-34,64
793,753	18,6
793,933	155,82
794,112	145,58
794,291	12,46
794,471	145,58
794,65	104,62
794,829	34,99
795,008	53,42
795,188	82,09
795,367	57,51
795,546	-12,12
795,725	-10,07
795,904	71,85
796,084	131,24
796,263	8,36
796,442	45,23
796,621	-36,69
796,8	82,09
796,979	53,42
797,158	26,79
797,337	86,19
797,516	37,03
797,695	118,95
797,874	53,42
798,053	71,85
798,232	37,03
798,411	-40,79
798,59	30,89
798,769	24,75
798,947	47,27
799,126	14,51
799,305	88,23
799,484	80,04
799,663	4,27
799,842	-3,93
800,02	102,57
800,199	2,22
800,378	47,27
800,557	-51,03
800,735	-114,52
800,914	55,47
801,093	67,75
801,271	-24,4
801,45	32,94
801,628	73,9
801,807	14,51
801,986	22,7
802,164	73,9
802,343	-130,9
802,521	-12,12
802,7	-3,93
802,878	100,52
803,057	12,46
803,235	-61,27
803,414	-20,31
803,592	24,75
803,771	45,23
803,949	28,84
804,127	-28,5
804,306	137,38
804,484	-28,5
804,662	6,31
804,841	-83,8
805,019	14,51
805,197	127,14
805,375	28,84
805,554	24,75
805,732	10,41
805,91	6,31
806,088	-36,69
806,266	28,84
806,445	-24,4
806,623	28,84
806,801	26,79
806,979	110,76
807,157	80,04
807,335	-18,26
807,513	71,85
807,691	24,75
807,869	12,46
808,047	41,13
808,225	24,75
808,403	45,23
808,581	-3,93
808,759	121
808,937	73,9
809,115	65,71
809,293	43,18
809,471	8,36
809,649	77,99
809,826	37,03
810,004	45,23
810,182	-28,5
810,36	-34,64
810,538	20,65
810,715	114,86
810,893	-116,56
811,071	14,51
811,248	49,32
811,426	4,27
811,604	61,61
811,781	69,8
811,959	118,95
812,137	69,8
812,314	-100,18
812,492	-16,21
812,669	69,8
812,847	12,46
813,024	-26,45
813,202	102,57
813,379	-10,07
813,557	-5,97
813,734	39,08
813,912	114,86
814,089	53,42
814,267	63,66
814,444	57,51
814,621	82,09
814,799	-77,65
814,976	0,17
815,153	8,36
815,331	94,38
815,508	30,89
815,685	-18,26
815,862	14,51
816,04	28,84
816,217	-3,93
816,394	-32,6
816,571	106,67
816,748	153,77
816,926	49,32
817,103	276,65
817,28	45,23
817,457	-26,45
817,634	143,53
817,811	-28,5
817,988	0,17
818,165	37,03
818,342	84,14
818,519	14,51
818,696	-1,88
818,873	-48,98
819,05	61,61
819,227	-12,12
819,404	34,99
819,581	-3,93
819,758	-18,26
819,934	-1,88
820,111	-94,04
820,288	80,04
820,465	108,71
820,642	61,61
820,818	-51,03
820,995	39,08
821,172	71,85
821,349	39,08
821,525	28,84
821,702	94,38
821,879	-73,56
822,055	30,89
822,232	2,22
822,409	37,03
822,585	143,53
822,762	127,14
822,938	73,9
823,115	53,42
823,291	161,96
823,468	213,16
823,644	41,13
823,821	61,61
823,997	28,84
824,174	-1,88
824,35	16,55
824,527	14,51
824,703	-38,74
824,879	20,65
825,056	-3,93
825,232	55,47
825,408	45,23
825,585	14,51
825,761	-94,04
825,937	-14,17
826,113	110,76
826,29	61,61
826,466	-20,31
826,642	350,37
826,818	2,22
826,994	-12,12
827,17	-12,12
827,347	8,36
827,523	-24,4
827,699	55,47
827,875	-38,74
828,051	61,61
828,227	12,46
828,403	37,03
828,579	88,23
828,755	153,77
828,931	-14,17
829,107	112,81
829,283	102,57
829,459	-87,89
829,635	82,09
829,811	69,8
829,986	16,55
830,162	-28,5
830,338	6,31
830,514	12,46
830,69	80,04
830,865	16,55
831,041	41,13
831,217	-79,7
831,393	41,13
831,568	-71,51
831,744	61,61
831,92	-44,88
832,095	12,46
832,271	32,94
832,447	63,66
832,622	45,23
832,798	14,51
832,973	28,84
833,149	47,27
833,325	63,66
833,5	28,84
833,676	125,1
833,851	8,36
834,027	-40,79
834,202	-3,93
834,377	80,04
834,553	0,17
834,728	18,6
834,904	24,75
835,079	6,31
835,254	53,42
835,43	12,46
835,605	8,36
835,78	-10,07
835,955	32,94
836,131	69,8
836,306	-34,64
836,481	-48,98
836,656	30,89
836,832	18,6
837,007	-53,08
837,182	-18,26
837,357	53,42
837,532	-44,88
837,707	69,8
837,882	20,65
838,057	77,99
838,232	61,61
838,407	-28,5
838,582	-59,22
838,757	28,84
838,932	73,9
839,107	-61,27
839,282	-94,04
839,457	24,75
839,632	84,14
839,807	37,03
839,982	-20,31
840,157	4,27
840,332	77,99
840,506	-42,84
840,681	0,17
840,856	37,03
841,031	32,94
841,205	12,46
841,38	71,85
841,555	28,84
841,73	22,7
841,904	4,27
842,079	-51,03
842,254	53,42
842,428	94,38
842,603	-24,4
842,777	30,89
842,952	63,66
843,126	61,61
843,301	137,38
843,476	211,11
843,65	475,3
843,825	835,74
843,999	1007,77
844,173	1208,47
844,348	1392,79
844,522	1556,63
844,697	1487
844,871	1519,76
845,045	1405,08
845,22	1175,7
845,394	1128,6
845,568	909,47
845,743	979,1
845,917	770,21
846,091	671,9
846,265	659,62
846,44	620,71
846,614	546,98
846,788	532,64
846,962	544,93
847,136	614,56
847,31	463,01
847,485	561,31
847,659	393,38
847,833	495,78
848,007	415,91
848,181	438,44
848,355	272,55
848,529	307,37
848,703	209,06
848,877	159,91
849,051	237,74
849,225	88,23
849,399	16,55
849,573	-75,6
849,746	20,65
849,92	41,13
850,094	112,81
850,268	37,03
850,442	90,28
850,616	12,46
850,789	-38,74
850,963	28,84
851,137	-48,98
851,311	94,38
851,484	86,19
851,658	61,61
851,832	26,79
852,005	16,55
852,179	-3,93
852,352	-26,45
852,526	41,13
852,7	65,71
852,873	28,84
853,047	10,41
853,22	-20,31
853,394	61,61
853,567	77,99
853,741	39,08
853,914	16,55
854,088	41,13
854,261	-40,79
854,434	-44,88
854,608	-24,4
854,781	-48,98
854,955	65,71
855,128	37,03
855,301	-46,93
855,475	6,31
855,648	-28,5
855,821	-20,31
855,994	20,65
856,168	94,38
856,341	18,6
856,514	-34,64
856,687	77,99
856,86	61,61
857,033	43,18
857,207	41,13
857,38	-61,27
857,553	127,14
857,726	32,94
857,899	16,55
858,072	28,84
858,245	6,31
858,418	-20,31
858,591	-18,26
858,764	47,27
858,937	82,09
859,11	39,08
859,283	63,66
859,455	-12,12
859,628	-12,12
859,801	118,95
859,974	77,99
860,147	-108,37
860,32	86,19
860,492	30,89
860,665	-91,99
860,838	-10,07
861,011	-69,46
861,183	57,51
861,356	211,11
861,529	110,76
861,701	41,13
861,874	86,19
862,047	61,61
862,219	-67,41
862,392	47,27
862,564	28,84
862,737	28,84
862,909	123,05
863,082	-30,55
863,254	61,61
863,427	32,94
863,599	73,9
863,772	-12,12
863,944	45,23
864,117	53,42
864,289	16,55
864,461	-18,26
864,634	39,08
864,806	-53,08
864,978	30,89
865,151	-26,45
865,323	-8,02
865,495	63,66
865,667	45,23
865,84	139,43
866,012	-104,28
866,184	86,19
866,356	-51,03
866,528	45,23
866,7	67,75
866,873	-77,65
867,045	-8,02
867,217	-94,04
867,389	82,09
867,561	20,65
867,733	61,61
867,905	57,51
868,077	102,57
868,249	-3,93
868,421	63,66
868,593	32,94
868,765	129,19
868,936	-44,88
869,108	20,65
869,28	63,66
869,452	16,55
869,624	-32,6
869,796	77,99
869,968	12,46
870,139	28,84
870,311	63,66
870,483	71,85
870,654	-26,45
870,826	16,55
870,998	102,57
871,17	6,31
871,341	-85,84
871,513	96,43
871,684	4,27
871,856	41,13
872,028	30,89
872,199	-59,22
872,371	-135
872,542	20,65
872,714	41,13
872,885	39,08
873,057	-36,69
873,228	39,08
873,4	57,51
873,571	112,81
873,742	-28,5
873,914	20,65
874,085	57,51
874,256	57,51
874,428	-48,98
874,599	14,51
874,77	172,2
874,942	-44,88
875,113	28,84
875,284	-28,5
875,455	-94,04
875,626	-26,45
875,798	-24,4
875,969	71,85
876,14	-3,93
876,311	-1,88
876,482	82,09
876,653	32,94
876,824	61,61
876,995	24,75
877,166	84,14
877,337	84,14
877,508	-12,12
877,679	-26,45
877,85	28,84
878,021	-36,69
878,192	24,75
878,363	30,89
878,534	-34,64
878,705	-1,88
878,876	22,7
879,047	28,84
879,217	-67,41
879,388	102,57
879,559	34,99
879,73	28,84
879,9	37,03
880,071	108,71
880,242	12,46
880,413	30,89
880,583	30,89
880,754	69,8
880,924	4,27
881,095	-108,37
881,266	-44,88
881,436	80,04
881,607	20,65
881,777	-3,93
881,948	61,61
882,118	98,47
882,289	-8,02
882,459	-46,93
882,63	8,36
882,8	-34,64
882,971	73,9
883,141	47,27
883,311	69,8
883,482	98,47
883,652	-8,02
883,822	24,75
883,993	-8,02
884,163	0,17
884,333	45,23
884,504	73,9
884,674	110,76
884,844	37,03
885,014	-32,6
885,184	28,84
885,355	18,6
885,525	32,94
885,695	39,08
885,865	112,81
886,035	-3,93
886,205	20,65
886,375	45,23
886,545	-10,07
886,715	-53,08
886,885	77,99
887,055	10,41
887,225	-28,5
887,395	22,7
887,565	151,72
887,735	53,42
887,905	22,7
888,075	-32,6
888,244	16,55
888,414	45,23
888,584	69,8
888,754	30,89
888,924	45,23
889,093	233,64
889,263	-3,93
889,433	37,03
889,603	47,27
889,772	53,42
889,942	55,47
890,111	57,51
890,281	45,23
890,451	24,75
890,62	37,03
890,79	51,37
890,959	28,84
891,129	-32,6
891,298	-12,12
891,468	-18,26
891,637	47,27
891,807	12,46
891,976	6,31
892,146	12,46
892,315	30,89
892,485	94,38
892,654	-20,31
892,823	24,75
892,993	26,79
893,162	61,61
893,331	55,47
893,501	-18,26
893,67	41,13
893,839	-5,97
894,008	32,94
894,177	45,23
894,347	-3,93
894,516	88,23
894,685	28,84
894,854	28,84
895,023	-5,97
895,192	-1,88
