Data from laserVert_USB4F104151__5__11-49-23-477.txt Node

Date: Wed Apr 15 11:49:23 EDT 2026
User: LaboPhy
Spectrometer: USB4F10415
Trigger mode: 4
Integration Time (sec): 1,000000E-1
Scans to average: 1
Electric dark correction enabled: true
Nonlinearity correction enabled: false
Boxcar width: 0
XAxis mode: Wavelengths
Number of Pixels in Spectrum: 3648
>>>>>Begin Spectral Data<<<<<
178,204	-475,3
178,424	-475,3
178,644	-475,3
178,864	-491,68
179,084	-475,3
179,304	-77,99
179,524	18,26
179,744	-24,75
179,964	24,4
180,184	22,36
180,404	18,26
180,624	34,64
180,844	8,02
181,064	-49,32
181,283	8,02
181,503	-86,19
181,723	104,28
181,943	-112,81
182,163	159,57
182,383	-100,52
182,602	28,5
182,822	110,42
183,042	55,12
183,262	-22,7
183,482	-45,23
183,701	42,84
183,921	28,5
184,141	-51,37
184,361	53,08
184,58	67,41
184,8	22,36
185,02	-37,03
185,239	59,22
185,459	73,56
185,679	161,62
185,898	-65,71
186,118	8,02
186,338	32,6
186,557	229,2
186,777	-65,71
186,997	-43,18
187,216	12,12
187,436	208,72
187,655	40,79
187,875	34,64
188,095	53,08
188,314	98,13
188,534	71,51
188,753	-112,81
188,973	83,8
189,192	102,23
189,412	53,08
189,631	24,4
189,851	55,12
190,07	130,9
190,29	-63,66
190,509	-45,23
190,729	69,46
190,948	223,06
191,168	249,68
191,387	16,21
191,607	24,4
191,826	110,42
192,045	51,03
192,265	-45,23
192,484	16,21
192,704	53,08
192,923	-39,08
193,142	167,76
193,362	81,75
193,581	192,34
193,8	48,98
194,02	18,26
194,239	20,31
194,458	132,95
194,678	71,51
194,897	-14,51
195,116	114,52
195,335	85,84
195,555	128,85
195,774	-24,75
195,993	79,7
196,212	42,84
196,432	-28,84
196,651	-80,04
196,87	36,69
197,089	329,55
197,308	48,98
197,528	89,94
197,747	-47,27
197,966	98,13
198,185	159,57
198,404	-104,62
198,623	135
198,842	122,71
199,062	175,95
199,281	59,22
199,5	-43,18
199,719	67,41
199,938	26,45
200,157	-32,94
200,376	124,76
200,595	69,46
200,814	48,98
201,033	8,02
201,252	223,06
201,471	75,6
201,69	36,69
201,909	36,69
202,128	32,6
202,347	75,6
202,566	51,03
202,785	-69,8
203,004	18,26
203,223	286,54
203,442	10,07
203,661	-41,13
203,879	40,79
204,098	135
204,317	12,12
204,536	94,04
204,755	83,8
204,974	83,8
205,193	-0,17
205,411	83,8
205,63	110,42
205,849	122,71
206,068	42,84
206,287	-73,9
206,505	206,67
206,724	-20,65
206,943	-43,18
207,162	-147,62
207,381	118,61
207,599	57,17
207,818	46,93
208,037	-28,84
208,255	108,37
208,474	48,98
208,693	-8,36
208,911	-39,08
209,13	130,9
209,349	163,67
209,567	100,18
209,786	118,61
210,005	91,99
210,223	16,21
210,442	-133,29
210,661	-8,36
210,879	83,8
211,098	-118,95
211,316	24,4
211,535	151,38
211,753	46,93
211,972	16,21
212,191	-37,03
212,409	18,26
212,628	85,84
212,846	-0,17
213,065	69,46
213,283	151,38
213,502	36,69
213,72	-24,75
213,938	65,36
214,157	-20,65
214,375	161,62
214,594	-16,55
214,812	71,51
215,031	-2,22
215,249	48,98
215,467	32,6
215,686	10,07
215,904	141,14
216,122	32,6
216,341	231,25
216,559	12,12
216,778	96,08
216,996	151,38
217,214	48,98
217,432	-22,7
217,651	-8,36
217,869	57,17
218,087	-2,22
218,306	-51,37
218,524	73,56
218,742	30,55
218,96	163,67
219,179	-8,36
219,397	36,69
219,615	245,59
219,833	126,8
220,051	-4,27
220,27	87,89
220,488	163,67
220,706	91,99
220,924	-65,71
221,142	-26,79
221,36	77,65
221,578	130,9
221,796	22,36
222,015	48,98
222,233	89,94
222,451	200,53
222,669	12,12
222,887	65,36
223,105	-16,55
223,323	69,46
223,541	-53,42
223,759	14,17
223,977	38,74
224,195	241,49
224,413	63,32
224,631	26,45
224,849	143,19
225,067	231,25
225,285	14,17
225,503	-24,75
225,721	-106,67
225,939	-4,27
226,157	-57,51
226,375	184,15
226,592	-34,99
226,81	53,08
227,028	128,85
227,246	175,95
227,464	-57,51
227,682	69,46
227,9	36,69
228,117	3,93
228,335	36,69
228,553	-14,51
228,771	-30,89
228,989	20,31
229,206	110,42
229,424	28,5
229,642	10,07
229,86	-0,17
230,077	106,32
230,295	63,32
230,513	51,03
230,731	48,98
230,948	200,53
231,166	208,72
231,384	-6,31
231,601	61,27
231,819	175,95
232,037	-32,94
232,254	-53,42
232,472	18,26
232,689	22,36
232,907	135
233,125	40,79
233,342	-45,23
233,56	3,93
233,777	59,22
233,995	-63,66
234,213	36,69
234,43	-10,41
234,648	-0,17
234,865	71,51
235,083	67,41
235,3	57,17
235,518	114,52
235,735	124,76
235,953	141,14
236,17	46,93
236,388	1,88
236,605	16,21
236,822	42,84
237,04	149,33
237,257	40,79
237,475	-57,51
237,692	-30,89
237,909	48,98
238,127	32,6
238,344	63,32
238,562	-32,94
238,779	8,02
238,996	16,21
239,214	-14,51
239,431	75,6
239,648	48,98
239,865	114,52
240,083	96,08
240,3	10,07
240,517	-28,84
240,735	24,4
240,952	100,18
241,169	-12,46
241,386	122,71
241,603	24,4
241,821	-69,8
242,038	26,45
242,255	169,81
242,472	28,5
242,689	89,94
242,907	-2,22
243,124	14,17
243,341	20,31
243,558	10,07
243,775	-161,96
243,992	-129,19
244,209	12,12
244,426	155,47
244,643	5,97
244,86	48,98
245,078	53,08
245,295	57,17
245,512	-82,09
245,729	-12,46
245,946	94,04
246,163	38,74
246,38	-24,75
246,597	53,08
246,814	28,5
247,031	65,36
247,248	-26,79
247,464	104,28
247,681	-6,31
247,898	3,93
248,115	106,32
248,332	-39,08
248,549	153,43
248,766	169,81
248,983	104,28
249,2	57,17
249,417	38,74
249,633	30,55
249,85	85,84
250,067	36,69
250,284	36,69
250,501	12,12
250,717	40,79
250,934	-0,17
251,151	-39,08
251,368	-28,84
251,585	-18,6
251,801	83,8
252,018	-12,46
252,235	91,99
252,451	-104,62
252,668	32,6
252,885	75,6
253,102	-37,03
253,318	-67,75
253,535	-8,36
253,752	38,74
253,968	-32,94
254,185	-30,89
254,401	-8,36
254,618	16,21
254,835	-61,61
255,051	178
255,268	30,55
255,484	-16,55
255,701	-12,46
255,917	57,17
256,134	-57,51
256,351	44,88
256,567	14,17
256,784	-65,71
257	-104,62
257,217	34,64
257,433	94,04
257,65	48,98
257,866	196,43
258,082	-16,55
258,299	-18,6
258,515	32,6
258,732	32,6
258,948	-49,32
259,165	24,4
259,381	-67,75
259,597	53,08
259,814	16,21
260,03	-4,27
260,246	-53,42
260,463	48,98
260,679	165,71
260,895	28,5
261,112	69,46
261,328	-12,46
261,544	8,02
261,761	143,19
261,977	-22,7
262,193	-90,28
262,409	48,98
262,626	81,75
262,842	12,12
263,058	-20,65
263,274	48,98
263,49	114,52
263,707	77,65
263,923	55,12
264,139	-77,99
264,355	38,74
264,571	153,43
264,787	34,64
265,004	77,65
265,22	32,6
265,436	-47,27
265,652	-14,51
265,868	38,74
266,084	-121
266,3	10,07
266,516	-24,75
266,732	116,56
266,948	32,6
267,164	-14,51
267,38	143,19
267,596	98,13
267,812	223,06
268,028	57,17
268,244	-28,84
268,46	104,28
268,676	-75,95
268,892	24,4
269,108	-43,18
269,324	-49,32
269,54	-82,09
269,756	91,99
269,972	-49,32
270,188	48,98
270,403	-49,32
270,619	-10,41
270,835	145,24
271,051	-6,31
271,267	-34,99
271,483	-34,99
271,698	79,7
271,914	36,69
272,13	102,23
272,346	77,65
272,562	20,31
272,777	73,56
272,993	-41,13
273,209	-39,08
273,425	79,7
273,64	-24,75
273,856	94,04
274,072	-28,84
274,287	-59,56
274,503	128,85
274,719	81,75
274,934	-12,46
275,15	-43,18
275,366	75,6
275,581	-61,61
275,797	16,21
276,012	16,21
276,228	22,36
276,444	48,98
276,659	141,14
276,875	-47,27
277,09	-102,57
277,306	-67,75
277,521	83,8
277,737	-30,89
277,952	46,93
278,168	85,84
278,383	22,36
278,599	42,84
278,814	106,32
279,03	-16,55
279,245	139,09
279,461	40,79
279,676	147,28
279,892	-47,27
280,107	-108,71
280,322	-37,03
280,538	36,69
280,753	-10,41
280,969	67,41
281,184	22,36
281,399	143,19
281,615	-47,27
281,83	67,41
282,045	-4,27
282,26	-16,55
282,476	32,6
282,691	137,04
282,906	20,31
283,122	40,79
283,337	3,93
283,552	30,55
283,767	67,41
283,983	118,61
284,198	-24,75
284,413	85,84
284,628	-118,95
284,843	42,84
285,058	71,51
285,274	36,69
285,489	-18,6
285,704	128,85
285,919	8,02
286,134	46,93
286,349	24,4
286,564	10,07
286,779	110,42
286,995	38,74
287,21	-112,81
287,425	130,9
287,64	-4,27
287,855	10,07
288,07	-20,65
288,285	163,67
288,5	71,51
288,715	-2,22
288,93	-22,7
289,145	-26,79
289,36	89,94
289,575	-14,51
289,79	130,9
290,004	-108,71
290,219	116,56
290,434	-34,99
290,649	-108,71
290,864	-14,51
291,079	-30,89
291,294	36,69
291,509	106,32
291,724	-24,75
291,938	-61,61
292,153	57,17
292,368	-41,13
292,583	108,37
292,798	89,94
293,012	57,17
293,227	30,55
293,442	20,31
293,657	89,94
293,871	81,75
294,086	87,89
294,301	145,24
294,516	130,9
294,73	48,98
294,945	-12,46
295,16	67,41
295,374	120,66
295,589	42,84
295,804	30,55
296,018	16,21
296,233	89,94
296,447	32,6
296,662	-57,51
296,877	151,38
297,091	98,13
297,306	-20,65
297,52	53,08
297,735	24,4
297,949	40,79
298,164	18,26
298,378	10,07
298,593	-98,47
298,807	-22,7
299,022	16,21
299,236	106,32
299,451	-30,89
299,665	77,65
299,88	-0,17
300,094	48,98
300,309	-28,84
300,523	-0,17
300,737	-49,32
300,952	65,36
301,166	51,03
301,381	-55,47
301,595	5,97
301,809	59,22
302,024	3,93
302,238	-14,51
302,452	118,61
302,667	18,26
302,881	130,9
303,095	120,66
303,309	69,46
303,524	-55,47
303,738	-4,27
303,952	-22,7
304,166	-34,99
304,381	-98,47
304,595	102,23
304,809	22,36
305,023	-16,55
305,237	-34,99
305,452	12,12
305,666	40,79
305,88	91,99
306,094	112,47
306,308	75,6
306,522	57,17
306,736	110,42
306,95	100,18
307,164	57,17
307,379	20,31
307,593	124,76
307,807	114,52
308,021	106,32
308,235	75,6
308,449	-80,04
308,663	-20,65
308,877	206,67
309,091	8,02
309,305	102,23
309,519	-92,33
309,733	57,17
309,947	-73,9
310,161	-2,22
310,374	137,04
310,588	110,42
310,802	-8,36
311,016	-59,56
311,23	83,8
311,444	44,88
311,658	16,21
311,872	104,28
312,085	110,42
312,299	147,28
312,513	75,6
312,727	89,94
312,941	3,93
313,154	-30,89
313,368	30,55
313,582	28,5
313,796	100,18
314,009	8,02
314,223	91,99
314,437	67,41
314,651	63,32
314,864	-39,08
315,078	-4,27
315,292	-63,66
315,505	18,26
315,719	-30,89
315,933	106,32
316,146	-26,79
316,36	42,84
316,573	180,05
316,787	53,08
317,001	98,13
317,214	-0,17
317,428	59,22
317,641	-49,32
317,855	38,74
318,068	-20,65
318,282	18,26
318,495	151,38
318,709	-12,46
318,922	-43,18
319,136	122,71
319,349	85,84
319,563	-26,79
319,776	112,47
319,99	-92,33
320,203	122,71
320,417	-22,7
320,63	28,5
320,843	159,57
321,057	40,79
321,27	-18,6
321,483	120,66
321,697	116,56
321,91	12,12
322,124	42,84
322,337	79,7
322,55	-26,79
322,763	-2,22
322,977	69,46
323,19	-37,03
323,403	20,31
323,617	85,84
323,83	59,22
324,043	34,64
324,256	75,6
324,469	-57,51
324,683	135
324,896	40,79
325,109	44,88
325,322	-73,9
325,535	34,64
325,748	87,89
325,962	-0,17
326,175	28,5
326,388	143,19
326,601	175,95
326,814	-6,31
327,027	-63,66
327,24	167,76
327,453	-43,18
327,666	57,17
327,879	186,19
328,092	24,4
328,305	59,22
328,518	5,97
328,731	-41,13
328,944	-67,75
329,157	116,56
329,37	-30,89
329,583	132,95
329,796	137,04
330,009	-37,03
330,222	159,57
330,435	89,94
330,648	34,64
330,861	10,07
331,073	57,17
331,286	53,08
331,499	112,47
331,712	-90,28
331,925	-39,08
332,138	40,79
332,35	118,61
332,563	-18,6
332,776	130,9
332,989	1,88
333,202	-61,61
333,414	-12,46
333,627	61,27
333,84	28,5
334,053	-39,08
334,265	-14,51
334,478	30,55
334,691	112,47
334,903	81,75
335,116	28,5
335,329	-20,65
335,541	89,94
335,754	100,18
335,966	38,74
336,179	-26,79
336,392	34,64
336,604	-28,84
336,817	59,22
337,029	44,88
337,242	44,88
337,454	69,46
337,667	24,4
337,88	116,56
338,092	34,64
338,305	69,46
338,517	-61,61
338,729	145,24
338,942	124,76
339,154	-53,42
339,367	-71,85
339,579	67,41
339,792	-80,04
340,004	71,51
340,217	-59,56
340,429	77,65
340,641	-39,08
340,854	-57,51
341,066	1,88
341,278	55,12
341,491	171,86
341,703	-4,27
341,915	-47,27
342,128	96,08
342,34	75,6
342,552	-49,32
342,764	-0,17
342,977	85,84
343,189	100,18
343,401	5,97
343,613	-49,32
343,826	-22,7
344,038	120,66
344,25	53,08
344,462	-41,13
344,674	75,6
344,886	-24,75
345,099	53,08
345,311	26,45
345,523	-16,55
345,735	-51,37
345,947	32,6
346,159	55,12
346,371	18,26
346,583	-2,22
346,795	169,81
347,007	-26,79
347,219	73,56
347,431	-14,51
347,643	151,38
347,855	-49,32
348,067	202,58
348,279	-45,23
348,491	16,21
348,703	167,76
348,915	-10,41
349,127	-73,9
349,339	1,88
349,551	18,26
349,763	91,99
349,975	-55,47
350,187	53,08
350,399	147,28
350,61	55,12
350,822	51,03
351,034	-18,6
351,246	-12,46
351,458	104,28
351,669	91,99
351,881	40,79
352,093	165,71
352,305	178
352,517	118,61
352,728	139,09
352,94	5,97
353,152	26,45
353,363	1,88
353,575	106,32
353,787	96,08
353,999	-0,17
354,21	143,19
354,422	-61,61
354,633	40,79
354,845	61,27
355,057	38,74
355,268	-0,17
355,48	71,51
355,692	-45,23
355,903	83,8
356,115	-82,09
356,326	-114,86
356,538	96,08
356,749	46,93
356,961	126,8
357,172	-6,31
357,384	-84,14
357,595	225,11
357,807	-129,19
358,018	-34,99
358,23	-14,51
358,441	16,21
358,653	81,75
358,864	34,64
359,075	-6,31
359,287	98,13
359,498	85,84
359,709	-16,55
359,921	48,98
360,132	104,28
360,344	-6,31
360,555	-28,84
360,766	8,02
360,977	-12,46
361,189	143,19
361,4	26,45
361,611	128,85
361,823	73,56
362,034	-41,13
362,245	-86,19
362,456	83,8
362,667	71,51
362,879	-22,7
363,09	8,02
363,301	20,31
363,512	-8,36
363,723	8,02
363,935	-8,36
364,146	106,32
364,357	18,26
364,568	20,31
364,779	-82,09
364,99	114,52
365,201	-61,61
365,412	22,36
365,623	-59,56
365,834	73,56
366,045	24,4
366,256	69,46
366,467	65,36
366,678	8,02
366,889	67,41
367,1	-65,71
367,311	85,84
367,522	-30,89
367,733	10,07
367,944	98,13
368,155	24,4
368,366	122,71
368,577	30,55
368,788	114,52
368,999	-69,8
369,209	18,26
369,42	198,48
369,631	192,34
369,842	75,6
370,053	20,31
370,264	44,88
370,474	-82,09
370,685	130,9
370,896	77,65
371,107	94,04
371,317	87,89
371,528	16,21
371,739	130,9
371,95	100,18
372,16	91,99
372,371	-67,75
372,582	-63,66
372,792	87,89
373,003	-2,22
373,214	-8,36
373,424	147,28
373,635	-84,14
373,846	102,23
374,056	38,74
374,267	98,13
374,477	73,56
374,688	5,97
374,898	-0,17
375,109	46,93
375,319	20,31
375,53	65,36
375,74	81,75
375,951	30,55
376,161	24,4
376,372	145,24
376,582	-26,79
376,793	77,65
377,003	65,36
377,214	-8,36
377,424	10,07
377,635	-61,61
377,845	-55,47
378,055	102,23
378,266	-67,75
378,476	-53,42
378,686	73,56
378,897	51,03
379,107	91,99
379,317	81,75
379,528	1,88
379,738	40,79
379,948	-63,66
380,158	42,84
380,369	-12,46
380,579	65,36
380,789	-51,37
380,999	-12,46
381,21	151,38
381,42	173,91
381,63	-53,42
381,84	139,09
382,05	75,6
382,261	81,75
382,471	65,36
382,681	-39,08
382,891	120,66
383,101	8,02
383,311	-61,61
383,521	5,97
383,731	42,84
383,941	81,75
384,151	24,4
384,361	16,21
384,571	116,56
384,781	32,6
384,991	243,54
385,201	280,4
385,411	100,18
385,621	73,56
385,831	5,97
386,041	65,36
386,251	8,02
386,461	116,56
386,671	20,31
386,881	46,93
387,091	8,02
387,301	145,24
387,511	28,5
387,72	71,51
387,93	83,8
388,14	-61,61
388,35	44,88
388,56	130,9
388,769	132,95
388,979	40,79
389,189	-4,27
389,399	32,6
389,609	-24,75
389,818	106,32
390,028	32,6
390,238	67,41
390,447	-16,55
390,657	34,64
390,867	36,69
391,076	-82,09
391,286	34,64
391,496	-90,28
391,705	48,98
391,915	53,08
392,125	114,52
392,334	-88,23
392,544	149,33
392,753	102,23
392,963	-57,51
393,172	-37,03
393,382	10,07
393,591	114,52
393,801	20,31
394,01	180,05
394,22	141,14
394,429	16,21
394,639	16,21
394,848	59,22
395,058	100,18
395,267	-20,65
395,477	65,36
395,686	-30,89
395,895	159,57
396,105	255,83
396,314	55,12
396,524	-14,51
396,733	-61,61
396,942	122,71
397,152	83,8
397,361	91,99
397,57	42,84
397,78	10,07
397,989	85,84
398,198	198,48
398,407	-37,03
398,617	40,79
398,826	96,08
399,035	34,64
399,244	94,04
399,453	32,6
399,663	42,84
399,872	53,08
400,081	-26,79
400,29	124,76
400,499	-12,46
400,708	178
400,917	-53,42
401,127	-45,23
401,336	8,02
401,545	182,1
401,754	135
401,963	100,18
402,172	-37,03
402,381	-90,28
402,59	-104,62
402,799	32,6
403,008	57,17
403,217	69,46
403,426	77,65
403,635	-112,81
403,844	-88,23
404,053	10,07
404,262	16,21
404,471	132,95
404,68	65,36
404,888	53,08
405,097	16,21
405,306	-10,41
405,515	81,75
405,724	-43,18
405,933	104,28
406,142	100,18
406,35	67,41
406,559	24,4
406,768	44,88
406,977	126,8
407,185	-14,51
407,394	48,98
407,603	-0,17
407,812	44,88
408,02	132,95
408,229	-34,99
408,438	59,22
408,646	-24,75
408,855	22,36
409,064	18,26
409,272	73,56
409,481	18,26
409,69	34,64
409,898	10,07
410,107	32,6
410,315	10,07
410,524	-57,51
410,733	116,56
410,941	-14,51
411,15	145,24
411,358	75,6
411,567	114,52
411,775	59,22
411,984	48,98
412,192	36,69
412,401	12,12
412,609	145,24
412,818	98,13
413,026	83,8
413,234	32,6
413,443	59,22
413,651	-10,41
413,86	-18,6
414,068	57,17
414,276	169,81
414,485	-22,7
414,693	147,28
414,901	221,01
415,11	85,84
415,318	36,69
415,526	-10,41
415,734	73,56
415,943	28,5
416,151	98,13
416,359	-20,65
416,567	24,4
416,776	114,52
416,984	63,32
417,192	169,81
417,4	-141,48
417,608	-0,17
417,817	-65,71
418,025	83,8
418,233	184,15
418,441	24,4
418,649	-65,71
418,857	28,5
419,065	157,52
419,273	-32,94
419,481	-12,46
419,689	32,6
419,897	-32,94
420,105	-61,61
420,313	65,36
420,521	157,52
420,729	153,43
420,937	-6,31
421,145	-135,34
421,353	110,42
421,561	106,32
421,769	-10,41
421,977	14,17
422,185	102,23
422,393	42,84
422,601	-0,17
422,809	42,84
423,017	-22,7
423,224	20,31
423,432	106,32
423,64	1,88
423,848	75,6
424,056	-57,51
424,263	89,94
424,471	14,17
424,679	151,38
424,887	34,64
425,094	169,81
425,302	81,75
425,51	-34,99
425,718	139,09
425,925	18,26
426,133	-8,36
426,341	173,91
426,548	-34,99
426,756	-4,27
426,964	102,23
427,171	-26,79
427,379	32,6
427,586	38,74
427,794	71,51
428,001	77,65
428,209	-4,27
428,417	141,14
428,624	89,94
428,832	-22,7
429,039	5,97
429,247	46,93
429,454	65,36
429,662	192,34
429,869	-8,36
430,076	79,7
430,284	108,37
430,491	94,04
430,699	106,32
430,906	206,67
431,114	48,98
431,321	65,36
431,528	-2,22
431,736	71,51
431,943	87,89
432,15	65,36
432,358	61,27
432,565	128,85
432,772	-102,57
432,979	59,22
433,187	24,4
433,394	171,86
433,601	-118,95
433,808	102,23
434,016	96,08
434,223	20,31
434,43	83,8
434,637	100,18
434,844	22,36
435,052	36,69
435,259	55,12
435,466	89,94
435,673	118,61
435,88	24,4
436,087	165,71
436,294	214,87
436,501	59,22
436,708	32,6
436,915	112,47
437,122	161,62
437,329	24,4
437,537	51,03
437,743	20,31
437,95	124,76
438,157	53,08
438,364	-2,22
438,571	75,6
438,778	96,08
438,985	118,61
439,192	108,37
439,399	59,22
439,606	98,13
439,813	83,8
440,02	151,38
440,227	212,82
440,433	167,76
440,64	75,6
440,847	-2,22
441,054	73,56
441,261	151,38
441,467	89,94
441,674	-49,32
441,881	139,09
442,088	59,22
442,294	46,93
442,501	108,37
442,708	173,91
442,914	32,6
443,121	147,28
443,328	130,9
443,534	165,71
443,741	155,47
443,948	-8,36
444,154	63,32
444,361	304,98
444,568	100,18
444,774	98,13
444,981	-57,51
445,187	233,3
445,394	106,32
445,6	28,5
445,807	139,09
446,013	24,4
446,22	-24,75
446,426	81,75
446,633	163,67
446,839	196,43
447,046	-16,55
447,252	116,56
447,459	53,08
447,665	81,75
447,871	89,94
448,078	147,28
448,284	188,24
448,491	221,01
448,697	188,24
448,903	251,73
449,11	145,24
449,316	83,8
449,522	231,25
449,728	163,67
449,935	143,19
450,141	122,71
450,347	192,34
450,553	120,66
450,76	155,47
450,966	155,47
451,172	192,34
451,378	165,71
451,584	169,81
451,791	298,83
451,997	157,52
452,203	137,04
452,409	196,43
452,615	315,22
452,821	167,76
453,027	89,94
453,233	237,39
453,44	155,47
453,646	186,19
453,852	89,94
454,058	48,98
454,264	218,96
454,47	178
454,676	106,32
454,882	167,76
455,088	155,47
455,294	112,47
455,5	237,39
455,705	223,06
455,911	157,52
456,117	98,13
456,323	171,86
456,529	165,71
456,735	118,61
456,941	188,24
457,147	221,01
457,352	245,59
457,558	85,84
457,764	137,04
457,97	108,37
458,176	223,06
458,381	171,86
458,587	257,87
458,793	190,29
458,999	161,62
459,204	141,14
459,41	153,43
459,616	110,42
459,821	118,61
460,027	-6,31
460,233	204,63
460,438	329,55
460,644	116,56
460,85	206,67
461,055	155,47
461,261	282,45
461,466	81,75
461,672	106,32
461,878	87,89
462,083	257,87
462,289	-16,55
462,494	51,03
462,7	286,54
462,905	124,76
463,111	106,32
463,316	171,86
463,522	229,2
463,727	73,56
463,932	192,34
464,138	157,52
464,343	157,52
464,549	268,11
464,754	241,49
464,959	233,3
465,165	89,94
465,37	196,43
465,575	139,09
465,781	100,18
465,986	40,79
466,191	114,52
466,397	110,42
466,602	286,54
466,807	149,33
467,012	196,43
467,218	184,15
467,423	169,81
467,628	48,98
467,833	122,71
468,038	122,71
468,244	65,36
468,449	48,98
468,654	161,62
468,859	108,37
469,064	91,99
469,269	173,91
469,474	178
469,679	276,31
469,885	137,04
470,09	128,85
470,295	139,09
470,5	143,19
470,705	214,87
470,91	132,95
471,115	231,25
471,32	130,9
471,525	290,64
471,73	206,67
471,935	137,04
472,139	48,98
472,344	100,18
472,549	165,71
472,754	245,59
472,959	194,39
473,164	149,33
473,369	147,28
473,574	255,83
473,778	188,24
473,983	221,01
474,188	245,59
474,393	94,04
474,598	194,39
474,802	126,8
475,007	196,43
475,212	200,53
475,417	63,32
475,621	221,01
475,826	67,41
476,031	167,76
476,235	137,04
476,44	102,23
476,645	118,61
476,849	135
477,054	14,17
477,259	69,46
477,463	223,06
477,668	335,7
477,872	202,58
478,077	149,33
478,282	38,74
478,486	114,52
478,691	104,28
478,895	96,08
479,1	196,43
479,304	188,24
479,509	116,56
479,713	251,73
479,918	159,57
480,122	44,88
480,326	100,18
480,531	153,43
480,735	167,76
480,94	106,32
481,144	257,87
481,348	128,85
481,553	192,34
481,757	98,13
481,961	89,94
482,166	118,61
482,37	55,12
482,574	161,62
482,778	32,6
482,983	159,57
483,187	141,14
483,391	91,99
483,595	40,79
483,8	214,87
484,004	245,59
484,208	161,62
484,412	188,24
484,616	241,49
484,821	161,62
485,025	87,89
485,229	46,93
485,433	200,53
485,637	94,04
485,841	81,75
486,045	196,43
486,249	227,15
486,453	130,9
486,657	98,13
486,861	1,88
487,065	161,62
487,269	153,43
487,473	106,32
487,677	83,8
487,881	364,37
488,085	221,01
488,289	190,29
488,493	114,52
488,697	315,22
488,901	145,24
489,105	94,04
489,309	63,32
489,512	212,82
489,716	214,87
489,92	128,85
490,124	231,25
490,328	278,35
490,531	108,37
490,735	249,68
490,939	116,56
491,143	237,39
491,346	124,76
491,55	114,52
491,754	106,32
491,958	171,86
492,161	237,39
492,365	100,18
492,569	141,14
492,772	182,1
492,976	304,98
493,18	165,71
493,383	163,67
493,587	159,57
493,79	249,68
493,994	116,56
494,197	169,81
494,401	139,09
494,605	67,41
494,808	46,93
495,012	200,53
495,215	339,79
495,419	266,07
495,622	233,3
495,825	108,37
496,029	126,8
496,232	165,71
496,436	118,61
496,639	249,68
496,843	102,23
497,046	106,32
497,249	266,07
497,453	202,58
497,656	102,23
497,859	165,71
498,063	227,15
498,266	165,71
498,469	124,76
498,673	163,67
498,876	225,11
499,079	135
499,282	165,71
499,485	491,34
499,689	225,11
499,892	247,63
500,095	130,9
500,298	178
500,501	-4,27
500,705	124,76
500,908	188,24
501,111	149,33
501,314	255,83
501,517	235,35
501,72	151,38
501,923	202,58
502,126	100,18
502,329	247,63
502,532	221,01
502,735	137,04
502,938	233,3
503,141	268,11
503,344	83,8
503,547	360,27
503,75	155,47
503,953	132,95
504,156	266,07
504,359	208,72
504,562	145,24
504,765	194,39
504,968	296,78
505,17	184,15
505,373	259,92
505,576	270,16
505,779	298,83
505,982	141,14
506,185	157,52
506,387	132,95
506,59	229,2
506,793	245,59
506,996	233,3
507,198	272,21
507,401	374,61
507,604	335,7
507,807	335,7
508,009	276,31
508,212	284,5
508,415	290,64
508,617	194,39
508,82	221,01
509,022	175,95
509,225	212,82
509,428	214,87
509,63	284,5
509,833	221,01
510,035	419,66
510,238	259,92
510,44	171,86
510,643	261,97
510,845	341,84
511,048	372,56
511,25	239,44
511,453	259,92
511,655	286,54
511,858	360,27
512,06	479,05
512,262	264,02
512,465	261,97
512,667	286,54
512,87	175,95
513,072	302,93
513,274	284,5
513,477	261,97
513,679	270,16
513,881	247,63
514,084	229,2
514,286	292,69
514,488	347,98
514,69	243,54
514,893	225,11
515,095	264,02
515,297	241,49
515,499	309,07
515,701	188,24
515,904	304,98
516,106	380,75
516,308	218,96
516,51	241,49
516,712	360,27
516,914	264,02
517,116	208,72
517,318	319,31
517,52	192,34
517,722	298,83
517,925	249,68
518,127	229,2
518,329	300,88
518,531	196,43
518,733	343,89
518,935	259,92
519,136	323,41
519,338	249,68
519,54	294,74
519,742	257,87
519,944	401,23
520,146	290,64
520,348	319,31
520,55	403,28
520,752	198,48
520,954	251,73
521,155	343,89
521,357	235,35
521,559	268,11
521,761	438,09
521,963	270,16
522,164	362,32
522,366	327,5
522,568	395,09
522,77	339,79
522,971	341,84
523,173	218,96
523,375	411,47
523,576	268,11
523,778	257,87
523,98	307,02
524,181	421,71
524,383	335,7
524,584	229,2
524,786	264,02
524,988	261,97
525,189	294,74
525,391	370,51
525,592	261,97
525,794	194,39
525,995	339,79
526,197	384,85
526,398	489,29
526,6	399,18
526,801	358,22
527,003	233,3
527,204	304,98
527,406	331,6
527,607	380,75
527,808	214,87
528,01	343,89
528,211	434
528,412	286,54
528,614	470,86
528,815	507,73
529,016	466,77
529,218	405,33
529,419	401,23
529,62	397,14
529,822	499,53
530,023	493,39
530,224	761,67
530,425	1132,36
530,626	1548,09
530,828	2344,75
531,029	3460,9
531,23	5603,07
531,431	8437,46
531,632	13026,96
531,833	18464,32
532,035	24378,85
532,236	30569,86
532,437	36740,39
532,638	40432,88
532,839	45085,86
533,04	48755,82
533,241	50099,29
533,442	50699,34
533,643	49060,97
533,844	46462,1
534,045	43072,71
534,246	38632,71
534,447	33580,37
534,648	28530,08
534,849	24298,98
535,05	19811,88
535,251	16004,71
535,451	12541,59
535,652	10000,06
535,853	7636,7
536,054	5879,55
536,255	3933,98
536,456	2811,69
536,657	1840,95
536,857	1367,87
537,058	902,98
537,259	761,67
537,46	591,69
537,66	526,16
537,861	438,09
538,062	446,29
538,263	274,26
538,463	485,2
538,664	436,05
538,865	249,68
539,065	339,79
539,266	395,09
539,466	345,94
539,667	407,38
539,868	264,02
540,068	343,89
540,269	487,25
540,469	313,17
540,67	458,57
540,87	368,46
541,071	229,2
541,271	376,66
541,472	339,79
541,672	395,09
541,873	216,91
542,073	247,63
542,274	247,63
542,474	345,94
542,675	343,89
542,875	288,59
543,075	196,43
543,276	237,39
543,476	284,5
543,676	272,21
543,877	247,63
544,077	313,17
544,277	409,42
544,478	276,31
544,678	296,78
544,878	261,97
545,078	243,54
545,279	245,59
545,479	202,58
545,679	198,48
545,879	284,5
546,079	290,64
546,28	196,43
546,48	278,35
546,68	292,69
546,88	333,65
547,08	286,54
547,28	382,8
547,48	190,29
547,68	319,31
547,88	194,39
548,081	270,16
548,281	178
548,481	200,53
548,681	239,44
548,881	249,68
549,081	257,87
549,28	261,97
549,48	192,34
549,68	438,09
549,88	190,29
550,08	243,54
550,28	178
550,48	397,14
550,68	311,12
550,88	261,97
551,08	202,58
551,279	393,04
551,479	116,56
551,679	292,69
551,879	192,34
552,079	198,48
552,278	368,46
552,478	436,05
552,678	331,6
552,878	298,83
553,077	245,59
553,277	253,78
553,477	221,01
553,676	253,78
553,876	278,35
554,076	237,39
554,275	298,83
554,475	343,89
554,674	331,6
554,874	212,82
555,074	280,4
555,273	245,59
555,473	364,37
555,672	221,01
555,872	335,7
556,071	302,93
556,271	296,78
556,47	323,41
556,67	212,82
556,869	237,39
557,068	175,95
557,268	276,31
557,467	212,82
557,667	413,52
557,866	159,57
558,065	274,26
558,265	255,83
558,464	221,01
558,663	270,16
558,863	257,87
559,062	251,73
559,261	190,29
559,461	288,59
559,66	208,72
559,859	175,95
560,058	196,43
560,258	190,29
560,457	245,59
560,656	399,18
560,855	180,05
561,054	339,79
561,253	352,08
561,453	311,12
561,652	249,68
561,851	339,79
562,05	233,3
562,249	167,76
562,448	368,46
562,647	161,62
562,846	253,78
563,045	286,54
563,244	257,87
563,443	302,93
563,642	300,88
563,841	280,4
564,04	221,01
564,239	245,59
564,438	272,21
564,637	106,32
564,836	221,01
565,035	270,16
565,234	229,2
565,432	225,11
565,631	261,97
565,83	204,63
566,029	204,63
566,228	198,48
566,427	270,16
566,625	214,87
566,824	315,22
567,023	321,36
567,222	155,47
567,42	253,78
567,619	196,43
567,818	347,98
568,016	460,62
568,215	249,68
568,414	345,94
568,612	218,96
568,811	247,63
569,01	180,05
569,208	313,17
569,407	270,16
569,605	282,45
569,804	292,69
570,002	227,15
570,201	163,67
570,4	274,26
570,598	261,97
570,797	245,59
570,995	155,47
571,193	264,02
571,392	259,92
571,59	223,06
571,789	255,83
571,987	245,59
572,186	352,08
572,384	212,82
572,582	221,01
572,781	380,75
572,979	182,1
573,177	280,4
573,376	229,2
573,574	323,41
573,772	237,39
573,971	130,9
574,169	180,05
574,367	290,64
574,565	204,63
574,763	227,15
574,962	261,97
575,16	163,67
575,358	124,76
575,556	270,16
575,754	202,58
575,952	257,87
576,151	225,11
576,349	214,87
576,547	61,27
576,745	253,78
576,943	266,07
577,141	296,78
577,339	196,43
577,537	247,63
577,735	296,78
577,933	229,2
578,131	221,01
578,329	393,04
578,527	167,76
578,725	225,11
578,923	139,09
579,121	294,74
579,319	89,94
579,516	204,63
579,714	372,56
579,912	304,98
580,11	85,84
580,308	243,54
580,506	192,34
580,704	85,84
580,901	216,91
581,099	292,69
581,297	237,39
581,495	239,44
581,692	225,11
581,89	352,08
582,088	225,11
582,285	251,73
582,483	165,71
582,681	200,53
582,878	221,01
583,076	237,39
583,274	208,72
583,471	376,66
583,669	292,69
583,866	200,53
584,064	153,43
584,262	188,24
584,459	180,05
584,657	354,13
584,854	227,15
585,052	337,74
585,249	331,6
585,447	245,59
585,644	157,52
585,841	288,59
586,039	286,54
586,236	309,07
586,434	192,34
586,631	223,06
586,828	206,67
587,026	286,54
587,223	122,71
587,42	178
587,618	268,11
587,815	313,17
588,012	300,88
588,21	165,71
588,407	372,56
588,604	276,31
588,801	180,05
588,999	221,01
589,196	331,6
589,393	241,49
589,59	233,3
589,787	343,89
589,984	212,82
590,182	288,59
590,379	270,16
590,576	204,63
590,773	319,31
590,97	135
591,167	270,16
591,364	237,39
591,561	229,2
591,758	288,59
591,955	352,08
592,152	319,31
592,349	214,87
592,546	135
592,743	159,57
592,94	229,2
593,137	255,83
593,334	337,74
593,531	405,33
593,727	331,6
593,924	229,2
594,121	225,11
594,318	223,06
594,515	272,21
594,712	364,37
594,908	354,13
595,105	208,72
595,302	292,69
595,499	237,39
595,696	341,84
595,892	216,91
596,089	292,69
596,286	198,48
596,482	350,03
596,679	335,7
596,876	237,39
597,072	345,94
597,269	247,63
597,466	208,72
597,662	286,54
597,859	223,06
598,055	266,07
598,252	337,74
598,448	223,06
598,645	321,36
598,841	294,74
599,038	417,61
599,234	411,47
599,431	315,22
599,627	204,63
599,824	245,59
600,02	270,16
600,217	122,71
600,413	245,59
600,609	249,68
600,806	550,73
601,002	302,93
601,198	73,56
601,395	403,28
601,591	304,98
601,787	214,87
601,984	264,02
602,18	337,74
602,376	210,77
602,572	345,94
602,769	329,55
602,965	264,02
603,161	343,89
603,357	321,36
603,553	366,42
603,75	173,91
603,946	280,4
604,142	216,91
604,338	446,29
604,534	214,87
604,73	294,74
604,926	264,02
605,122	292,69
605,318	319,31
605,514	337,74
605,71	251,73
605,906	431,95
606,102	196,43
606,298	378,7
606,494	343,89
606,69	472,91
606,886	200,53
607,082	247,63
607,278	214,87
607,474	317,26
607,67	307,02
607,866	190,29
608,062	360,27
608,257	331,6
608,453	192,34
608,649	282,45
608,845	292,69
609,041	231,25
609,236	290,64
609,432	302,93
609,628	347,98
609,824	409,42
610,019	286,54
610,215	233,3
610,411	403,28
610,606	462,67
610,802	208,72
610,998	292,69
611,193	421,71
611,389	194,39
611,584	386,9
611,78	157,52
611,976	208,72
612,171	364,37
612,367	343,89
612,562	327,5
612,758	290,64
612,953	212,82
613,149	225,11
613,344	319,31
613,539	210,77
613,735	302,93
613,93	247,63
614,126	229,2
614,321	304,98
614,517	454,48
614,712	270,16
614,907	311,12
615,103	266,07
615,298	233,3
615,493	128,85
615,688	253,78
615,884	325,46
616,079	253,78
616,274	270,16
616,47	245,59
616,665	175,95
616,86	208,72
617,055	261,97
617,25	229,2
617,445	264,02
617,641	237,39
617,836	192,34
618,031	278,35
618,226	309,07
618,421	274,26
618,616	163,67
618,811	237,39
619,006	313,17
619,201	368,46
619,396	288,59
619,591	157,52
619,786	321,36
619,981	311,12
620,176	280,4
620,371	284,5
620,566	296,78
620,761	427,85
620,956	335,7
621,151	282,45
621,346	292,69
621,541	184,15
621,735	378,7
621,93	276,31
622,125	184,15
622,32	261,97
622,515	173,91
622,709	304,98
622,904	403,28
623,099	221,01
623,294	364,37
623,488	350,03
623,683	286,54
623,878	280,4
624,072	352,08
624,267	229,2
624,462	247,63
624,656	98,13
624,851	237,39
625,046	151,38
625,24	253,78
625,435	292,69
625,629	309,07
625,824	380,75
626,018	311,12
626,213	393,04
626,407	272,21
626,602	333,65
626,796	307,02
626,991	304,98
627,185	241,49
627,38	194,39
627,574	278,35
627,768	253,78
627,963	274,26
628,157	212,82
628,352	235,35
628,546	159,57
628,74	294,74
628,935	147,28
629,129	167,76
629,323	255,83
629,517	83,8
629,712	171,86
629,906	243,54
630,1	280,4
630,294	319,31
630,489	315,22
630,683	186,19
630,877	139,09
631,071	317,26
631,265	212,82
631,459	307,02
631,653	216,91
631,848	315,22
632,042	196,43
632,236	255,83
632,43	315,22
632,624	245,59
632,818	218,96
633,012	253,78
633,206	249,68
633,4	198,48
633,594	296,78
633,788	274,26
633,982	266,07
634,176	261,97
634,369	188,24
634,563	204,63
634,757	130,9
634,951	280,4
635,145	278,35
635,339	233,3
635,533	233,3
635,726	304,98
635,92	327,5
636,114	169,81
636,308	180,05
636,501	153,43
636,695	327,5
636,889	122,71
637,083	321,36
637,276	194,39
637,47	106,32
637,664	165,71
637,857	278,35
638,051	249,68
638,244	249,68
638,438	182,1
638,632	415,57
638,825	135
639,019	247,63
639,212	192,34
639,406	225,11
639,599	184,15
639,793	257,87
639,986	249,68
640,18	317,26
640,373	190,29
640,567	175,95
640,76	243,54
640,954	278,35
641,147	155,47
641,34	163,67
641,534	221,01
641,727	278,35
641,92	360,27
642,114	178
642,307	229,2
642,5	307,02
642,694	227,15
642,887	190,29
643,08	339,79
643,273	247,63
643,467	243,54
643,66	184,15
643,853	98,13
644,046	231,25
644,239	272,21
644,432	61,27
644,626	65,36
644,819	225,11
645,012	126,8
645,205	206,67
645,398	251,73
645,591	212,82
645,784	87,89
645,977	104,28
646,17	186,19
646,363	221,01
646,556	48,98
646,749	126,8
646,942	282,45
647,135	225,11
647,328	151,38
647,521	159,57
647,714	225,11
647,907	171,86
648,099	147,28
648,292	239,44
648,485	171,86
648,678	163,67
648,871	128,85
649,064	249,68
649,256	79,7
649,449	112,47
649,642	126,8
649,835	57,17
650,027	126,8
650,22	288,59
650,413	190,29
650,605	202,58
650,798	137,04
650,991	196,43
651,183	190,29
651,376	163,67
651,568	206,67
651,761	137,04
651,954	157,52
652,146	149,33
652,339	210,77
652,531	255,83
652,724	112,47
652,916	175,95
653,109	20,31
653,301	319,31
653,494	194,39
653,686	149,33
653,879	294,74
654,071	124,76
654,263	135
654,456	141,14
654,648	147,28
654,84	259,92
655,033	157,52
655,225	278,35
655,417	-6,31
655,61	278,35
655,802	229,2
655,994	255,83
656,186	61,27
656,379	239,44
656,571	106,32
656,763	94,04
656,955	161,62
657,148	114,52
657,34	266,07
657,532	91,99
657,724	114,52
657,916	139,09
658,108	239,44
658,3	147,28
658,492	130,9
658,684	-55,47
658,876	216,91
659,068	59,22
659,26	22,36
659,452	79,7
659,644	124,76
659,836	304,98
660,028	112,47
660,22	44,88
660,412	112,47
660,604	208,72
660,796	163,67
660,988	151,38
661,18	157,52
661,372	184,15
661,563	128,85
661,755	116,56
661,947	67,41
662,139	75,6
662,331	100,18
662,522	124,76
662,714	81,75
662,906	100,18
663,097	110,42
663,289	114,52
663,481	46,93
663,673	137,04
663,864	304,98
664,056	206,67
664,247	48,98
664,439	221,01
664,631	130,9
664,822	188,24
665,014	198,48
665,205	96,08
665,397	69,46
665,588	114,52
665,78	75,6
665,971	165,71
666,163	79,7
666,354	116,56
666,546	24,4
666,737	106,32
666,929	53,08
667,12	32,6
667,311	171,86
667,503	71,51
667,694	171,86
667,885	132,95
668,077	208,72
668,268	-0,17
668,459	139,09
668,651	149,33
668,842	151,38
669,033	18,26
669,224	24,4
669,416	225,11
669,607	57,17
669,798	38,74
669,989	233,3
670,18	147,28
670,371	190,29
670,563	24,4
670,754	163,67
670,945	173,91
671,136	161,62
671,327	59,22
671,518	212,82
671,709	221,01
671,9	200,53
672,091	294,74
672,282	63,32
672,473	79,7
672,664	61,27
672,855	67,41
673,046	100,18
673,237	163,67
673,428	77,65
673,619	216,91
673,809	40,79
674	173,91
674,191	143,19
674,382	42,84
674,573	143,19
674,764	122,71
674,954	147,28
675,145	-10,41
675,336	59,22
675,527	42,84
675,717	53,08
675,908	36,69
676,099	12,12
676,289	106,32
676,48	-75,95
676,671	104,28
676,861	96,08
677,052	75,6
677,243	65,36
677,433	3,93
677,624	182,1
677,814	116,56
678,005	85,84
678,195	231,25
678,386	-4,27
678,576	108,37
678,767	20,31
678,957	130,9
679,148	122,71
679,338	122,71
679,529	73,56
679,719	114,52
679,909	221,01
680,1	155,47
680,29	182,1
680,481	-96,43
680,671	139,09
680,861	96,08
681,052	81,75
681,242	30,55
681,432	139,09
681,622	104,28
681,813	-45,23
682,003	98,13
682,193	-12,46
682,383	51,03
682,573	55,12
682,764	57,17
682,954	73,56
683,144	114,52
683,334	40,79
683,524	-49,32
683,714	61,27
683,904	163,67
684,094	71,51
684,284	53,08
684,474	182,1
684,664	44,88
684,854	141,14
685,044	57,17
685,234	91,99
685,424	73,56
685,614	-39,08
685,804	206,67
685,994	87,89
686,184	36,69
686,374	46,93
686,564	81,75
686,753	75,6
686,943	1,88
687,133	24,4
687,323	112,47
687,513	69,46
687,702	132,95
687,892	61,27
688,082	167,76
688,272	85,84
688,461	18,26
688,651	173,91
688,841	89,94
689,03	-30,89
689,22	40,79
689,41	71,51
689,599	122,71
689,789	-106,67
689,979	149,33
690,168	-73,9
690,358	130,9
690,547	91,99
690,737	124,76
690,926	30,55
691,116	30,55
691,305	106,32
691,495	135
691,684	10,07
691,874	8,02
692,063	73,56
692,252	151,38
692,442	151,38
692,631	-28,84
692,82	30,55
693,01	108,37
693,199	65,36
693,388	116,56
693,578	69,46
693,767	198,48
693,956	184,15
694,146	51,03
694,335	110,42
694,524	73,56
694,713	67,41
694,902	28,5
695,092	-6,31
695,281	94,04
695,47	94,04
695,659	77,65
695,848	96,08
696,037	42,84
696,226	128,85
696,415	24,4
696,604	137,04
696,793	132,95
696,982	102,23
697,171	229,2
697,36	26,45
697,549	81,75
697,738	3,93
697,927	83,8
698,116	77,65
698,305	147,28
698,494	96,08
698,683	-55,47
698,872	171,86
699,061	36,69
699,25	-20,65
699,438	51,03
699,627	3,93
699,816	167,76
700,005	44,88
700,193	-53,42
700,382	96,08
700,571	135
700,76	91,99
700,948	124,76
701,137	118,61
701,326	106,32
701,514	48,98
701,703	100,18
701,892	118,61
702,08	229,2
702,269	57,17
702,457	28,5
702,646	48,98
702,834	-39,08
703,023	65,36
703,212	139,09
703,4	40,79
703,589	10,07
703,777	61,27
703,965	-18,6
704,154	10,07
704,342	-4,27
704,531	55,12
704,719	89,94
704,907	143,19
705,096	-37,03
705,284	-4,27
705,472	130,9
705,661	122,71
705,849	151,38
706,037	188,24
706,226	87,89
706,414	126,8
706,602	-39,08
706,79	132,95
706,979	-47,27
707,167	94,04
707,355	-16,55
707,543	116,56
707,731	85,84
707,919	-2,22
708,107	161,62
708,296	-28,84
708,484	5,97
708,672	34,64
708,86	75,6
709,048	79,7
709,236	-34,99
709,424	106,32
709,612	53,08
709,8	-82,09
709,988	83,8
710,176	79,7
710,364	114,52
710,551	96,08
710,739	5,97
710,927	16,21
711,115	79,7
711,303	85,84
711,491	208,72
711,679	5,97
711,866	75,6
712,054	-2,22
712,242	63,32
712,43	210,77
712,617	53,08
712,805	89,94
712,993	10,07
713,181	-49,32
713,368	98,13
713,556	77,65
713,744	14,17
713,931	161,62
714,119	102,23
714,306	108,37
714,494	-8,36
714,682	22,36
714,869	-108,71
715,057	67,41
715,244	1,88
715,432	55,12
715,619	38,74
715,807	10,07
715,994	-2,22
716,182	77,65
716,369	114,52
716,556	69,46
716,744	-63,66
716,931	5,97
717,119	130,9
717,306	-14,51
717,493	180,05
717,681	20,31
717,868	3,93
718,055	48,98
718,242	-75,95
718,43	73,56
718,617	79,7
718,804	-2,22
718,991	106,32
719,179	116,56
719,366	38,74
719,553	28,5
719,74	18,26
719,927	-47,27
720,114	42,84
720,301	-18,6
720,488	-59,56
720,676	-16,55
720,863	171,86
721,05	206,67
721,237	5,97
721,424	110,42
721,611	55,12
721,798	-16,55
721,985	-71,85
722,172	-47,27
722,358	10,07
722,545	85,84
722,732	26,45
722,919	122,71
723,106	110,42
723,293	16,21
723,48	1,88
723,667	46,93
723,853	53,08
724,04	42,84
724,227	149,33
724,414	-10,41
724,6	94,04
724,787	163,67
724,974	110,42
725,161	-18,6
725,347	-67,75
725,534	3,93
725,72	122,71
725,907	100,18
726,094	128,85
726,28	-20,65
726,467	-55,47
726,653	44,88
726,84	100,18
727,027	200,53
727,213	5,97
727,4	151,38
727,586	3,93
727,773	48,98
727,959	94,04
728,145	71,51
728,332	98,13
728,518	-0,17
728,705	34,64
728,891	57,17
729,077	94,04
729,264	-110,76
729,45	-20,65
729,636	126,8
729,823	89,94
730,009	100,18
730,195	120,66
730,382	85,84
730,568	-30,89
730,754	-12,46
730,94	-22,7
731,126	-49,32
731,313	83,8
731,499	-4,27
731,685	53,08
731,871	65,36
732,057	48,98
732,243	18,26
732,429	46,93
732,615	208,72
732,801	53,08
732,987	44,88
733,173	8,02
733,359	12,12
733,545	102,23
733,731	24,4
733,917	53,08
734,103	59,22
734,289	102,23
734,475	-47,27
734,661	223,06
734,847	55,12
735,033	16,21
735,219	122,71
735,404	-18,6
735,59	59,22
735,776	5,97
735,962	-8,36
736,148	130,9
736,333	157,52
736,519	-12,46
736,705	100,18
736,89	18,26
737,076	46,93
737,262	-139,43
737,447	-47,27
737,633	-51,37
737,819	114,52
738,004	32,6
738,19	108,37
738,375	38,74
738,561	100,18
738,747	-4,27
738,932	-37,03
739,118	102,23
739,303	51,03
739,489	51,03
739,674	16,21
739,859	-114,86
740,045	120,66
740,23	24,4
740,416	-71,85
740,601	61,27
740,786	130,9
740,972	-10,41
741,157	-59,56
741,342	-39,08
741,528	-12,46
741,713	40,79
741,898	-26,79
742,084	-30,89
742,269	83,8
742,454	48,98
742,639	63,32
742,824	73,56
743,01	221,01
743,195	171,86
743,38	100,18
743,565	-12,46
743,75	48,98
743,935	135
744,12	104,28
744,305	-8,36
744,49	10,07
744,675	42,84
744,86	12,12
745,045	94,04
745,23	69,46
745,415	75,6
745,6	124,76
745,785	-22,7
745,97	55,12
746,155	128,85
746,34	94,04
746,525	69,46
746,71	255,83
746,895	-71,85
747,079	-14,51
747,264	-18,6
747,449	126,8
747,634	141,14
747,819	28,5
748,003	-32,94
748,188	-53,42
748,373	100,18
748,557	34,64
748,742	44,88
748,927	26,45
749,111	1,88
749,296	-43,18
749,481	98,13
749,665	61,27
749,85	67,41
750,034	59,22
750,219	26,45
750,404	81,75
750,588	55,12
750,773	-69,8
750,957	67,41
751,141	16,21
751,326	147,28
751,51	-57,51
751,695	87,89
751,879	-47,27
752,064	235,35
752,248	137,04
752,432	178
752,617	77,65
752,801	141,14
752,985	20,31
753,17	145,24
753,354	34,64
753,538	48,98
753,722	-34,99
753,907	20,31
754,091	-6,31
754,275	79,7
754,459	-69,8
754,643	16,21
754,828	100,18
755,012	59,22
755,196	1,88
755,38	55,12
755,564	-8,36
755,748	51,03
755,932	51,03
756,116	83,8
756,3	135
756,484	-4,27
756,668	71,51
756,852	-73,9
757,036	-6,31
757,22	51,03
757,404	-32,94
757,588	-16,55
757,772	79,7
757,956	46,93
758,14	118,61
758,323	-59,56
758,507	30,55
758,691	28,5
758,875	73,56
759,059	171,86
759,242	-69,8
759,426	-12,46
759,61	102,23
759,794	10,07
759,977	65,36
760,161	261,97
760,345	106,32
760,528	139,09
760,712	75,6
760,895	5,97
761,079	24,4
761,263	-77,99
761,446	-34,99
761,63	71,51
761,813	112,47
761,997	-32,94
762,18	-2,22
762,364	53,08
762,547	-94,38
762,731	48,98
762,914	5,97
763,098	-30,89
763,281	38,74
763,464	-4,27
763,648	3,93
763,831	-20,65
764,015	-37,03
764,198	128,85
764,381	-4,27
764,564	32,6
764,748	3,93
764,931	36,69
765,114	5,97
765,297	48,98
765,481	-47,27
765,664	-22,7
765,847	3,93
766,03	161,62
766,213	-86,19
766,397	59,22
766,58	-32,94
766,763	110,42
766,946	42,84
767,129	-41,13
767,312	-69,8
767,495	-43,18
767,678	-28,84
767,861	48,98
768,044	1,88
768,227	-34,99
768,41	91,99
768,593	-16,55
768,776	8,02
768,959	20,31
769,142	149,33
769,324	-84,14
769,507	8,02
769,69	1,88
769,873	-94,38
770,056	188,24
770,239	5,97
770,421	81,75
770,604	75,6
770,787	40,79
770,97	5,97
771,152	-16,55
771,335	102,23
771,518	-80,04
771,7	16,21
771,883	204,63
772,066	-51,37
772,248	1,88
772,431	126,8
772,613	57,17
772,796	-0,17
772,978	48,98
773,161	171,86
773,343	-4,27
773,526	-12,46
773,708	-61,61
773,891	-0,17
774,073	8,02
774,256	104,28
774,438	208,72
774,621	44,88
774,803	77,65
774,985	-51,37
775,168	36,69
775,35	10,07
775,532	42,84
775,715	-37,03
775,897	24,4
776,079	34,64
776,261	91,99
776,444	28,5
776,626	122,71
776,808	26,45
776,99	-110,76
777,173	46,93
777,355	-45,23
777,537	12,12
777,719	-26,79
777,901	-16,55
778,083	-16,55
778,265	-71,85
778,447	75,6
778,629	-24,75
778,811	91,99
778,993	61,27
779,175	67,41
779,357	18,26
779,539	-73,9
779,721	-6,31
779,903	44,88
780,085	12,12
780,267	48,98
780,449	36,69
780,631	79,7
780,812	130,9
780,994	26,45
781,176	73,56
781,358	24,4
781,54	10,07
781,721	132,95
781,903	114,52
782,085	-14,51
782,267	149,33
782,448	-100,52
782,63	-16,55
782,812	75,6
782,993	83,8
783,175	96,08
783,357	-20,65
783,538	40,79
783,72	18,26
783,901	89,94
784,083	139,09
784,264	12,12
784,446	-57,51
784,627	-45,23
784,809	59,22
784,99	20,31
785,172	42,84
785,353	-2,22
785,535	14,17
785,716	-14,51
785,897	10,07
786,079	-32,94
786,26	18,26
786,441	59,22
786,623	-135,34
786,804	-41,13
786,985	77,65
787,167	110,42
787,348	110,42
787,529	34,64
787,71	130,9
787,891	22,36
788,073	20,31
788,254	-45,23
788,435	163,67
788,616	89,94
788,797	-147,62
788,978	-49,32
789,159	-10,41
789,34	83,8
789,522	8,02
789,703	-32,94
789,884	77,65
790,065	-8,36
790,246	124,76
790,427	-34,99
790,607	180,05
790,788	128,85
790,969	42,84
791,15	32,6
791,331	-34,99
791,512	-73,9
791,693	-63,66
791,874	12,12
792,054	161,62
792,235	81,75
792,416	-8,36
792,597	-63,66
792,778	24,4
792,958	-32,94
793,139	65,36
793,32	-0,17
793,5	-12,46
793,681	40,79
793,862	48,98
794,042	-28,84
794,223	-129,19
794,404	-32,94
794,584	-168,1
794,765	12,12
794,945	38,74
795,126	63,32
795,306	1,88
795,487	30,55
795,667	-16,55
795,848	67,41
796,028	51,03
796,209	22,36
796,389	71,51
796,57	26,45
796,75	-53,42
796,93	10,07
797,111	-59,56
797,291	-16,55
797,471	106,32
797,652	46,93
797,832	-24,75
798,012	46,93
798,192	24,4
798,373	-82,09
798,553	-2,22
798,733	51,03
798,913	-61,61
799,093	3,93
799,274	-41,13
799,454	51,03
799,634	96,08
799,814	-8,36
799,994	69,46
800,174	77,65
800,354	81,75
800,534	-49,32
800,714	67,41
800,894	-20,65
801,074	-73,9
801,254	22,36
801,434	75,6
801,614	-12,46
801,794	-34,99
801,974	2289,46
802,154	1,88
802,334	114,52
802,514	-121
802,693	-49,32
802,873	-30,89
803,053	40,79
803,233	53,08
803,413	-45,23
803,592	-63,66
803,772	-88,23
803,952	40,79
804,131	-59,56
804,311	75,6
804,491	102,23
804,67	-53,42
804,85	-71,85
805,03	38,74
805,209	118,61
805,389	-30,89
805,568	-86,19
805,748	-71,85
805,928	3,93
806,107	34,64
806,287	14,17
806,466	55,12
806,646	16,21
806,825	10,07
807,004	20,31
807,184	96,08
807,363	24,4
807,543	14,17
807,722	-14,51
807,901	118,61
808,081	34,64
808,26	-139,43
808,439	42,84
808,619	69,46
808,798	-71,85
808,977	20,31
809,156	16,21
809,336	30,55
809,515	38,74
809,694	-2,22
809,873	-4,27
810,052	8,02
810,231	120,66
810,411	34,64
810,59	59,22
810,769	-18,6
810,948	81,75
811,127	-114,86
811,306	-65,71
811,485	-16,55
811,664	126,8
811,843	67,41
812,022	14,17
812,201	36,69
812,38	-0,17
812,559	-39,08
812,737	81,75
812,916	-55,47
813,095	-41,13
813,274	38,74
813,453	20,31
813,632	85,84
813,811	104,28
813,989	-112,81
814,168	85,84
814,347	-10,41
814,526	69,46
814,704	112,47
814,883	69,46
815,062	-37,03
815,24	163,67
815,419	-116,9
815,598	-8,36
815,776	-100,52
815,955	-32,94
816,133	-143,53
816,312	-6,31
816,49	-100,52
816,669	42,84
816,847	-16,55
817,026	40,79
817,204	-104,62
817,383	26,45
817,561	-98,47
817,74	-49,32
817,918	32,6
818,097	-16,55
818,275	-8,36
818,453	18,26
818,632	48,98
818,81	-22,7
818,988	-16,55
819,167	-37,03
819,345	46,93
819,523	-22,7
819,701	110,42
819,879	94,04
820,058	55,12
820,236	-28,84
820,414	3,93
820,592	-71,85
820,77	-28,84
820,948	8,02
821,127	-65,71
821,305	57,17
821,483	-28,84
821,661	3,93
821,839	102,23
822,017	-55,47
822,195	-110,76
822,373	24,4
822,551	32,6
822,729	139,09
822,907	26,45
823,085	163,67
823,262	8,02
823,44	-30,89
823,618	44,88
823,796	-30,89
823,974	-22,7
824,152	-32,94
824,329	-12,46
824,507	53,08
824,685	40,79
824,863	30,55
825,04	-6,31
825,218	81,75
825,396	61,27
825,574	-22,7
825,751	81,75
825,929	96,08
826,107	-71,85
826,284	53,08
826,462	10,07
826,639	-16,55
826,817	-98,47
826,994	-22,7
827,172	-73,9
827,349	149,33
827,527	16,21
827,704	118,61
827,882	83,8
828,059	10,07
828,237	-47,27
828,414	102,23
828,591	-153,77
828,769	12,12
828,946	-71,85
829,124	94,04
829,301	116,56
829,478	-32,94
829,655	48,98
829,833	-0,17
830,01	-159,91
830,187	8,02
830,364	-10,41
830,542	-8,36
830,719	153,43
830,896	34,64
831,073	-0,17
831,25	16,21
831,427	71,51
831,604	3,93
831,782	-57,51
831,959	-41,13
832,136	-30,89
832,313	-16,55
832,49	-51,37
832,667	-12,46
832,844	-22,7
833,021	67,41
833,198	-57,51
833,374	5,97
833,551	-0,17
833,728	-53,42
833,905	159,57
834,082	-180,39
834,259	28,5
834,436	110,42
834,612	-6,31
834,789	77,65
834,966	-65,71
835,143	8,02
835,319	-88,23
835,496	-14,51
835,673	14,17
835,85	53,08
836,026	-32,94
836,203	20,31
836,38	-4,27
836,556	-39,08
836,733	10,07
836,909	184,15
837,086	10,07
837,262	-20,65
837,439	-49,32
837,616	10,07
837,792	-2,22
837,968	48,98
838,145	-137,38
838,321	-4,27
838,498	-61,61
838,674	48,98
838,851	26,45
839,027	-75,95
839,203	16,21
839,38	44,88
839,556	-106,67
839,732	110,42
839,909	-123,05
840,085	73,56
840,261	-127,14
840,437	32,6
840,614	-102,57
840,79	118,61
840,966	24,4
841,142	8,02
841,318	-39,08
841,494	75,6
841,671	89,94
841,847	-90,28
842,023	-24,75
842,199	40,79
842,375	83,8
842,551	-143,53
842,727	-94,38
842,903	124,76
843,079	48,98
843,255	96,08
843,431	-16,55
843,607	59,22
843,783	-123,05
843,959	-22,7
844,134	-26,79
844,31	73,56
844,486	-135,34
844,662	-67,75
844,838	-39,08
845,013	81,75
845,189	65,36
845,365	-8,36
845,541	-0,17
845,716	-82,09
845,892	-24,75
846,068	-55,47
846,244	-59,56
846,419	85,84
846,595	-39,08
846,77	-53,42
846,946	116,56
847,122	-71,85
847,297	-32,94
847,473	163,67
847,648	-30,89
847,824	20,31
847,999	-57,51
848,175	10,07
848,35	91,99
848,526	61,27
848,701	34,64
848,876	132,95
849,052	38,74
849,227	-41,13
849,403	3,93
849,578	-30,89
849,753	96,08
849,929	102,23
850,104	-59,56
850,279	-37,03
850,454	77,65
850,63	40,79
850,805	22,36
850,98	-34,99
851,155	65,36
851,33	22,36
851,505	-32,94
851,681	77,65
851,856	-10,41
852,031	118,61
852,206	24,4
852,381	-98,47
852,556	-28,84
852,731	10,07
852,906	51,03
853,081	40,79
853,256	147,28
853,431	-8,36
853,606	59,22
853,781	-86,19
853,956	-159,91
854,131	-22,7
854,305	-16,55
854,48	-45,23
854,655	-41,13
854,83	-8,36
855,005	-49,32
855,18	-49,32
855,354	-4,27
855,529	36,69
855,704	-96,43
855,879	30,55
856,053	-121
856,228	44,88
856,403	-110,76
856,577	18,26
856,752	-102,57
856,926	-10,41
857,101	18,26
857,276	-94,38
857,45	-8,36
857,625	44,88
857,799	-30,89
857,974	83,8
858,148	-102,57
858,323	-26,79
858,497	51,03
858,672	-43,18
858,846	-10,41
859,02	-0,17
859,195	-61,61
859,369	-55,47
859,543	-39,08
859,718	57,17
859,892	75,6
860,066	-41,13
860,241	-65,71
860,415	-77,99
860,589	-77,99
860,763	30,55
860,938	-24,75
861,112	51,03
861,286	-24,75
861,46	102,23
861,634	51,03
861,808	116,56
861,982	-55,47
862,157	-51,37
862,331	-14,51
862,505	-57,51
862,679	-110,76
862,853	-24,75
863,027	-43,18
863,201	132,95
863,375	-102,57
863,549	55,12
863,722	14,17
863,896	94,04
864,07	-73,9
864,244	16,21
864,418	57,17
864,592	-34,99
864,766	71,51
864,939	-14,51
865,113	-57,51
865,287	110,42
865,461	-112,81
865,634	94,04
865,808	-14,51
865,982	34,64
866,156	-41,13
866,329	-123,05
866,503	-22,7
866,676	69,46
866,85	46,93
867,024	-26,79
867,197	71,51
867,371	40,79
867,544	-30,89
867,718	-77,99
867,891	128,85
868,065	-61,61
868,238	18,26
868,412	42,84
868,585	44,88
868,759	-32,94
868,932	-39,08
869,105	-65,71
869,279	44,88
869,452	-73,9
869,625	57,17
869,799	-37,03
869,972	-63,66
870,145	30,55
870,319	116,56
870,492	-61,61
870,665	-82,09
870,838	-20,65
871,011	-90,28
871,185	-61,61
871,358	-92,33
871,531	20,31
871,704	-4,27
871,877	-0,17
872,05	-100,52
872,223	-123,05
872,396	51,03
872,569	61,27
872,742	-12,46
872,915	77,65
873,088	-59,56
873,261	-26,79
873,434	-2,22
873,607	-47,27
873,78	55,12
873,953	-98,47
874,126	-24,75
874,299	22,36
874,471	-0,17
874,644	-41,13
874,817	22,36
874,99	198,48
875,163	-28,84
875,335	81,75
875,508	-16,55
875,681	42,84
875,853	-96,43
876,026	-34,99
876,199	20,31
876,371	89,94
876,544	-26,79
876,717	32,6
876,889	-39,08
877,062	-12,46
877,234	-108,71
877,407	-18,6
877,579	65,36
877,752	-2,22
877,924	-8,36
878,097	-0,17
878,269	14,17
878,442	48,98
878,614	20,31
878,786	-16,55
878,959	-24,75
879,131	18,26
879,303	-164,01
879,476	-0,17
879,648	77,65
879,82	-16,55
879,993	-139,43
880,165	-73,9
880,337	-80,04
880,509	-18,6
880,681	-186,54
880,854	-59,56
881,026	63,32
881,198	139,09
881,37	-37,03
881,542	-53,42
881,714	-28,84
881,886	59,22
882,058	-6,31
882,23	-10,41
882,402	-49,32
882,574	-0,17
882,746	71,51
882,918	73,56
883,09	34,64
883,262	8,02
883,434	-51,37
883,606	-131,24
883,778	-47,27
883,95	124,76
884,122	-32,94
884,293	48,98
884,465	-18,6
884,637	79,7
884,809	65,36
884,98	-39,08
885,152	10,07
885,324	61,27
885,496	-86,19
885,667	8,02
885,839	-34,99
886,011	91,99
886,182	-6,31
886,354	-4,27
886,525	87,89
886,697	1,88
886,869	-63,66
887,04	-34,99
887,212	-0,17
887,383	210,77
887,555	-32,94
887,726	-53,42
887,897	10,07
888,069	16,21
888,24	36,69
888,412	22,36
888,583	26,45
888,754	-10,41
888,926	-116,9
889,097	-59,56
889,268	-73,9
889,44	55,12
889,611	-73,9
889,782	-86,19
889,953	-43,18
890,125	102,23
890,296	-4,27
890,467	18,26
890,638	-41,13
890,809	16,21
890,98	-106,67
891,151	28,5
891,323	36,69
891,494	-37,03
891,665	18,26
891,836	-61,61
892,007	-45,23
892,178	26,45
892,349	55,12
892,52	-98,47
892,691	14,17
892,862	-131,24
893,032	-147,62
893,203	-22,7
893,374	77,65
893,545	75,6
893,716	-73,9
893,887	98,13
894,057	-41,13
894,228	36,69
894,399	-65,71
894,57	98,13
894,74	-67,75
894,911	-16,55
895,082	-20,65
895,253	-71,85
895,423	8,02
895,594	32,6
895,764	-6,31
895,935	-161,96
896,106	1,88
896,276	24,4
896,447	-30,89
896,617	-84,14
896,788	-45,23
896,958	-71,85
897,129	-28,84
897,299	-77,99
897,47	114,52
897,64	75,6
897,81	-53,42
897,981	5,97
898,151	-116,9
898,322	53,08
898,492	46,93
898,662	-102,57
898,832	-67,75
899,003	-24,75
899,173	139,09
899,343	-127,14
899,513	18,26
