Data from laserVert_USB4F104151__6__11-49-23-576.txt Node

Date: Wed Apr 15 11:49:23 EDT 2026
User: LaboPhy
Spectrometer: USB4F10415
Trigger mode: 4
Integration Time (sec): 1,000000E-1
Scans to average: 1
Electric dark correction enabled: true
Nonlinearity correction enabled: false
Boxcar width: 0
XAxis mode: Wavelengths
Number of Pixels in Spectrum: 3648
>>>>>Begin Spectral Data<<<<<
178,204	-375,63
178,424	-375,63
178,644	-375,63
178,864	-453,45
179,084	-449,36
179,304	60,59
179,524	-4,95
179,744	27,82
179,964	52,39
180,184	15,53
180,404	79,02
180,624	-31,57
180,844	-107,35
181,064	-7
181,283	-31,57
181,503	-105,3
181,723	52,39
181,943	-111,44
182,163	298,15
182,383	-17,24
182,602	85,16
182,822	134,31
183,042	33,96
183,262	-11,09
183,482	83,11
183,701	70,83
183,921	3,24
184,141	-52,05
184,361	21,67
184,58	126,12
184,8	83,11
185,02	-29,52
185,239	146,6
185,459	175,27
185,679	181,42
185,898	-84,82
186,118	33,96
186,338	58,54
186,557	101,55
186,777	-68,44
186,997	76,97
187,216	70,83
187,436	197,8
187,655	117,93
187,875	148,65
188,095	33,96
188,314	216,23
188,534	25,77
188,753	-29,52
188,973	173,22
189,192	214,18
189,412	1,19
189,631	-95,06
189,851	60,59
190,07	115,88
190,29	-109,4
190,509	27,82
190,729	64,68
190,948	134,31
191,168	238,76
191,387	27,82
191,607	27,82
191,826	56,49
192,045	-2,9
192,265	-37,72
192,484	58,54
192,704	-47,96
192,923	-88,92
193,142	144,55
193,362	95,4
193,581	152,74
193,8	58,54
194,02	171,18
194,239	23,72
194,458	175,27
194,678	-15,19
194,897	68,78
195,116	11,43
195,335	19,63
195,555	99,5
195,774	-0,85
195,993	158,89
196,212	38,06
196,432	-39,76
196,651	15,53
196,87	50,35
197,089	191,66
197,308	48,3
197,528	62,63
197,747	1,19
197,966	27,82
198,185	160,94
198,404	21,67
198,623	117,93
198,842	107,69
199,062	79,02
199,281	15,53
199,5	-0,85
199,719	48,3
199,938	21,67
200,157	89,26
200,376	132,26
200,595	99,5
200,814	83,11
201,033	-2,9
201,252	152,74
201,471	72,87
201,69	105,64
201,909	54,44
202,128	58,54
202,347	189,61
202,566	99,5
202,785	-88,92
203,004	11,43
203,223	322,73
203,442	-11,09
203,661	1,19
203,879	158,89
204,098	113,83
204,317	-123,73
204,536	95,4
204,755	85,16
204,974	111,78
205,193	-15,19
205,411	156,84
205,63	142,5
205,849	42,15
206,068	-2,9
206,287	-60,24
206,505	162,98
206,724	72,87
206,943	17,58
207,162	-43,86
207,381	72,87
207,599	-21,33
207,818	87,21
208,037	-70,48
208,255	58,54
208,474	50,35
208,693	-4,95
208,911	9,39
209,13	146,6
209,349	54,44
209,567	109,74
209,786	105,64
210,005	162,98
210,223	79,02
210,442	-72,53
210,661	38,06
210,879	85,16
211,098	79,02
211,316	93,35
211,535	126,12
211,753	130,22
211,972	44,2
212,191	1,19
212,409	15,53
212,628	85,16
212,846	-47,96
213,065	87,21
213,283	50,35
213,502	27,82
213,72	52,39
213,938	83,11
214,157	48,3
214,375	54,44
214,594	50,35
214,812	21,67
215,031	23,72
215,249	23,72
215,467	185,51
215,686	-15,19
215,904	167,08
216,122	50,35
216,341	210,09
216,559	29,87
216,778	124,07
216,996	115,88
217,214	50,35
217,432	1,19
217,651	-115,54
217,869	165,03
218,087	128,17
218,306	11,43
218,524	66,73
218,742	42,15
218,96	93,35
219,179	48,3
219,397	36,01
219,615	271,53
219,833	156,84
220,051	-0,85
220,27	58,54
220,488	74,92
220,706	101,55
220,924	-27,48
221,142	19,63
221,36	33,96
221,578	72,87
221,796	46,25
222,015	62,63
222,233	23,72
222,451	132,26
222,669	-50
222,887	87,21
223,105	-45,91
223,323	68,78
223,541	-62,29
223,759	31,91
223,977	-2,9
224,195	109,74
224,413	101,55
224,631	-7
224,849	72,87
225,067	175,27
225,285	-23,38
225,503	9,39
225,721	1,19
225,939	15,53
226,157	5,29
226,375	218,28
226,592	44,2
226,81	115,88
227,028	40,11
227,246	169,13
227,464	40,11
227,682	154,79
227,9	97,45
228,117	-37,72
228,335	122,02
228,553	31,91
228,771	54,44
228,989	25,77
229,206	167,08
229,424	-37,72
229,642	54,44
229,86	-35,67
230,077	179,37
230,295	107,69
230,513	72,87
230,731	165,03
230,948	214,18
231,166	218,28
231,384	-50
231,601	-2,9
231,819	117,93
232,037	79,02
232,254	-33,62
232,472	48,3
232,689	19,63
232,907	128,17
233,125	27,82
233,342	-17,24
233,56	50,35
233,777	33,96
233,995	-45,91
234,213	109,74
234,43	60,59
234,648	64,68
234,865	17,58
235,083	119,98
235,3	150,7
235,518	60,59
235,735	165,03
235,953	36,01
236,17	99,5
236,388	64,68
236,605	50,35
236,822	136,36
237,04	142,5
237,257	95,4
237,475	-47,96
237,692	-21,33
237,909	-4,95
238,127	66,73
238,344	95,4
238,562	-23,38
238,779	-23,38
238,996	-97,11
239,214	58,54
239,431	81,07
239,648	-15,19
239,865	119,98
240,083	111,78
240,3	68,78
240,517	5,29
240,735	54,44
240,952	162,98
241,169	-23,38
241,386	76,97
241,603	50,35
241,821	-56,15
242,038	132,26
242,255	142,5
242,472	-72,53
242,689	97,45
242,907	83,11
243,124	62,63
243,341	124,07
243,558	-19,29
243,775	36,01
243,992	-52,05
244,209	99,5
244,426	205,99
244,643	5,29
244,86	68,78
245,078	70,83
245,295	44,2
245,512	-7
245,729	7,34
245,946	79,02
246,163	-45,91
246,38	-41,81
246,597	91,31
246,814	33,96
247,031	25,77
247,248	36,01
247,464	64,68
247,681	27,82
247,898	83,11
248,115	23,72
248,332	-27,48
248,549	148,65
248,766	158,89
248,983	126,12
249,2	58,54
249,417	99,5
249,633	13,48
249,85	62,63
250,067	68,78
250,284	111,78
250,501	115,88
250,717	95,4
250,934	-9,05
251,151	17,58
251,368	52,39
251,585	146,6
251,801	46,25
252,018	-23,38
252,235	107,69
252,451	-60,24
252,668	11,43
252,885	60,59
253,102	5,29
253,318	5,29
253,535	46,25
253,752	13,48
253,968	-25,43
254,185	-45,91
254,401	46,25
254,618	97,45
254,835	-80,72
255,051	115,88
255,268	25,77
255,484	81,07
255,701	109,74
255,917	54,44
256,134	52,39
256,351	31,91
256,567	-101,2
256,784	-23,38
257	-37,72
257,217	117,93
257,433	42,15
257,65	95,4
257,866	142,5
258,082	-80,72
258,299	-56,15
258,515	-4,95
258,732	-23,38
258,948	-15,19
259,165	115,88
259,381	36,01
259,597	142,5
259,814	44,2
260,03	60,59
260,246	-47,96
260,463	134,31
260,679	109,74
260,895	36,01
261,112	52,39
261,328	36,01
261,544	-62,29
261,761	179,37
261,977	3,24
262,193	23,72
262,409	107,69
262,626	95,4
262,842	54,44
263,058	-23,38
263,274	107,69
263,49	36,01
263,707	60,59
263,923	140,46
264,139	-52,05
264,355	29,87
264,571	115,88
264,787	103,59
265,004	156,84
265,22	54,44
265,436	-21,33
265,652	33,96
265,868	-47,96
266,084	-21,33
266,3	58,54
266,516	-41,81
266,732	29,87
266,948	33,96
267,164	36,01
267,38	156,84
267,596	91,31
267,812	117,93
268,028	44,2
268,244	-60,24
268,46	15,53
268,676	15,53
268,892	99,5
269,108	19,63
269,324	-47,96
269,54	36,01
269,756	76,97
269,972	-80,72
270,188	-45,91
270,403	5,29
270,619	42,15
270,835	83,11
271,051	64,68
271,267	83,11
271,483	9,39
271,698	83,11
271,914	-2,9
272,13	60,59
272,346	1,19
272,562	27,82
272,777	201,9
272,993	44,2
273,209	97,45
273,425	70,83
273,64	-70,48
273,856	27,82
274,072	-21,33
274,287	27,82
274,503	83,11
274,719	87,21
274,934	-39,76
275,15	-54,1
275,366	97,45
275,581	-31,57
275,797	17,58
276,012	3,24
276,228	5,29
276,444	48,3
276,659	158,89
276,875	-25,43
277,09	42,15
277,306	-23,38
277,521	44,2
277,737	19,63
277,952	87,21
278,168	89,26
278,383	40,11
278,599	52,39
278,814	89,26
279,03	3,24
279,245	87,21
279,461	64,68
279,676	109,74
279,892	-131,92
280,107	-60,24
280,322	15,53
280,538	103,59
280,753	-58,2
280,969	70,83
281,184	29,87
281,399	177,32
281,615	58,54
281,83	97,45
282,045	-39,76
282,26	-37,72
282,476	46,25
282,691	91,31
282,906	-35,67
283,122	95,4
283,337	42,15
283,552	58,54
283,767	31,91
283,983	142,5
284,198	-2,9
284,413	83,11
284,628	-93,01
284,843	44,2
285,058	113,83
285,274	-54,1
285,489	-31,57
285,704	54,44
285,919	-21,33
286,134	74,92
286,349	33,96
286,564	-11,09
286,779	134,31
286,995	95,4
287,21	-158,55
287,425	-31,57
287,64	-62,29
287,855	36,01
288,07	-37,72
288,285	150,7
288,5	208,04
288,715	23,72
288,93	33,96
289,145	1,19
289,36	89,26
289,575	38,06
289,79	185,51
290,004	56,49
290,219	220,33
290,434	5,29
290,649	-35,67
290,864	-54,1
291,079	13,48
291,294	15,53
291,509	97,45
291,724	40,11
291,938	21,67
292,153	70,83
292,368	85,16
292,583	83,11
292,798	105,64
293,012	54,44
293,227	175,27
293,442	9,39
293,657	89,26
293,871	101,55
294,086	52,39
294,301	203,94
294,516	138,41
294,73	36,01
294,945	-2,9
295,16	19,63
295,374	113,83
295,589	156,84
295,804	56,49
296,018	11,43
296,233	169,13
296,447	154,79
296,662	25,77
296,877	111,78
297,091	60,59
297,306	25,77
297,52	62,63
297,735	52,39
297,949	70,83
298,164	33,96
298,378	101,55
298,593	-54,1
298,807	-90,96
299,022	68,78
299,236	261,29
299,451	21,67
299,665	-58,2
299,88	-13,14
300,094	70,83
300,309	29,87
300,523	27,82
300,737	33,96
300,952	60,59
301,166	117,93
301,381	-31,57
301,595	-64,34
301,809	29,87
302,024	-7
302,238	-72,53
302,452	109,74
302,667	38,06
302,881	144,55
303,095	83,11
303,309	27,82
303,524	33,96
303,738	-7
303,952	-56,15
304,166	-0,85
304,381	-179,03
304,595	144,55
304,809	87,21
305,023	11,43
305,237	3,24
305,452	-31,57
305,666	81,07
305,88	27,82
306,094	52,39
306,308	38,06
306,522	79,02
306,736	25,77
306,95	25,77
307,164	7,34
307,379	27,82
307,593	87,21
307,807	119,98
308,021	115,88
308,235	79,02
308,449	-45,91
308,663	3,24
308,877	177,32
309,091	-27,48
309,305	46,25
309,519	-43,86
309,733	115,88
309,947	-66,39
310,161	113,83
310,374	144,55
310,588	156,84
310,802	-68,44
311,016	5,29
311,23	36,01
311,444	17,58
311,658	81,07
311,872	218,28
312,085	124,07
312,299	210,09
312,513	187,56
312,727	62,63
312,941	-72,53
313,154	76,97
313,368	36,01
313,582	9,39
313,796	21,67
314,009	99,5
314,223	197,8
314,437	70,83
314,651	68,78
314,864	-31,57
315,078	-23,38
315,292	-47,96
315,505	52,39
315,719	79,02
315,933	142,5
316,146	21,67
316,36	-17,24
316,573	89,26
316,787	140,46
317,001	91,31
317,214	-54,1
317,428	23,72
317,641	-45,91
317,855	58,54
318,068	126,12
318,282	19,63
318,495	185,51
318,709	60,59
318,922	9,39
319,136	115,88
319,349	107,69
319,563	27,82
319,776	101,55
319,99	-29,52
320,203	171,18
320,417	95,4
320,63	48,3
320,843	156,84
321,057	31,91
321,27	38,06
321,483	103,59
321,697	169,13
321,91	-13,14
322,124	44,2
322,337	58,54
322,55	-15,19
322,763	85,16
322,977	-54,1
323,19	9,39
323,403	25,77
323,617	58,54
323,83	175,27
324,043	42,15
324,256	105,64
324,469	-111,44
324,683	93,35
324,896	74,92
325,109	46,25
325,322	-15,19
325,535	122,02
325,748	68,78
325,962	-2,9
326,175	-64,34
326,388	-43,86
326,601	136,36
326,814	5,29
327,027	58,54
327,24	111,78
327,453	-80,72
327,666	31,91
327,879	156,84
328,092	117,93
328,305	111,78
328,518	-50
328,731	-52,05
328,944	13,48
329,157	109,74
329,37	11,43
329,583	160,94
329,796	93,35
330,009	-66,39
330,222	52,39
330,435	165,03
330,648	36,01
330,861	85,16
331,073	76,97
331,286	91,31
331,499	-4,95
331,712	-39,76
331,925	17,58
332,138	36,01
332,35	62,63
332,563	9,39
332,776	205,99
332,989	-0,85
333,202	19,63
333,414	74,92
333,627	25,77
333,84	21,67
334,053	115,88
334,265	25,77
334,478	9,39
334,691	99,5
334,903	83,11
335,116	-27,48
335,329	11,43
335,541	60,59
335,754	124,07
335,966	-11,09
336,179	1,19
336,392	-39,76
336,604	50,35
336,817	142,5
337,029	17,58
337,242	44,2
337,454	122,02
337,667	-27,48
337,88	160,94
338,092	5,29
338,305	42,15
338,517	-23,38
338,729	169,13
338,942	115,88
339,154	-39,76
339,367	-119,64
339,579	93,35
339,792	-45,91
340,004	42,15
340,217	38,06
340,429	46,25
340,641	-29,52
340,854	11,43
341,066	117,93
341,278	140,46
341,491	201,9
341,703	50,35
341,915	11,43
342,128	36,01
342,34	-7
342,552	-64,34
342,764	21,67
342,977	17,58
343,189	89,26
343,401	-15,19
343,613	-95,06
343,826	58,54
344,038	-45,91
344,25	42,15
344,462	48,3
344,674	66,73
344,886	40,11
345,099	19,63
345,311	113,83
345,523	27,82
345,735	-68,44
345,947	62,63
346,159	83,11
346,371	89,26
346,583	27,82
346,795	289,96
347,007	1,19
347,219	46,25
347,431	17,58
347,643	87,21
347,855	1,19
348,067	124,07
348,279	25,77
348,491	-4,95
348,703	107,69
348,915	46,25
349,127	-27,48
349,339	101,55
349,551	60,59
349,763	29,87
349,975	54,44
350,187	72,87
350,399	134,31
350,61	128,17
350,822	44,2
351,034	19,63
351,246	5,29
351,458	148,65
351,669	52,39
351,881	99,5
352,093	201,9
352,305	72,87
352,517	97,45
352,728	103,59
352,94	103,59
353,152	126,12
353,363	-7
353,575	103,59
353,787	134,31
353,999	21,67
354,21	181,42
354,422	-33,62
354,633	19,63
354,845	76,97
355,057	40,11
355,268	36,01
355,48	72,87
355,692	-103,25
355,903	70,83
356,115	-15,19
356,326	-76,63
356,538	138,41
356,749	42,15
356,961	95,4
357,172	25,77
357,384	-11,09
357,595	177,32
357,807	46,25
358,018	-37,72
358,23	66,73
358,441	124,07
358,653	72,87
358,864	115,88
359,075	74,92
359,287	93,35
359,498	83,11
359,709	46,25
359,921	58,54
360,132	99,5
360,344	31,91
360,555	29,87
360,766	13,48
360,977	74,92
361,189	183,46
361,4	-15,19
361,611	146,6
361,823	89,26
362,034	3,24
362,245	-127,83
362,456	81,07
362,667	74,92
362,879	-45,91
363,09	160,94
363,301	38,06
363,512	21,67
363,723	7,34
363,935	-47,96
364,146	105,64
364,357	-19,29
364,568	27,82
364,779	-52,05
364,99	72,87
365,201	-50
365,412	101,55
365,623	-7
365,834	95,4
366,045	140,46
366,256	58,54
366,467	99,5
366,678	17,58
366,889	-7
367,1	-15,19
367,311	177,32
367,522	1,19
367,733	60,59
367,944	87,21
368,155	42,15
368,366	103,59
368,577	70,83
368,788	128,17
368,999	-45,91
369,209	74,92
369,42	208,04
369,631	238,76
369,842	140,46
370,053	62,63
370,264	42,15
370,474	-17,24
370,685	103,59
370,896	23,72
371,107	107,69
371,317	29,87
371,528	56,49
371,739	181,42
371,95	103,59
372,16	113,83
372,371	-62,29
372,582	95,4
372,792	72,87
373,003	117,93
373,214	-15,19
373,424	56,49
373,635	-15,19
373,846	181,42
374,056	27,82
374,267	52,39
374,477	81,07
374,688	-37,72
374,898	36,01
375,109	27,82
375,319	44,2
375,53	115,88
375,74	64,68
375,951	11,43
376,161	68,78
376,372	156,84
376,582	29,87
376,793	93,35
377,003	25,77
377,214	-47,96
377,424	29,87
377,635	9,39
377,845	-58,2
378,055	191,66
378,266	-11,09
378,476	29,87
378,686	99,5
378,897	58,54
379,107	74,92
379,317	91,31
379,528	31,91
379,738	144,55
379,948	-97,11
380,158	97,45
380,369	109,74
380,579	42,15
380,789	-9,05
380,999	117,93
381,21	152,74
381,42	191,66
381,63	11,43
381,84	54,44
382,05	134,31
382,261	27,82
382,471	87,21
382,681	54,44
382,891	173,22
383,101	25,77
383,311	-4,95
383,521	-84,82
383,731	109,74
383,941	46,25
384,151	-35,67
384,361	31,91
384,571	17,58
384,781	33,96
384,991	197,8
385,201	191,66
385,411	44,2
385,621	64,68
385,831	33,96
386,041	9,39
386,251	-23,38
386,461	40,11
386,671	-47,96
386,881	-17,24
387,091	23,72
387,301	70,83
387,511	72,87
387,72	36,01
387,93	74,92
388,14	-146,26
388,35	15,53
388,56	142,5
388,769	56,49
388,979	76,97
389,189	-47,96
389,399	-13,14
389,609	62,63
389,818	93,35
390,028	91,31
390,238	25,77
390,447	-33,62
390,657	105,64
390,867	-11,09
391,076	-117,59
391,286	-17,24
391,496	36,01
391,705	-13,14
391,915	109,74
392,125	48,3
392,334	27,82
392,544	160,94
392,753	50,35
392,963	11,43
393,172	-15,19
393,382	5,29
393,591	156,84
393,801	5,29
394,01	132,26
394,22	68,78
394,429	50,35
394,639	46,25
394,848	33,96
395,058	42,15
395,267	3,24
395,477	17,58
395,686	21,67
395,895	257,19
396,105	195,75
396,314	62,63
396,524	11,43
396,733	36,01
396,942	150,7
397,152	29,87
397,361	109,74
397,57	15,53
397,78	36,01
397,989	64,68
398,198	148,65
398,407	13,48
398,617	66,73
398,826	13,48
399,035	-17,24
399,244	66,73
399,453	-2,9
399,663	79,02
399,872	42,15
400,081	-47,96
400,29	109,74
400,499	-37,72
400,708	33,96
400,917	52,39
401,127	-11,09
401,336	-68,44
401,545	152,74
401,754	130,22
401,963	162,98
402,172	11,43
402,381	-45,91
402,59	15,53
402,799	58,54
403,008	119,98
403,217	70,83
403,426	101,55
403,635	-2,9
403,844	85,16
404,053	-37,72
404,262	21,67
404,471	201,9
404,68	62,63
404,888	-0,85
405,097	60,59
405,306	44,2
405,515	56,49
405,724	9,39
405,933	117,93
406,142	101,55
406,35	210,09
406,559	68,78
406,768	105,64
406,977	173,22
407,185	31,91
407,394	68,78
407,603	-25,43
407,812	66,73
408,02	79,02
408,229	42,15
408,438	9,39
408,646	-64,34
408,855	15,53
409,064	-13,14
409,272	-43,86
409,481	76,97
409,69	-21,33
409,898	-121,68
410,107	31,91
410,315	132,26
410,524	-101,2
410,733	83,11
410,941	-45,91
411,15	144,55
411,358	23,72
411,567	93,35
411,775	68,78
411,984	70,83
412,192	66,73
412,401	44,2
412,609	162,98
412,818	218,28
413,026	93,35
413,234	5,29
413,443	-31,57
413,651	-29,52
413,86	-4,95
414,068	201,9
414,276	203,94
414,485	21,67
414,693	171,18
414,901	173,22
415,11	91,31
415,318	128,17
415,526	29,87
415,734	74,92
415,943	25,77
416,151	150,7
416,359	38,06
416,567	38,06
416,776	162,98
416,984	38,06
417,192	156,84
417,4	-47,96
417,608	-23,38
417,817	42,15
418,025	93,35
418,233	152,74
418,441	25,77
418,649	-50
418,857	95,4
419,065	109,74
419,273	-4,95
419,481	21,67
419,689	27,82
419,897	17,58
420,105	-47,96
420,313	107,69
420,521	93,35
420,729	171,18
420,937	-62,29
421,145	-113,49
421,353	64,68
421,561	144,55
421,769	29,87
421,977	11,43
422,185	83,11
422,393	-4,95
422,601	134,31
422,809	85,16
423,017	58,54
423,224	89,26
423,432	62,63
423,64	25,77
423,848	70,83
424,056	-129,88
424,263	83,11
424,471	36,01
424,679	115,88
424,887	-123,73
425,094	87,21
425,302	1,19
425,51	-17,24
425,718	60,59
425,925	81,07
426,133	1,19
426,341	234,66
426,548	5,29
426,756	76,97
426,964	56,49
427,171	-54,1
427,379	38,06
427,586	60,59
427,794	40,11
428,001	74,92
428,209	60,59
428,417	107,69
428,624	93,35
428,832	179,37
429,039	-19,29
429,247	101,55
429,454	74,92
429,662	212,14
429,869	115,88
430,076	19,63
430,284	132,26
430,491	152,74
430,699	101,55
430,906	160,94
431,114	52,39
431,321	122,02
431,528	60,59
431,736	56,49
431,943	101,55
432,15	52,39
432,358	140,46
432,565	181,42
432,772	-62,29
432,979	128,17
433,187	36,01
433,394	132,26
433,601	31,91
433,808	152,74
434,016	191,66
434,223	119,98
434,43	66,73
434,637	89,26
434,844	89,26
435,052	9,39
435,259	109,74
435,466	25,77
435,673	72,87
435,88	76,97
436,087	56,49
436,294	185,51
436,501	111,78
436,708	119,98
436,915	111,78
437,122	205,99
437,329	-19,29
437,537	99,5
437,743	142,5
437,95	193,7
438,157	91,31
438,364	79,02
438,571	89,26
438,778	70,83
438,985	185,51
439,192	146,6
439,399	113,83
439,606	17,58
439,813	76,97
440,02	251,05
440,227	189,61
440,433	162,98
440,64	91,31
440,847	76,97
441,054	101,55
441,261	171,18
441,467	113,83
441,674	83,11
441,881	138,41
442,088	36,01
442,294	185,51
442,501	177,32
442,708	222,38
442,914	5,29
443,121	111,78
443,328	66,73
443,534	160,94
443,741	97,45
443,948	-9,05
444,154	111,78
444,361	349,35
444,568	5,29
444,774	124,07
444,981	89,26
445,187	128,17
445,394	115,88
445,6	50,35
445,807	130,22
446,013	68,78
446,22	46,25
446,426	101,55
446,633	132,26
446,839	242,85
447,046	70,83
447,252	173,22
447,459	68,78
447,665	48,3
447,871	134,31
448,078	242,85
448,284	203,94
448,491	150,7
448,697	156,84
448,903	154,79
449,11	210,09
449,316	58,54
449,522	189,61
449,728	181,42
449,935	222,38
450,141	132,26
450,347	244,9
450,553	156,84
450,76	109,74
450,966	103,59
451,172	154,79
451,378	95,4
451,584	165,03
451,791	249
451,997	199,85
452,203	91,31
452,409	279,72
452,615	289,96
452,821	115,88
453,027	128,17
453,233	318,63
453,44	95,4
453,646	107,69
453,852	191,66
454,058	107,69
454,264	140,46
454,47	201,9
454,676	165,03
454,882	152,74
455,088	242,85
455,294	212,14
455,5	302,25
455,705	205,99
455,911	152,74
456,117	208,04
456,323	224,42
456,529	240,81
456,735	119,98
456,941	265,38
457,147	242,85
457,352	242,85
457,558	62,63
457,764	267,43
457,97	124,07
458,176	132,26
458,381	81,07
458,587	306,34
458,793	208,04
458,999	79,02
459,204	185,51
459,41	185,51
459,616	183,46
459,821	236,71
460,027	54,44
460,233	226,47
460,438	236,71
460,644	193,7
460,85	150,7
461,055	191,66
461,261	232,62
461,466	148,65
461,672	175,27
461,878	152,74
462,083	253,09
462,289	134,31
462,494	119,98
462,7	132,26
462,905	177,32
463,111	259,24
463,316	277,67
463,522	222,38
463,727	124,07
463,932	208,04
464,138	109,74
464,343	228,52
464,549	230,57
464,754	224,42
464,959	218,28
465,165	72,87
465,37	158,89
465,575	193,7
465,781	124,07
465,986	142,5
466,191	101,55
466,397	191,66
466,602	240,81
466,807	156,84
467,012	173,22
467,218	205,99
467,423	140,46
467,628	128,17
467,833	124,07
468,038	70,83
468,244	62,63
468,449	72,87
468,654	124,07
468,859	185,51
469,064	93,35
469,269	152,74
469,474	220,33
469,679	185,51
469,885	175,27
470,09	128,17
470,295	169,13
470,5	152,74
470,705	232,62
470,91	165,03
471,115	246,95
471,32	144,55
471,525	310,44
471,73	328,87
471,935	105,64
472,139	109,74
472,344	93,35
472,549	111,78
472,754	222,38
472,959	242,85
473,164	144,55
473,369	99,5
473,574	257,19
473,778	183,46
473,983	189,61
474,188	214,18
474,393	134,31
474,598	107,69
474,802	144,55
475,007	124,07
475,212	195,75
475,417	146,6
475,621	283,81
475,826	134,31
476,031	130,22
476,235	113,83
476,44	126,12
476,645	111,78
476,849	60,59
477,054	68,78
477,259	134,31
477,463	232,62
477,668	443,56
477,872	275,62
478,077	72,87
478,282	21,67
478,486	165,03
478,691	175,27
478,895	183,46
479,1	308,39
479,304	195,75
479,509	201,9
479,713	273,57
479,918	246,95
480,122	144,55
480,326	177,32
480,531	165,03
480,735	146,6
480,94	134,31
481,144	208,04
481,348	160,94
481,553	234,66
481,757	173,22
481,961	128,17
482,166	210,09
482,37	91,31
482,574	205,99
482,778	79,02
482,983	171,18
483,187	208,04
483,391	136,36
483,595	140,46
483,8	228,52
484,004	173,22
484,208	152,74
484,412	251,05
484,616	197,8
484,821	124,07
485,025	124,07
485,229	187,56
485,433	128,17
485,637	197,8
485,841	99,5
486,045	189,61
486,249	183,46
486,453	154,79
486,657	140,46
486,861	-9,05
487,065	222,38
487,269	230,57
487,473	54,44
487,677	183,46
487,881	378,02
488,085	191,66
488,289	177,32
488,493	115,88
488,697	238,76
488,901	230,57
489,105	87,21
489,309	87,21
489,512	251,05
489,716	162,98
489,92	111,78
490,124	181,42
490,328	238,76
490,531	230,57
490,735	205,99
490,939	60,59
491,143	216,23
491,346	228,52
491,55	140,46
491,754	238,76
491,958	165,03
492,161	210,09
492,365	167,08
492,569	122,02
492,772	173,22
492,976	246,95
493,18	189,61
493,383	201,9
493,587	117,93
493,79	203,94
493,994	152,74
494,197	117,93
494,401	232,62
494,605	156,84
494,808	105,64
495,012	171,18
495,215	339,11
495,419	281,77
495,622	214,18
495,825	76,97
496,029	199,85
496,232	185,51
496,436	195,75
496,639	263,33
496,843	171,18
497,046	68,78
497,249	246,95
497,453	175,27
497,656	101,55
497,859	177,32
498,063	279,72
498,266	349,35
498,469	107,69
498,673	152,74
498,876	197,8
499,079	83,11
499,282	132,26
499,485	392,36
499,689	210,09
499,892	308,39
500,095	126,12
500,298	103,59
500,501	124,07
500,705	126,12
500,908	214,18
501,111	111,78
501,314	226,47
501,517	380,07
501,72	226,47
501,923	271,53
502,126	146,6
502,329	271,53
502,532	269,48
502,735	304,29
502,938	296,1
503,141	244,9
503,344	99,5
503,547	339,11
503,75	199,85
503,953	117,93
504,156	238,76
504,359	195,75
504,562	158,89
504,765	167,08
504,968	246,95
505,17	257,19
505,373	222,38
505,576	255,14
505,779	234,66
505,982	126,12
506,185	165,03
506,387	208,04
506,59	369,83
506,793	236,71
506,996	195,75
507,198	312,49
507,401	310,44
507,604	339,11
507,807	300,2
508,009	218,28
508,212	328,87
508,415	222,38
508,617	246,95
508,82	218,28
509,022	277,67
509,225	328,87
509,428	263,33
509,63	257,19
509,833	134,31
510,035	447,65
510,238	312,49
510,44	199,85
510,643	304,29
510,845	265,38
511,048	406,69
511,25	238,76
511,453	277,67
511,655	375,97
511,858	335,01
512,06	439,46
512,262	234,66
512,465	189,61
512,667	244,9
512,87	124,07
513,072	371,88
513,274	384,16
513,477	203,94
513,679	265,38
513,881	289,96
514,084	232,62
514,286	429,22
514,488	335,01
514,69	435,36
514,893	218,28
515,095	230,57
515,297	220,33
515,499	269,48
515,701	249
515,904	269,48
516,106	441,51
516,308	285,86
516,51	332,97
516,712	441,51
516,914	408,74
517,116	271,53
517,318	308,39
517,52	292,01
517,722	263,33
517,925	289,96
518,127	259,24
518,329	355,49
518,531	162,98
518,733	312,49
518,935	249
519,136	386,21
519,338	152,74
519,54	224,42
519,742	277,67
519,944	390,31
520,146	433,32
520,348	304,29
520,55	404,64
520,752	240,81
520,954	222,38
521,155	332,97
521,357	257,19
521,559	371,88
521,761	355,49
521,963	392,36
522,164	384,16
522,366	292,01
522,568	304,29
522,77	361,64
522,971	369,83
523,173	255,14
523,375	355,49
523,576	369,83
523,778	224,42
523,98	230,57
524,181	365,73
524,383	445,6
524,584	294,05
524,786	292,01
524,988	203,94
525,189	269,48
525,391	455,84
525,592	238,76
525,794	189,61
525,995	371,88
526,197	453,8
526,398	533,67
526,6	320,68
526,801	394,4
527,003	220,33
527,204	388,26
527,406	451,75
527,607	361,64
527,808	251,05
528,01	414,88
528,211	433,32
528,412	388,26
528,614	482,47
528,815	394,4
529,016	529,57
529,218	380,07
529,419	451,75
529,62	398,5
529,822	586,91
530,023	595,11
530,224	767,13
530,425	1199,26
530,626	1578,13
530,828	2423,94
531,029	3789,94
531,23	6114,38
531,431	9440,28
531,632	14033,88
531,833	19540,86
532,035	26708,76
532,236	33585,83
532,437	39572,05
532,638	44065,29
532,839	48652,74
533,04	52347,28
533,241	53989,75
533,442	54712,68
533,643	53092,74
533,844	50268,59
534,045	46533,09
534,246	41396,79
534,447	36274,82
534,648	30483,16
534,849	25512,74
535,05	21017,45
535,251	17478,56
535,451	13892,57
535,652	11105,28
535,853	8619,05
536,054	6419,53
536,255	4377,7
536,456	3024
536,657	2004,11
536,857	1479,83
537,058	1103
537,259	804
537,46	644,26
537,66	570,53
537,861	494,76
538,062	498,85
538,263	361,64
538,463	500,9
538,664	443,56
538,865	242,85
539,065	394,4
539,266	386,21
539,466	257,19
539,667	484,52
539,868	326,82
540,068	427,17
540,269	361,64
540,469	349,35
540,67	441,51
540,87	412,84
541,071	234,66
541,271	365,73
541,472	402,6
541,672	388,26
541,873	263,33
542,073	304,29
542,274	265,38
542,474	335,01
542,675	322,73
542,875	349,35
543,075	203,94
543,276	351,4
543,476	287,91
543,676	396,45
543,877	240,81
544,077	400,55
544,277	355,49
544,478	294,05
544,678	332,97
544,878	261,29
545,078	261,29
545,279	226,47
545,479	238,76
545,679	265,38
545,879	214,18
546,079	394,4
546,28	191,66
546,48	232,62
546,68	353,45
546,88	332,97
547,08	283,81
547,28	316,58
547,48	197,8
547,68	345,25
547,88	230,57
548,081	265,38
548,281	263,33
548,481	249
548,681	273,57
548,881	283,81
549,081	359,59
549,28	335,01
549,48	189,61
549,68	375,97
549,88	337,06
550,08	230,57
550,28	246,95
550,48	416,93
550,68	345,25
550,88	281,77
551,08	242,85
551,279	400,55
551,479	269,48
551,679	404,64
551,879	242,85
552,079	279,72
552,278	314,53
552,478	451,75
552,678	283,81
552,878	251,05
553,077	285,86
553,277	175,27
553,477	208,04
553,676	361,64
553,876	332,97
554,076	242,85
554,275	343,21
554,475	234,66
554,674	232,62
554,874	257,19
555,074	177,32
555,273	255,14
555,473	175,27
555,672	339,11
555,872	232,62
556,071	257,19
556,271	455,84
556,47	285,86
556,67	296,1
556,869	271,53
557,068	265,38
557,268	279,72
557,467	259,24
557,667	418,98
557,866	240,81
558,065	300,2
558,265	244,9
558,464	230,57
558,663	277,67
558,863	294,05
559,062	257,19
559,261	212,14
559,461	210,09
559,66	281,77
559,859	187,56
560,058	261,29
560,258	249
560,457	287,91
560,656	396,45
560,855	212,14
561,054	347,3
561,253	292,01
561,453	296,1
561,652	353,45
561,851	304,29
562,05	265,38
562,249	222,38
562,448	328,87
562,647	154,79
562,846	210,09
563,045	263,33
563,244	208,04
563,443	355,49
563,642	289,96
563,841	351,4
564,04	275,62
564,239	232,62
564,438	304,29
564,637	173,22
564,836	308,39
565,035	283,81
565,234	242,85
565,432	341,16
565,631	386,21
565,83	232,62
566,029	287,91
566,228	201,9
566,427	388,26
566,625	267,43
566,824	337,06
567,023	271,53
567,222	222,38
567,42	189,61
567,619	316,58
567,818	308,39
568,016	476,32
568,215	222,38
568,414	375,97
568,612	216,23
568,811	304,29
569,01	242,85
569,208	330,92
569,407	271,53
569,605	328,87
569,804	287,91
570,002	312,49
570,201	165,03
570,4	296,1
570,598	302,25
570,797	259,24
570,995	189,61
571,193	246,95
571,392	156,84
571,59	175,27
571,789	320,68
571,987	335,01
572,186	341,16
572,384	224,42
572,582	199,85
572,781	382,12
572,979	218,28
573,177	275,62
573,376	281,77
573,574	312,49
573,772	218,28
573,971	218,28
574,169	162,98
574,367	292,01
574,565	240,81
574,763	265,38
574,962	304,29
575,16	218,28
575,358	195,75
575,556	279,72
575,754	279,72
575,952	316,58
576,151	230,57
576,349	318,63
576,547	122,02
576,745	232,62
576,943	302,25
577,141	238,76
577,339	122,02
577,537	199,85
577,735	214,18
577,933	337,06
578,131	181,42
578,329	380,07
578,527	302,25
578,725	246,95
578,923	119,98
579,121	244,9
579,319	58,54
579,516	181,42
579,714	345,25
579,912	246,95
580,11	83,11
580,308	261,29
580,506	251,05
580,704	148,65
580,901	132,26
581,099	382,12
581,297	259,24
581,495	306,34
581,692	228,52
581,89	392,36
582,088	263,33
582,285	222,38
582,483	220,33
582,681	234,66
582,878	275,62
583,076	287,91
583,274	214,18
583,471	423,08
583,669	267,43
583,866	203,94
584,064	218,28
584,262	132,26
584,459	156,84
584,657	246,95
584,854	318,63
585,052	281,77
585,249	320,68
585,447	345,25
585,644	148,65
585,841	300,2
586,039	304,29
586,236	380,07
586,434	165,03
586,631	216,23
586,828	160,94
587,026	275,62
587,223	189,61
587,42	238,76
587,618	279,72
587,815	388,26
588,012	191,66
588,21	156,84
588,407	220,33
588,604	361,64
588,801	240,81
588,999	191,66
589,196	339,11
589,393	281,77
589,59	265,38
589,787	289,96
589,984	287,91
590,182	322,73
590,379	152,74
590,576	236,71
590,773	199,85
590,97	296,1
591,167	351,4
591,364	318,63
591,561	292,01
591,758	351,4
591,955	253,09
592,152	275,62
592,349	238,76
592,546	201,9
592,743	195,75
592,94	332,97
593,137	351,4
593,334	355,49
593,531	363,69
593,727	330,92
593,924	390,31
594,121	257,19
594,318	251,05
594,515	314,53
594,712	363,69
594,908	328,87
595,105	107,69
595,302	322,73
595,499	312,49
595,696	386,21
595,892	281,77
596,089	367,78
596,286	214,18
596,482	320,68
596,679	320,68
596,876	189,61
597,072	292,01
597,269	244,9
597,466	298,15
597,662	320,68
597,859	183,46
598,055	263,33
598,252	306,34
598,448	330,92
598,645	292,01
598,841	300,2
599,038	365,73
599,234	402,6
599,431	210,09
599,627	345,25
599,824	294,05
600,02	306,34
600,217	357,54
600,413	255,14
600,609	324,77
600,806	570,53
601,002	316,58
601,198	234,66
601,395	343,21
601,591	304,29
601,787	320,68
601,984	351,4
602,18	326,82
602,376	169,13
602,572	347,3
602,769	353,45
602,965	269,48
603,161	289,96
603,357	287,91
603,553	345,25
603,75	244,9
603,946	345,25
604,142	308,39
604,338	423,08
604,534	255,14
604,73	296,1
604,926	253,09
605,122	361,64
605,318	249
605,514	414,88
605,71	351,4
605,906	404,64
606,102	232,62
606,298	414,88
606,494	392,36
606,69	369,83
606,886	287,91
607,082	349,35
607,278	263,33
607,474	316,58
607,67	339,11
607,866	181,42
608,062	298,15
608,257	312,49
608,453	185,51
608,649	353,45
608,845	240,81
609,041	205,99
609,236	271,53
609,432	345,25
609,628	328,87
609,824	402,6
610,019	230,57
610,215	328,87
610,411	468,13
610,606	439,46
610,802	300,2
610,998	230,57
611,193	330,92
611,389	208,04
611,584	347,3
611,78	244,9
611,976	316,58
612,171	461,99
612,367	316,58
612,562	296,1
612,758	318,63
612,953	222,38
613,149	230,57
613,344	318,63
613,539	324,77
613,735	289,96
613,93	337,06
614,126	289,96
614,321	287,91
614,517	441,51
614,712	298,15
614,907	402,6
615,103	294,05
615,298	328,87
615,493	187,56
615,688	312,49
615,884	347,3
616,079	259,24
616,274	308,39
616,47	199,85
616,665	255,14
616,86	205,99
617,055	287,91
617,25	197,8
617,445	332,97
617,641	261,29
617,836	259,24
618,031	226,47
618,226	332,97
618,421	339,11
618,616	302,25
618,811	300,2
619,006	216,23
619,201	427,17
619,396	347,3
619,591	230,57
619,786	357,54
619,981	322,73
620,176	365,73
620,371	208,04
620,566	320,68
620,761	371,88
620,956	345,25
621,151	322,73
621,346	287,91
621,541	232,62
621,735	421,03
621,93	335,01
622,125	265,38
622,32	312,49
622,515	265,38
622,709	341,16
622,904	324,77
623,099	275,62
623,294	296,1
623,488	404,64
623,683	337,06
623,878	337,06
624,072	367,78
624,267	152,74
624,462	255,14
624,656	183,46
624,851	308,39
625,046	314,53
625,24	230,57
625,435	273,57
625,629	287,91
625,824	418,98
626,018	357,54
626,213	371,88
626,407	208,04
626,602	324,77
626,796	302,25
626,991	316,58
627,185	277,67
627,38	326,82
627,574	251,05
627,768	255,14
627,963	259,24
628,157	267,43
628,352	140,46
628,546	246,95
628,74	296,1
628,935	289,96
629,129	228,52
629,323	341,16
629,517	191,66
629,712	173,22
629,906	267,43
630,1	287,91
630,294	341,16
630,489	257,19
630,683	193,7
630,877	208,04
631,071	404,64
631,265	249
631,459	322,73
631,653	287,91
631,848	255,14
632,042	232,62
632,236	197,8
632,43	363,69
632,624	228,52
632,818	251,05
633,012	363,69
633,206	238,76
633,4	222,38
633,594	361,64
633,788	283,81
633,982	306,34
634,176	396,45
634,369	199,85
634,563	255,14
634,757	101,55
634,951	298,15
635,145	332,97
635,339	171,18
635,533	345,25
635,726	228,52
635,92	249
636,114	171,18
636,308	271,53
636,501	277,67
636,695	365,73
636,889	181,42
637,083	343,21
637,276	150,7
637,47	148,65
637,664	220,33
637,857	181,42
638,051	175,27
638,244	347,3
638,438	249
638,632	386,21
638,825	111,78
639,019	392,36
639,212	238,76
639,406	187,56
639,599	208,04
639,793	242,85
639,986	253,09
640,18	380,07
640,373	177,32
640,567	275,62
640,76	263,33
640,954	263,33
641,147	201,9
641,34	306,34
641,534	255,14
641,727	343,21
641,92	332,97
642,114	287,91
642,307	162,98
642,5	298,15
642,694	119,98
642,887	308,39
643,08	306,34
643,273	320,68
643,467	234,66
643,66	162,98
643,853	187,56
644,046	210,09
644,239	232,62
644,432	136,36
644,626	173,22
644,819	189,61
645,012	205,99
645,205	158,89
645,398	304,29
645,591	201,9
645,784	97,45
645,977	132,26
646,17	185,51
646,363	205,99
646,556	107,69
646,749	101,55
646,942	183,46
647,135	343,21
647,328	146,6
647,521	234,66
647,714	142,5
647,907	236,71
648,099	144,55
648,292	224,42
648,485	226,47
648,678	257,19
648,871	197,8
649,064	173,22
649,256	132,26
649,449	162,98
649,642	99,5
649,835	136,36
650,027	138,41
650,22	195,75
650,413	154,79
650,605	238,76
650,798	201,9
650,991	191,66
651,183	212,14
651,376	232,62
651,568	255,14
651,761	132,26
651,954	197,8
652,146	107,69
652,339	220,33
652,531	304,29
652,724	152,74
652,916	165,03
653,109	-47,96
653,301	234,66
653,494	242,85
653,686	136,36
653,879	287,91
654,071	255,14
654,263	144,55
654,456	66,73
654,648	236,71
654,84	189,61
655,033	126,12
655,225	224,42
655,417	48,3
655,61	218,28
655,802	228,52
655,994	318,63
656,186	148,65
656,379	197,8
656,571	156,84
656,763	62,63
656,955	138,41
657,148	148,65
657,34	330,92
657,532	44,2
657,724	117,93
657,916	179,37
658,108	257,19
658,3	259,24
658,492	255,14
658,684	52,39
658,876	246,95
659,068	148,65
659,26	50,35
659,452	44,2
659,644	158,89
659,836	273,57
660,028	165,03
660,22	173,22
660,412	124,07
660,604	165,03
660,796	199,85
660,988	226,47
661,18	122,02
661,372	298,15
661,563	138,41
661,755	128,17
661,947	74,92
662,139	83,11
662,331	208,04
662,522	122,02
662,714	119,98
662,906	64,68
663,097	167,08
663,289	99,5
663,481	33,96
663,673	214,18
663,864	109,74
664,056	281,77
664,247	107,69
664,439	222,38
664,631	152,74
664,822	138,41
665,014	158,89
665,205	38,06
665,397	212,14
665,588	193,7
665,78	136,36
665,971	242,85
666,163	152,74
666,354	179,37
666,546	142,5
666,737	117,93
666,929	128,17
667,12	85,16
667,311	150,7
667,503	218,28
667,694	187,56
667,885	195,75
668,077	193,7
668,268	-29,52
668,459	156,84
668,651	158,89
668,842	175,27
669,033	68,78
669,224	93,35
669,416	328,87
669,607	85,16
669,798	70,83
669,989	208,04
670,18	142,5
670,371	191,66
670,563	58,54
670,754	279,72
670,945	195,75
671,136	218,28
671,327	33,96
671,518	210,09
671,709	267,43
671,9	212,14
672,091	185,51
672,282	173,22
672,473	93,35
672,664	42,15
672,855	58,54
673,046	199,85
673,237	136,36
673,428	142,5
673,619	197,8
673,809	27,82
674	197,8
674,191	208,04
674,382	183,46
674,573	91,31
674,764	107,69
674,954	177,32
675,145	42,15
675,336	1,19
675,527	56,49
675,717	27,82
675,908	81,07
676,099	62,63
676,289	165,03
676,48	27,82
676,671	122,02
676,861	48,3
677,052	85,16
677,243	15,53
677,433	42,15
677,624	140,46
677,814	119,98
678,005	173,22
678,195	193,7
678,386	42,15
678,576	103,59
678,767	-41,81
678,957	91,31
679,148	115,88
679,338	261,29
679,529	173,22
679,719	36,01
679,909	183,46
680,1	158,89
680,29	148,65
680,481	19,63
680,671	210,09
680,861	42,15
681,052	150,7
681,242	-45,91
681,432	193,7
681,622	70,83
681,813	5,29
682,003	27,82
682,193	-58,2
682,383	138,41
682,573	33,96
682,764	27,82
682,954	85,16
683,144	162,98
683,334	48,3
683,524	66,73
683,714	126,12
683,904	117,93
684,094	119,98
684,284	40,11
684,474	197,8
684,664	99,5
684,854	44,2
685,044	140,46
685,234	105,64
685,424	33,96
685,614	33,96
685,804	251,05
685,994	165,03
686,184	124,07
686,374	31,91
686,564	91,31
686,753	44,2
686,943	11,43
687,133	79,02
687,323	29,87
687,513	111,78
687,702	60,59
687,892	76,97
688,082	142,5
688,272	183,46
688,461	134,31
688,651	298,15
688,841	132,26
689,03	33,96
689,22	44,2
689,41	74,92
689,599	97,45
689,789	11,43
689,979	173,22
690,168	113,83
690,358	132,26
690,547	62,63
690,737	128,17
690,926	54,44
691,116	126,12
691,305	136,36
691,495	105,64
691,684	-41,81
691,874	97,45
692,063	58,54
692,252	185,51
692,442	136,36
692,631	74,92
692,82	60,59
693,01	64,68
693,199	70,83
693,388	128,17
693,578	99,5
693,767	60,59
693,956	113,83
694,146	38,06
694,335	83,11
694,524	1,19
694,713	156,84
694,902	44,2
695,092	38,06
695,281	115,88
695,47	68,78
695,659	54,44
695,848	109,74
696,037	38,06
696,226	124,07
696,415	115,88
696,604	193,7
696,793	160,94
696,982	101,55
697,171	169,13
697,36	27,82
697,549	81,07
697,738	-123,73
697,927	25,77
698,116	33,96
698,305	132,26
698,494	95,4
698,683	42,15
698,872	226,47
699,061	87,21
699,25	60,59
699,438	140,46
699,627	74,92
699,816	234,66
700,005	-43,86
700,193	66,73
700,382	222,38
700,571	124,07
700,76	169,13
700,948	208,04
701,137	160,94
701,326	187,56
701,514	66,73
701,703	17,58
701,892	83,11
702,08	265,38
702,269	144,55
702,457	52,39
702,646	66,73
702,834	99,5
703,023	128,17
703,212	158,89
703,4	33,96
703,589	95,4
703,777	74,92
703,965	-39,76
704,154	29,87
704,342	-47,96
704,531	11,43
704,719	117,93
704,907	185,51
705,096	25,77
705,284	-13,14
705,472	140,46
705,661	101,55
705,849	128,17
706,037	177,32
706,226	93,35
706,414	156,84
706,602	70,83
706,79	216,23
706,979	-27,48
707,167	107,69
707,355	-19,29
707,543	99,5
707,731	115,88
707,919	60,59
708,107	-4,95
708,296	44,2
708,484	9,39
708,672	85,16
708,86	74,92
709,048	76,97
709,236	1,19
709,424	70,83
709,612	140,46
709,8	-90,96
709,988	58,54
710,176	113,83
710,364	132,26
710,551	38,06
710,739	29,87
710,927	36,01
711,115	93,35
711,303	119,98
711,491	158,89
711,679	27,82
711,866	83,11
712,054	17,58
712,242	33,96
712,43	253,09
712,617	48,3
712,805	152,74
712,993	21,67
713,181	-88,92
713,368	138,41
713,556	81,07
713,744	117,93
713,931	230,57
714,119	79,02
714,306	70,83
714,494	58,54
714,682	40,11
714,869	33,96
715,057	99,5
715,244	-82,77
715,432	124,07
715,619	-11,09
715,807	68,78
715,994	25,77
716,182	11,43
716,369	91,31
716,556	179,37
716,744	1,19
716,931	-62,29
717,119	79,02
717,306	-15,19
717,493	173,22
717,681	21,67
717,868	83,11
718,055	44,2
718,242	52,39
718,43	126,12
718,617	76,97
718,804	33,96
718,991	126,12
719,179	46,25
719,366	81,07
719,553	109,74
719,74	5,29
719,927	9,39
720,114	109,74
720,301	64,68
720,488	-66,39
720,676	-2,9
720,863	126,12
721,05	128,17
721,237	97,45
721,424	68,78
721,611	93,35
721,798	-58,2
721,985	-23,38
722,172	27,82
722,358	64,68
722,545	130,22
722,732	54,44
722,919	210,09
723,106	99,5
723,293	-31,57
723,48	87,21
723,667	46,25
723,853	201,9
724,04	29,87
724,227	148,65
724,414	-33,62
724,6	105,64
724,787	210,09
724,974	138,41
725,161	87,21
725,347	15,53
725,534	60,59
725,72	66,73
725,907	183,46
726,094	107,69
726,28	-2,9
726,467	76,97
726,653	-31,57
726,84	152,74
727,027	189,61
727,213	-23,38
727,4	66,73
727,586	21,67
727,773	66,73
727,959	-0,85
728,145	54,44
728,332	36,01
728,518	7,34
728,705	58,54
728,891	33,96
729,077	46,25
729,264	-47,96
729,45	3,24
729,636	115,88
729,823	87,21
730,009	197,8
730,195	29,87
730,382	76,97
730,568	31,91
730,754	103,59
730,94	60,59
731,126	64,68
731,313	19,63
731,499	103,59
731,685	105,64
731,871	93,35
732,057	52,39
732,243	66,73
732,429	109,74
732,615	234,66
732,801	58,54
732,987	91,31
733,173	17,58
733,359	33,96
733,545	66,73
733,731	-72,53
733,917	111,78
734,103	95,4
734,289	50,35
734,475	-7
734,661	205,99
734,847	31,91
735,033	19,63
735,219	101,55
735,404	54,44
735,59	27,82
735,776	-11,09
735,962	23,72
736,148	126,12
736,333	76,97
736,519	62,63
736,705	103,59
736,89	-15,19
737,076	72,87
737,262	-29,52
737,447	-19,29
737,633	1,19
737,819	70,83
738,004	54,44
738,19	-2,9
738,375	72,87
738,561	212,14
738,747	91,31
738,932	-29,52
739,118	165,03
739,303	115,88
739,489	97,45
739,674	-2,9
739,859	-52,05
740,045	89,26
740,23	103,59
740,416	-82,77
740,601	27,82
740,786	36,01
740,972	-29,52
741,157	-0,85
741,342	42,15
741,528	-93,01
741,713	113,83
741,898	-27,48
742,084	27,82
742,269	89,26
742,454	76,97
742,639	162,98
742,824	66,73
743,01	158,89
743,195	173,22
743,38	54,44
743,565	52,39
743,75	62,63
743,935	113,83
744,12	124,07
744,305	-27,48
744,49	42,15
744,675	115,88
744,86	-29,52
745,045	128,17
745,23	56,49
745,415	58,54
745,6	173,22
745,785	-23,38
745,97	224,42
746,155	105,64
746,34	138,41
746,525	66,73
746,71	128,17
746,895	-60,24
747,079	-0,85
747,264	-4,95
747,449	150,7
747,634	148,65
747,819	23,72
748,003	-13,14
748,188	1,19
748,373	54,44
748,557	126,12
748,742	-41,81
748,927	60,59
749,111	-2,9
749,296	46,25
749,481	93,35
749,665	95,4
749,85	-15,19
750,034	74,92
750,219	66,73
750,404	-35,67
750,588	83,11
750,773	50,35
750,957	25,77
751,141	99,5
751,326	36,01
751,51	-70,48
751,695	7,34
751,879	7,34
752,064	197,8
752,248	42,15
752,432	171,18
752,617	107,69
752,801	79,02
752,985	3,24
753,17	36,01
753,354	62,63
753,538	87,21
753,722	107,69
753,907	-17,24
754,091	-25,43
754,275	-11,09
754,459	-90,96
754,643	27,82
754,828	13,48
755,012	81,07
755,196	1,19
755,38	105,64
755,564	-7
755,748	52,39
755,932	132,26
756,116	97,45
756,3	93,35
756,484	-31,57
756,668	132,26
756,852	-50
757,036	1,19
757,22	148,65
757,404	-43,86
757,588	5,29
757,772	64,68
757,956	-7
758,14	208,04
758,323	-29,52
758,507	148,65
758,691	46,25
758,875	95,4
759,059	171,18
759,242	-7
759,426	60,59
759,61	105,64
759,794	3,24
759,977	91,31
760,161	271,53
760,345	197,8
760,528	99,5
760,712	66,73
760,895	99,5
761,079	56,49
761,263	-11,09
761,446	-35,67
761,63	21,67
761,813	205,99
761,997	-7
762,18	5,29
762,364	107,69
762,547	-88,92
762,731	29,87
762,914	101,55
763,098	-54,1
763,281	-15,19
763,464	36,01
763,648	50,35
763,831	-39,76
764,015	83,11
764,198	83,11
764,381	5,29
764,564	38,06
764,748	76,97
764,931	99,5
765,114	13,48
765,297	103,59
765,481	-7
765,664	60,59
765,847	42,15
766,03	234,66
766,213	-23,38
766,397	44,2
766,58	-4,95
766,763	126,12
766,946	23,72
767,129	54,44
767,312	-31,57
767,495	29,87
767,678	-80,72
767,861	27,82
768,044	-23,38
768,227	13,48
768,41	76,97
768,593	7,34
768,776	150,7
768,959	-15,19
769,142	171,18
769,324	62,63
769,507	87,21
769,69	93,35
769,873	-2,9
770,056	287,91
770,239	-31,57
770,421	187,56
770,604	101,55
770,787	42,15
770,97	87,21
771,152	-76,63
771,335	115,88
771,518	5,29
771,7	99,5
771,883	144,55
772,066	29,87
772,248	70,83
772,431	158,89
772,613	107,69
772,796	40,11
772,978	140,46
773,161	95,4
773,343	-21,33
773,526	-9,05
773,708	-62,29
773,891	-117,59
774,073	11,43
774,256	25,77
774,438	214,18
774,621	-15,19
774,803	103,59
774,985	5,29
775,168	21,67
775,35	52,39
775,532	97,45
775,715	-31,57
775,897	119,98
776,079	48,3
776,261	21,67
776,444	101,55
776,626	21,67
776,808	95,4
776,99	9,39
777,173	-19,29
777,355	48,3
777,537	-15,19
777,719	62,63
777,901	-13,14
778,083	3,24
778,265	-13,14
778,447	74,92
778,629	50,35
778,811	70,83
778,993	23,72
779,175	83,11
779,357	42,15
779,539	-35,67
779,721	122,02
779,903	83,11
780,085	-4,95
780,267	99,5
780,449	68,78
780,631	52,39
780,812	150,7
780,994	62,63
781,176	21,67
781,358	76,97
781,54	5,29
781,721	58,54
781,903	128,17
782,085	19,63
782,267	93,35
782,448	-17,24
782,63	44,2
782,812	83,11
782,993	83,11
783,175	-43,86
783,357	42,15
783,538	38,06
783,72	11,43
783,901	52,39
784,083	83,11
784,264	93,35
784,446	-129,88
784,627	-86,87
784,809	140,46
784,99	-82,77
785,172	54,44
785,353	-35,67
785,535	11,43
785,716	-47,96
785,897	5,29
786,079	-13,14
786,26	38,06
786,441	50,35
786,623	-101,2
786,804	-11,09
786,985	11,43
787,167	76,97
787,348	62,63
787,529	113,83
787,71	70,83
787,891	95,4
788,073	-27,48
788,254	-54,1
788,435	171,18
788,616	11,43
788,797	-113,49
788,978	19,63
789,159	58,54
789,34	29,87
789,522	44,2
789,703	7,34
789,884	99,5
790,065	13,48
790,246	107,69
790,427	1,19
790,607	195,75
790,788	103,59
790,969	-37,72
791,15	124,07
791,331	1,19
791,512	50,35
791,693	-107,35
791,874	-7
792,054	232,62
792,235	103,59
792,416	-99,16
792,597	-2,9
792,778	72,87
792,958	1,19
793,139	70,83
793,32	107,69
793,5	-29,52
793,681	103,59
793,862	60,59
794,042	11,43
794,223	-93,01
794,404	-62,29
794,584	-0,85
794,765	19,63
794,945	66,73
795,126	97,45
795,306	122,02
795,487	52,39
795,667	70,83
795,848	52,39
796,028	25,77
796,209	62,63
796,389	83,11
796,57	83,11
796,75	-11,09
796,93	17,58
797,111	-62,29
797,291	54,44
797,471	107,69
797,652	-31,57
797,832	-111,44
798,012	42,15
798,192	-64,34
798,373	-39,76
798,553	46,25
798,733	17,58
798,913	-15,19
799,093	-43,86
799,274	-23,38
799,454	25,77
799,634	74,92
799,814	93,35
799,994	140,46
800,174	60,59
800,354	-7
800,534	-88,92
800,714	74,92
800,894	-82,77
801,074	-90,96
801,254	-80,72
801,434	134,31
801,614	-43,86
801,794	-86,87
801,974	2319,5
802,154	3,24
802,334	87,21
802,514	-7
802,693	-19,29
802,873	7,34
803,053	150,7
803,233	89,26
803,413	3,24
803,592	13,48
803,772	-9,05
803,952	33,96
804,131	-64,34
804,311	189,61
804,491	169,13
804,67	-31,57
804,85	-15,19
805,03	101,55
805,209	54,44
805,389	9,39
805,568	-47,96
805,748	-41,81
805,928	9,39
806,107	11,43
806,287	60,59
806,466	40,11
806,646	-9,05
806,825	52,39
807,004	-15,19
807,184	-7
807,363	58,54
807,543	85,16
807,722	21,67
807,901	60,59
808,081	11,43
808,26	-93,01
808,439	42,15
808,619	17,58
808,798	66,73
808,977	66,73
809,156	91,31
809,336	1,19
809,515	64,68
809,694	-97,11
809,873	-19,29
810,052	83,11
810,231	165,03
810,411	15,53
810,59	95,4
810,769	-39,76
810,948	3,24
811,127	-33,62
811,306	5,29
811,485	-7
811,664	203,94
811,843	-4,95
812,022	-11,09
812,201	33,96
812,38	33,96
812,559	5,29
812,737	111,78
812,916	-123,73
813,095	-45,91
813,274	107,69
813,453	33,96
813,632	50,35
813,811	109,74
813,989	-72,53
814,168	5,29
814,347	-84,82
814,526	50,35
814,704	193,7
814,883	128,17
815,062	-84,82
815,24	21,67
815,419	-68,44
815,598	66,73
815,776	-70,48
815,955	68,78
816,133	-43,86
816,312	54,44
816,49	25,77
816,669	91,31
816,847	-37,72
817,026	103,59
817,204	-43,86
817,383	7,34
817,561	-60,24
817,74	97,45
817,918	-19,29
818,097	-41,81
818,275	15,53
818,453	81,07
818,632	66,73
818,81	17,58
818,988	-52,05
819,167	33,96
819,345	-37,72
819,523	-56,15
819,701	85,16
819,879	101,55
820,058	33,96
820,236	44,2
820,414	42,15
820,592	5,29
820,77	7,34
820,948	-50
821,127	-66,39
821,305	60,59
821,483	-52,05
821,661	91,31
821,839	44,2
822,017	-45,91
822,195	-56,15
822,373	87,21
822,551	60,59
822,729	136,36
822,907	-0,85
823,085	5,29
823,262	13,48
823,44	-33,62
823,618	3,24
823,796	42,15
823,974	17,58
824,152	-76,63
824,329	9,39
824,507	-13,14
824,685	11,43
824,863	81,07
825,04	27,82
825,218	27,82
825,396	126,12
825,574	33,96
825,751	17,58
825,929	103,59
826,107	-82,77
826,284	42,15
826,462	-13,14
826,639	-62,29
826,817	27,82
826,994	-56,15
827,172	-4,95
827,349	156,84
827,527	64,68
827,704	19,63
827,882	138,41
828,059	-66,39
828,237	11,43
828,414	50,35
828,591	-119,64
828,769	17,58
828,946	-47,96
829,124	38,06
829,301	162,98
829,478	46,25
829,655	17,58
829,833	72,87
830,01	-144,21
830,187	95,4
830,364	9,39
830,542	25,77
830,719	179,37
830,896	42,15
831,073	50,35
831,25	167,08
831,427	-11,09
831,604	29,87
831,782	40,11
831,959	136,36
832,136	11,43
832,313	101,55
832,49	-54,1
832,667	3,24
832,844	-70,48
833,021	58,54
833,198	40,11
833,374	70,83
833,551	126,12
833,728	-17,24
833,905	124,07
834,082	-127,83
834,259	31,91
834,436	103,59
834,612	-29,52
834,789	97,45
834,966	-43,86
835,143	42,15
835,319	25,77
835,496	-29,52
835,673	81,07
835,85	126,12
836,026	58,54
836,203	83,11
836,38	-33,62
836,556	-11,09
836,733	-2,9
836,909	171,18
837,086	-72,53
837,262	-86,87
837,439	-29,52
837,616	7,34
837,792	5,29
837,968	-70,48
838,145	-111,44
838,321	-13,14
838,498	21,67
838,674	-4,95
838,851	21,67
839,027	-47,96
839,203	3,24
839,38	68,78
839,556	-95,06
839,732	25,77
839,909	33,96
840,085	38,06
840,261	-33,62
840,437	19,63
840,614	-50
840,79	179,37
840,966	46,25
841,142	33,96
841,318	-25,43
841,494	70,83
841,671	113,83
841,847	-9,05
842,023	-29,52
842,199	-35,67
842,375	203,94
842,551	-115,54
842,727	-82,77
842,903	179,37
843,079	-95,06
843,255	66,73
843,431	46,25
843,607	132,26
843,783	-140,12
843,959	93,35
844,134	-56,15
844,31	83,11
844,486	-72,53
844,662	11,43
844,838	-4,95
845,013	40,11
845,189	64,68
845,365	27,82
845,541	19,63
845,716	17,58
845,892	66,73
846,068	-54,1
846,244	-13,14
846,419	52,39
846,595	-64,34
846,77	-50
846,946	95,4
847,122	9,39
847,297	-107,35
847,473	119,98
847,648	-58,2
847,824	1,19
847,999	-123,73
848,175	-4,95
848,35	40,11
848,526	109,74
848,701	46,25
848,876	79,02
849,052	105,64
849,227	17,58
849,403	36,01
849,578	89,26
849,753	83,11
849,929	29,87
850,104	17,58
850,279	11,43
850,454	-19,29
850,63	48,3
850,805	83,11
850,98	42,15
851,155	-13,14
851,33	21,67
851,505	-27,48
851,681	87,21
851,856	-13,14
852,031	68,78
852,206	11,43
852,381	-64,34
852,556	29,87
852,731	9,39
852,906	60,59
853,081	46,25
853,256	54,44
853,431	-39,76
853,606	-9,05
853,781	-43,86
853,956	-97,11
854,131	7,34
854,305	-109,4
854,48	-7
854,655	-56,15
854,83	-47,96
855,005	38,06
855,18	83,11
855,354	-64,34
855,529	66,73
855,704	-33,62
855,879	9,39
856,053	-13,14
856,228	23,72
856,403	-47,96
856,577	38,06
856,752	-80,72
856,926	-7
857,101	-2,9
857,276	-109,4
857,45	19,63
857,625	48,3
857,799	5,29
857,974	-27,48
858,148	-179,03
858,323	42,15
858,497	-29,52
858,672	-41,81
858,846	-33,62
859,02	-23,38
859,195	-21,33
859,369	-70,48
859,543	-13,14
859,718	-9,05
859,892	-13,14
860,066	58,54
860,241	-29,52
860,415	-31,57
860,589	-15,19
860,763	-23,38
860,938	5,29
861,112	9,39
861,286	-56,15
861,46	21,67
861,634	-4,95
861,808	76,97
861,982	-68,44
862,157	-31,57
862,331	19,63
862,505	-58,2
862,679	-41,81
862,853	-39,76
863,027	-33,62
863,201	214,18
863,375	-23,38
863,549	21,67
863,722	33,96
863,896	60,59
864,07	-64,34
864,244	48,3
864,418	44,2
864,592	27,82
864,766	66,73
864,939	44,2
865,113	-29,52
865,287	107,69
865,461	-121,68
865,634	-37,72
865,808	-19,29
865,982	-35,67
866,156	-17,24
866,329	-166,74
866,503	27,82
866,676	83,11
866,85	1,19
867,024	21,67
867,197	29,87
867,371	74,92
867,544	38,06
867,718	-125,78
867,891	93,35
868,065	-64,34
868,238	21,67
868,412	93,35
868,585	85,16
868,759	-72,53
868,932	-17,24
869,105	-113,49
869,279	9,39
869,452	-64,34
869,625	3,24
869,799	5,29
869,972	-105,3
870,145	-25,43
870,319	72,87
870,492	-68,44
870,665	-68,44
870,838	-47,96
871,011	-121,68
871,185	-7
871,358	11,43
871,531	56,49
871,704	5,29
871,877	-52,05
872,05	-45,91
872,223	5,29
872,396	85,16
872,569	58,54
872,742	-58,2
872,915	44,2
873,088	-15,19
873,261	-103,25
873,434	60,59
873,607	42,15
873,78	87,21
873,953	-60,24
874,126	44,2
874,299	52,39
874,471	-45,91
874,644	11,43
874,817	27,82
874,99	117,93
875,163	-76,63
875,335	42,15
875,508	7,34
875,681	154,79
875,853	-23,38
876,026	-33,62
876,199	40,11
876,371	19,63
876,544	17,58
876,717	7,34
876,889	52,39
877,062	-11,09
877,234	13,48
877,407	-52,05
877,579	3,24
877,752	5,29
877,924	113,83
878,097	122,02
878,269	31,91
878,442	15,53
878,614	68,78
878,786	44,2
878,959	66,73
879,131	33,96
879,303	-56,15
879,476	66,73
879,648	99,5
879,82	-23,38
879,993	-37,72
880,165	-54,1
880,337	-35,67
880,509	27,82
880,681	-105,3
880,854	-60,24
881,026	119,98
881,198	167,08
881,37	-7
881,542	105,64
881,714	-25,43
881,886	-11,09
882,058	68,78
882,23	-9,05
882,402	-66,39
882,574	25,77
882,746	19,63
882,918	52,39
883,09	27,82
883,262	25,77
883,434	-60,24
883,606	-105,3
883,778	-31,57
883,95	165,03
884,122	-95,06
884,293	91,31
884,465	23,72
884,637	54,44
884,809	-11,09
884,98	44,2
885,152	70,83
885,324	95,4
885,496	-62,29
885,667	-54,1
885,839	7,34
886,011	115,88
886,182	-21,33
886,354	76,97
886,525	11,43
886,697	19,63
886,869	-45,91
887,04	-39,76
887,212	124,07
887,383	173,22
887,555	128,17
887,726	13,48
887,897	3,24
888,069	11,43
888,24	99,5
888,412	-11,09
888,583	5,29
888,754	-11,09
888,926	-140,12
889,097	50,35
889,268	-23,38
889,44	11,43
889,611	-56,15
889,782	-45,91
889,953	-35,67
890,125	105,64
890,296	-19,29
890,467	-13,14
890,638	-0,85
890,809	70,83
890,98	25,77
891,151	44,2
891,323	203,94
891,494	-60,24
891,665	31,91
891,836	-52,05
892,007	-35,67
892,178	21,67
892,349	23,72
892,52	-47,96
892,691	-4,95
892,862	-45,91
893,032	-154,45
893,203	-23,38
893,374	68,78
893,545	99,5
893,716	-27,48
893,887	107,69
894,057	-4,95
894,228	-2,9
894,399	5,29
894,57	109,74
894,74	25,77
894,911	13,48
895,082	-41,81
895,253	-19,29
895,423	79,02
895,594	93,35
895,764	17,58
895,935	-78,68
896,106	109,74
896,276	-84,82
896,447	66,73
896,617	-39,76
896,788	-78,68
896,958	-72,53
897,129	-27,48
897,299	-7
897,47	109,74
897,64	83,11
897,81	-47,96
897,981	93,35
898,151	-31,57
898,322	79,02
898,492	13,48
898,662	-11,09
898,832	-93,01
899,003	-0,85
899,173	95,4
899,343	-37,72
899,513	-60,24
