Data from laserVert_USB4F104151__0__11-49-22-977.txt Node

Date: Wed Apr 15 11:49:22 EDT 2026
User: LaboPhy
Spectrometer: USB4F10415
Trigger mode: 4
Integration Time (sec): 1,000000E-1
Scans to average: 1
Electric dark correction enabled: true
Nonlinearity correction enabled: false
Boxcar width: 0
XAxis mode: Wavelengths
Number of Pixels in Spectrum: 3648
>>>>>Begin Spectral Data<<<<<
178,204	-431,1
178,424	-431,1
178,644	-431,1
178,864	-486,39
179,084	-431,1
179,304	-7,17
179,524	-29,7
179,744	-19,46
179,964	58,37
180,184	35,84
180,404	25,6
180,624	-78,85
180,844	27,65
181,064	-5,12
181,283	-39,94
181,503	-54,27
181,723	87,04
181,943	-19,46
182,163	152,57
182,383	-48,13
182,602	50,18
182,822	156,67
183,042	68,61
183,262	-97,28
183,482	3,07
183,701	58,37
183,921	35,84
184,141	-37,89
184,361	54,27
184,58	50,18
184,8	68,61
185,02	-44,03
185,239	99,33
185,459	33,79
185,679	166,91
185,898	-93,18
186,118	-7,17
186,338	60,42
186,557	160,77
186,777	-15,36
186,997	-31,74
187,216	33,79
187,436	328,7
187,655	54,27
187,875	146,43
188,095	17,41
188,314	74,75
188,534	119,81
188,753	17,41
188,973	66,56
189,192	205,82
189,412	52,22
189,631	-9,22
189,851	52,22
190,07	171,01
190,29	5,12
190,509	-68,61
190,729	7,17
190,948	115,71
191,168	220,16
191,387	48,13
191,607	25,6
191,826	121,85
192,045	91,13
192,265	68,61
192,484	123,9
192,704	54,27
192,923	-23,55
193,142	128
193,362	140,29
193,581	175,1
193,8	99,33
194,02	111,61
194,239	41,98
194,458	74,75
194,678	-25,6
194,897	33,79
195,116	66,56
195,335	68,61
195,555	62,46
195,774	21,5
195,993	91,13
196,212	1,02
196,432	1,02
196,651	-7,17
196,87	23,55
197,089	211,96
197,308	78,85
197,528	46,08
197,747	-33,79
197,966	132,09
198,185	115,71
198,404	-15,36
198,623	68,61
198,842	117,76
199,062	144,38
199,281	107,52
199,5	95,23
199,719	123,9
199,938	17,41
200,157	56,32
200,376	173,05
200,595	107,52
200,814	27,65
201,033	-68,61
201,252	199,68
201,471	107,52
201,69	95,23
201,909	80,89
202,128	142,33
202,347	166,91
202,566	13,31
202,785	-109,57
203,004	-46,08
203,223	353,27
203,442	21,5
203,661	-39,94
203,879	93,18
204,098	66,56
204,317	-1,02
204,536	95,23
204,755	107,52
204,974	152,57
205,193	-13,31
205,411	183,29
205,63	101,37
205,849	3,07
206,068	-66,56
206,287	-27,65
206,505	121,85
206,724	-3,07
206,943	3,07
207,162	19,46
207,381	17,41
207,599	-29,7
207,818	17,41
208,037	-68,61
208,255	46,08
208,474	-68,61
208,693	87,04
208,911	11,26
209,13	166,91
209,349	58,37
209,567	123,9
209,786	46,08
210,005	125,95
210,223	74,75
210,442	-105,47
210,661	29,7
210,879	25,6
211,098	3,07
211,316	-15,36
211,535	80,89
211,753	13,31
211,972	19,46
212,191	-56,32
212,409	31,74
212,628	111,61
212,846	41,98
213,065	15,36
213,283	87,04
213,502	33,79
213,72	97,28
213,938	17,41
214,157	-39,94
214,375	136,19
214,594	54,27
214,812	84,99
215,031	-17,41
215,249	44,03
215,467	21,5
215,686	-17,41
215,904	54,27
216,122	97,28
216,341	152,57
216,559	123,9
216,778	150,53
216,996	91,13
217,214	50,18
217,432	29,7
217,651	-113,66
217,869	107,52
218,087	17,41
218,306	33,79
218,524	-11,26
218,742	99,33
218,96	93,18
219,179	44,03
219,397	19,46
219,615	271,36
219,833	164,86
220,051	-64,51
220,27	119,81
220,488	140,29
220,706	76,8
220,924	-48,13
221,142	9,22
221,36	72,7
221,578	123,9
221,796	-7,17
222,015	84,99
222,233	109,57
222,451	123,9
222,669	46,08
222,887	33,79
223,105	-9,22
223,323	27,65
223,541	-46,08
223,759	142,33
223,977	74,75
224,195	222,2
224,413	152,57
224,631	64,51
224,849	70,65
225,067	140,29
225,285	52,22
225,503	-62,46
225,721	-164,86
225,939	74,75
226,157	25,6
226,375	234,49
226,592	-37,89
226,81	7,17
227,028	134,14
227,246	111,61
227,464	107,52
227,682	173,05
227,9	111,61
228,117	11,26
228,335	80,89
228,553	74,75
228,771	19,46
228,989	3,07
229,206	68,61
229,424	39,94
229,642	35,84
229,86	-56,32
230,077	140,29
230,295	-5,12
230,513	93,18
230,731	7,17
230,948	123,9
231,166	140,29
231,384	62,46
231,601	11,26
231,819	207,87
232,037	-39,94
232,254	-17,41
232,472	3,07
232,689	-27,65
232,907	109,57
233,125	-89,09
233,342	-41,98
233,56	-35,84
233,777	-13,31
233,995	3,07
234,213	21,5
234,43	195,58
234,648	27,65
234,865	1,02
235,083	123,9
235,3	158,72
235,518	54,27
235,735	66,56
235,953	64,51
236,17	35,84
236,388	29,7
236,605	41,98
236,822	84,99
237,04	84,99
237,257	33,79
237,475	-117,76
237,692	52,22
237,909	44,03
238,127	5,12
238,344	27,65
238,562	39,94
238,779	1,02
238,996	3,07
239,214	52,22
239,431	44,03
239,648	25,6
239,865	136,19
240,083	64,51
240,3	13,31
240,517	19,46
240,735	-52,22
240,952	68,61
241,169	29,7
241,386	78,85
241,603	-25,6
241,821	-37,89
242,038	1,02
242,255	158,72
242,472	-27,65
242,689	66,56
242,907	50,18
243,124	60,42
243,341	48,13
243,558	23,55
243,775	-62,46
243,992	-44,03
244,209	68,61
244,426	150,53
244,643	74,75
244,86	19,46
245,078	37,89
245,295	76,8
245,512	66,56
245,729	-5,12
245,946	107,52
246,163	44,03
246,38	17,41
246,597	91,13
246,814	52,22
247,031	70,65
247,248	-3,07
247,464	89,09
247,681	-25,6
247,898	27,65
248,115	11,26
248,332	-3,07
248,549	205,82
248,766	76,8
248,983	44,03
249,2	68,61
249,417	150,53
249,633	11,26
249,85	123,9
250,067	41,98
250,284	54,27
250,501	41,98
250,717	93,18
250,934	-41,98
251,151	39,94
251,368	44,03
251,585	87,04
251,801	19,46
252,018	-78,85
252,235	125,95
252,451	-91,13
252,668	84,99
252,885	115,71
253,102	-48,13
253,318	5,12
253,535	48,13
253,752	17,41
253,968	9,22
254,185	-54,27
254,401	41,98
254,618	-9,22
254,835	5,12
255,051	156,67
255,268	56,32
255,484	-3,07
255,701	-48,13
255,917	74,75
256,134	-97,28
256,351	82,94
256,567	-48,13
256,784	-19,46
257	-54,27
257,217	150,53
257,433	99,33
257,65	60,42
257,866	177,15
258,082	-95,23
258,299	41,98
258,515	44,03
258,732	1,02
258,948	7,17
259,165	27,65
259,381	-21,5
259,597	68,61
259,814	9,22
260,03	-13,31
260,246	9,22
260,463	238,59
260,679	134,14
260,895	134,14
261,112	54,27
261,328	29,7
261,544	17,41
261,761	148,48
261,977	-66,56
262,193	-48,13
262,409	66,56
262,626	33,79
262,842	33,79
263,058	17,41
263,274	101,37
263,49	7,17
263,707	44,03
263,923	128
264,139	-76,8
264,355	-19,46
264,571	91,13
264,787	23,55
265,004	109,57
265,22	-80,89
265,436	60,42
265,652	-27,65
265,868	23,55
266,084	-87,04
266,3	-37,89
266,516	39,94
266,732	66,56
266,948	-13,31
267,164	-21,5
267,38	117,76
267,596	93,18
267,812	156,67
268,028	70,65
268,244	-13,31
268,46	37,89
268,676	-15,36
268,892	66,56
269,108	93,18
269,324	-23,55
269,54	-117,76
269,756	156,67
269,972	-93,18
270,188	-15,36
270,403	-64,51
270,619	11,26
270,835	13,31
271,051	19,46
271,267	-31,74
271,483	5,12
271,698	136,19
271,914	115,71
272,13	74,75
272,346	-48,13
272,562	31,74
272,777	136,19
272,993	-52,22
273,209	-27,65
273,425	117,76
273,64	-87,04
273,856	35,84
274,072	-19,46
274,287	-29,7
274,503	95,23
274,719	148,48
274,934	-31,74
275,15	11,26
275,366	60,42
275,581	-7,17
275,797	70,65
276,012	68,61
276,228	60,42
276,444	52,22
276,659	107,52
276,875	-60,42
277,09	13,31
277,306	-9,22
277,521	74,75
277,737	109,57
277,952	107,52
278,168	50,18
278,383	-5,12
278,599	41,98
278,814	66,56
279,03	-48,13
279,245	181,25
279,461	89,09
279,676	134,14
279,892	-68,61
280,107	-7,17
280,322	27,65
280,538	-7,17
280,753	-31,74
280,969	37,89
281,184	37,89
281,399	74,75
281,615	46,08
281,83	66,56
282,045	-84,99
282,26	-15,36
282,476	50,18
282,691	84,99
282,906	70,65
283,122	-11,26
283,337	9,22
283,552	84,99
283,767	-60,42
283,983	160,77
284,198	29,7
284,413	82,94
284,628	-76,8
284,843	74,75
285,058	64,51
285,274	-7,17
285,489	-56,32
285,704	91,13
285,919	-17,41
286,134	3,07
286,349	-7,17
286,564	-1,02
286,779	177,15
286,995	-3,07
287,21	-68,61
287,425	91,13
287,64	-27,65
287,855	70,65
288,07	-62,46
288,285	185,34
288,5	44,03
288,715	158,72
288,93	35,84
289,145	3,07
289,36	52,22
289,575	17,41
289,79	64,51
290,004	-15,36
290,219	70,65
290,434	19,46
290,649	-21,5
290,864	3,07
291,079	52,22
291,294	33,79
291,509	17,41
291,724	54,27
291,938	-128
292,153	44,03
292,368	-41,98
292,583	60,42
292,798	128
293,012	93,18
293,227	58,37
293,442	35,84
293,657	111,61
293,871	128
294,086	144,38
294,301	179,2
294,516	144,38
294,73	115,71
294,945	-111,61
295,16	17,41
295,374	107,52
295,589	99,33
295,804	-27,65
296,018	60,42
296,233	187,39
296,447	107,52
296,662	5,12
296,877	117,76
297,091	154,62
297,306	7,17
297,52	11,26
297,735	76,8
297,949	125,95
298,164	-13,31
298,378	62,46
298,593	9,22
298,807	-76,8
299,022	11,26
299,236	138,24
299,451	50,18
299,665	-64,51
299,88	48,13
300,094	183,29
300,309	-21,5
300,523	78,85
300,737	-31,74
300,952	50,18
301,166	80,89
301,381	-60,42
301,595	-27,65
301,809	50,18
302,024	5,12
302,238	44,03
302,452	181,25
302,667	76,8
302,881	128
303,095	44,03
303,309	66,56
303,524	-54,27
303,738	84,99
303,952	-11,26
304,166	82,94
304,381	-144,38
304,595	156,67
304,809	-17,41
305,023	-13,31
305,237	60,42
305,452	-5,12
305,666	93,18
305,88	101,37
306,094	95,23
306,308	142,33
306,522	87,04
306,736	142,33
306,95	113,66
307,164	-13,31
307,379	56,32
307,593	185,34
307,807	58,37
308,021	123,9
308,235	62,46
308,449	-39,94
308,663	66,56
308,877	228,35
309,091	58,37
309,305	89,09
309,519	-78,85
309,733	166,91
309,947	-74,75
310,161	93,18
310,374	150,53
310,588	148,48
310,802	17,41
311,016	-7,17
311,23	9,22
311,444	-29,7
311,658	13,31
311,872	164,86
312,085	109,57
312,299	193,53
312,513	158,72
312,727	39,94
312,941	-156,67
313,154	113,66
313,368	-17,41
313,582	66,56
313,796	99,33
314,009	-50,18
314,223	105,47
314,437	52,22
314,651	56,32
314,864	-5,12
315,078	-72,7
315,292	-54,27
315,505	58,37
315,719	52,22
315,933	41,98
316,146	27,65
316,36	-15,36
316,573	171,01
316,787	183,29
317,001	52,22
317,214	44,03
317,428	29,7
317,641	9,22
317,855	13,31
318,068	-3,07
318,282	11,26
318,495	136,19
318,709	9,22
318,922	99,33
319,136	224,25
319,349	99,33
319,563	87,04
319,776	115,71
319,99	-13,31
320,203	70,65
320,417	23,55
320,63	156,67
320,843	144,38
321,057	50,18
321,27	-31,74
321,483	93,18
321,697	119,81
321,91	31,74
322,124	54,27
322,337	70,65
322,55	-46,08
322,763	119,81
322,977	-37,89
323,19	-29,7
323,403	27,65
323,617	37,89
323,83	156,67
324,043	37,89
324,256	9,22
324,469	-101,37
324,683	103,42
324,896	-1,02
325,109	-13,31
325,322	-60,42
325,535	50,18
325,748	105,47
325,962	-39,94
326,175	21,5
326,388	76,8
326,601	87,04
326,814	39,94
327,027	5,12
327,24	218,11
327,453	-162,81
327,666	50,18
327,879	109,57
328,092	27,65
328,305	62,46
328,518	-25,6
328,731	-31,74
328,944	-35,84
329,157	29,7
329,37	1,02
329,583	181,25
329,796	58,37
330,009	-78,85
330,222	109,57
330,435	35,84
330,648	76,8
330,861	101,37
331,073	91,13
331,286	146,43
331,499	31,74
331,712	-11,26
331,925	64,51
332,138	1,02
332,35	99,33
332,563	5,12
332,776	189,44
332,989	-60,42
333,202	-41,98
333,414	37,89
333,627	-105,47
333,84	-19,46
334,053	-64,51
334,265	52,22
334,478	-48,13
334,691	-70,65
334,903	17,41
335,116	-3,07
335,329	66,56
335,541	29,7
335,754	158,72
335,966	-5,12
336,179	82,94
336,392	39,94
336,604	-11,26
336,817	187,39
337,029	35,84
337,242	80,89
337,454	48,13
337,667	21,5
337,88	117,76
338,092	97,28
338,305	52,22
338,517	1,02
338,729	107,52
338,942	17,41
339,154	-19,46
339,367	-80,89
339,579	101,37
339,792	-19,46
340,004	78,85
340,217	13,31
340,429	27,65
340,641	-5,12
340,854	-64,51
341,066	-54,27
341,278	31,74
341,491	207,87
341,703	19,46
341,915	-99,33
342,128	121,85
342,34	15,36
342,552	9,22
342,764	-23,55
342,977	41,98
343,189	29,7
343,401	50,18
343,613	-78,85
343,826	44,03
344,038	-21,5
344,25	44,03
344,462	-15,36
344,674	111,61
344,886	74,75
345,099	25,6
345,311	15,36
345,523	13,31
345,735	-70,65
345,947	-25,6
346,159	37,89
346,371	25,6
346,583	1,02
346,795	158,72
347,007	50,18
347,219	9,22
347,431	9,22
347,643	109,57
347,855	-33,79
348,067	130,05
348,279	-66,56
348,491	-23,55
348,703	107,52
348,915	1,02
349,127	-58,37
349,339	17,41
349,551	-17,41
349,763	84,99
349,975	-25,6
350,187	58,37
350,399	136,19
350,61	25,6
350,822	-19,46
351,034	50,18
351,246	76,8
351,458	113,66
351,669	52,22
351,881	89,09
352,093	181,25
352,305	156,67
352,517	23,55
352,728	109,57
352,94	-11,26
353,152	46,08
353,363	-113,66
353,575	-52,22
353,787	62,46
353,999	17,41
354,21	199,68
354,422	-29,7
354,633	46,08
354,845	39,94
355,057	19,46
355,268	46,08
355,48	99,33
355,692	-60,42
355,903	-7,17
356,115	-76,8
356,326	-107,52
356,538	107,52
356,749	23,55
356,961	101,37
357,172	11,26
357,384	-62,46
357,595	123,9
357,807	-19,46
358,018	-62,46
358,23	46,08
358,441	87,04
358,653	132,09
358,864	44,03
359,075	9,22
359,287	-21,5
359,498	33,79
359,709	95,23
359,921	84,99
360,132	111,61
360,344	29,7
360,555	11,26
360,766	3,07
360,977	5,12
361,189	48,13
361,4	60,42
361,611	140,29
361,823	119,81
362,034	29,7
362,245	-35,84
362,456	-15,36
362,667	140,29
362,879	-78,85
363,09	15,36
363,301	41,98
363,512	-29,7
363,723	-37,89
363,935	-3,07
364,146	115,71
364,357	46,08
364,568	62,46
364,779	-60,42
364,99	134,14
365,201	-60,42
365,412	103,42
365,623	-44,03
365,834	39,94
366,045	99,33
366,256	80,89
366,467	136,19
366,678	35,84
366,889	33,79
367,1	13,31
367,311	148,48
367,522	-1,02
367,733	46,08
367,944	-1,02
368,155	48,13
368,366	93,18
368,577	44,03
368,788	74,75
368,999	-56,32
369,209	44,03
369,42	177,15
369,631	224,25
369,842	70,65
370,053	91,13
370,264	44,03
370,474	-33,79
370,685	70,65
370,896	29,7
371,107	134,14
371,317	60,42
371,528	-7,17
371,739	121,85
371,95	29,7
372,16	72,7
372,371	-46,08
372,582	17,41
372,792	13,31
373,003	101,37
373,214	74,75
373,424	29,7
373,635	-7,17
373,846	142,33
374,056	-17,41
374,267	91,13
374,477	-56,32
374,688	-68,61
374,898	111,61
375,109	23,55
375,319	72,7
375,53	140,29
375,74	1,02
375,951	58,37
376,161	33,79
376,372	119,81
376,582	60,42
376,793	89,09
377,003	-7,17
377,214	-44,03
377,424	66,56
377,635	31,74
377,845	-56,32
378,055	29,7
378,266	9,22
378,476	-1,02
378,686	121,85
378,897	89,09
379,107	107,52
379,317	66,56
379,528	7,17
379,738	70,65
379,948	-11,26
380,158	160,77
380,369	3,07
380,579	33,79
380,789	97,28
380,999	93,18
381,21	99,33
381,42	123,9
381,63	37,89
381,84	66,56
382,05	82,94
382,261	113,66
382,471	107,52
382,681	25,6
382,891	91,13
383,101	48,13
383,311	19,46
383,521	-21,5
383,731	130,05
383,941	70,65
384,151	33,79
384,361	70,65
384,571	17,41
384,781	54,27
384,991	168,96
385,201	238,59
385,411	58,37
385,621	15,36
385,831	17,41
386,041	-5,12
386,251	27,65
386,461	119,81
386,671	52,22
386,881	39,94
387,091	25,6
387,301	62,46
387,511	82,94
387,72	177,15
387,93	35,84
388,14	-74,75
388,35	35,84
388,56	115,71
388,769	64,51
388,979	-64,51
389,189	-54,27
389,399	3,07
389,609	74,75
389,818	142,33
390,028	21,5
390,238	52,22
390,447	-27,65
390,657	-54,27
390,867	11,26
391,076	-21,5
391,286	33,79
391,496	-64,51
391,705	54,27
391,915	35,84
392,125	84,99
392,334	-19,46
392,544	191,49
392,753	50,18
392,963	15,36
393,172	27,65
393,382	-60,42
393,591	177,15
393,801	-41,98
394,01	160,77
394,22	144,38
394,429	25,6
394,639	19,46
394,848	80,89
395,058	-5,12
395,267	41,98
395,477	166,91
395,686	31,74
395,895	193,53
396,105	205,82
396,314	128
396,524	58,37
396,733	-21,5
396,942	148,48
397,152	64,51
397,361	138,24
397,57	91,13
397,78	13,31
397,989	35,84
398,198	242,68
398,407	29,7
398,617	58,37
398,826	-11,26
399,035	-7,17
399,244	99,33
399,453	125,95
399,663	3,07
399,872	33,79
400,081	-72,7
400,29	91,13
400,499	1,02
400,708	80,89
400,917	56,32
401,127	29,7
401,336	27,65
401,545	175,1
401,754	148,48
401,963	72,7
402,172	7,17
402,381	-128
402,59	-11,26
402,799	41,98
403,008	103,42
403,217	39,94
403,426	58,37
403,635	-119,81
403,844	58,37
404,053	-54,27
404,262	13,31
404,471	117,76
404,68	58,37
404,888	60,42
405,097	-11,26
405,306	35,84
405,515	78,85
405,724	99,33
405,933	179,2
406,142	21,5
406,35	109,57
406,559	130,05
406,768	41,98
406,977	201,72
407,185	3,07
407,394	50,18
407,603	-78,85
407,812	103,42
408,02	218,11
408,229	66,56
408,438	31,74
408,646	-19,46
408,855	-11,26
409,064	138,24
409,272	-29,7
409,481	82,94
409,69	-37,89
409,898	-31,74
410,107	58,37
410,315	99,33
410,524	-80,89
410,733	-29,7
410,941	68,61
411,15	140,29
411,358	119,81
411,567	115,71
411,775	-17,41
411,984	29,7
412,192	37,89
412,401	-19,46
412,609	117,76
412,818	173,05
413,026	25,6
413,234	17,41
413,443	-7,17
413,651	19,46
413,86	50,18
414,068	150,53
414,276	232,44
414,485	-80,89
414,693	138,24
414,901	123,9
415,11	44,03
415,318	60,42
415,526	15,36
415,734	66,56
415,943	19,46
416,151	31,74
416,359	48,13
416,567	29,7
416,776	103,42
416,984	105,47
417,192	123,9
417,4	-97,28
417,608	-62,46
417,817	-21,5
418,025	1,02
418,233	201,72
418,441	-48,13
418,649	-72,7
418,857	41,98
419,065	158,72
419,273	-31,74
419,481	-21,5
419,689	60,42
419,897	15,36
420,105	-101,37
420,313	89,09
420,521	132,09
420,729	-11,26
420,937	-44,03
421,145	-44,03
421,353	62,46
421,561	134,14
421,769	103,42
421,977	-3,07
422,185	78,85
422,393	-5,12
422,601	64,51
422,809	62,46
423,017	158,72
423,224	99,33
423,432	70,65
423,64	37,89
423,848	125,95
424,056	-89,09
424,263	66,56
424,471	54,27
424,679	103,42
424,887	-3,07
425,094	70,65
425,302	13,31
425,51	-7,17
425,718	44,03
425,925	9,22
426,133	-64,51
426,341	148,48
426,548	82,94
426,756	17,41
426,964	35,84
427,171	41,98
427,379	113,66
427,586	74,75
427,794	123,9
428,001	25,6
428,209	48,13
428,417	113,66
428,624	74,75
428,832	54,27
429,039	25,6
429,247	62,46
429,454	-46,08
429,662	189,44
429,869	101,37
430,076	93,18
430,284	27,65
430,491	121,85
430,699	103,42
430,906	117,76
431,114	78,85
431,321	52,22
431,528	50,18
431,736	35,84
431,943	46,08
432,15	60,42
432,358	84,99
432,565	156,67
432,772	-128
432,979	166,91
433,187	33,79
433,394	46,08
433,601	-29,7
433,808	72,7
434,016	95,23
434,223	52,22
434,43	140,29
434,637	140,29
434,844	158,72
435,052	35,84
435,259	144,38
435,466	64,51
435,673	41,98
435,88	138,24
436,087	193,53
436,294	84,99
436,501	97,28
436,708	46,08
436,915	64,51
437,122	173,05
437,329	25,6
437,537	41,98
437,743	91,13
437,95	187,39
438,157	72,7
438,364	25,6
438,571	99,33
438,778	84,99
438,985	44,03
439,192	70,65
439,399	80,89
439,606	68,61
439,813	185,34
440,02	138,24
440,227	220,16
440,433	201,72
440,64	103,42
440,847	56,32
441,054	107,52
441,261	95,23
441,467	41,98
441,674	37,89
441,881	140,29
442,088	-7,17
442,294	175,1
442,501	173,05
442,708	185,34
442,914	27,65
443,121	146,43
443,328	82,94
443,534	107,52
443,741	117,76
443,948	-29,7
444,154	115,71
444,361	347,13
444,568	68,61
444,774	62,46
444,981	-15,36
445,187	248,83
445,394	60,42
445,6	60,42
445,807	164,86
446,013	203,77
446,22	-74,75
446,426	138,24
446,633	66,56
446,839	214,01
447,046	-13,31
447,252	66,56
447,459	107,52
447,665	74,75
447,871	205,82
448,078	211,96
448,284	166,91
448,491	222,2
448,697	181,25
448,903	171,01
449,11	203,77
449,316	148,48
449,522	240,64
449,728	156,67
449,935	144,38
450,141	195,58
450,347	214,01
450,553	218,11
450,76	130,05
450,966	150,53
451,172	132,09
451,378	138,24
451,584	156,67
451,791	230,4
451,997	164,86
452,203	91,13
452,409	214,01
452,615	222,2
452,821	121,85
453,027	99,33
453,233	279,55
453,44	113,66
453,646	166,91
453,852	230,4
454,058	146,43
454,264	183,29
454,47	222,2
454,676	140,29
454,882	261,12
455,088	207,87
455,294	123,9
455,5	197,63
455,705	164,86
455,911	136,19
456,117	177,15
456,323	156,67
456,529	144,38
456,735	189,44
456,941	154,62
457,147	242,68
457,352	166,91
457,558	121,85
457,764	252,92
457,97	183,29
458,176	205,82
458,381	31,74
458,587	285,69
458,793	197,63
458,999	132,09
459,204	136,19
459,41	166,91
459,616	115,71
459,821	216,06
460,027	132,09
460,233	244,73
460,438	218,11
460,644	132,09
460,85	279,55
461,055	216,06
461,261	232,44
461,466	84,99
461,672	189,44
461,878	74,75
462,083	220,16
462,289	58,37
462,494	111,61
462,7	193,53
462,905	199,68
463,111	275,45
463,316	273,4
463,522	211,96
463,727	121,85
463,932	220,16
464,138	70,65
464,343	156,67
464,549	273,4
464,754	209,92
464,959	234,49
465,165	160,77
465,37	109,57
465,575	103,42
465,781	201,72
465,986	115,71
466,191	117,76
466,397	177,15
466,602	236,54
466,807	158,72
467,012	224,25
467,218	117,76
467,423	87,04
467,628	162,81
467,833	109,57
468,038	146,43
468,244	3,07
468,449	58,37
468,654	203,77
468,859	109,57
469,064	103,42
469,269	154,62
469,474	189,44
469,679	283,64
469,885	179,2
470,09	148,48
470,295	68,61
470,5	142,33
470,705	238,59
470,91	171,01
471,115	183,29
471,32	134,14
471,525	357,37
471,73	283,64
471,935	54,27
472,139	87,04
472,344	91,13
472,549	177,15
472,754	164,86
472,959	236,54
473,164	103,42
473,369	105,47
473,574	183,29
473,778	166,91
473,983	224,25
474,188	216,06
474,393	140,29
474,598	171,01
474,802	146,43
475,007	134,14
475,212	277,5
475,417	87,04
475,621	246,78
475,826	17,41
476,031	89,09
476,235	46,08
476,44	82,94
476,645	123,9
476,849	93,18
477,054	70,65
477,259	62,46
477,463	181,25
477,668	295,93
477,872	214,01
478,077	185,34
478,282	78,85
478,486	197,63
478,691	144,38
478,895	115,71
479,1	224,25
479,304	203,77
479,509	181,25
479,713	191,49
479,918	269,31
480,122	3,07
480,326	238,59
480,531	136,19
480,735	222,2
480,94	152,57
481,144	228,35
481,348	136,19
481,553	179,2
481,757	87,04
481,961	164,86
482,166	156,67
482,37	68,61
482,574	181,25
482,778	130,05
482,983	214,01
483,187	136,19
483,391	115,71
483,595	175,1
483,8	195,58
484,004	254,97
484,208	103,42
484,412	232,44
484,616	259,07
484,821	132,09
485,025	179,2
485,229	56,32
485,433	177,15
485,637	134,14
485,841	111,61
486,045	195,58
486,249	234,49
486,453	123,9
486,657	148,48
486,861	3,07
487,065	160,77
487,269	193,53
487,473	175,1
487,677	183,29
487,881	361,47
488,085	177,15
488,289	111,61
488,493	125,95
488,697	269,31
488,901	191,49
489,105	50,18
489,309	130,05
489,512	281,6
489,716	230,4
489,92	164,86
490,124	168,96
490,328	261,12
490,531	175,1
490,735	222,2
490,939	109,57
491,143	207,87
491,346	175,1
491,55	105,47
491,754	136,19
491,958	177,15
492,161	214,01
492,365	185,34
492,569	132,09
492,772	265,21
492,976	281,6
493,18	125,95
493,383	158,72
493,587	138,24
493,79	173,05
493,994	35,84
494,197	111,61
494,401	109,57
494,605	181,25
494,808	119,81
495,012	230,4
495,215	263,16
495,419	238,59
495,622	164,86
495,825	103,42
496,029	201,72
496,232	107,52
496,436	238,59
496,639	220,16
496,843	181,25
497,046	105,47
497,249	279,55
497,453	181,25
497,656	84,99
497,859	244,73
498,063	191,49
498,266	144,38
498,469	-27,65
498,673	78,85
498,876	234,49
499,079	82,94
499,282	144,38
499,485	377,85
499,689	214,01
499,892	316,41
500,095	52,22
500,298	199,68
500,501	48,13
500,705	185,34
500,908	193,53
501,111	58,37
501,314	230,4
501,517	336,89
501,72	224,25
501,923	205,82
502,126	209,92
502,329	353,27
502,532	254,97
502,735	222,2
502,938	287,74
503,141	265,21
503,344	125,95
503,547	347,13
503,75	138,24
503,953	269,31
504,156	279,55
504,359	201,72
504,562	230,4
504,765	214,01
504,968	254,97
505,17	308,22
505,373	318,46
505,576	252,92
505,779	259,07
505,982	111,61
506,185	281,6
506,387	201,72
506,59	248,83
506,793	199,68
506,996	187,39
507,198	308,22
507,401	373,75
507,604	254,97
507,807	250,88
508,009	326,65
508,212	388,09
508,415	226,3
508,617	312,32
508,82	283,64
509,022	328,7
509,225	287,74
509,428	232,44
509,63	289,79
509,833	320,51
510,035	435,19
510,238	273,4
510,44	193,53
510,643	345,08
510,845	330,75
511,048	340,99
511,25	304,12
511,453	238,59
511,655	304,12
511,858	379,9
512,06	506,87
512,262	271,36
512,465	275,45
512,667	273,4
512,87	191,49
513,072	353,27
513,274	295,93
513,477	152,57
513,679	273,4
513,881	216,06
514,084	197,63
514,286	408,57
514,488	314,36
514,69	300,03
514,893	265,21
515,095	181,25
515,297	179,2
515,499	322,56
515,701	189,44
515,904	363,51
516,106	381,95
516,308	371,71
516,51	246,78
516,712	404,47
516,914	363,51
517,116	214,01
517,318	263,16
517,52	244,73
517,722	353,27
517,925	146,43
518,127	287,74
518,329	314,36
518,531	195,58
518,733	287,74
518,935	234,49
519,136	345,08
519,338	207,87
519,54	416,76
519,742	267,26
519,944	465,91
520,146	326,65
520,348	257,02
520,55	310,27
520,752	234,49
520,954	291,84
521,155	320,51
521,357	252,92
521,559	357,37
521,761	338,94
521,963	252,92
522,164	359,42
522,366	312,32
522,568	367,61
522,77	353,27
522,971	412,67
523,173	271,36
523,375	412,67
523,576	242,68
523,778	304,12
523,98	265,21
524,181	410,62
524,383	353,27
524,584	332,79
524,786	332,79
524,988	234,49
525,189	363,51
525,391	381,95
525,592	197,63
525,794	295,93
525,995	334,84
526,197	269,31
526,398	527,35
526,6	353,27
526,801	316,41
527,003	222,2
527,204	353,27
527,406	371,71
527,607	345,08
527,808	371,71
528,01	363,51
528,211	486,39
528,412	271,36
528,614	355,32
528,815	453,63
529,016	418,81
529,218	449,53
529,419	351,23
529,62	297,98
529,822	459,77
530,023	527,35
530,224	715,77
530,425	902,13
530,626	1055,73
530,828	1713,13
531,029	2409,44
531,23	3777,48
531,431	5686,19
531,632	8670,08
531,833	12047,18
532,035	16499,46
532,236	20832,96
532,437	25152,13
532,638	28338,77
532,839	31293,99
533,04	33720,83
533,241	34404,85
533,442	35746,27
533,643	34558,45
533,844	32393,75
534,045	30073,4
534,246	27058,79
534,447	23464,6
534,648	19704,53
534,849	16913,15
535,05	14037,8
535,251	11383,63
535,451	9153,4
535,652	7099,28
535,853	5596,07
536,054	4131,78
536,255	2964,43
536,456	2032,61
536,657	1575,91
536,857	1092,59
537,058	963,57
537,259	701,43
537,46	574,46
537,66	465,91
537,861	521,21
538,062	410,62
538,263	279,55
538,463	435,19
538,664	484,34
538,865	287,74
539,065	441,34
539,266	463,86
539,466	361,47
539,667	392,19
539,868	314,36
540,068	304,12
540,269	291,84
540,469	318,46
540,67	369,66
540,87	408,57
541,071	236,54
541,271	363,51
541,472	367,61
541,672	310,27
541,873	447,48
542,073	332,79
542,274	205,82
542,474	295,93
542,675	277,5
542,875	338,94
543,075	199,68
543,276	265,21
543,476	361,47
543,676	304,12
543,877	232,44
544,077	306,17
544,277	367,61
544,478	289,79
544,678	265,21
544,878	259,07
545,078	283,64
545,279	334,84
545,479	265,21
545,679	216,06
545,879	291,84
546,079	336,89
546,28	197,63
546,48	293,88
546,68	390,14
546,88	320,51
547,08	295,93
547,28	369,66
547,48	248,83
547,68	320,51
547,88	281,6
548,081	310,27
548,281	191,49
548,481	254,97
548,681	271,36
548,881	414,71
549,081	383,99
549,28	345,08
549,48	279,55
549,68	340,99
549,88	257,02
550,08	238,59
550,28	242,68
550,48	338,94
550,68	242,68
550,88	238,59
551,08	275,45
551,279	404,47
551,479	283,64
551,679	353,27
551,879	214,01
552,079	310,27
552,278	232,44
552,478	478,2
552,678	279,55
552,878	357,37
553,077	193,53
553,277	222,2
553,477	289,79
553,676	322,56
553,876	279,55
554,076	283,64
554,275	293,88
554,475	279,55
554,674	345,08
554,874	287,74
555,074	191,49
555,273	222,2
555,473	238,59
555,672	230,4
555,872	226,3
556,071	289,79
556,271	390,14
556,47	265,21
556,67	357,37
556,869	304,12
557,068	226,3
557,268	414,71
557,467	244,73
557,667	340,99
557,866	277,5
558,065	297,98
558,265	291,84
558,464	179,2
558,663	261,12
558,863	412,67
559,062	336,89
559,261	271,36
559,461	338,94
559,66	275,45
559,859	203,77
560,058	232,44
560,258	195,58
560,457	336,89
560,656	343,03
560,855	134,14
561,054	414,71
561,253	349,18
561,453	281,6
561,652	277,5
561,851	312,32
562,05	152,57
562,249	136,19
562,448	302,08
562,647	214,01
562,846	273,4
563,045	295,93
563,244	289,79
563,443	338,94
563,642	156,67
563,841	257,02
564,04	216,06
564,239	242,68
564,438	312,32
564,637	130,05
564,836	261,12
565,035	310,27
565,234	222,2
565,432	302,08
565,631	320,51
565,83	228,35
566,029	191,49
566,228	310,27
566,427	328,7
566,625	152,57
566,824	386,04
567,023	252,92
567,222	214,01
567,42	230,4
567,619	275,45
567,818	273,4
568,016	394,23
568,215	304,12
568,414	373,75
568,612	345,08
568,811	287,74
569,01	277,5
569,208	238,59
569,407	312,32
569,605	347,13
569,804	306,17
570,002	361,47
570,201	209,92
570,4	324,6
570,598	232,44
570,797	320,51
570,995	162,81
571,193	277,5
571,392	254,97
571,59	271,36
571,789	242,68
571,987	320,51
572,186	347,13
572,384	222,2
572,582	201,72
572,781	306,17
572,979	254,97
573,177	199,68
573,376	308,22
573,574	369,66
573,772	152,57
573,971	136,19
574,169	240,64
574,367	334,84
574,565	214,01
574,763	254,97
574,962	232,44
575,16	246,78
575,358	152,57
575,556	248,83
575,754	248,83
575,952	224,25
576,151	320,51
576,349	287,74
576,547	171,01
576,745	228,35
576,943	330,75
577,141	236,54
577,339	222,2
577,537	216,06
577,735	338,94
577,933	267,26
578,131	105,47
578,329	336,89
578,527	365,56
578,725	279,55
578,923	152,57
579,121	277,5
579,319	109,57
579,516	156,67
579,714	482,3
579,912	224,25
580,11	140,29
580,308	214,01
580,506	230,4
580,704	146,43
580,901	115,71
581,099	322,56
581,297	246,78
581,495	214,01
581,692	220,16
581,89	373,75
582,088	332,79
582,285	238,59
582,483	181,25
582,681	283,64
582,878	246,78
583,076	232,44
583,274	330,75
583,471	367,61
583,669	199,68
583,866	183,29
584,064	175,1
584,262	171,01
584,459	156,67
584,657	304,12
584,854	240,64
585,052	246,78
585,249	279,55
585,447	308,22
585,644	89,09
585,841	400,38
586,039	259,07
586,236	429,05
586,434	238,59
586,631	228,35
586,828	179,2
587,026	263,16
587,223	226,3
587,42	232,44
587,618	295,93
587,815	322,56
588,012	205,82
588,21	232,44
588,407	295,93
588,604	340,99
588,801	300,03
588,999	232,44
589,196	326,65
589,393	109,57
589,59	214,01
589,787	265,21
589,984	240,64
590,182	236,54
590,379	207,87
590,576	353,27
590,773	214,01
590,97	238,59
591,167	293,88
591,364	263,16
591,561	222,2
591,758	402,43
591,955	271,36
592,152	257,02
592,349	185,34
592,546	257,02
592,743	183,29
592,94	330,75
593,137	377,85
593,334	355,32
593,531	347,13
593,727	248,83
593,924	234,49
594,121	340,99
594,318	181,25
594,515	318,46
594,712	414,71
594,908	412,67
595,105	144,38
595,302	297,98
595,499	297,98
595,696	461,82
595,892	312,32
596,089	386,04
596,286	201,72
596,482	404,47
596,679	230,4
596,876	257,02
597,072	302,08
597,269	232,44
597,466	320,51
597,662	265,21
597,859	271,36
598,055	240,64
598,252	351,23
598,448	312,32
598,645	265,21
598,841	304,12
599,038	406,52
599,234	347,13
599,431	281,6
599,627	324,6
599,824	322,56
600,02	250,88
600,217	211,96
600,413	238,59
600,609	281,6
600,806	517,11
601,002	240,64
601,198	107,52
601,395	322,56
601,591	277,5
601,787	271,36
601,984	388,09
602,18	345,08
602,376	230,4
602,572	369,66
602,769	408,57
602,965	269,31
603,161	353,27
603,357	457,72
603,553	390,14
603,75	224,25
603,946	267,26
604,142	345,08
604,338	455,67
604,534	214,01
604,73	291,84
604,926	293,88
605,122	295,93
605,318	326,65
605,514	369,66
605,71	209,92
605,906	295,93
606,102	220,16
606,298	402,43
606,494	361,47
606,69	361,47
606,886	304,12
607,082	271,36
607,278	271,36
607,474	355,32
607,67	404,47
607,866	173,05
608,062	267,26
608,257	355,32
608,453	193,53
608,649	359,42
608,845	218,11
609,041	158,72
609,236	330,75
609,432	338,94
609,628	314,36
609,824	390,14
610,019	230,4
610,215	269,31
610,411	459,77
610,606	455,67
610,802	220,16
610,998	353,27
611,193	361,47
611,389	214,01
611,584	322,56
611,78	175,1
611,976	222,2
612,171	486,39
612,367	416,76
612,562	326,65
612,758	302,08
612,953	259,07
613,149	279,55
613,344	300,03
613,539	199,68
613,735	343,03
613,93	300,03
614,126	279,55
614,321	336,89
614,517	418,81
614,712	400,38
614,907	353,27
615,103	304,12
615,298	295,93
615,493	275,45
615,688	216,06
615,884	332,79
616,079	197,63
616,274	267,26
616,47	228,35
616,665	197,63
616,86	304,12
617,055	263,16
617,25	261,12
617,445	293,88
617,641	328,7
617,836	263,16
618,031	265,21
618,226	265,21
618,421	312,32
618,616	187,39
618,811	254,97
619,006	230,4
619,201	443,39
619,396	320,51
619,591	136,19
619,786	320,51
619,981	394,23
620,176	193,53
620,371	291,84
620,566	297,98
620,761	328,7
620,956	388,09
621,151	185,34
621,346	254,97
621,541	230,4
621,735	347,13
621,93	304,12
622,125	279,55
622,32	236,54
622,515	279,55
622,709	363,51
622,904	328,7
623,099	183,29
623,294	371,71
623,488	316,41
623,683	273,4
623,878	267,26
624,072	437,24
624,267	203,77
624,462	261,12
624,656	173,05
624,851	279,55
625,046	222,2
625,24	269,31
625,435	171,01
625,629	281,6
625,824	416,76
626,018	330,75
626,213	336,89
626,407	263,16
626,602	326,65
626,796	273,4
626,991	326,65
627,185	246,78
627,38	347,13
627,574	304,12
627,768	347,13
627,963	263,16
628,157	336,89
628,352	193,53
628,546	181,25
628,74	228,35
628,935	238,59
629,129	271,36
629,323	297,98
629,517	164,86
629,712	244,73
629,906	259,07
630,1	173,05
630,294	394,23
630,489	242,68
630,683	216,06
630,877	197,63
631,071	310,27
631,265	246,78
631,459	291,84
631,653	205,82
631,848	293,88
632,042	312,32
632,236	130,05
632,43	287,74
632,624	271,36
632,818	242,68
633,012	259,07
633,206	263,16
633,4	259,07
633,594	349,18
633,788	238,59
633,982	369,66
634,176	361,47
634,369	259,07
634,563	218,11
634,757	173,05
634,951	271,36
635,145	390,14
635,339	183,29
635,533	263,16
635,726	320,51
635,92	226,3
636,114	197,63
636,308	181,25
636,501	263,16
636,695	273,4
636,889	62,46
637,083	263,16
637,276	207,87
637,47	171,01
637,664	103,42
637,857	166,91
638,051	275,45
638,244	281,6
638,438	230,4
638,632	347,13
638,825	62,46
639,019	414,71
639,212	216,06
639,406	285,69
639,599	197,63
639,793	222,2
639,986	250,88
640,18	347,13
640,373	181,25
640,567	234,49
640,76	267,26
640,954	310,27
641,147	338,94
641,34	209,92
641,534	250,88
641,727	232,44
641,92	291,84
642,114	252,92
642,307	189,44
642,5	279,55
642,694	238,59
642,887	224,25
643,08	293,88
643,273	347,13
643,467	226,3
643,66	175,1
643,853	136,19
644,046	306,17
644,239	150,53
644,432	128
644,626	107,52
644,819	166,91
645,012	144,38
645,205	308,22
645,398	291,84
645,591	140,29
645,784	166,91
645,977	138,24
646,17	222,2
646,363	191,49
646,556	91,13
646,749	107,52
646,942	238,59
647,135	250,88
647,328	220,16
647,521	199,68
647,714	187,39
647,907	177,15
648,099	132,09
648,292	271,36
648,485	203,77
648,678	205,82
648,871	68,61
649,064	144,38
649,256	115,71
649,449	123,9
649,642	111,61
649,835	140,29
650,027	138,24
650,22	248,83
650,413	193,53
650,605	156,67
650,798	138,24
650,991	125,95
651,183	148,48
651,376	230,4
651,568	320,51
651,761	140,29
651,954	177,15
652,146	115,71
652,339	222,2
652,531	300,03
652,724	166,91
652,916	78,85
653,109	56,32
653,301	242,68
653,494	314,36
653,686	189,44
653,879	261,12
654,071	224,25
654,263	154,62
654,456	148,48
654,648	197,63
654,84	216,06
655,033	95,23
655,225	312,32
655,417	-11,26
655,61	306,17
655,802	195,58
655,994	283,64
656,186	44,03
656,379	187,39
656,571	56,32
656,763	72,7
656,955	41,98
657,148	144,38
657,34	283,64
657,532	99,33
657,724	140,29
657,916	142,33
658,108	234,49
658,3	281,6
658,492	293,88
658,684	52,22
658,876	158,72
659,068	44,03
659,26	97,28
659,452	78,85
659,644	166,91
659,836	254,97
660,028	115,71
660,22	162,81
660,412	232,44
660,604	156,67
660,796	173,05
660,988	232,44
661,18	107,52
661,372	205,82
661,563	183,29
661,755	140,29
661,947	56,32
662,139	128
662,331	82,94
662,522	136,19
662,714	5,12
662,906	140,29
663,097	128
663,289	35,84
663,481	-44,03
663,673	91,13
663,864	160,77
664,056	207,87
664,247	115,71
664,439	248,83
664,631	199,68
664,822	189,44
665,014	68,61
665,205	148,48
665,397	101,37
665,588	201,72
665,78	189,44
665,971	230,4
666,163	111,61
666,354	164,86
666,546	74,75
666,737	156,67
666,929	99,33
667,12	82,94
667,311	132,09
667,503	60,42
667,694	132,09
667,885	125,95
668,077	156,67
668,268	-44,03
668,459	166,91
668,651	78,85
668,842	195,58
669,033	25,6
669,224	56,32
669,416	347,13
669,607	113,66
669,798	62,46
669,989	191,49
670,18	50,18
670,371	156,67
670,563	89,09
670,754	177,15
670,945	99,33
671,136	144,38
671,327	52,22
671,518	150,53
671,709	187,39
671,9	162,81
672,091	240,64
672,282	113,66
672,473	93,18
672,664	41,98
672,855	76,8
673,046	146,43
673,237	82,94
673,428	125,95
673,619	171,01
673,809	23,55
674	218,11
674,191	50,18
674,382	109,57
674,573	52,22
674,764	80,89
674,954	191,49
675,145	9,22
675,336	78,85
675,527	66,56
675,717	74,75
675,908	103,42
676,099	68,61
676,289	181,25
676,48	37,89
676,671	117,76
676,861	37,89
677,052	128
677,243	33,79
677,433	33,79
677,624	134,14
677,814	82,94
678,005	37,89
678,195	197,63
678,386	66,56
678,576	107,52
678,767	54,27
678,957	66,56
679,148	179,2
679,338	199,68
679,529	111,61
679,719	9,22
679,909	113,66
680,1	136,19
680,29	78,85
680,481	117,76
680,671	205,82
680,861	60,42
681,052	82,94
681,242	95,23
681,432	125,95
681,622	78,85
681,813	-41,98
682,003	46,08
682,193	58,37
682,383	78,85
682,573	-15,36
682,764	46,08
682,954	52,22
683,144	175,1
683,334	66,56
683,524	68,61
683,714	109,57
683,904	193,53
684,094	19,46
684,284	46,08
684,474	142,33
684,664	123,9
684,854	62,46
685,044	76,8
685,234	3,07
685,424	99,33
685,614	41,98
685,804	254,97
685,994	84,99
686,184	115,71
686,374	31,74
686,564	11,26
686,753	52,22
686,943	1,02
687,133	66,56
687,323	33,79
687,513	80,89
687,702	50,18
687,892	-7,17
688,082	74,75
688,272	107,52
688,461	74,75
688,651	222,2
688,841	173,05
689,03	111,61
689,22	52,22
689,41	91,13
689,599	150,53
689,789	19,46
689,979	185,34
690,168	19,46
690,358	177,15
690,547	70,65
690,737	152,57
690,926	52,22
691,116	142,33
691,305	95,23
691,495	115,71
691,684	3,07
691,874	21,5
692,063	97,28
692,252	205,82
692,442	144,38
692,631	60,42
692,82	21,5
693,01	140,29
693,199	93,18
693,388	70,65
693,578	74,75
693,767	52,22
693,956	11,26
694,146	25,6
694,335	91,13
694,524	132,09
694,713	138,24
694,902	19,46
695,092	21,5
695,281	117,76
695,47	-1,02
695,659	9,22
695,848	121,85
696,037	9,22
696,226	156,67
696,415	78,85
696,604	173,05
696,793	101,37
696,982	-3,07
697,171	140,29
697,36	56,32
697,549	109,57
697,738	-39,94
697,927	66,56
698,116	-9,22
698,305	13,31
698,494	68,61
698,683	82,94
698,872	205,82
699,061	54,27
699,25	41,98
699,438	93,18
699,627	-44,03
699,816	140,29
700,005	103,42
700,193	54,27
700,382	113,66
700,571	66,56
700,76	48,13
700,948	168,96
701,137	93,18
701,326	138,24
701,514	-11,26
701,703	156,67
701,892	103,42
702,08	304,12
702,269	87,04
702,457	-46,08
702,646	60,42
702,834	29,7
703,023	162,81
703,212	113,66
703,4	62,46
703,589	23,55
703,777	87,04
703,965	-7,17
704,154	-15,36
704,342	29,7
704,531	62,46
704,719	66,56
704,907	58,37
705,096	-3,07
705,284	-50,18
705,472	84,99
705,661	72,7
705,849	101,37
706,037	93,18
706,226	84,99
706,414	31,74
706,602	-27,65
706,79	74,75
706,979	68,61
707,167	103,42
707,355	-29,7
707,543	76,8
707,731	46,08
707,919	91,13
708,107	52,22
708,296	-46,08
708,484	-39,94
708,672	-25,6
708,86	138,24
709,048	91,13
709,236	35,84
709,424	125,95
709,612	115,71
709,8	13,31
709,988	109,57
710,176	105,47
710,364	119,81
710,551	9,22
710,739	62,46
710,927	-21,5
711,115	62,46
711,303	119,81
711,491	132,09
711,679	9,22
711,866	144,38
712,054	27,65
712,242	128
712,43	74,75
712,617	29,7
712,805	89,09
712,993	58,37
713,181	-93,18
713,368	76,8
713,556	128
713,744	58,37
713,931	367,61
714,119	52,22
714,306	54,27
714,494	3,07
714,682	27,65
714,869	1,02
715,057	1,02
715,244	-72,7
715,432	103,42
715,619	-21,5
715,807	7,17
715,994	-9,22
716,182	-52,22
716,369	128
716,556	113,66
716,744	-82,94
716,931	25,6
717,119	15,36
717,306	-1,02
717,493	48,13
717,681	-7,17
717,868	97,28
718,055	1,02
718,242	-46,08
718,43	17,41
718,617	103,42
718,804	11,26
718,991	15,36
719,179	11,26
719,366	160,77
719,553	23,55
719,74	-21,5
719,927	5,12
720,114	-52,22
720,301	1,02
720,488	-44,03
720,676	39,94
720,863	93,18
721,05	220,16
721,237	41,98
721,424	62,46
721,611	52,22
721,798	-25,6
721,985	-3,07
722,172	3,07
722,358	46,08
722,545	117,76
722,732	105,47
722,919	132,09
723,106	17,41
723,293	44,03
723,48	60,42
723,667	-5,12
723,853	144,38
724,04	48,13
724,227	164,86
724,414	78,85
724,6	111,61
724,787	187,39
724,974	203,77
725,161	-3,07
725,347	-76,8
725,534	52,22
725,72	44,03
725,907	115,71
726,094	93,18
726,28	21,5
726,467	54,27
726,653	-39,94
726,84	152,57
727,027	242,68
727,213	-11,26
727,4	48,13
727,586	111,61
727,773	5,12
727,959	9,22
728,145	66,56
728,332	19,46
728,518	-25,6
728,705	181,25
728,891	41,98
729,077	3,07
729,264	-21,5
729,45	13,31
729,636	103,42
729,823	48,13
730,009	105,47
730,195	-23,55
730,382	136,19
730,568	25,6
730,754	82,94
730,94	1,02
731,126	13,31
731,313	76,8
731,499	-23,55
731,685	158,72
731,871	140,29
732,057	-60,42
732,243	105,47
732,429	60,42
732,615	115,71
732,801	76,8
732,987	1,02
733,173	-23,55
733,359	-66,56
733,545	74,75
733,731	27,65
733,917	244,73
734,103	44,03
734,289	72,7
734,475	-7,17
734,661	121,85
734,847	66,56
735,033	39,94
735,219	125,95
735,404	46,08
735,59	19,46
735,776	50,18
735,962	136,19
736,148	191,49
736,333	54,27
736,519	117,76
736,705	15,36
736,89	9,22
737,076	-15,36
737,262	-31,74
737,447	-37,89
737,633	33,79
737,819	175,1
738,004	46,08
738,19	70,65
738,375	23,55
738,561	216,06
738,747	64,51
738,932	-64,51
739,118	267,26
739,303	74,75
739,489	33,79
739,674	44,03
739,859	-33,79
740,045	189,44
740,23	15,36
740,416	-111,61
740,601	46,08
740,786	62,46
740,972	-13,31
741,157	17,41
741,342	9,22
741,528	9,22
741,713	152,57
741,898	-48,13
742,084	27,65
742,269	52,22
742,454	91,13
742,639	107,52
742,824	9,22
743,01	105,47
743,195	152,57
743,38	136,19
743,565	48,13
743,75	82,94
743,935	66,56
744,12	134,14
744,305	-31,74
744,49	-9,22
744,675	52,22
744,86	9,22
745,045	37,89
745,23	19,46
745,415	78,85
745,6	107,52
745,785	9,22
745,97	91,13
746,155	117,76
746,34	134,14
746,525	37,89
746,71	154,62
746,895	-17,41
747,079	1,02
747,264	35,84
747,449	48,13
747,634	74,75
747,819	74,75
748,003	27,65
748,188	3,07
748,373	171,01
748,557	-50,18
748,742	37,89
748,927	66,56
749,111	19,46
749,296	27,65
749,481	64,51
749,665	39,94
749,85	70,65
750,034	58,37
750,219	-13,31
750,404	1,02
750,588	144,38
750,773	60,42
750,957	58,37
751,141	19,46
751,326	97,28
751,51	46,08
751,695	25,6
751,879	56,32
752,064	265,21
752,248	72,7
752,432	220,16
752,617	115,71
752,801	101,37
752,985	-15,36
753,17	156,67
753,354	70,65
753,538	41,98
753,722	-35,84
753,907	-7,17
754,091	-37,89
754,275	158,72
754,459	-46,08
754,643	27,65
754,828	162,81
755,012	84,99
755,196	-80,89
755,38	27,65
755,564	-39,94
755,748	27,65
755,932	74,75
756,116	164,86
756,3	60,42
756,484	70,65
756,668	103,42
756,852	-105,47
757,036	7,17
757,22	-7,17
757,404	-17,41
757,588	78,85
757,772	41,98
757,956	-23,55
758,14	216,06
758,323	13,31
758,507	107,52
758,691	-7,17
758,875	95,23
759,059	91,13
759,242	74,75
759,426	-31,74
759,61	27,65
759,794	-33,79
759,977	130,05
760,161	293,88
760,345	171,01
760,528	41,98
760,712	-7,17
760,895	117,76
761,079	1,02
761,263	15,36
761,446	-5,12
761,63	11,26
761,813	148,48
761,997	-9,22
762,18	-13,31
762,364	78,85
762,547	-58,37
762,731	21,5
762,914	7,17
763,098	-39,94
763,281	25,6
763,464	33,79
763,648	111,61
763,831	68,61
764,015	9,22
764,198	144,38
764,381	1,02
764,564	25,6
764,748	44,03
764,931	111,61
765,114	41,98
765,297	52,22
765,481	-54,27
765,664	41,98
765,847	-19,46
766,03	130,05
766,213	-33,79
766,397	-9,22
766,58	-46,08
766,763	87,04
766,946	-39,94
767,129	-13,31
767,312	-39,94
767,495	-62,46
767,678	-13,31
767,861	74,75
768,044	64,51
768,227	-15,36
768,41	-5,12
768,593	5,12
768,776	11,26
768,959	25,6
769,142	130,05
769,324	-46,08
769,507	130,05
769,69	44,03
769,873	-48,13
770,056	232,44
770,239	29,7
770,421	134,14
770,604	64,51
770,787	-7,17
770,97	-1,02
771,152	-44,03
771,335	95,23
771,518	-37,89
771,7	179,2
771,883	101,37
772,066	19,46
772,248	84,99
772,431	117,76
772,613	58,37
772,796	13,31
772,978	74,75
773,161	222,2
773,343	9,22
773,526	-33,79
773,708	-64,51
773,891	-66,56
774,073	48,13
774,256	46,08
774,438	181,25
774,621	54,27
774,803	132,09
774,985	-37,89
775,168	123,9
775,35	-7,17
775,532	99,33
775,715	-35,84
775,897	17,41
776,079	-39,94
776,261	93,18
776,444	46,08
776,626	68,61
776,808	66,56
776,99	-37,89
777,173	54,27
777,355	-25,6
777,537	29,7
777,719	78,85
777,901	-7,17
778,083	-37,89
778,265	5,12
778,447	168,96
778,629	46,08
778,811	50,18
778,993	82,94
779,175	113,66
779,357	33,79
779,539	-68,61
779,721	46,08
779,903	132,09
780,085	15,36
780,267	25,6
780,449	109,57
780,631	84,99
780,812	82,94
780,994	39,94
781,176	87,04
781,358	5,12
781,54	-19,46
781,721	156,67
781,903	99,33
782,085	-39,94
782,267	119,81
782,448	-80,89
782,63	19,46
782,812	138,24
782,993	146,43
783,175	109,57
783,357	-41,98
783,538	93,18
783,72	29,7
783,901	7,17
784,083	60,42
784,264	50,18
784,446	-27,65
784,627	-46,08
784,809	99,33
784,99	-29,7
785,172	68,61
785,353	-7,17
785,535	56,32
785,716	-62,46
785,897	23,55
786,079	48,13
786,26	27,65
786,441	44,03
786,623	-121,85
786,804	-35,84
786,985	-27,65
787,167	125,95
787,348	5,12
787,529	35,84
787,71	177,15
787,891	82,94
788,073	-29,7
788,254	3,07
788,435	183,29
788,616	44,03
788,797	-58,37
788,978	-58,37
789,159	-25,6
789,34	46,08
789,522	1,02
789,703	-56,32
789,884	-35,84
790,065	25,6
790,246	162,81
790,427	-3,07
790,607	162,81
790,788	115,71
790,969	-44,03
791,15	66,56
791,331	33,79
791,512	3,07
791,693	9,22
791,874	-44,03
792,054	171,01
792,235	125,95
792,416	9,22
792,597	-27,65
792,778	60,42
792,958	87,04
793,139	9,22
793,32	66,56
793,5	-70,65
793,681	166,91
793,862	44,03
794,042	-29,7
794,223	11,26
794,404	3,07
794,584	-44,03
794,765	-27,65
794,945	46,08
795,126	46,08
795,306	23,55
795,487	17,41
795,667	-9,22
795,848	17,41
796,028	46,08
796,209	33,79
796,389	33,79
796,57	-37,89
796,75	19,46
796,93	44,03
797,111	-44,03
797,291	-80,89
797,471	11,26
797,652	17,41
797,832	-11,26
798,012	60,42
798,192	-17,41
798,373	-29,7
798,553	60,42
798,733	41,98
798,913	-25,6
799,093	-68,61
799,274	-29,7
799,454	78,85
799,634	150,53
799,814	62,46
799,994	113,66
800,174	31,74
800,354	21,5
800,534	-113,66
800,714	82,94
800,894	-52,22
801,074	-23,55
801,254	-58,37
801,434	97,28
801,614	5,12
801,794	-9,22
801,974	2319,32
802,154	11,26
802,334	78,85
802,514	-27,65
802,693	39,94
802,873	9,22
803,053	134,14
803,233	52,22
803,413	41,98
803,592	3,07
803,772	11,26
803,952	-13,31
804,131	17,41
804,311	70,65
804,491	119,81
804,67	1,02
804,85	-74,75
805,03	72,7
805,209	78,85
805,389	7,17
805,568	-29,7
805,748	25,6
805,928	-11,26
806,107	52,22
806,287	11,26
806,466	58,37
806,646	-23,55
806,825	-29,7
807,004	1,02
807,184	46,08
807,363	41,98
807,543	19,46
807,722	-50,18
807,901	140,29
808,081	41,98
808,26	-60,42
808,439	58,37
808,619	9,22
808,798	-84,99
808,977	82,94
809,156	74,75
809,336	3,07
809,515	-13,31
809,694	-5,12
809,873	-58,37
810,052	44,03
810,231	97,28
810,411	-23,55
810,59	54,27
810,769	-58,37
810,948	29,7
811,127	-50,18
811,306	27,65
811,485	3,07
811,664	187,39
811,843	25,6
812,022	-41,98
812,201	-31,74
812,38	-11,26
812,559	27,65
812,737	87,04
812,916	-99,33
813,095	-62,46
813,274	101,37
813,453	46,08
813,632	70,65
813,811	70,65
813,989	-121,85
814,168	41,98
814,347	-56,32
814,526	19,46
814,704	185,34
814,883	66,56
815,062	-113,66
815,24	-13,31
815,419	-72,7
815,598	29,7
815,776	-128
815,955	19,46
816,133	-138,24
816,312	-1,02
816,49	-25,6
816,669	17,41
816,847	-5,12
817,026	84,99
817,204	19,46
817,383	-23,55
817,561	-76,8
817,74	19,46
817,918	50,18
818,097	-33,79
818,275	-52,22
818,453	89,09
818,632	74,75
818,81	-23,55
818,988	-15,36
819,167	-46,08
819,345	44,03
819,523	-44,03
819,701	11,26
819,879	9,22
820,058	-15,36
820,236	-23,55
820,414	11,26
820,592	17,41
820,77	-48,13
820,948	-46,08
821,127	-9,22
821,305	9,22
821,483	-78,85
821,661	93,18
821,839	-11,26
822,017	50,18
822,195	-39,94
822,373	119,81
822,551	23,55
822,729	103,42
822,907	19,46
823,085	117,76
823,262	19,46
823,44	-56,32
823,618	-41,98
823,796	-46,08
823,974	1,02
824,152	-46,08
824,329	-7,17
824,507	27,65
824,685	82,94
824,863	-46,08
825,04	19,46
825,218	17,41
825,396	80,89
825,574	41,98
825,751	23,55
825,929	80,89
826,107	-95,23
826,284	27,65
826,462	-19,46
826,639	1,02
826,817	-72,7
826,994	46,08
827,172	-84,99
827,349	117,76
827,527	15,36
827,704	-13,31
827,882	-15,36
828,059	5,12
828,237	13,31
828,414	95,23
828,591	-177,15
828,769	78,85
828,946	-80,89
829,124	52,22
829,301	119,81
829,478	-19,46
829,655	140,29
829,833	33,79
830,01	-154,62
830,187	-7,17
830,364	-19,46
830,542	1,02
830,719	154,62
830,896	125,95
831,073	29,7
831,25	25,6
831,427	7,17
831,604	60,42
831,782	-58,37
831,959	99,33
832,136	-105,47
832,313	-15,36
832,49	-13,31
832,667	29,7
832,844	-89,09
833,021	58,37
833,198	72,7
833,374	-41,98
833,551	13,31
833,728	-48,13
833,905	93,18
834,082	-128
834,259	37,89
834,436	68,61
834,612	-39,94
834,789	62,46
834,966	31,74
835,143	13,31
835,319	-19,46
835,496	72,7
835,673	58,37
835,85	119,81
836,026	87,04
836,203	117,76
836,38	1,02
836,556	-1,02
836,733	-87,04
836,909	240,64
837,086	52,22
837,262	-93,18
837,439	11,26
837,616	-62,46
837,792	56,32
837,968	-25,6
838,145	-95,23
838,321	17,41
838,498	70,65
838,674	99,33
838,851	41,98
839,027	52,22
839,203	25,6
839,38	-66,56
839,556	1,02
839,732	107,52
839,909	-60,42
840,085	62,46
840,261	-95,23
840,437	58,37
840,614	-15,36
840,79	27,65
840,966	105,47
841,142	-50,18
841,318	-62,46
841,494	9,22
841,671	74,75
841,847	-103,42
842,023	-87,04
842,199	19,46
842,375	173,05
842,551	-89,09
842,727	-78,85
842,903	117,76
843,079	-39,94
843,255	64,51
843,431	9,22
843,607	46,08
843,783	-99,33
843,959	76,8
844,134	-19,46
844,31	58,37
844,486	-15,36
844,662	-64,51
844,838	13,31
845,013	-13,31
845,189	52,22
845,365	60,42
845,541	-5,12
845,716	21,5
845,892	74,75
846,068	48,13
846,244	19,46
846,419	35,84
846,595	-19,46
846,77	-78,85
846,946	132,09
847,122	-72,7
847,297	13,31
847,473	150,53
847,648	-76,8
847,824	3,07
847,999	-154,62
848,175	-111,61
848,35	128
848,526	87,04
848,701	130,05
848,876	60,42
849,052	-15,36
849,227	5,12
849,403	-23,55
849,578	-13,31
849,753	-9,22
849,929	13,31
850,104	-7,17
850,279	-58,37
850,454	41,98
850,63	91,13
850,805	41,98
850,98	3,07
851,155	54,27
851,33	27,65
851,505	-117,76
851,681	162,81
851,856	-29,7
852,031	19,46
852,206	37,89
852,381	-64,51
852,556	-64,51
852,731	-39,94
852,906	179,2
853,081	21,5
853,256	74,75
853,431	-21,5
853,606	-121,85
853,781	-91,13
853,956	-44,03
854,131	72,7
854,305	-54,27
854,48	33,79
854,655	-52,22
854,83	-11,26
855,005	-17,41
855,18	-1,02
855,354	-7,17
855,529	-27,65
855,704	41,98
855,879	62,46
856,053	-187,39
856,228	50,18
856,403	-78,85
856,577	58,37
856,752	-89,09
856,926	-21,5
857,101	52,22
857,276	-27,65
857,45	23,55
857,625	21,5
857,799	25,6
857,974	-5,12
858,148	-101,37
858,323	107,52
858,497	-31,74
858,672	-48,13
858,846	-29,7
859,02	60,42
859,195	-95,23
859,369	33,79
859,543	74,75
859,718	-19,46
859,892	-64,51
860,066	37,89
860,241	-74,75
860,415	17,41
860,589	-41,98
860,763	-15,36
860,938	-72,7
861,112	5,12
861,286	-76,8
861,46	13,31
861,634	11,26
861,808	74,75
861,982	-80,89
862,157	-93,18
862,331	50,18
862,505	-74,75
862,679	-103,42
862,853	-37,89
863,027	-27,65
863,201	58,37
863,375	-44,03
863,549	3,07
863,722	-5,12
863,896	107,52
864,07	-95,23
864,244	-9,22
864,418	54,27
864,592	23,55
864,766	9,22
864,939	82,94
865,113	33,79
865,287	138,24
865,461	-37,89
865,634	23,55
865,808	21,5
865,982	-64,51
866,156	-119,81
866,329	-128
866,503	56,32
866,676	89,09
866,85	50,18
867,024	-37,89
867,197	58,37
867,371	54,27
867,544	3,07
867,718	-33,79
867,891	19,46
868,065	-66,56
868,238	-29,7
868,412	109,57
868,585	41,98
868,759	-107,52
868,932	-35,84
869,105	-41,98
869,279	-21,5
869,452	-78,85
869,625	35,84
869,799	3,07
869,972	-46,08
870,145	-48,13
870,319	99,33
870,492	23,55
870,665	-35,84
870,838	-31,74
871,011	-160,77
871,185	9,22
871,358	-50,18
871,531	128
871,704	-39,94
871,877	35,84
872,05	-72,7
872,223	-48,13
872,396	62,46
872,569	3,07
872,742	-84,99
872,915	60,42
873,088	-64,51
873,261	-74,75
873,434	29,7
873,607	-31,74
873,78	66,56
873,953	-82,94
874,126	9,22
874,299	-15,36
874,471	-48,13
874,644	-80,89
874,817	-9,22
874,99	207,87
875,163	-58,37
875,335	-50,18
875,508	-23,55
875,681	111,61
875,853	-87,04
876,026	-35,84
876,199	-9,22
876,371	-5,12
876,544	11,26
876,717	17,41
876,889	-97,28
877,062	39,94
877,234	-82,94
877,407	-37,89
877,579	-7,17
877,752	74,75
877,924	66,56
878,097	35,84
878,269	15,36
878,442	13,31
878,614	74,75
878,786	-23,55
878,959	-11,26
879,131	11,26
879,303	-144,38
879,476	-19,46
879,648	84,99
879,82	35,84
879,993	-5,12
880,165	17,41
880,337	-46,08
880,509	13,31
880,681	-130,05
880,854	-29,7
881,026	87,04
881,198	242,68
881,37	-31,74
881,542	17,41
881,714	39,94
881,886	-35,84
882,058	-27,65
882,23	-54,27
882,402	17,41
882,574	17,41
882,746	87,04
882,918	93,18
883,09	27,65
883,262	-15,36
883,434	-15,36
883,606	-87,04
883,778	-35,84
883,95	113,66
884,122	-25,6
884,293	101,37
884,465	52,22
884,637	46,08
884,809	-93,18
884,98	50,18
885,152	27,65
885,324	82,94
885,496	-68,61
885,667	-31,74
885,839	-39,94
886,011	140,29
886,182	-5,12
886,354	84,99
886,525	21,5
886,697	17,41
886,869	-50,18
887,04	50,18
887,212	48,13
887,383	164,86
887,555	13,31
887,726	1,02
887,897	23,55
888,069	-9,22
888,24	39,94
888,412	11,26
888,583	44,03
888,754	-48,13
888,926	-140,29
889,097	-17,41
889,268	-41,98
889,44	-13,31
889,611	-123,9
889,782	-138,24
889,953	-93,18
890,125	68,61
890,296	-84,99
890,467	-1,02
890,638	-41,98
890,809	-64,51
890,98	1,02
891,151	21,5
891,323	111,61
891,494	9,22
891,665	-27,65
891,836	-37,89
892,007	-41,98
892,178	31,74
892,349	21,5
892,52	-31,74
892,691	91,13
892,862	-84,99
893,032	-113,66
893,203	44,03
893,374	41,98
893,545	95,23
893,716	-37,89
893,887	72,7
894,057	-23,55
894,228	54,27
894,399	-84,99
894,57	119,81
894,74	-17,41
894,911	-13,31
895,082	-74,75
895,253	-62,46
895,423	48,13
895,594	7,17
895,764	-44,03
895,935	-134,14
896,106	9,22
896,276	-41,98
896,447	-37,89
896,617	-99,33
896,788	-89,09
896,958	-113,66
897,129	-46,08
897,299	19,46
897,47	97,28
897,64	27,65
897,81	-35,84
897,981	-46,08
898,151	-31,74
898,322	35,84
898,492	-15,36
898,662	-60,42
898,832	35,84
899,003	9,22
899,173	117,76
899,343	-25,6
899,513	-64,51
