Data from laserVert_USB4F104151__7__11-49-23-676.txt Node

Date: Wed Apr 15 11:49:23 EDT 2026
User: LaboPhy
Spectrometer: USB4F10415
Trigger mode: 4
Integration Time (sec): 1,000000E-1
Scans to average: 1
Electric dark correction enabled: true
Nonlinearity correction enabled: false
Boxcar width: 0
XAxis mode: Wavelengths
Number of Pixels in Spectrum: 3648
>>>>>Begin Spectral Data<<<<<
178,204	-442,7
178,424	-442,7
178,644	-442,7
178,864	-448,85
179,084	-452,94
179,304	-63,83
179,524	5,8
179,744	-31,06
179,964	83,63
180,184	-2,39
180,404	89,77
180,624	-0,34
180,844	-88,4
181,064	-49,49
181,283	32,43
181,503	18,09
181,723	5,8
181,943	-78,16
182,163	239,27
182,383	-31,06
182,602	16,04
182,822	169,64
183,042	106,15
183,262	-41,3
183,482	30,38
183,701	22,19
183,921	136,87
184,141	-84,31
184,361	91,82
184,58	-39,25
184,8	5,8
185,02	-6,49
185,239	34,47
185,459	28,33
185,679	134,82
185,898	-117,08
186,118	-10,58
186,338	40,62
186,557	79,53
186,777	-141,65
186,997	-51,54
187,216	61,1
187,436	210,6
187,655	30,38
187,875	73,39
188,095	71,34
188,314	153,26
188,534	63,15
188,753	-119,12
188,973	110,25
189,192	89,77
189,412	44,71
189,631	-22,87
189,851	9,9
190,07	138,92
190,29	-31,06
190,509	-55,64
190,729	-0,34
190,948	186,02
191,168	233,13
191,387	46,76
191,607	20,14
191,826	5,8
192,045	-51,54
192,265	-26,96
192,484	34,47
192,704	71,34
192,923	-117,08
193,142	128,68
193,362	110,25
193,581	112,3
193,8	5,8
194,02	46,76
194,239	13,99
194,458	65,19
194,678	-14,68
194,897	-29,01
195,116	-33,11
195,335	18,09
195,555	50,86
195,774	-6,49
195,993	97,96
196,212	63,15
196,432	5,8
196,651	-43,35
196,87	16,04
197,089	247,46
197,308	57
197,528	87,72
197,747	-110,93
197,966	71,34
198,185	112,3
198,404	-74,07
198,623	79,53
198,842	126,63
199,062	128,68
199,281	16,04
199,5	30,38
199,719	85,67
199,938	30,38
200,157	11,95
200,376	71,34
200,595	87,72
200,814	-20,82
201,033	-4,44
201,252	161,45
201,471	13,99
201,69	89,77
201,909	28,33
202,128	79,53
202,347	81,58
202,566	-6,49
202,785	-80,21
203,004	-43,35
203,223	255,65
203,442	-2,39
203,661	-59,73
203,879	13,99
204,098	200,36
204,317	-65,88
204,536	97,96
204,755	124,58
204,974	91,82
205,193	-24,92
205,411	67,24
205,63	157,35
205,849	73,39
206,068	-4,44
206,287	1,71
206,505	112,3
206,724	-53,59
206,943	-65,88
207,162	-10,58
207,381	63,15
207,599	-63,83
207,818	5,8
208,037	-26,96
208,255	30,38
208,474	38,57
208,693	48,81
208,911	-74,07
209,13	71,34
209,349	48,81
209,567	-14,68
209,786	40,62
210,005	114,34
210,223	130,73
210,442	-149,84
210,661	-18,77
210,879	89,77
211,098	-0,34
211,316	18,09
211,535	24,23
211,753	24,23
211,972	30,38
212,191	-10,58
212,409	-12,63
212,628	120,49
212,846	-8,53
213,065	63,15
213,283	75,43
213,502	67,24
213,72	26,28
213,938	-6,49
214,157	-2,39
214,375	54,95
214,594	-6,49
214,812	11,95
215,031	-2,39
215,249	-26,96
215,467	157,35
215,686	-49,49
215,904	-39,25
216,122	-4,44
216,341	153,26
216,559	69,29
216,778	28,33
216,996	95,91
217,214	44,71
217,432	-35,16
217,651	-33,11
217,869	57
218,087	-18,77
218,306	-86,36
218,524	42,67
218,742	67,24
218,96	79,53
219,179	-14,68
219,397	67,24
219,615	253,61
219,833	11,95
220,051	28,33
220,27	93,87
220,488	102,06
220,706	-49,49
220,924	-18,77
221,142	-131,41
221,36	-26,96
221,578	83,63
221,796	-0,34
222,015	-18,77
222,233	3,75
222,451	145,06
222,669	-24,92
222,887	34,47
223,105	-14,68
223,323	71,34
223,541	-67,92
223,759	-65,88
223,977	-35,16
224,195	167,59
224,413	42,67
224,631	22,19
224,849	-61,78
225,067	206,5
225,285	-49,49
225,503	-49,49
225,721	-78,16
225,939	34,47
226,157	16,04
226,375	181,93
226,592	-4,44
226,81	54,95
227,028	114,34
227,246	34,47
227,464	7,85
227,682	177,83
227,9	110,25
228,117	11,95
228,335	16,04
228,553	57
228,771	-20,82
228,989	13,99
229,206	1,71
229,424	7,85
229,642	-41,3
229,86	-6,49
230,077	118,44
230,295	79,53
230,513	128,68
230,731	7,85
230,948	278,18
231,166	136,87
231,384	-67,92
231,601	-65,88
231,819	118,44
232,037	-76,12
232,254	-184,66
232,472	5,8
232,689	-31,06
232,907	59,05
233,125	-18,77
233,342	-22,87
233,56	-53,59
233,777	-51,54
233,995	9,9
234,213	87,72
234,43	30,38
234,648	-16,73
234,865	28,33
235,083	-26,96
235,3	40,62
235,518	42,67
235,735	81,58
235,953	44,71
236,17	38,57
236,388	-37,2
236,605	42,67
236,822	44,71
237,04	153,26
237,257	20,14
237,475	-100,69
237,692	-18,77
237,909	91,82
238,127	5,8
238,344	42,67
238,562	24,23
238,779	-86,36
238,996	-18,77
239,214	-47,44
239,431	30,38
239,648	-18,77
239,865	63,15
240,083	110,25
240,3	13,99
240,517	13,99
240,735	-51,54
240,952	102,06
241,169	-10,58
241,386	13,99
241,603	1,71
241,821	-135,51
242,038	67,24
242,255	255,65
242,472	-127,32
242,689	7,85
242,907	-8,53
243,124	126,63
243,341	36,52
243,558	32,43
243,775	-22,87
243,992	-112,98
244,209	122,54
244,426	169,64
244,643	50,86
244,86	-4,44
245,078	83,63
245,295	104,11
245,512	-6,49
245,729	34,47
245,946	116,39
246,163	13,99
246,38	-31,06
246,597	120,49
246,814	13,99
247,031	54,95
247,248	-6,49
247,464	42,67
247,681	36,52
247,898	63,15
248,115	136,87
248,332	-47,44
248,549	114,34
248,766	143,02
248,983	34,47
249,2	67,24
249,417	87,72
249,633	26,28
249,85	-6,49
250,067	50,86
250,284	67,24
250,501	75,43
250,717	28,33
250,934	-82,26
251,151	91,82
251,368	-49,49
251,585	87,72
251,801	-18,77
252,018	-88,4
252,235	110,25
252,451	-100,69
252,668	-14,68
252,885	73,39
253,102	36,52
253,318	24,23
253,535	-10,58
253,752	3,75
253,968	18,09
254,185	-76,12
254,401	-94,55
254,618	42,67
254,835	-84,31
255,051	81,58
255,268	120,49
255,484	5,8
255,701	71,34
255,917	46,76
256,134	-125,27
256,351	-33,11
256,567	-80,21
256,784	-39,25
257	-125,27
257,217	67,24
257,433	75,43
257,65	44,71
257,866	104,11
258,082	-125,27
258,299	-90,45
258,515	-10,58
258,732	65,19
258,948	50,86
259,165	52,91
259,381	-123,22
259,597	5,8
259,814	13,99
260,03	-49,49
260,246	-35,16
260,463	102,06
260,679	104,11
260,895	63,15
261,112	110,25
261,328	-88,4
261,544	13,99
261,761	102,06
261,977	-49,49
262,193	-37,2
262,409	89,77
262,626	-10,58
262,842	79,53
263,058	-22,87
263,274	48,81
263,49	67,24
263,707	-37,2
263,923	-0,34
264,139	-53,59
264,355	48,81
264,571	52,91
264,787	36,52
265,004	120,49
265,22	-41,3
265,436	-67,92
265,652	-4,44
265,868	-37,2
266,084	-22,87
266,3	24,23
266,516	-78,16
266,732	30,38
266,948	7,85
267,164	-76,12
267,38	110,25
267,596	24,23
267,812	169,64
268,028	-35,16
268,244	-55,64
268,46	63,15
268,676	42,67
268,892	-26,96
269,108	-94,55
269,324	-20,82
269,54	-0,34
269,756	46,76
269,972	-65,88
270,188	-67,92
270,403	26,28
270,619	-10,58
270,835	93,87
271,051	46,76
271,267	-47,44
271,483	7,85
271,698	79,53
271,914	79,53
272,13	38,57
272,346	5,8
272,562	83,63
272,777	157,35
272,993	-90,45
273,209	-18,77
273,425	36,52
273,64	-39,25
273,856	110,25
274,072	-61,78
274,287	-78,16
274,503	1,71
274,719	75,43
274,934	-65,88
275,15	-121,17
275,366	5,8
275,581	-31,06
275,797	48,81
276,012	36,52
276,228	-74,07
276,444	75,43
276,659	75,43
276,875	-43,35
277,09	-26,96
277,306	-61,78
277,521	42,67
277,737	-33,11
277,952	48,81
278,168	-4,44
278,383	67,24
278,599	114,34
278,814	67,24
279,03	44,71
279,245	95,91
279,461	-41,3
279,676	108,2
279,892	-90,45
280,107	-20,82
280,322	-41,3
280,538	13,99
280,753	-67,92
280,969	122,54
281,184	-29,01
281,399	179,88
281,615	-10,58
281,83	65,19
282,045	-61,78
282,26	-86,36
282,476	52,91
282,691	40,62
282,906	46,76
283,122	48,81
283,337	-24,92
283,552	9,9
283,767	-14,68
283,983	77,48
284,198	36,52
284,413	79,53
284,628	-98,64
284,843	112,3
285,058	20,14
285,274	-49,49
285,489	-6,49
285,704	134,82
285,919	-53,59
286,134	-78,16
286,349	-29,01
286,564	-55,64
286,779	7,85
286,995	22,19
287,21	-84,31
287,425	63,15
287,64	30,38
287,855	28,33
288,07	-76,12
288,285	59,05
288,5	128,68
288,715	40,62
288,93	-8,53
289,145	-8,53
289,36	83,63
289,575	7,85
289,79	112,3
290,004	7,85
290,219	128,68
290,434	-53,59
290,649	-57,68
290,864	-33,11
291,079	-37,2
291,294	9,9
291,509	91,82
291,724	46,76
291,938	-12,63
292,153	-16,73
292,368	-22,87
292,583	-49,49
292,798	100,01
293,012	-33,11
293,227	79,53
293,442	79,53
293,657	34,47
293,871	81,58
294,086	50,86
294,301	196,26
294,516	40,62
294,73	-0,34
294,945	3,75
295,16	-18,77
295,374	85,67
295,589	126,63
295,804	-10,58
296,018	11,95
296,233	71,34
296,447	9,9
296,662	-108,88
296,877	65,19
297,091	106,15
297,306	-0,34
297,52	-39,25
297,735	32,43
297,949	77,48
298,164	-74,07
298,378	85,67
298,593	-10,58
298,807	-2,39
299,022	-10,58
299,236	161,45
299,451	-104,79
299,665	-29,01
299,88	-33,11
300,094	95,91
300,309	-4,44
300,523	-24,92
300,737	22,19
300,952	36,52
301,166	118,44
301,381	-59,73
301,595	1,71
301,809	36,52
302,024	-74,07
302,238	63,15
302,452	44,71
302,667	5,8
302,881	175,78
303,095	57
303,309	42,67
303,524	-31,06
303,738	-8,53
303,952	-123,22
304,166	26,28
304,381	-129,36
304,595	89,77
304,809	3,75
305,023	42,67
305,237	-16,73
305,452	-29,01
305,666	-53,59
305,88	18,09
306,094	134,82
306,308	30,38
306,522	13,99
306,736	48,81
306,95	83,63
307,164	3,75
307,379	34,47
307,593	163,5
307,807	54,95
308,021	77,48
308,235	9,9
308,449	-84,31
308,663	75,43
308,877	233,13
309,091	-35,16
309,305	120,49
309,519	-196,95
309,733	87,72
309,947	-96,6
310,161	73,39
310,374	-18,77
310,588	136,87
310,802	-20,82
311,016	-65,88
311,23	38,57
311,444	-31,06
311,658	-45,4
311,872	63,15
312,085	95,91
312,299	126,63
312,513	116,39
312,727	63,15
312,941	-43,35
313,154	81,58
313,368	40,62
313,582	-76,12
313,796	54,95
314,009	30,38
314,223	7,85
314,437	36,52
314,651	-4,44
314,864	-26,96
315,078	5,8
315,292	-69,97
315,505	-20,82
315,719	75,43
315,933	-35,16
316,146	-69,97
316,36	-55,64
316,573	116,39
316,787	100,01
317,001	34,47
317,214	-121,17
317,428	61,1
317,641	-96,6
317,855	-2,39
318,068	-2,39
318,282	-0,34
318,495	104,11
318,709	-14,68
318,922	-51,54
319,136	147,11
319,349	71,34
319,563	-2,39
319,776	100,01
319,99	-108,88
320,203	75,43
320,417	-31,06
320,63	143,02
320,843	183,98
321,057	61,1
321,27	-14,68
321,483	75,43
321,697	138,92
321,91	-92,5
322,124	22,19
322,337	59,05
322,55	-26,96
322,763	5,8
322,977	73,39
323,19	-12,63
323,403	-24,92
323,617	13,99
323,83	95,91
324,043	-29,01
324,256	89,77
324,469	-57,68
324,683	226,98
324,896	77,48
325,109	-53,59
325,322	-55,64
325,535	63,15
325,748	77,48
325,962	-22,87
326,175	34,47
326,388	5,8
326,601	91,82
326,814	63,15
327,027	34,47
327,24	73,39
327,453	-41,3
327,666	48,81
327,879	91,82
328,092	85,67
328,305	40,62
328,518	-92,5
328,731	-20,82
328,944	5,8
329,157	-39,25
329,37	75,43
329,583	124,58
329,796	104,11
330,009	-61,78
330,222	118,44
330,435	100,01
330,648	69,29
330,861	3,75
331,073	48,81
331,286	71,34
331,499	7,85
331,712	-80,21
331,925	22,19
332,138	-26,96
332,35	67,24
332,563	-51,54
332,776	151,21
332,989	-102,74
333,202	-55,64
333,414	-51,54
333,627	-24,92
333,84	-16,73
334,053	-45,4
334,265	-14,68
334,478	-67,92
334,691	3,75
334,903	-96,6
335,116	-22,87
335,329	-29,01
335,541	75,43
335,754	134,82
335,966	-33,11
336,179	20,14
336,392	-108,88
336,604	-29,01
336,817	63,15
337,029	87,72
337,242	-20,82
337,454	83,63
337,667	104,11
337,88	126,63
338,092	46,76
338,305	-2,39
338,517	-108,88
338,729	130,73
338,942	159,4
339,154	-14,68
339,367	-110,93
339,579	13,99
339,792	-80,21
340,004	104,11
340,217	-0,34
340,429	57
340,641	-0,34
340,854	-117,08
341,066	-76,12
341,278	69,29
341,491	149,16
341,703	40,62
341,915	-72,02
342,128	97,96
342,34	-2,39
342,552	-94,55
342,764	40,62
342,977	1,71
343,189	5,8
343,401	46,76
343,613	-69,97
343,826	26,28
344,038	-108,88
344,25	32,43
344,462	-26,96
344,674	30,38
344,886	13,99
345,099	-51,54
345,311	85,67
345,523	-61,78
345,735	-147,8
345,947	28,33
346,159	42,67
346,371	26,28
346,583	30,38
346,795	188,07
347,007	26,28
347,219	83,63
347,431	9,9
347,643	87,72
347,855	-51,54
348,067	97,96
348,279	-33,11
348,491	5,8
348,703	-6,49
348,915	42,67
349,127	-45,4
349,339	11,95
349,551	-61,78
349,763	87,72
349,975	-14,68
350,187	57
350,399	155,3
350,61	13,99
350,822	-26,96
351,034	40,62
351,246	100,01
351,458	44,71
351,669	42,67
351,881	42,67
352,093	71,34
352,305	32,43
352,517	24,23
352,728	89,77
352,94	-22,87
353,152	69,29
353,363	-61,78
353,575	-2,39
353,787	132,78
353,999	-37,2
354,21	147,11
354,422	-63,83
354,633	-12,63
354,845	22,19
355,057	77,48
355,268	24,23
355,48	67,24
355,692	-51,54
355,903	9,9
356,115	-45,4
356,326	-110,93
356,538	67,24
356,749	20,14
356,961	104,11
357,172	22,19
357,384	-78,16
357,595	161,45
357,807	-24,92
358,018	-49,49
358,23	77,48
358,441	149,16
358,653	30,38
358,864	-61,78
359,075	11,95
359,287	42,67
359,498	67,24
359,709	9,9
359,921	18,09
360,132	-0,34
360,344	-0,34
360,555	-100,69
360,766	-22,87
360,977	-14,68
361,189	93,87
361,4	-43,35
361,611	83,63
361,823	85,67
362,034	18,09
362,245	-137,56
362,456	13,99
362,667	38,57
362,879	-57,68
363,09	16,04
363,301	97,96
363,512	-10,58
363,723	-43,35
363,935	-49,49
364,146	104,11
364,357	-88,4
364,568	-92,5
364,779	-69,97
364,99	102,06
365,201	-67,92
365,412	63,15
365,623	-155,99
365,834	16,04
366,045	-90,45
366,256	22,19
366,467	120,49
366,678	-49,49
366,889	32,43
367,1	-51,54
367,311	36,52
367,522	22,19
367,733	9,9
367,944	18,09
368,155	46,76
368,366	77,48
368,577	126,63
368,788	104,11
368,999	-51,54
369,209	-26,96
369,42	186,02
369,631	179,88
369,842	85,67
370,053	1,71
370,264	116,39
370,474	-141,65
370,685	63,15
370,896	24,23
371,107	81,58
371,317	16,04
371,528	-29,01
371,739	63,15
371,95	136,87
372,16	63,15
372,371	-135,51
372,582	-6,49
372,792	59,05
373,003	42,67
373,214	36,52
373,424	30,38
373,635	-26,96
373,846	116,39
374,056	40,62
374,267	50,86
374,477	77,48
374,688	-10,58
374,898	65,19
375,109	59,05
375,319	128,68
375,53	50,86
375,74	57
375,951	-104,79
376,161	61,1
376,372	46,76
376,582	-63,83
376,793	145,06
377,003	-37,2
377,214	-108,88
377,424	30,38
377,635	-67,92
377,845	3,75
378,055	128,68
378,266	-65,88
378,476	-67,92
378,686	13,99
378,897	34,47
379,107	106,15
379,317	13,99
379,528	-0,34
379,738	3,75
379,948	-133,46
380,158	42,67
380,369	-65,88
380,579	59,05
380,789	-57,68
380,999	59,05
381,21	-4,44
381,42	186,02
381,63	-14,68
381,84	79,53
382,05	28,33
382,261	116,39
382,471	112,3
382,681	-80,21
382,891	161,45
383,101	75,43
383,311	-31,06
383,521	-20,82
383,731	126,63
383,941	79,53
384,151	-2,39
384,361	-57,68
384,571	-0,34
384,781	48,81
384,991	104,11
385,201	208,55
385,411	-8,53
385,621	38,57
385,831	48,81
386,041	-10,58
386,251	3,75
386,461	132,78
386,671	-43,35
386,881	5,8
387,091	-8,53
387,301	48,81
387,511	59,05
387,72	65,19
387,93	69,29
388,14	-69,97
388,35	-8,53
388,56	79,53
388,769	128,68
388,979	-8,53
389,189	-2,39
389,399	-14,68
389,609	7,85
389,818	-8,53
390,028	-14,68
390,238	110,25
390,447	3,75
390,657	91,82
390,867	-33,11
391,076	-106,84
391,286	-35,16
391,496	5,8
391,705	26,28
391,915	122,54
392,125	18,09
392,334	-18,77
392,544	173,74
392,753	-22,87
392,963	-43,35
393,172	-33,11
393,382	-39,25
393,591	179,88
393,801	-2,39
394,01	128,68
394,22	5,8
394,429	-20,82
394,639	32,43
394,848	30,38
395,058	59,05
395,267	-43,35
395,477	54,95
395,686	-51,54
395,895	181,93
396,105	159,4
396,314	11,95
396,524	22,19
396,733	30,38
396,942	95,91
397,152	95,91
397,361	108,2
397,57	3,75
397,78	-37,2
397,989	87,72
398,198	190,12
398,407	57
398,617	5,8
398,826	24,23
399,035	-10,58
399,244	54,95
399,453	13,99
399,663	-18,77
399,872	22,19
400,081	-29,01
400,29	114,34
400,499	-63,83
400,708	124,58
400,917	22,19
401,127	34,47
401,336	-10,58
401,545	122,54
401,754	112,3
401,963	50,86
402,172	20,14
402,381	-72,02
402,59	-2,39
402,799	13,99
403,008	91,82
403,217	32,43
403,426	95,91
403,635	-151,89
403,844	46,76
404,053	-33,11
404,262	-0,34
404,471	192,17
404,68	44,71
404,888	-110,93
405,097	40,62
405,306	-51,54
405,515	9,9
405,724	-51,54
405,933	106,15
406,142	48,81
406,35	73,39
406,559	46,76
406,768	-20,82
406,977	120,49
407,185	7,85
407,394	-10,58
407,603	-84,31
407,812	-24,92
408,02	106,15
408,229	-2,39
408,438	34,47
408,646	-57,68
408,855	-67,92
409,064	89,77
409,272	-47,44
409,481	18,09
409,69	-63,83
409,898	-57,68
410,107	93,87
410,315	34,47
410,524	-104,79
410,733	83,63
410,941	-51,54
411,15	63,15
411,358	30,38
411,567	149,16
411,775	-41,3
411,984	65,19
412,192	-18,77
412,401	-31,06
412,609	140,97
412,818	149,16
413,026	75,43
413,234	-8,53
413,443	59,05
413,651	-100,69
413,86	100,01
414,068	73,39
414,276	192,17
414,485	-131,41
414,693	183,98
414,901	177,83
415,11	-35,16
415,318	18,09
415,526	-16,73
415,734	97,96
415,943	73,39
416,151	81,58
416,359	-65,88
416,567	87,72
416,776	-53,59
416,984	32,43
417,192	202,41
417,4	-10,58
417,608	-14,68
417,817	-108,88
418,025	100,01
418,233	128,68
418,441	-53,59
418,649	-104,79
418,857	30,38
419,065	186,02
419,273	-12,63
419,481	-16,73
419,689	48,81
419,897	38,57
420,105	-84,31
420,313	104,11
420,521	104,11
420,729	30,38
420,937	-67,92
421,145	-8,53
421,353	54,95
421,561	97,96
421,769	48,81
421,977	-59,73
422,185	42,67
422,393	30,38
422,601	122,54
422,809	-8,53
423,017	71,34
423,224	16,04
423,432	20,14
423,64	-6,49
423,848	67,24
424,056	26,28
424,263	100,01
424,471	-26,96
424,679	77,48
424,887	-100,69
425,094	59,05
425,302	104,11
425,51	-59,73
425,718	-29,01
425,925	-4,44
426,133	-90,45
426,341	116,39
426,548	-16,73
426,756	69,29
426,964	13,99
427,171	-63,83
427,379	59,05
427,586	16,04
427,794	89,77
428,001	157,35
428,209	104,11
428,417	93,87
428,624	-24,92
428,832	32,43
429,039	91,82
429,247	1,71
429,454	91,82
429,662	149,16
429,869	-8,53
430,076	126,63
430,284	11,95
430,491	153,26
430,699	65,19
430,906	169,64
431,114	-16,73
431,321	77,48
431,528	-53,59
431,736	95,91
431,943	42,67
432,15	61,1
432,358	50,86
432,565	171,69
432,772	-147,8
432,979	87,72
433,187	-22,87
433,394	120,49
433,601	-80,21
433,808	110,25
434,016	87,72
434,223	112,3
434,43	71,34
434,637	38,57
434,844	67,24
435,052	50,86
435,259	108,2
435,466	34,47
435,673	1,71
435,88	69,29
436,087	108,2
436,294	89,77
436,501	87,72
436,708	-22,87
436,915	138,92
437,122	120,49
437,329	71,34
437,537	24,23
437,743	75,43
437,95	204,46
438,157	-26,96
438,364	40,62
438,571	71,34
438,778	108,2
438,985	112,3
439,192	147,11
439,399	28,33
439,606	75,43
439,813	38,57
440,02	155,3
440,227	188,07
440,433	188,07
440,64	-10,58
440,847	63,15
441,054	128,68
441,261	106,15
441,467	108,2
441,674	-29,01
441,881	212,65
442,088	-59,73
442,294	59,05
442,501	130,73
442,708	212,65
442,914	69,29
443,121	81,58
443,328	106,15
443,534	167,59
443,741	73,39
443,948	-14,68
444,154	132,78
444,361	284,33
444,568	54,95
444,774	128,68
444,981	-80,21
445,187	159,4
445,394	79,53
445,6	40,62
445,807	63,15
446,013	112,3
446,22	-43,35
446,426	87,72
446,633	100,01
446,839	284,33
447,046	-100,69
447,252	196,26
447,459	46,76
447,665	-12,63
447,871	63,15
448,078	243,37
448,284	153,26
448,491	216,74
448,697	134,82
448,903	231,08
449,11	44,71
449,316	22,19
449,522	237,22
449,728	136,87
449,935	208,55
450,141	97,96
450,347	157,35
450,553	104,11
450,76	91,82
450,966	183,98
451,172	247,46
451,378	114,34
451,584	89,77
451,791	302,76
451,997	208,55
452,203	120,49
452,409	274,09
452,615	194,22
452,821	120,49
453,027	110,25
453,233	300,71
453,44	145,06
453,646	126,63
453,852	120,49
454,058	-8,53
454,264	130,73
454,47	151,21
454,676	71,34
454,882	272,04
455,088	179,88
455,294	132,78
455,5	169,64
455,705	186,02
455,911	188,07
456,117	57
456,323	134,82
456,529	235,18
456,735	95,91
456,941	149,16
457,147	145,06
457,352	126,63
457,558	128,68
457,764	218,79
457,97	104,11
458,176	120,49
458,381	85,67
458,587	188,07
458,793	132,78
458,999	-6,49
459,204	157,35
459,41	52,91
459,616	222,89
459,821	245,41
460,027	-117,08
460,233	239,27
460,438	243,37
460,644	130,73
460,85	155,3
461,055	132,78
461,261	198,31
461,466	108,2
461,672	122,54
461,878	169,64
462,083	169,64
462,289	9,9
462,494	63,15
462,7	143,02
462,905	50,86
463,111	251,56
463,316	237,22
463,522	165,54
463,727	95,91
463,932	120,49
464,138	89,77
464,343	149,16
464,549	204,46
464,754	251,56
464,959	267,94
465,165	153,26
465,37	194,22
465,575	110,25
465,781	44,71
465,986	73,39
466,191	163,5
466,397	151,21
466,602	202,41
466,807	145,06
467,012	177,83
467,218	161,45
467,423	130,73
467,628	106,15
467,833	124,58
468,038	108,2
468,244	48,81
468,449	50,86
468,654	71,34
468,859	120,49
469,064	153,26
469,269	118,44
469,474	194,22
469,679	274,09
469,885	138,92
470,09	124,58
470,295	67,24
470,5	16,04
470,705	188,07
470,91	75,43
471,115	224,94
471,32	106,15
471,525	269,99
471,73	249,51
471,935	114,34
472,139	69,29
472,344	87,72
472,549	196,26
472,754	140,97
472,959	183,98
473,164	186,02
473,369	106,15
473,574	235,18
473,778	192,17
473,983	120,49
474,188	145,06
474,393	112,3
474,598	149,16
474,802	147,11
475,007	120,49
475,212	224,94
475,417	30,38
475,621	177,83
475,826	-39,25
476,031	157,35
476,235	118,44
476,44	91,82
476,645	136,87
476,849	100,01
477,054	151,21
477,259	91,82
477,463	214,7
477,668	304,81
477,872	202,41
478,077	175,78
478,282	59,05
478,486	177,83
478,691	112,3
478,895	30,38
479,1	214,7
479,304	161,45
479,509	124,58
479,713	237,22
479,918	183,98
480,122	75,43
480,326	118,44
480,531	153,26
480,735	104,11
480,94	167,59
481,144	210,6
481,348	194,22
481,553	153,26
481,757	54,95
481,961	147,11
482,166	120,49
482,37	22,19
482,574	204,46
482,778	-8,53
482,983	157,35
483,187	124,58
483,391	18,09
483,595	89,77
483,8	181,93
484,004	259,75
484,208	97,96
484,412	200,36
484,616	245,41
484,821	155,3
485,025	100,01
485,229	5,8
485,433	114,34
485,637	100,01
485,841	26,28
486,045	202,41
486,249	186,02
486,453	171,69
486,657	54,95
486,861	-59,73
487,065	95,91
487,269	106,15
487,473	-0,34
487,677	143,02
487,881	396,96
488,085	212,65
488,289	173,74
488,493	102,06
488,697	243,37
488,901	204,46
489,105	75,43
489,309	120,49
489,512	188,07
489,716	163,5
489,92	122,54
490,124	100,01
490,328	194,22
490,531	122,54
490,735	210,6
490,939	42,67
491,143	130,73
491,346	157,35
491,55	136,87
491,754	65,19
491,958	97,96
492,161	122,54
492,365	67,24
492,569	1,71
492,772	165,54
492,976	222,89
493,18	91,82
493,383	69,29
493,587	140,97
493,79	151,21
493,994	181,93
494,197	54,95
494,401	181,93
494,605	87,72
494,808	77,48
495,012	102,06
495,215	296,61
495,419	198,31
495,622	89,77
495,825	179,88
496,029	163,5
496,232	173,74
496,436	126,63
496,639	126,63
496,843	110,25
497,046	85,67
497,249	210,6
497,453	202,41
497,656	112,3
497,859	171,69
498,063	286,37
498,266	151,21
498,469	54,95
498,673	132,78
498,876	108,2
499,079	128,68
499,282	114,34
499,485	356,01
499,689	136,87
499,892	263,85
500,095	130,73
500,298	65,19
500,501	153,26
500,705	116,39
500,908	97,96
501,111	147,11
501,314	310,95
501,517	317,09
501,72	157,35
501,923	155,3
502,126	161,45
502,329	212,65
502,532	202,41
502,735	200,36
502,938	216,74
503,141	282,28
503,344	71,34
503,547	243,37
503,75	95,91
503,953	26,28
504,156	288,42
504,359	183,98
504,562	161,45
504,765	177,83
504,968	171,69
505,17	286,37
505,373	255,65
505,576	300,71
505,779	186,02
505,982	38,57
506,185	206,5
506,387	104,11
506,59	218,79
506,793	186,02
506,996	204,46
507,198	304,81
507,401	321,19
507,604	317,09
507,807	269,99
508,009	325,29
508,212	263,85
508,415	274,09
508,617	69,29
508,82	239,27
509,022	196,26
509,225	313
509,428	188,07
509,63	368,29
509,833	286,37
510,035	353,96
510,238	255,65
510,44	165,54
510,643	304,81
510,845	343,72
511,048	302,76
511,25	276,13
511,453	302,76
511,655	325,29
511,858	345,77
512,06	384,68
512,262	247,46
512,465	292,52
512,667	241,32
512,87	114,34
513,072	302,76
513,274	333,48
513,477	149,16
513,679	202,41
513,881	165,54
514,084	212,65
514,286	337,57
514,488	269,99
514,69	186,02
514,893	161,45
515,095	124,58
515,297	222,89
515,499	298,66
515,701	224,94
515,904	257,7
516,106	417,44
516,308	294,57
516,51	249,51
516,712	237,22
516,914	321,19
517,116	243,37
517,318	214,7
517,52	327,33
517,722	241,32
517,925	198,31
518,127	272,04
518,329	292,52
518,531	145,06
518,733	239,27
518,935	245,41
519,136	368,29
519,338	229,03
519,54	304,81
519,742	335,53
519,944	411,3
520,146	243,37
520,348	276,13
520,55	257,7
520,752	218,79
520,954	327,33
521,155	226,98
521,357	284,33
521,559	358,05
521,761	358,05
521,963	349,86
522,164	280,23
522,366	265,89
522,568	317,09
522,77	304,81
522,971	353,96
523,173	216,74
523,375	368,29
523,576	233,13
523,778	284,33
523,98	261,8
524,181	294,57
524,383	384,68
524,584	272,04
524,786	282,28
524,988	255,65
525,189	229,03
525,391	315,05
525,592	253,61
525,794	198,31
525,995	321,19
526,197	329,38
526,398	431,78
526,6	269,99
526,801	374,44
527,003	112,3
527,204	235,18
527,406	366,25
527,607	272,04
527,808	349,86
528,01	327,33
528,211	439,97
528,412	188,07
528,614	417,44
528,815	448,16
529,016	421,54
529,218	317,09
529,419	313
529,62	349,86
529,822	433,83
530,023	558,75
530,224	603,81
530,425	1085,08
530,626	1384,09
530,828	1947,28
531,029	2956,93
531,23	4669,03
531,431	7241,28
531,632	10788,36
531,833	15152,58
532,035	20264,31
532,236	25601,32
532,437	30692,57
532,638	34241,7
532,839	37733,48
533,04	41100,34
533,241	41931,82
533,442	42394,66
533,643	41317,43
533,844	38779,99
534,045	35921,03
534,246	31919,3
534,447	27962,62
534,648	23799,1
534,849	20211,06
535,05	16043,45
535,251	13219,3
535,451	10800,65
535,652	8425
535,853	6426,18
536,054	4892,26
536,255	3401,33
536,456	2397,83
536,657	1664,66
536,857	1232,54
537,058	933,53
537,259	720,54
537,46	620,19
537,66	501,41
537,861	439,97
538,062	431,78
538,263	245,41
538,463	501,41
538,664	513,7
538,865	343,72
539,065	298,66
539,266	315,05
539,466	218,79
539,667	386,72
539,868	339,62
540,068	327,33
540,269	409,25
540,469	368,29
540,67	450,21
540,87	343,72
541,071	292,52
541,271	198,31
541,472	317,09
541,672	376,48
541,873	243,37
542,073	267,94
542,274	261,8
542,474	360,1
542,675	257,7
542,875	257,7
543,075	196,26
543,276	292,52
543,476	243,37
543,676	282,28
543,877	194,22
544,077	237,22
544,277	317,09
544,478	226,98
544,678	229,03
544,878	327,33
545,078	181,93
545,279	220,84
545,479	167,59
545,679	173,74
545,879	220,84
546,079	263,85
546,28	149,16
546,48	269,99
546,68	284,33
546,88	263,85
547,08	296,61
547,28	298,66
547,48	116,39
547,68	358,05
547,88	353,96
548,081	239,27
548,281	48,81
548,481	194,22
548,681	231,08
548,881	284,33
549,081	247,46
549,28	218,79
549,48	261,8
549,68	243,37
549,88	212,65
550,08	140,97
550,28	218,79
550,48	415,4
550,68	194,22
550,88	231,08
551,08	251,56
551,279	304,81
551,479	200,36
551,679	304,81
551,879	194,22
552,079	243,37
552,278	267,94
552,478	384,68
552,678	345,77
552,878	329,38
553,077	276,13
553,277	128,68
553,477	202,41
553,676	345,77
553,876	251,56
554,076	163,5
554,275	284,33
554,475	333,48
554,674	353,96
554,874	212,65
555,074	134,82
555,273	214,7
555,473	130,73
555,672	114,34
555,872	241,32
556,071	259,75
556,271	390,82
556,47	132,78
556,67	186,02
556,869	231,08
557,068	220,84
557,268	196,26
557,467	179,88
557,667	409,25
557,866	196,26
558,065	245,41
558,265	247,46
558,464	171,69
558,663	249,51
558,863	341,67
559,062	186,02
559,261	251,56
559,461	255,65
559,66	269,99
559,859	226,98
560,058	169,64
560,258	198,31
560,457	216,74
560,656	310,95
560,855	126,63
561,054	237,22
561,253	186,02
561,453	222,89
561,652	210,6
561,851	253,61
562,05	157,35
562,249	157,35
562,448	251,56
562,647	196,26
562,846	194,22
563,045	294,57
563,244	179,88
563,443	259,75
563,642	245,41
563,841	310,95
564,04	194,22
564,239	237,22
564,438	104,11
564,637	220,84
564,836	124,58
565,035	263,85
565,234	204,46
565,432	290,47
565,631	241,32
565,83	294,57
566,029	128,68
566,228	296,61
566,427	284,33
566,625	153,26
566,824	370,34
567,023	188,07
567,222	255,65
567,42	97,96
567,619	214,7
567,818	198,31
568,016	435,88
568,215	343,72
568,414	337,57
568,612	251,56
568,811	183,98
569,01	298,66
569,208	165,54
569,407	239,27
569,605	296,61
569,804	190,12
570,002	376,48
570,201	128,68
570,4	214,7
570,598	173,74
570,797	272,04
570,995	171,69
571,193	265,89
571,392	249,51
571,59	169,64
571,789	255,65
571,987	267,94
572,186	302,76
572,384	239,27
572,582	163,5
572,781	362,15
572,979	73,39
573,177	194,22
573,376	251,56
573,574	290,47
573,772	198,31
573,971	122,54
574,169	116,39
574,367	280,23
574,565	259,75
574,763	204,46
574,962	304,81
575,16	263,85
575,358	204,46
575,556	202,41
575,754	149,16
575,952	263,85
576,151	200,36
576,349	380,58
576,547	161,45
576,745	155,3
576,943	233,13
577,141	169,64
577,339	122,54
577,537	147,11
577,735	315,05
577,933	216,74
578,131	110,25
578,329	284,33
578,527	181,93
578,725	382,63
578,923	95,91
579,121	333,48
579,319	52,91
579,516	151,21
579,714	415,4
579,912	179,88
580,11	210,6
580,308	169,64
580,506	167,59
580,704	114,34
580,901	210,6
581,099	376,48
581,297	257,7
581,495	177,83
581,692	208,55
581,89	308,9
582,088	136,87
582,285	259,75
582,483	165,54
582,681	208,55
582,878	153,26
583,076	239,27
583,274	159,4
583,471	349,86
583,669	167,59
583,866	216,74
584,064	247,46
584,262	110,25
584,459	159,4
584,657	259,75
584,854	353,96
585,052	327,33
585,249	255,65
585,447	280,23
585,644	167,59
585,841	237,22
586,039	202,41
586,236	384,68
586,434	218,79
586,631	155,3
586,828	198,31
587,026	151,21
587,223	161,45
587,42	222,89
587,618	196,26
587,815	284,33
588,012	134,82
588,21	153,26
588,407	247,46
588,604	317,09
588,801	116,39
588,999	212,65
589,196	261,8
589,393	110,25
589,59	280,23
589,787	202,41
589,984	282,28
590,182	292,52
590,379	218,79
590,576	194,22
590,773	208,55
590,97	212,65
591,167	276,13
591,364	257,7
591,561	179,88
591,758	331,43
591,955	282,28
592,152	267,94
592,349	204,46
592,546	177,83
592,743	169,64
592,94	210,6
593,137	204,46
593,334	364,2
593,531	241,32
593,727	294,57
593,924	247,46
594,121	235,18
594,318	192,17
594,515	237,22
594,712	376,48
594,908	284,33
595,105	190,12
595,302	235,18
595,499	194,22
595,696	267,94
595,892	251,56
596,089	382,63
596,286	161,45
596,482	292,52
596,679	259,75
596,876	247,46
597,072	321,19
597,269	267,94
597,466	237,22
597,662	245,41
597,859	136,87
598,055	222,89
598,252	210,6
598,448	276,13
598,645	321,19
598,841	274,09
599,038	413,35
599,234	343,72
599,431	259,75
599,627	251,56
599,824	308,9
600,02	267,94
600,217	122,54
600,413	259,75
600,609	292,52
600,806	556,71
601,002	319,14
601,198	128,68
601,395	300,71
601,591	294,57
601,787	313
601,984	347,81
602,18	245,41
602,376	218,79
602,572	347,81
602,769	317,09
602,965	222,89
603,161	329,38
603,357	216,74
603,553	407,2
603,75	128,68
603,946	282,28
604,142	298,66
604,338	360,1
604,534	188,07
604,73	161,45
604,926	284,33
605,122	313
605,318	200,36
605,514	366,25
605,71	239,27
605,906	304,81
606,102	212,65
606,298	337,57
606,494	315,05
606,69	308,9
606,886	392,87
607,082	226,98
607,278	226,98
607,474	327,33
607,67	304,81
607,866	140,97
608,062	351,91
608,257	310,95
608,453	198,31
608,649	345,77
608,845	284,33
609,041	210,6
609,236	272,04
609,432	343,72
609,628	315,05
609,824	333,48
610,019	247,46
610,215	145,06
610,411	310,95
610,606	370,34
610,802	169,64
610,998	241,32
611,193	368,29
611,389	183,98
611,584	308,9
611,78	181,93
611,976	235,18
612,171	435,88
612,367	304,81
612,562	284,33
612,758	284,33
612,953	216,74
613,149	112,3
613,344	274,09
613,539	278,18
613,735	317,09
613,93	284,33
614,126	267,94
614,321	220,84
614,517	300,71
614,712	358,05
614,907	308,9
615,103	255,65
615,298	276,13
615,493	151,21
615,688	257,7
615,884	319,14
616,079	177,83
616,274	272,04
616,47	163,5
616,665	220,84
616,86	247,46
617,055	235,18
617,25	163,5
617,445	269,99
617,641	284,33
617,836	161,45
618,031	206,5
618,226	325,29
618,421	261,8
618,616	229,03
618,811	267,94
619,006	171,69
619,201	327,33
619,396	353,96
619,591	237,22
619,786	347,81
619,981	353,96
620,176	333,48
620,371	241,32
620,566	274,09
620,761	415,4
620,956	278,18
621,151	288,42
621,346	298,66
621,541	218,79
621,735	358,05
621,93	339,62
622,125	237,22
622,32	255,65
622,515	155,3
622,709	317,09
622,904	370,34
623,099	255,65
623,294	331,43
623,488	358,05
623,683	198,31
623,878	345,77
624,072	288,42
624,267	181,93
624,462	251,56
624,656	267,94
624,851	349,86
625,046	245,41
625,24	278,18
625,435	239,27
625,629	284,33
625,824	351,91
626,018	253,61
626,213	409,25
626,407	294,57
626,602	390,82
626,796	183,98
626,991	362,15
627,185	302,76
627,38	265,89
627,574	288,42
627,768	358,05
627,963	194,22
628,157	341,67
628,352	175,78
628,546	198,31
628,74	222,89
628,935	229,03
629,129	186,02
629,323	335,53
629,517	169,64
629,712	231,08
629,906	175,78
630,1	247,46
630,294	321,19
630,489	292,52
630,683	155,3
630,877	226,98
631,071	261,8
631,265	202,41
631,459	317,09
631,653	253,61
631,848	239,27
632,042	233,13
632,236	143,02
632,43	302,76
632,624	259,75
632,818	280,23
633,012	302,76
633,206	302,76
633,4	239,27
633,594	257,7
633,788	278,18
633,982	259,75
634,176	296,61
634,369	235,18
634,563	206,5
634,757	153,26
634,951	288,42
635,145	313
635,339	132,78
635,533	280,23
635,726	212,65
635,92	274,09
636,114	161,45
636,308	138,92
636,501	147,11
636,695	286,37
636,889	97,96
637,083	310,95
637,276	204,46
637,47	46,76
637,664	196,26
637,857	239,27
638,051	188,07
638,244	341,67
638,438	237,22
638,632	366,25
638,825	73,39
639,019	321,19
639,212	79,53
639,406	280,23
639,599	163,5
639,793	208,55
639,986	226,98
640,18	235,18
640,373	198,31
640,567	267,94
640,76	190,12
640,954	284,33
641,147	194,22
641,34	186,02
641,534	169,64
641,727	321,19
641,92	202,41
642,114	251,56
642,307	124,58
642,5	251,56
642,694	155,3
642,887	179,88
643,08	255,65
643,273	276,13
643,467	145,06
643,66	112,3
643,853	175,78
644,046	226,98
644,239	171,69
644,432	100,01
644,626	16,04
644,819	206,5
645,012	145,06
645,205	157,35
645,398	259,75
645,591	120,49
645,784	100,01
645,977	59,05
646,17	149,16
646,363	229,03
646,556	147,11
646,749	91,82
646,942	204,46
647,135	212,65
647,328	77,48
647,521	206,5
647,714	194,22
647,907	218,79
648,099	112,3
648,292	259,75
648,485	226,98
648,678	202,41
648,871	163,5
649,064	169,64
649,256	5,8
649,449	128,68
649,642	40,62
649,835	161,45
650,027	91,82
650,22	269,99
650,413	169,64
650,605	253,61
650,798	118,44
650,991	120,49
651,183	202,41
651,376	210,6
651,568	116,39
651,761	151,21
651,954	192,17
652,146	28,33
652,339	257,7
652,531	194,22
652,724	61,1
652,916	138,92
653,109	50,86
653,301	183,98
653,494	188,07
653,686	114,34
653,879	310,95
654,071	163,5
654,263	38,57
654,456	147,11
654,648	202,41
654,84	173,74
655,033	97,96
655,225	278,18
655,417	50,86
655,61	298,66
655,802	198,31
655,994	321,19
656,186	67,24
656,379	245,41
656,571	83,63
656,763	108,2
656,955	79,53
657,148	114,34
657,34	192,17
657,532	95,91
657,724	67,24
657,916	153,26
658,108	284,33
658,3	280,23
658,492	159,4
658,684	77,48
658,876	229,03
659,068	20,14
659,26	69,29
659,452	28,33
659,644	147,11
659,836	206,5
660,028	140,97
660,22	128,68
660,412	73,39
660,604	147,11
660,796	190,12
660,988	208,55
661,18	112,3
661,372	169,64
661,563	63,15
661,755	161,45
661,947	34,47
662,139	-4,44
662,331	128,68
662,522	120,49
662,714	42,67
662,906	46,76
663,097	140,97
663,289	61,1
663,481	7,85
663,673	122,54
663,864	116,39
664,056	243,37
664,247	-6,49
664,439	169,64
664,631	122,54
664,822	188,07
665,014	116,39
665,205	-10,58
665,397	102,06
665,588	171,69
665,78	126,63
665,971	190,12
666,163	77,48
666,354	145,06
666,546	54,95
666,737	79,53
666,929	40,62
667,12	112,3
667,311	124,58
667,503	71,34
667,694	177,83
667,885	138,92
668,077	151,21
668,268	-33,11
668,459	114,34
668,651	177,83
668,842	54,95
669,033	32,43
669,224	-127,32
669,416	325,29
669,607	83,63
669,798	54,95
669,989	161,45
670,18	161,45
670,371	85,67
670,563	-26,96
670,754	173,74
670,945	136,87
671,136	161,45
671,327	54,95
671,518	183,98
671,709	229,03
671,9	249,51
672,091	204,46
672,282	40,62
672,473	77,48
672,664	-2,39
672,855	122,54
673,046	149,16
673,237	149,16
673,428	124,58
673,619	149,16
673,809	38,57
674	179,88
674,191	124,58
674,382	38,57
674,573	134,82
674,764	34,47
674,954	222,89
675,145	30,38
675,336	5,8
675,527	-18,77
675,717	83,63
675,908	143,02
676,099	11,95
676,289	95,91
676,48	11,95
676,671	-29,01
676,861	147,11
677,052	79,53
677,243	48,81
677,433	34,47
677,624	128,68
677,814	120,49
678,005	54,95
678,195	171,69
678,386	7,85
678,576	97,96
678,767	-51,54
678,957	38,57
679,148	120,49
679,338	186,02
679,529	95,91
679,719	69,29
679,909	143,02
680,1	136,87
680,29	130,73
680,481	-10,58
680,671	93,87
680,861	46,76
681,052	87,72
681,242	-6,49
681,432	112,3
681,622	54,95
681,813	-78,16
682,003	91,82
682,193	-45,4
682,383	71,34
682,573	-2,39
682,764	32,43
682,954	106,15
683,144	79,53
683,334	3,75
683,524	-14,68
683,714	104,11
683,904	65,19
684,094	140,97
684,284	-6,49
684,474	153,26
684,664	57
684,854	61,1
685,044	1,71
685,234	38,57
685,424	97,96
685,614	-55,64
685,804	226,98
685,994	89,77
686,184	5,8
686,374	38,57
686,564	38,57
686,753	18,09
686,943	-53,59
687,133	52,91
687,323	91,82
687,513	48,81
687,702	48,81
687,892	7,85
688,082	163,5
688,272	95,91
688,461	32,43
688,651	194,22
688,841	138,92
689,03	-76,12
689,22	59,05
689,41	161,45
689,599	57
689,789	-57,68
689,979	169,64
690,168	28,33
690,358	169,64
690,547	102,06
690,737	112,3
690,926	87,72
691,116	100,01
691,305	147,11
691,495	106,15
691,684	7,85
691,874	5,8
692,063	77,48
692,252	100,01
692,442	155,3
692,631	-49,49
692,82	36,52
693,01	89,77
693,199	-26,96
693,388	40,62
693,578	104,11
693,767	91,82
693,956	102,06
694,146	85,67
694,335	73,39
694,524	122,54
694,713	106,15
694,902	83,63
695,092	-26,96
695,281	83,63
695,47	48,81
695,659	-18,77
695,848	30,38
696,037	30,38
696,226	106,15
696,415	-14,68
696,604	181,93
696,793	124,58
696,982	42,67
697,171	196,26
697,36	48,81
697,549	59,05
697,738	-47,44
697,927	13,99
698,116	-29,01
698,305	153,26
698,494	63,15
698,683	104,11
698,872	198,31
699,061	128,68
699,25	1,71
699,438	91,82
699,627	-12,63
699,816	128,68
700,005	-61,78
700,193	-2,39
700,382	61,1
700,571	48,81
700,76	136,87
700,948	118,44
701,137	97,96
701,326	136,87
701,514	5,8
701,703	48,81
701,892	116,39
702,08	239,27
702,269	108,2
702,457	-49,49
702,646	71,34
702,834	110,25
703,023	163,5
703,212	155,3
703,4	42,67
703,589	-76,12
703,777	-12,63
703,965	-4,44
704,154	5,8
704,342	-63,83
704,531	24,23
704,719	106,15
704,907	128,68
705,096	-51,54
705,284	-65,88
705,472	38,57
705,661	11,95
705,849	110,25
706,037	155,3
706,226	81,58
706,414	126,63
706,602	-63,83
706,79	104,11
706,979	5,8
707,167	138,92
707,355	-82,26
707,543	30,38
707,731	22,19
707,919	54,95
708,107	-49,49
708,296	-31,06
708,484	1,71
708,672	95,91
708,86	112,3
709,048	30,38
709,236	-31,06
709,424	114,34
709,612	63,15
709,8	-22,87
709,988	73,39
710,176	50,86
710,364	153,26
710,551	44,71
710,739	120,49
710,927	11,95
711,115	48,81
711,303	63,15
711,491	116,39
711,679	-24,92
711,866	87,72
712,054	3,75
712,242	-0,34
712,43	116,39
712,617	-10,58
712,805	157,35
712,993	69,29
713,181	-84,31
713,368	89,77
713,556	-6,49
713,744	-29,01
713,931	204,46
714,119	46,76
714,306	18,09
714,494	7,85
714,682	-6,49
714,869	-47,44
715,057	1,71
715,244	-43,35
715,432	-4,44
715,619	-0,34
715,807	-6,49
715,994	-10,58
716,182	110,25
716,369	65,19
716,556	50,86
716,744	-117,08
716,931	-49,49
717,119	34,47
717,306	-16,73
717,493	59,05
717,681	-39,25
717,868	24,23
718,055	147,11
718,242	7,85
718,43	26,28
718,617	83,63
718,804	65,19
718,991	1,71
719,179	32,43
719,366	75,43
719,553	38,57
719,74	-49,49
719,927	-39,25
720,114	54,95
720,301	-18,77
720,488	-47,44
720,676	-145,75
720,863	102,06
721,05	145,06
721,237	57
721,424	28,33
721,611	69,29
721,798	-43,35
721,985	-88,4
722,172	-20,82
722,358	-29,01
722,545	132,78
722,732	30,38
722,919	151,21
723,106	79,53
723,293	18,09
723,48	-2,39
723,667	-106,84
723,853	97,96
724,04	89,77
724,227	112,3
724,414	-22,87
724,6	79,53
724,787	130,73
724,974	124,58
725,161	65,19
725,347	-74,07
725,534	32,43
725,72	95,91
725,907	50,86
726,094	110,25
726,28	-39,25
726,467	13,99
726,653	-35,16
726,84	175,78
727,027	163,5
727,213	1,71
727,4	13,99
727,586	116,39
727,773	1,71
727,959	-12,63
728,145	11,95
728,332	89,77
728,518	-14,68
728,705	-8,53
728,891	-43,35
729,077	-4,44
729,264	-39,25
729,45	32,43
729,636	132,78
729,823	-0,34
730,009	50,86
730,195	-10,58
730,382	87,72
730,568	-26,96
730,754	87,72
730,94	50,86
731,126	65,19
731,313	126,63
731,499	30,38
731,685	112,3
731,871	65,19
732,057	77,48
732,243	100,01
732,429	108,2
732,615	128,68
732,801	46,76
732,987	30,38
733,173	18,09
733,359	-35,16
733,545	44,71
733,731	48,81
733,917	147,11
734,103	42,67
734,289	44,71
734,475	-117,08
734,661	224,94
734,847	38,57
735,033	-29,01
735,219	38,57
735,404	-35,16
735,59	-67,92
735,776	-16,73
735,962	13,99
736,148	7,85
736,333	65,19
736,519	69,29
736,705	-0,34
736,89	-18,77
737,076	18,09
737,262	-18,77
737,447	-31,06
737,633	1,71
737,819	128,68
738,004	-4,44
738,19	24,23
738,375	26,28
738,561	124,58
738,747	11,95
738,932	1,71
739,118	229,03
739,303	79,53
739,489	-22,87
739,674	63,15
739,859	-125,27
740,045	132,78
740,23	24,23
740,416	-133,46
740,601	5,8
740,786	79,53
740,972	-33,11
741,157	-33,11
741,342	-82,26
741,528	-82,26
741,713	38,57
741,898	65,19
742,084	5,8
742,269	48,81
742,454	38,57
742,639	48,81
742,824	79,53
743,01	106,15
743,195	147,11
743,38	24,23
743,565	-12,63
743,75	67,24
743,935	54,95
744,12	147,11
744,305	-59,73
744,49	-18,77
744,675	1,71
744,86	20,14
745,045	63,15
745,23	5,8
745,415	42,67
745,6	147,11
745,785	-6,49
745,97	93,87
746,155	54,95
746,34	91,82
746,525	16,04
746,71	77,48
746,895	-47,44
747,079	-41,3
747,264	24,23
747,449	79,53
747,634	52,91
747,819	30,38
748,003	40,62
748,188	-16,73
748,373	112,3
748,557	65,19
748,742	3,75
748,927	-39,25
749,111	7,85
749,296	87,72
749,481	57
749,665	54,95
749,85	-2,39
750,034	93,87
750,219	38,57
750,404	-6,49
750,588	46,76
750,773	-33,11
750,957	9,9
751,141	-8,53
751,326	48,81
751,51	-84,31
751,695	-55,64
751,879	-61,78
752,064	89,77
752,248	63,15
752,432	210,6
752,617	67,24
752,801	89,77
752,985	7,85
753,17	153,26
753,354	42,67
753,538	87,72
753,722	36,52
753,907	30,38
754,091	-92,5
754,275	61,1
754,459	-45,4
754,643	63,15
754,828	40,62
755,012	-20,82
755,196	-67,92
755,38	26,28
755,564	-76,12
755,748	-41,3
755,932	138,92
756,116	28,33
756,3	54,95
756,484	-4,44
756,668	81,58
756,852	-90,45
757,036	-45,4
757,22	42,67
757,404	-16,73
757,588	5,8
757,772	11,95
757,956	87,72
758,14	132,78
758,323	-69,97
758,507	-37,2
758,691	13,99
758,875	108,2
759,059	140,97
759,242	-6,49
759,426	-12,63
759,61	67,24
759,794	-18,77
759,977	104,11
760,161	220,84
760,345	177,83
760,528	48,81
760,712	26,28
760,895	65,19
761,079	34,47
761,263	-24,92
761,446	-8,53
761,63	22,19
761,813	22,19
761,997	-2,39
762,18	7,85
762,364	67,24
762,547	-59,73
762,731	-2,39
762,914	71,34
763,098	-18,77
763,281	-20,82
763,464	-12,63
763,648	91,82
763,831	-6,49
764,015	28,33
764,198	34,47
764,381	-41,3
764,564	52,91
764,748	-8,53
764,931	87,72
765,114	-6,49
765,297	67,24
765,481	-6,49
765,664	-65,88
765,847	-6,49
766,03	104,11
766,213	-41,3
766,397	-18,77
766,58	-51,54
766,763	24,23
766,946	22,19
767,129	-10,58
767,312	-41,3
767,495	-108,88
767,678	-57,68
767,861	59,05
768,044	-10,58
768,227	-8,53
768,41	13,99
768,593	-8,53
768,776	67,24
768,959	67,24
769,142	91,82
769,324	-2,39
769,507	1,71
769,69	75,43
769,873	-12,63
770,056	194,22
770,239	85,67
770,421	79,53
770,604	3,75
770,787	-53,59
770,97	-0,34
771,152	-119,12
771,335	-26,96
771,518	-59,73
771,7	50,86
771,883	97,96
772,066	-29,01
772,248	24,23
772,431	116,39
772,613	42,67
772,796	32,43
772,978	32,43
773,161	95,91
773,343	-53,59
773,526	-14,68
773,708	-127,32
773,891	-117,08
774,073	32,43
774,256	13,99
774,438	181,93
774,621	-53,59
774,803	40,62
774,985	40,62
775,168	3,75
775,35	-82,26
775,532	124,58
775,715	-29,01
775,897	114,34
776,079	-63,83
776,261	-41,3
776,444	89,77
776,626	-43,35
776,808	13,99
776,99	-35,16
777,173	89,77
777,355	48,81
777,537	108,2
777,719	34,47
777,901	22,19
778,083	-59,73
778,265	-78,16
778,447	134,82
778,629	16,04
778,811	-2,39
778,993	77,48
779,175	110,25
779,357	54,95
779,539	-24,92
779,721	71,34
779,903	79,53
780,085	-10,58
780,267	79,53
780,449	-10,58
780,631	73,39
780,812	157,35
780,994	26,28
781,176	-2,39
781,358	-2,39
781,54	38,57
781,721	63,15
781,903	126,63
782,085	-88,4
782,267	59,05
782,448	-145,75
782,63	30,38
782,812	-59,73
782,993	28,33
783,175	89,77
783,357	-16,73
783,538	5,8
783,72	-35,16
783,901	-26,96
784,083	54,95
784,264	34,47
784,446	-74,07
784,627	-43,35
784,809	59,05
784,99	26,28
785,172	18,09
785,353	24,23
785,535	50,86
785,716	-59,73
785,897	-98,64
786,079	73,39
786,26	-57,68
786,441	46,76
786,623	-49,49
786,804	3,75
786,985	13,99
787,167	34,47
787,348	40,62
787,529	-49,49
787,71	116,39
787,891	81,58
788,073	-47,44
788,254	-37,2
788,435	151,21
788,616	-0,34
788,797	16,04
788,978	38,57
789,159	-24,92
789,34	54,95
789,522	-84,31
789,703	71,34
789,884	91,82
790,065	69,29
790,246	140,97
790,427	-57,68
790,607	110,25
790,788	81,58
790,969	-57,68
791,15	38,57
791,331	-29,01
791,512	-22,87
791,693	-131,41
791,874	-57,68
792,054	235,18
792,235	83,63
792,416	-82,26
792,597	-45,4
792,778	91,82
792,958	-2,39
793,139	-24,92
793,32	36,52
793,5	-94,55
793,681	128,68
793,862	54,95
794,042	24,23
794,223	-115,03
794,404	-26,96
794,584	-35,16
794,765	75,43
794,945	24,23
795,126	104,11
795,306	46,76
795,487	24,23
795,667	-61,78
795,848	-6,49
796,028	85,67
796,209	30,38
796,389	63,15
796,57	38,57
796,75	-18,77
796,93	57
797,111	-26,96
797,291	-69,97
797,471	71,34
797,652	-69,97
797,832	20,14
798,012	26,28
798,192	-49,49
798,373	-94,55
798,553	-76,12
798,733	11,95
798,913	-18,77
799,093	-24,92
799,274	-18,77
799,454	50,86
799,634	38,57
799,814	1,71
799,994	-18,77
800,174	-22,87
800,354	-41,3
800,534	-51,54
800,714	48,81
800,894	-137,56
801,074	-115,03
801,254	-43,35
801,434	54,95
801,614	-24,92
801,794	-92,5
801,974	2147,98
802,154	-22,87
802,334	61,1
802,514	-117,08
802,693	-33,11
802,873	-88,4
803,053	81,58
803,233	38,57
803,413	28,33
803,592	-65,88
803,772	-26,96
803,952	-8,53
804,131	-121,17
804,311	73,39
804,491	108,2
804,67	-115,03
804,85	-125,27
805,03	36,52
805,209	108,2
805,389	-92,5
805,568	-10,58
805,748	-43,35
805,928	-22,87
806,107	126,63
806,287	122,54
806,466	26,28
806,646	-47,44
806,825	-88,4
807,004	-31,06
807,184	93,87
807,363	30,38
807,543	13,99
807,722	7,85
807,901	155,3
808,081	108,2
808,26	-115,03
808,439	-22,87
808,619	32,43
808,798	-33,11
808,977	30,38
809,156	34,47
809,336	-39,25
809,515	7,85
809,694	-59,73
809,873	-76,12
810,052	40,62
810,231	87,72
810,411	1,71
810,59	153,26
810,769	46,76
810,948	11,95
811,127	-108,88
811,306	50,86
811,485	-14,68
811,664	106,15
811,843	26,28
812,022	-31,06
812,201	22,19
812,38	32,43
812,559	-84,31
812,737	48,81
812,916	-61,78
813,095	-108,88
813,274	26,28
813,453	28,33
813,632	30,38
813,811	85,67
813,989	-151,89
814,168	38,57
814,347	-51,54
814,526	-39,25
814,704	114,34
814,883	104,11
815,062	-41,3
815,24	16,04
815,419	-69,97
815,598	-0,34
815,776	-139,6
815,955	-16,73
816,133	-174,42
816,312	-10,58
816,49	-67,92
816,669	-35,16
816,847	3,75
817,026	46,76
817,204	-4,44
817,383	-0,34
817,561	-112,98
817,74	20,14
817,918	5,8
818,097	11,95
818,275	-69,97
818,453	-16,73
818,632	13,99
818,81	-43,35
818,988	-90,45
819,167	-22,87
819,345	-2,39
819,523	16,04
819,701	22,19
819,879	5,8
820,058	67,24
820,236	42,67
820,414	16,04
820,592	-16,73
820,77	3,75
820,948	-45,4
821,127	-115,03
821,305	124,58
821,483	-88,4
821,661	57
821,839	40,62
822,017	-63,83
822,195	-29,01
822,373	87,72
822,551	-2,39
822,729	46,76
822,907	-96,6
823,085	32,43
823,262	50,86
823,44	-10,58
823,618	-35,16
823,796	-55,64
823,974	-14,68
824,152	-51,54
824,329	-26,96
824,507	5,8
824,685	67,24
824,863	-16,73
825,04	-125,27
825,218	46,76
825,396	-41,3
825,574	-84,31
825,751	-43,35
825,929	26,28
826,107	-43,35
826,284	-69,97
826,462	32,43
826,639	-123,22
826,817	-164,18
826,994	13,99
827,172	-33,11
827,349	126,63
827,527	59,05
827,704	48,81
827,882	54,95
828,059	7,85
828,237	-82,26
828,414	65,19
828,591	-84,31
828,769	-26,96
828,946	-22,87
829,124	40,62
829,301	85,67
829,478	-22,87
829,655	7,85
829,833	28,33
830,01	-127,32
830,187	83,63
830,364	7,85
830,542	48,81
830,719	69,29
830,896	28,33
831,073	13,99
831,25	-16,73
831,427	3,75
831,604	-35,16
831,782	-100,69
831,959	5,8
832,136	-43,35
832,313	42,67
832,49	-74,07
832,667	-45,4
832,844	-2,39
833,021	81,58
833,198	-12,63
833,374	87,72
833,551	-10,58
833,728	-31,06
833,905	114,34
834,082	-123,22
834,259	5,8
834,436	153,26
834,612	-123,22
834,789	54,95
834,966	-0,34
835,143	7,85
835,319	-43,35
835,496	91,82
835,673	-37,2
835,85	140,97
836,026	-12,63
836,203	-82,26
836,38	-18,77
836,556	-41,3
836,733	-20,82
836,909	63,15
837,086	-74,07
837,262	-129,36
837,439	13,99
837,616	-39,25
837,792	-12,63
837,968	-69,97
838,145	-153,94
838,321	-29,01
838,498	79,53
838,674	9,9
838,851	26,28
839,027	-106,84
839,203	-29,01
839,38	-6,49
839,556	-92,5
839,732	16,04
839,909	-20,82
840,085	71,34
840,261	-117,08
840,437	-22,87
840,614	11,95
840,79	22,19
840,966	16,04
841,142	73,39
841,318	-41,3
841,494	20,14
841,671	40,62
841,847	-112,98
842,023	-63,83
842,199	24,23
842,375	177,83
842,551	-123,22
842,727	-96,6
842,903	65,19
843,079	-121,17
843,255	91,82
843,431	-92,5
843,607	97,96
843,783	-182,61
843,959	13,99
844,134	-110,93
844,31	65,19
844,486	-106,84
844,662	-86,36
844,838	-41,3
845,013	22,19
845,189	75,43
845,365	-39,25
845,541	-10,58
845,716	-26,96
845,892	52,91
846,068	-43,35
846,244	-88,4
846,419	-33,11
846,595	-102,74
846,77	-14,68
846,946	-12,63
847,122	-92,5
847,297	-76,12
847,473	108,2
847,648	-115,03
847,824	-2,39
847,999	-137,56
848,175	24,23
848,35	32,43
848,526	65,19
848,701	186,02
848,876	5,8
849,052	110,25
849,227	-20,82
849,403	-57,68
849,578	7,85
849,753	-16,73
849,929	5,8
850,104	-98,64
850,279	16,04
850,454	-6,49
850,63	79,53
850,805	-57,68
850,98	22,19
851,155	38,57
851,33	3,75
851,505	-139,6
851,681	120,49
851,856	-67,92
852,031	7,85
852,206	-37,2
852,381	-43,35
852,556	-37,2
852,731	16,04
852,906	110,25
853,081	102,06
853,256	104,11
853,431	-35,16
853,606	-78,16
853,781	-100,69
853,956	-137,56
854,131	20,14
854,305	67,24
854,48	-51,54
854,655	-76,12
854,83	-74,07
855,005	-51,54
855,18	-10,58
855,354	-33,11
855,529	-39,25
855,704	-90,45
855,879	97,96
856,053	-112,98
856,228	91,82
856,403	-127,32
856,577	75,43
856,752	-84,31
856,926	-39,25
857,101	34,47
857,276	-147,8
857,45	-24,92
857,625	81,58
857,799	5,8
857,974	26,28
858,148	-121,17
858,323	9,9
858,497	22,19
858,672	-129,36
858,846	-67,92
859,02	40,62
859,195	-92,5
859,369	-80,21
859,543	-22,87
859,718	16,04
859,892	46,76
860,066	30,38
860,241	-31,06
860,415	-51,54
860,589	-49,49
860,763	-43,35
860,938	-117,08
861,112	67,24
861,286	-51,54
861,46	-6,49
861,634	-24,92
861,808	22,19
861,982	-88,4
862,157	-170,32
862,331	-59,73
862,505	-57,68
862,679	-141,65
862,853	-82,26
863,027	26,28
863,201	145,06
863,375	-45,4
863,549	-2,39
863,722	-67,92
863,896	87,72
864,07	-129,36
864,244	-84,31
864,418	-33,11
864,592	-72,02
864,766	-12,63
864,939	26,28
865,113	-63,83
865,287	61,1
865,461	-61,78
865,634	-39,25
865,808	-4,44
865,982	-65,88
866,156	-53,59
866,329	-115,03
866,503	-51,54
866,676	9,9
866,85	48,81
867,024	-57,68
867,197	65,19
867,371	65,19
867,544	73,39
867,718	-141,65
867,891	122,54
868,065	-188,75
868,238	-22,87
868,412	48,81
868,585	-20,82
868,759	-57,68
868,932	-61,78
869,105	-74,07
869,279	-117,08
869,452	-104,79
869,625	3,75
869,799	22,19
869,972	-168,27
870,145	-76,12
870,319	24,23
870,492	-65,88
870,665	-102,74
870,838	-35,16
871,011	-125,27
871,185	-76,12
871,358	-123,22
871,531	5,8
871,704	-141,65
871,877	-35,16
872,05	-57,68
872,223	-127,32
872,396	46,76
872,569	-0,34
872,742	-22,87
872,915	22,19
873,088	-57,68
873,261	-82,26
873,434	71,34
873,607	-41,3
873,78	38,57
873,953	-100,69
874,126	18,09
874,299	32,43
874,471	-41,3
874,644	-72,02
874,817	30,38
874,99	93,87
875,163	-26,96
875,335	28,33
875,508	-61,78
875,681	73,39
875,853	-121,17
876,026	28,33
876,199	63,15
876,371	-24,92
876,544	-31,06
876,717	16,04
876,889	-39,25
877,062	73,39
877,234	-131,41
877,407	-0,34
877,579	-2,39
877,752	-33,11
877,924	-18,77
878,097	-29,01
878,269	-10,58
878,442	-2,39
878,614	22,19
878,786	-115,03
878,959	9,9
879,131	-20,82
879,303	-129,36
879,476	-51,54
879,648	79,53
879,82	-33,11
879,993	1,71
880,165	-55,64
880,337	-127,32
880,509	-39,25
880,681	-112,98
880,854	-16,73
881,026	110,25
881,198	108,2
881,37	-106,84
881,542	-14,68
881,714	-26,96
881,886	-8,53
882,058	3,75
882,23	-45,4
882,402	-37,2
882,574	34,47
882,746	93,87
882,918	128,68
883,09	69,29
883,262	-24,92
883,434	-10,58
883,606	-112,98
883,778	-0,34
883,95	112,3
884,122	-53,59
884,293	59,05
884,465	36,52
884,637	46,76
884,809	-92,5
884,98	-2,39
885,152	9,9
885,324	100,01
885,496	-31,06
885,667	-96,6
885,839	-84,31
886,011	81,58
886,182	1,71
886,354	38,57
886,525	-45,4
886,697	-33,11
886,869	-29,01
887,04	-78,16
887,212	140,97
887,383	171,69
887,555	50,86
887,726	-59,73
887,897	-26,96
888,069	-29,01
888,24	85,67
888,412	-8,53
888,583	-49,49
888,754	-51,54
888,926	-100,69
889,097	-22,87
889,268	-74,07
889,44	-20,82
889,611	-69,97
889,782	-104,79
889,953	-65,88
890,125	85,67
890,296	-149,84
890,467	-84,31
890,638	22,19
890,809	-78,16
890,98	-86,36
891,151	73,39
891,323	132,78
891,494	-57,68
891,665	-26,96
891,836	-135,51
892,007	18,09
892,178	40,62
892,349	-59,73
892,52	16,04
892,691	57
892,862	-106,84
893,032	-123,22
893,203	-20,82
893,374	-22,87
893,545	124,58
893,716	-65,88
893,887	54,95
894,057	-102,74
894,228	-0,34
894,399	-22,87
894,57	50,86
894,74	-20,82
894,911	26,28
895,082	-18,77
895,253	-61,78
895,423	-41,3
895,594	147,11
895,764	40,62
895,935	-176,47
896,106	-29,01
896,276	-67,92
896,447	69,29
896,617	-47,44
896,788	-108,88
896,958	-72,02
897,129	-86,36
897,299	-104,79
897,47	104,11
897,64	3,75
897,81	50,86
897,981	-59,73
898,151	-37,2
898,322	54,95
898,492	22,19
898,662	-18,77
898,832	-92,5
899,003	34,47
899,173	-8,53
899,343	-100,69
899,513	-59,73
