Data from laserVert_USB4F104151__1__11-49-23-088.txt Node

Date: Wed Apr 15 11:49:23 EDT 2026
User: LaboPhy
Spectrometer: USB4F10415
Trigger mode: 4
Integration Time (sec): 1,000000E-1
Scans to average: 1
Electric dark correction enabled: true
Nonlinearity correction enabled: false
Boxcar width: 0
XAxis mode: Wavelengths
Number of Pixels in Spectrum: 3648
>>>>>Begin Spectral Data<<<<<
178,204	-482,3
178,424	-482,3
178,644	-482,3
178,864	-492,54
179,084	-443,39
179,304	-76,8
179,524	-5,12
179,744	44,03
179,964	21,5
180,184	-19,46
180,404	11,26
180,624	1,02
180,844	29,7
181,064	-35,84
181,283	7,17
181,503	-23,55
181,723	46,08
181,943	-111,61
182,163	187,39
182,383	-17,41
182,602	-15,36
182,822	150,53
183,042	33,79
183,262	-109,57
183,482	-13,31
183,701	27,65
183,921	87,04
184,141	-72,7
184,361	27,65
184,58	93,18
184,8	121,85
185,02	-31,74
185,239	74,75
185,459	74,75
185,679	87,04
185,898	-84,99
186,118	19,46
186,338	39,94
186,557	82,94
186,777	-50,18
186,997	-1,02
187,216	87,04
187,436	244,73
187,655	66,56
187,875	5,12
188,095	9,22
188,314	187,39
188,534	138,24
188,753	-33,79
188,973	33,79
189,192	158,72
189,412	33,79
189,631	-13,31
189,851	109,57
190,07	101,37
190,29	-87,04
190,509	-64,51
190,729	7,17
190,948	68,61
191,168	214,01
191,387	62,46
191,607	21,5
191,826	17,41
192,045	11,26
192,265	13,31
192,484	113,66
192,704	-1,02
192,923	-109,57
193,142	236,54
193,362	130,05
193,581	158,72
193,8	48,13
194,02	91,13
194,239	39,94
194,458	-1,02
194,678	39,94
194,897	58,37
195,116	76,8
195,335	87,04
195,555	97,28
195,774	-5,12
195,993	158,72
196,212	-7,17
196,432	11,26
196,651	-25,6
196,87	27,65
197,089	275,45
197,308	-46,08
197,528	-13,31
197,747	64,51
197,966	58,37
198,185	89,09
198,404	-54,27
198,623	136,19
198,842	99,33
199,062	97,28
199,281	128
199,5	9,22
199,719	78,85
199,938	-5,12
200,157	109,57
200,376	58,37
200,595	142,33
200,814	19,46
201,033	25,6
201,252	187,39
201,471	46,08
201,69	31,74
201,909	-25,6
202,128	117,76
202,347	117,76
202,566	27,65
202,785	-70,65
203,004	29,7
203,223	228,35
203,442	5,12
203,661	-76,8
203,879	56,32
204,098	144,38
204,317	-19,46
204,536	82,94
204,755	89,09
204,974	82,94
205,193	17,41
205,411	121,85
205,63	89,09
205,849	52,22
206,068	-1,02
206,287	-33,79
206,505	171,01
206,724	31,74
206,943	-115,71
207,162	-3,07
207,381	99,33
207,599	103,42
207,818	1,02
208,037	13,31
208,255	66,56
208,474	31,74
208,693	56,32
208,911	33,79
209,13	203,77
209,349	121,85
209,567	89,09
209,786	52,22
210,005	142,33
210,223	115,71
210,442	-130,05
210,661	52,22
210,879	-9,22
211,098	37,89
211,316	50,18
211,535	87,04
211,753	11,26
211,972	58,37
212,191	41,98
212,409	19,46
212,628	181,25
212,846	-5,12
213,065	132,09
213,283	39,94
213,502	-21,5
213,72	17,41
213,938	62,46
214,157	3,07
214,375	123,9
214,594	13,31
214,812	82,94
215,031	9,22
215,249	27,65
215,467	113,66
215,686	3,07
215,904	-21,5
216,122	17,41
216,341	211,96
216,559	64,51
216,778	66,56
216,996	132,09
217,214	48,13
217,432	7,17
217,651	-136,19
217,869	50,18
218,087	23,55
218,306	9,22
218,524	23,55
218,742	-31,74
218,96	99,33
219,179	-37,89
219,397	91,13
219,615	265,21
219,833	154,62
220,051	-31,74
220,27	56,32
220,488	171,01
220,706	44,03
220,924	21,5
221,142	-21,5
221,36	74,75
221,578	64,51
221,796	33,79
222,015	52,22
222,233	52,22
222,451	125,95
222,669	9,22
222,887	132,09
223,105	-19,46
223,323	29,7
223,541	1,02
223,759	-25,6
223,977	-31,74
224,195	220,16
224,413	89,09
224,631	-17,41
224,849	58,37
225,067	228,35
225,285	27,65
225,503	31,74
225,721	-105,47
225,939	-15,36
226,157	31,74
226,375	230,4
226,592	-21,5
226,81	76,8
227,028	117,76
227,246	82,94
227,464	56,32
227,682	125,95
227,9	56,32
228,117	35,84
228,335	82,94
228,553	46,08
228,771	-66,56
228,989	15,36
229,206	60,42
229,424	-1,02
229,642	9,22
229,86	-60,42
230,077	154,62
230,295	56,32
230,513	138,24
230,731	17,41
230,948	171,01
231,166	281,6
231,384	-1,02
231,601	15,36
231,819	226,3
232,037	-95,23
232,254	-27,65
232,472	52,22
232,689	11,26
232,907	154,62
233,125	31,74
233,342	-72,7
233,56	15,36
233,777	23,55
233,995	-25,6
234,213	82,94
234,43	21,5
234,648	76,8
234,865	-27,65
235,083	29,7
235,3	37,89
235,518	179,2
235,735	84,99
235,953	80,89
236,17	39,94
236,388	46,08
236,605	-46,08
236,822	111,61
237,04	185,34
237,257	7,17
237,475	9,22
237,692	25,6
237,909	107,52
238,127	-39,94
238,344	76,8
238,562	46,08
238,779	-7,17
238,996	-33,79
239,214	-29,7
239,431	105,47
239,648	-5,12
239,865	66,56
240,083	93,18
240,3	-64,51
240,517	-9,22
240,735	97,28
240,952	226,3
241,169	80,89
241,386	68,61
241,603	-54,27
241,821	-50,18
242,038	1,02
242,255	80,89
242,472	-9,22
242,689	58,37
242,907	44,03
243,124	54,27
243,341	-17,41
243,558	-29,7
243,775	-95,23
243,992	-54,27
244,209	76,8
244,426	187,39
244,643	44,03
244,86	-7,17
245,078	84,99
245,295	68,61
245,512	68,61
245,729	-52,22
245,946	80,89
246,163	31,74
246,38	-31,74
246,597	70,65
246,814	-33,79
247,031	-13,31
247,248	-27,65
247,464	72,7
247,681	-39,94
247,898	72,7
248,115	39,94
248,332	111,61
248,549	66,56
248,766	130,05
248,983	107,52
249,2	91,13
249,417	130,05
249,633	-46,08
249,85	25,6
250,067	76,8
250,284	23,55
250,501	80,89
250,717	25,6
250,934	-121,85
251,151	37,89
251,368	15,36
251,585	1,02
251,801	97,28
252,018	-50,18
252,235	130,05
252,451	-23,55
252,668	29,7
252,885	132,09
253,102	-23,55
253,318	-17,41
253,535	-39,94
253,752	-33,79
253,968	25,6
254,185	-156,67
254,401	56,32
254,618	66,56
254,835	-9,22
255,051	87,04
255,268	125,95
255,484	154,62
255,701	50,18
255,917	107,52
256,134	-78,85
256,351	-33,79
256,567	-54,27
256,784	1,02
257	-158,72
257,217	39,94
257,433	152,57
257,65	72,7
257,866	109,57
258,082	3,07
258,299	-50,18
258,515	50,18
258,732	23,55
258,948	-48,13
259,165	19,46
259,381	-97,28
259,597	56,32
259,814	76,8
260,03	80,89
260,246	48,13
260,463	72,7
260,679	195,58
260,895	64,51
261,112	146,43
261,328	-25,6
261,544	-9,22
261,761	168,96
261,977	-15,36
262,193	-23,55
262,409	60,42
262,626	48,13
262,842	1,02
263,058	23,55
263,274	72,7
263,49	41,98
263,707	130,05
263,923	84,99
264,139	17,41
264,355	101,37
264,571	64,51
264,787	115,71
265,004	130,05
265,22	-13,31
265,436	-41,98
265,652	33,79
265,868	107,52
266,084	-48,13
266,3	-54,27
266,516	-37,89
266,732	39,94
266,948	58,37
267,164	-7,17
267,38	52,22
267,596	58,37
267,812	109,57
268,028	19,46
268,244	33,79
268,46	-1,02
268,676	35,84
268,892	72,7
269,108	-15,36
269,324	15,36
269,54	-44,03
269,756	117,76
269,972	-68,61
270,188	89,09
270,403	-46,08
270,619	-15,36
270,835	44,03
271,051	66,56
271,267	3,07
271,483	-35,84
271,698	164,86
271,914	64,51
272,13	48,13
272,346	23,55
272,562	-19,46
272,777	154,62
272,993	80,89
273,209	27,65
273,425	25,6
273,64	-132,09
273,856	125,95
274,072	21,5
274,287	-58,37
274,503	162,81
274,719	101,37
274,934	-46,08
275,15	-66,56
275,366	66,56
275,581	-7,17
275,797	13,31
276,012	7,17
276,228	9,22
276,444	50,18
276,659	101,37
276,875	-31,74
277,09	-9,22
277,306	27,65
277,521	50,18
277,737	11,26
277,952	72,7
278,168	15,36
278,383	119,81
278,599	19,46
278,814	109,57
279,03	89,09
279,245	187,39
279,461	-25,6
279,676	91,13
279,892	-80,89
280,107	39,94
280,322	-7,17
280,538	-5,12
280,753	13,31
280,969	46,08
281,184	54,27
281,399	179,2
281,615	56,32
281,83	66,56
282,045	-37,89
282,26	-74,75
282,476	50,18
282,691	95,23
282,906	56,32
283,122	82,94
283,337	-31,74
283,552	46,08
283,767	1,02
283,983	74,75
284,198	48,13
284,413	39,94
284,628	-54,27
284,843	15,36
285,058	109,57
285,274	15,36
285,489	-39,94
285,704	21,5
285,919	5,12
286,134	-7,17
286,349	58,37
286,564	82,94
286,779	144,38
286,995	-64,51
287,21	-56,32
287,425	152,57
287,64	41,98
287,855	25,6
288,07	-50,18
288,285	119,81
288,5	66,56
288,715	76,8
288,93	5,12
289,145	-89,09
289,36	101,37
289,575	-3,07
289,79	158,72
290,004	-82,94
290,219	84,99
290,434	-64,51
290,649	-33,79
290,864	-39,94
291,079	-17,41
291,294	1,02
291,509	39,94
291,724	17,41
291,938	-5,12
292,153	21,5
292,368	-19,46
292,583	46,08
292,798	121,85
293,012	48,13
293,227	21,5
293,442	21,5
293,657	95,23
293,871	144,38
294,086	-33,79
294,301	191,49
294,516	105,47
294,73	91,13
294,945	-68,61
295,16	-9,22
295,374	89,09
295,589	115,71
295,804	1,02
296,018	-41,98
296,233	72,7
296,447	78,85
296,662	5,12
296,877	121,85
297,091	58,37
297,306	23,55
297,52	-58,37
297,735	152,57
297,949	-19,46
298,164	48,13
298,378	130,05
298,593	-82,94
298,807	15,36
299,022	105,47
299,236	93,18
299,451	-5,12
299,665	-7,17
299,88	-58,37
300,094	-15,36
300,309	-17,41
300,523	68,61
300,737	130,05
300,952	64,51
301,166	-25,6
301,381	-39,94
301,595	-29,7
301,809	78,85
302,024	17,41
302,238	-9,22
302,452	136,19
302,667	39,94
302,881	138,24
303,095	-17,41
303,309	7,17
303,524	-1,02
303,738	27,65
303,952	-39,94
304,166	76,8
304,381	-97,28
304,595	162,81
304,809	-33,79
305,023	-1,02
305,237	-52,22
305,452	37,89
305,666	9,22
305,88	58,37
306,094	97,28
306,308	68,61
306,522	48,13
306,736	80,89
306,95	150,53
307,164	-29,7
307,379	56,32
307,593	183,29
307,807	95,23
308,021	82,94
308,235	68,61
308,449	-48,13
308,663	23,55
308,877	293,88
309,091	78,85
309,305	82,94
309,519	-84,99
309,733	89,09
309,947	-89,09
310,161	3,07
310,374	46,08
310,588	62,46
310,802	-31,74
311,016	-33,79
311,23	3,07
311,444	15,36
311,658	19,46
311,872	70,65
312,085	95,23
312,299	148,48
312,513	164,86
312,727	39,94
312,941	35,84
313,154	68,61
313,368	72,7
313,582	58,37
313,796	107,52
314,009	-91,13
314,223	154,62
314,437	31,74
314,651	158,72
314,864	1,02
315,078	33,79
315,292	-52,22
315,505	-1,02
315,719	99,33
315,933	48,13
316,146	15,36
316,36	-17,41
316,573	78,85
316,787	68,61
317,001	64,51
317,214	-21,5
317,428	33,79
317,641	9,22
317,855	72,7
318,068	64,51
318,282	56,32
318,495	82,94
318,709	80,89
318,922	48,13
319,136	183,29
319,349	50,18
319,563	25,6
319,776	31,74
319,99	-68,61
320,203	74,75
320,417	23,55
320,63	48,13
320,843	154,62
321,057	31,74
321,27	-37,89
321,483	66,56
321,697	128
321,91	46,08
322,124	130,05
322,337	9,22
322,55	-62,46
322,763	17,41
322,977	31,74
323,19	48,13
323,403	35,84
323,617	19,46
323,83	189,44
324,043	-7,17
324,256	82,94
324,469	-9,22
324,683	58,37
324,896	64,51
325,109	1,02
325,322	-173,05
325,535	99,33
325,748	82,94
325,962	-54,27
326,175	84,99
326,388	72,7
326,601	105,47
326,814	35,84
327,027	52,22
327,24	119,81
327,453	-121,85
327,666	48,13
327,879	82,94
328,092	113,66
328,305	80,89
328,518	13,31
328,731	-17,41
328,944	-9,22
329,157	101,37
329,37	-39,94
329,583	171,01
329,796	175,1
330,009	-56,32
330,222	74,75
330,435	107,52
330,648	39,94
330,861	39,94
331,073	60,42
331,286	82,94
331,499	33,79
331,712	-23,55
331,925	-29,7
332,138	17,41
332,35	115,71
332,563	3,07
332,776	44,03
332,989	-17,41
333,202	-9,22
333,414	44,03
333,627	23,55
333,84	44,03
334,053	60,42
334,265	48,13
334,478	37,89
334,691	17,41
334,903	60,42
335,116	-68,61
335,329	-9,22
335,541	142,33
335,754	203,77
335,966	-56,32
336,179	62,46
336,392	-3,07
336,604	31,74
336,817	138,24
337,029	39,94
337,242	23,55
337,454	148,48
337,667	64,51
337,88	134,14
338,092	78,85
338,305	160,77
338,517	7,17
338,729	99,33
338,942	187,39
339,154	-136,19
339,367	-52,22
339,579	87,04
339,792	-31,74
340,004	117,76
340,217	52,22
340,429	9,22
340,641	-19,46
340,854	-25,6
341,066	-48,13
341,278	142,33
341,491	72,7
341,703	64,51
341,915	21,5
342,128	205,82
342,34	109,57
342,552	41,98
342,764	-1,02
342,977	56,32
343,189	109,57
343,401	9,22
343,613	-9,22
343,826	44,03
344,038	-48,13
344,25	25,6
344,462	9,22
344,674	121,85
344,886	74,75
345,099	39,94
345,311	60,42
345,523	-37,89
345,735	-93,18
345,947	37,89
346,159	164,86
346,371	62,46
346,583	-23,55
346,795	228,35
347,007	39,94
347,219	39,94
347,431	-33,79
347,643	150,53
347,855	62,46
348,067	123,9
348,279	-50,18
348,491	7,17
348,703	31,74
348,915	-11,26
349,127	-80,89
349,339	33,79
349,551	-41,98
349,763	39,94
349,975	7,17
350,187	58,37
350,399	11,26
350,61	-17,41
350,822	-17,41
351,034	58,37
351,246	-21,5
351,458	99,33
351,669	-15,36
351,881	80,89
352,093	95,23
352,305	56,32
352,517	93,18
352,728	103,42
352,94	66,56
353,152	121,85
353,363	-29,7
353,575	97,28
353,787	130,05
353,999	132,09
354,21	226,3
354,422	-33,79
354,633	60,42
354,845	-19,46
355,057	13,31
355,268	-21,5
355,48	11,26
355,692	-56,32
355,903	95,23
356,115	-60,42
356,326	-103,42
356,538	113,66
356,749	-5,12
356,961	171,01
357,172	7,17
357,384	-60,42
357,595	283,64
357,807	21,5
358,018	-3,07
358,23	60,42
358,441	177,15
358,653	27,65
358,864	-27,65
359,075	-19,46
359,287	25,6
359,498	82,94
359,709	17,41
359,921	-41,98
360,132	21,5
360,344	-1,02
360,555	-25,6
360,766	-5,12
360,977	-9,22
361,189	171,01
361,4	-37,89
361,611	177,15
361,823	207,87
362,034	111,61
362,245	23,55
362,456	-68,61
362,667	31,74
362,879	-39,94
363,09	33,79
363,301	7,17
363,512	74,75
363,723	-84,99
363,935	19,46
364,146	107,52
364,357	-1,02
364,568	19,46
364,779	-9,22
364,99	99,33
365,201	7,17
365,412	93,18
365,623	-99,33
365,834	-17,41
366,045	5,12
366,256	3,07
366,467	121,85
366,678	-9,22
366,889	-17,41
367,1	1,02
367,311	134,14
367,522	9,22
367,733	58,37
367,944	58,37
368,155	21,5
368,366	107,52
368,577	23,55
368,788	142,33
368,999	60,42
369,209	23,55
369,42	259,07
369,631	224,25
369,842	130,05
370,053	-54,27
370,264	82,94
370,474	-64,51
370,685	54,27
370,896	-33,79
371,107	162,81
371,317	54,27
371,528	9,22
371,739	132,09
371,95	103,42
372,16	31,74
372,371	-123,9
372,582	35,84
372,792	35,84
373,003	35,84
373,214	80,89
373,424	89,09
373,635	-125,95
373,846	109,57
374,056	44,03
374,267	48,13
374,477	50,18
374,688	1,02
374,898	31,74
375,109	-41,98
375,319	33,79
375,53	89,09
375,74	84,99
375,951	46,08
376,161	19,46
376,372	101,37
376,582	25,6
376,793	-29,7
377,003	11,26
377,214	-66,56
377,424	66,56
377,635	64,51
377,845	-56,32
378,055	25,6
378,266	-58,37
378,476	48,13
378,686	44,03
378,897	41,98
379,107	33,79
379,317	41,98
379,528	-7,17
379,738	113,66
379,948	-52,22
380,158	107,52
380,369	-13,31
380,579	50,18
380,789	-5,12
380,999	82,94
381,21	140,29
381,42	209,92
381,63	-46,08
381,84	50,18
382,05	48,13
382,261	84,99
382,471	66,56
382,681	-15,36
382,891	150,53
383,101	93,18
383,311	-5,12
383,521	-9,22
383,731	74,75
383,941	117,76
384,151	29,7
384,361	-25,6
384,571	144,38
384,781	41,98
384,991	224,25
385,201	244,73
385,411	76,8
385,621	11,26
385,831	48,13
386,041	23,55
386,251	5,12
386,461	197,63
386,671	33,79
386,881	74,75
387,091	-33,79
387,301	99,33
387,511	99,33
387,72	113,66
387,93	117,76
388,14	-99,33
388,35	78,85
388,56	142,33
388,769	60,42
388,979	52,22
389,189	-76,8
389,399	33,79
389,609	58,37
389,818	95,23
390,028	52,22
390,238	25,6
390,447	-58,37
390,657	15,36
390,867	13,31
391,076	-89,09
391,286	29,7
391,496	-19,46
391,705	-11,26
391,915	41,98
392,125	130,05
392,334	-15,36
392,544	158,72
392,753	44,03
392,963	23,55
393,172	-15,36
393,382	15,36
393,591	101,37
393,801	-78,85
394,01	232,44
394,22	33,79
394,429	-33,79
394,639	72,7
394,848	54,27
395,058	87,04
395,267	3,07
395,477	91,13
395,686	35,84
395,895	179,2
396,105	261,12
396,314	48,13
396,524	58,37
396,733	48,13
396,942	130,05
397,152	64,51
397,361	185,34
397,57	68,61
397,78	54,27
397,989	11,26
398,198	195,58
398,407	-37,89
398,617	-15,36
398,826	-23,55
399,035	-33,79
399,244	107,52
399,453	41,98
399,663	17,41
399,872	35,84
400,081	-27,65
400,29	183,29
400,499	-1,02
400,708	150,53
400,917	142,33
401,127	-68,61
401,336	-35,84
401,545	197,63
401,754	175,1
401,963	113,66
402,172	33,79
402,381	-56,32
402,59	-123,9
402,799	62,46
403,008	82,94
403,217	21,5
403,426	80,89
403,635	-25,6
403,844	-13,31
404,053	-80,89
404,262	37,89
404,471	142,33
404,68	48,13
404,888	93,18
405,097	64,51
405,306	35,84
405,515	46,08
405,724	-5,12
405,933	105,47
406,142	52,22
406,35	117,76
406,559	-17,41
406,768	-46,08
406,977	144,38
407,185	62,46
407,394	7,17
407,603	-144,38
407,812	62,46
408,02	82,94
408,229	27,65
408,438	111,61
408,646	-19,46
408,855	60,42
409,064	80,89
409,272	39,94
409,481	93,18
409,69	-89,09
409,898	-33,79
410,107	39,94
410,315	99,33
410,524	64,51
410,733	35,84
410,941	64,51
411,15	39,94
411,358	105,47
411,567	68,61
411,775	-33,79
411,984	66,56
412,192	58,37
412,401	19,46
412,609	222,2
412,818	123,9
413,026	3,07
413,234	29,7
413,443	29,7
413,651	-37,89
413,86	64,51
414,068	166,91
414,276	107,52
414,485	-1,02
414,693	173,05
414,901	121,85
415,11	50,18
415,318	23,55
415,526	39,94
415,734	121,85
415,943	56,32
416,151	156,67
416,359	15,36
416,567	25,6
416,776	101,37
416,984	23,55
417,192	76,8
417,4	-41,98
417,608	52,22
417,817	-72,7
418,025	97,28
418,233	119,81
418,441	-52,22
418,649	-93,18
418,857	60,42
419,065	62,46
419,273	-7,17
419,481	7,17
419,689	56,32
419,897	25,6
420,105	-54,27
420,313	17,41
420,521	119,81
420,729	130,05
420,937	1,02
421,145	-97,28
421,353	62,46
421,561	117,76
421,769	37,89
421,977	-29,7
422,185	154,62
422,393	9,22
422,601	56,32
422,809	58,37
423,017	52,22
423,224	19,46
423,432	95,23
423,64	-9,22
423,848	134,14
424,056	-29,7
424,263	97,28
424,471	23,55
424,679	146,43
424,887	-54,27
425,094	78,85
425,302	39,94
425,51	-17,41
425,718	46,08
425,925	101,37
426,133	-25,6
426,341	132,09
426,548	25,6
426,756	-3,07
426,964	56,32
427,171	-105,47
427,379	25,6
427,586	23,55
427,794	66,56
428,001	95,23
428,209	7,17
428,417	148,48
428,624	64,51
428,832	54,27
429,039	64,51
429,247	60,42
429,454	80,89
429,662	181,25
429,869	136,19
430,076	95,23
430,284	58,37
430,491	128
430,699	95,23
430,906	171,01
431,114	1,02
431,321	52,22
431,528	1,02
431,736	33,79
431,943	166,91
432,15	97,28
432,358	78,85
432,565	171,01
432,772	-113,66
432,979	105,47
433,187	-17,41
433,394	138,24
433,601	7,17
433,808	84,99
434,016	199,68
434,223	121,85
434,43	41,98
434,637	160,77
434,844	48,13
435,052	-17,41
435,259	84,99
435,466	-23,55
435,673	64,51
435,88	125,95
436,087	89,09
436,294	101,37
436,501	109,57
436,708	84,99
436,915	70,65
437,122	64,51
437,329	-93,18
437,537	41,98
437,743	80,89
437,95	134,14
438,157	76,8
438,364	138,24
438,571	78,85
438,778	179,2
438,985	109,57
439,192	201,72
439,399	62,46
439,606	123,9
439,813	150,53
440,02	150,53
440,227	261,12
440,433	171,01
440,64	109,57
440,847	-13,31
441,054	33,79
441,261	173,05
441,467	72,7
441,674	66,56
441,881	177,15
442,088	60,42
442,294	171,01
442,501	224,25
442,708	224,25
442,914	113,66
443,121	119,81
443,328	111,61
443,534	242,68
443,741	121,85
443,948	9,22
444,154	168,96
444,361	269,31
444,568	107,52
444,774	115,71
444,981	27,65
445,187	177,15
445,394	123,9
445,6	21,5
445,807	107,52
446,013	107,52
446,22	-74,75
446,426	84,99
446,633	62,46
446,839	279,55
447,046	-23,55
447,252	164,86
447,459	66,56
447,665	82,94
447,871	107,52
448,078	234,49
448,284	103,42
448,491	214,01
448,697	164,86
448,903	201,72
449,11	173,05
449,316	164,86
449,522	214,01
449,728	236,54
449,935	146,43
450,141	93,18
450,347	154,62
450,553	168,96
450,76	175,1
450,966	121,85
451,172	197,63
451,378	203,77
451,584	203,77
451,791	238,59
451,997	265,21
452,203	56,32
452,409	230,4
452,615	248,83
452,821	150,53
453,027	105,47
453,233	338,94
453,44	175,1
453,646	175,1
453,852	31,74
454,058	7,17
454,264	187,39
454,47	214,01
454,676	99,33
454,882	187,39
455,088	146,43
455,294	261,12
455,5	254,97
455,705	171,01
455,911	216,06
456,117	130,05
456,323	125,95
456,529	330,75
456,735	115,71
456,941	211,96
457,147	252,92
457,352	209,92
457,558	121,85
457,764	134,14
457,97	152,57
458,176	146,43
458,381	166,91
458,587	240,64
458,793	185,34
458,999	173,05
459,204	119,81
459,41	164,86
459,616	181,25
459,821	269,31
460,027	121,85
460,233	171,01
460,438	171,01
460,644	95,23
460,85	236,54
461,055	230,4
461,261	185,34
461,466	121,85
461,672	140,29
461,878	130,05
462,083	254,97
462,289	-5,12
462,494	66,56
462,7	220,16
462,905	152,57
463,111	224,25
463,316	222,2
463,522	240,64
463,727	109,57
463,932	191,49
464,138	185,34
464,343	160,77
464,549	232,44
464,754	171,01
464,959	132,09
465,165	64,51
465,37	97,28
465,575	138,24
465,781	134,14
465,986	138,24
466,191	97,28
466,397	158,72
466,602	312,32
466,807	261,12
467,012	246,78
467,218	117,76
467,423	123,9
467,628	150,53
467,833	9,22
468,038	134,14
468,244	-9,22
468,449	179,2
468,654	162,81
468,859	82,94
469,064	15,36
469,269	119,81
469,474	195,58
469,679	199,68
469,885	148,48
470,09	154,62
470,295	171,01
470,5	105,47
470,705	252,92
470,91	91,13
471,115	263,16
471,32	123,9
471,525	281,6
471,73	343,03
471,935	173,05
472,139	93,18
472,344	89,09
472,549	138,24
472,754	230,4
472,959	173,05
473,164	136,19
473,369	89,09
473,574	171,01
473,778	134,14
473,983	87,04
474,188	173,05
474,393	115,71
474,598	152,57
474,802	173,05
475,007	154,62
475,212	220,16
475,417	183,29
475,621	160,77
475,826	56,32
476,031	171,01
476,235	74,75
476,44	150,53
476,645	109,57
476,849	82,94
477,054	76,8
477,259	99,33
477,463	246,78
477,668	275,45
477,872	259,07
478,077	97,28
478,282	111,61
478,486	236,54
478,691	64,51
478,895	121,85
479,1	171,01
479,304	187,39
479,509	89,09
479,713	203,77
479,918	146,43
480,122	97,28
480,326	89,09
480,531	175,1
480,735	138,24
480,94	103,42
481,144	185,34
481,348	171,01
481,553	187,39
481,757	60,42
481,961	97,28
482,166	154,62
482,37	15,36
482,574	166,91
482,778	27,65
482,983	261,12
483,187	177,15
483,391	156,67
483,595	76,8
483,8	148,48
484,004	211,96
484,208	128
484,412	214,01
484,616	289,79
484,821	123,9
485,025	50,18
485,229	80,89
485,433	187,39
485,637	31,74
485,841	95,23
486,045	193,53
486,249	220,16
486,453	238,59
486,657	113,66
486,861	11,26
487,065	203,77
487,269	179,2
487,473	48,13
487,677	228,35
487,881	416,76
488,085	173,05
488,289	209,92
488,493	84,99
488,697	279,55
488,901	203,77
489,105	99,33
489,309	142,33
489,512	271,36
489,716	185,34
489,92	218,11
490,124	113,66
490,328	214,01
490,531	168,96
490,735	310,27
490,939	74,75
491,143	123,9
491,346	119,81
491,55	97,28
491,754	183,29
491,958	244,73
492,161	191,49
492,365	103,42
492,569	134,14
492,772	195,58
492,976	203,77
493,18	162,81
493,383	142,33
493,587	109,57
493,79	189,44
493,994	152,57
494,197	123,9
494,401	234,49
494,605	136,19
494,808	142,33
495,012	168,96
495,215	277,5
495,419	273,4
495,622	113,66
495,825	175,1
496,029	76,8
496,232	173,05
496,436	132,09
496,639	222,2
496,843	183,29
497,046	146,43
497,249	265,21
497,453	138,24
497,656	101,37
497,859	179,2
498,063	228,35
498,266	209,92
498,469	39,94
498,673	105,47
498,876	105,47
499,079	144,38
499,282	181,25
499,485	343,03
499,689	156,67
499,892	244,73
500,095	152,57
500,298	123,9
500,501	97,28
500,705	171,01
500,908	123,9
501,111	152,57
501,314	324,6
501,517	306,17
501,72	148,48
501,923	222,2
502,126	175,1
502,329	285,69
502,532	297,98
502,735	179,2
502,938	306,17
503,141	312,32
503,344	103,42
503,547	263,16
503,75	203,77
503,953	84,99
504,156	279,55
504,359	234,49
504,562	295,93
504,765	228,35
504,968	277,5
505,17	244,73
505,373	185,34
505,576	328,7
505,779	248,83
505,982	66,56
506,185	207,87
506,387	156,67
506,59	351,23
506,793	205,82
506,996	168,96
507,198	289,79
507,401	369,66
507,604	324,6
507,807	254,97
508,009	175,1
508,212	261,12
508,415	234,49
508,617	142,33
508,82	205,82
509,022	220,16
509,225	269,31
509,428	207,87
509,63	318,46
509,833	228,35
510,035	402,43
510,238	326,65
510,44	125,95
510,643	322,56
510,845	314,36
511,048	351,23
511,25	314,36
511,453	312,32
511,655	320,51
511,858	451,58
512,06	404,47
512,262	187,39
512,465	304,12
512,667	228,35
512,87	101,37
513,072	318,46
513,274	275,45
513,477	154,62
513,679	216,06
513,881	289,79
514,084	160,77
514,286	367,61
514,488	345,08
514,69	246,78
514,893	171,01
515,095	177,15
515,297	171,01
515,499	74,75
515,701	211,96
515,904	318,46
516,106	324,6
516,308	326,65
516,51	271,36
516,712	359,42
516,914	314,36
517,116	267,26
517,318	250,88
517,52	285,69
517,722	267,26
517,925	183,29
518,127	250,88
518,329	363,51
518,531	113,66
518,733	357,37
518,935	252,92
519,136	334,84
519,338	201,72
519,54	365,56
519,742	312,32
519,944	386,04
520,146	293,88
520,348	312,32
520,55	351,23
520,752	252,92
520,954	222,2
521,155	295,93
521,357	240,64
521,559	353,27
521,761	367,61
521,963	336,89
522,164	324,6
522,366	283,64
522,568	328,7
522,77	338,94
522,971	322,56
523,173	214,01
523,375	355,32
523,576	199,68
523,778	132,09
523,98	211,96
524,181	369,66
524,383	355,32
524,584	285,69
524,786	363,51
524,988	355,32
525,189	361,47
525,391	359,42
525,592	211,96
525,794	214,01
525,995	205,82
526,197	410,62
526,398	474,1
526,6	300,03
526,801	312,32
527,003	193,53
527,204	252,92
527,406	367,61
527,607	297,98
527,808	289,79
528,01	283,64
528,211	424,95
528,412	302,08
528,614	480,25
528,815	424,95
529,016	359,42
529,218	334,84
529,419	363,51
529,62	353,27
529,822	494,58
530,023	416,76
530,224	562,17
530,425	723,96
530,626	1043,44
530,828	1491,95
531,029	2001,89
531,23	3183,57
531,431	4834,23
531,632	7244,69
531,833	10060,65
532,035	13910,83
532,236	17486,58
532,437	20994,75
532,638	23966,35
532,839	26444,4
533,04	28174,93
533,241	28658,25
533,442	29526,59
533,643	28267,09
533,844	26327,66
534,045	24373,9
534,246	21471,93
534,447	19065,57
534,648	15905,55
534,849	13429,56
535,05	10683,23
535,251	8792,95
535,451	7101,33
535,652	5692,33
535,853	4395,96
536,054	3460,04
536,255	2520,03
536,456	1827,81
536,657	1160,17
536,857	1068,02
537,058	855,03
537,259	572,41
537,46	568,31
537,66	424,95
537,861	400,38
538,062	418,81
538,263	236,54
538,463	433,15
538,664	328,7
538,865	250,88
539,065	293,88
539,266	443,39
539,466	336,89
539,667	478,2
539,868	244,73
540,068	365,56
540,269	386,04
540,469	308,22
540,67	427
540,87	281,6
541,071	261,12
541,271	379,9
541,472	343,03
541,672	289,79
541,873	285,69
542,073	289,79
542,274	273,4
542,474	343,03
542,675	302,08
542,875	371,71
543,075	156,67
543,276	220,16
543,476	320,51
543,676	275,45
543,877	297,98
544,077	345,08
544,277	365,56
544,478	285,69
544,678	330,75
544,878	191,49
545,078	293,88
545,279	240,64
545,479	220,16
545,679	220,16
545,879	224,25
546,079	357,37
546,28	115,71
546,48	228,35
546,68	377,85
546,88	236,54
547,08	201,72
547,28	375,8
547,48	91,13
547,68	338,94
547,88	269,31
548,081	293,88
548,281	199,68
548,481	171,01
548,681	240,64
548,881	334,84
549,081	252,92
549,28	304,12
549,48	171,01
549,68	279,55
549,88	312,32
550,08	240,64
550,28	236,54
550,48	392,19
550,68	238,59
550,88	318,46
551,08	291,84
551,279	334,84
551,479	160,77
551,679	427
551,879	164,86
552,079	269,31
552,278	297,98
552,478	433,15
552,678	289,79
552,878	332,79
553,077	236,54
553,277	252,92
553,477	269,31
553,676	349,18
553,876	275,45
554,076	259,07
554,275	375,8
554,475	283,64
554,674	347,13
554,874	336,89
555,074	183,29
555,273	343,03
555,473	242,68
555,672	297,98
555,872	271,36
556,071	209,92
556,271	340,99
556,47	318,46
556,67	265,21
556,869	218,11
557,068	244,73
557,268	310,27
557,467	295,93
557,667	406,52
557,866	207,87
558,065	289,79
558,265	277,5
558,464	271,36
558,663	267,26
558,863	322,56
559,062	302,08
559,261	259,07
559,461	279,55
559,66	252,92
559,859	130,05
560,058	220,16
560,258	150,53
560,457	279,55
560,656	318,46
560,855	154,62
561,054	300,03
561,253	214,01
561,453	277,5
561,652	271,36
561,851	297,98
562,05	214,01
562,249	125,95
562,448	293,88
562,647	195,58
562,846	277,5
563,045	293,88
563,244	205,82
563,443	279,55
563,642	297,98
563,841	224,25
564,04	326,65
564,239	306,17
564,438	265,21
564,637	125,95
564,836	209,92
565,035	199,68
565,234	195,58
565,432	222,2
565,631	277,5
565,83	228,35
566,029	222,2
566,228	302,08
566,427	347,13
566,625	87,04
566,824	265,21
567,023	248,83
567,222	316,41
567,42	162,81
567,619	293,88
567,818	254,97
568,016	433,15
568,215	328,7
568,414	353,27
568,612	224,25
568,811	222,2
569,01	254,97
569,208	234,49
569,407	351,23
569,605	300,03
569,804	171,01
570,002	330,75
570,201	220,16
570,4	257,02
570,598	164,86
570,797	302,08
570,995	89,09
571,193	240,64
571,392	287,74
571,59	164,86
571,789	373,75
571,987	263,16
572,186	314,36
572,384	197,63
572,582	150,53
572,781	300,03
572,979	148,48
573,177	197,63
573,376	285,69
573,574	304,12
573,772	201,72
573,971	134,14
574,169	148,48
574,367	269,31
574,565	166,91
574,763	179,2
574,962	310,27
575,16	279,55
575,358	164,86
575,556	234,49
575,754	289,79
575,952	273,4
576,151	334,84
576,349	320,51
576,547	181,25
576,745	269,31
576,943	320,51
577,141	246,78
577,339	181,25
577,537	287,74
577,735	394,23
577,933	285,69
578,131	164,86
578,329	355,32
578,527	314,36
578,725	226,3
578,923	158,72
579,121	326,65
579,319	164,86
579,516	179,2
579,714	457,72
579,912	240,64
580,11	236,54
580,308	175,1
580,506	181,25
580,704	93,18
580,901	168,96
581,099	252,92
581,297	205,82
581,495	236,54
581,692	146,43
581,89	443,39
582,088	132,09
582,285	209,92
582,483	181,25
582,681	271,36
582,878	289,79
583,076	322,56
583,274	289,79
583,471	369,66
583,669	297,98
583,866	154,62
584,064	183,29
584,262	134,14
584,459	154,62
584,657	263,16
584,854	336,89
585,052	244,73
585,249	302,08
585,447	234,49
585,644	109,57
585,841	289,79
586,039	265,21
586,236	287,74
586,434	199,68
586,631	203,77
586,828	214,01
587,026	220,16
587,223	199,68
587,42	197,63
587,618	197,63
587,815	271,36
588,012	232,44
588,21	234,49
588,407	265,21
588,604	267,26
588,801	250,88
588,999	193,53
589,196	347,13
589,393	203,77
589,59	297,98
589,787	287,74
589,984	306,17
590,182	285,69
590,379	220,16
590,576	236,54
590,773	234,49
590,97	293,88
591,167	367,61
591,364	340,99
591,561	179,2
591,758	363,51
591,955	351,23
592,152	248,83
592,349	230,4
592,546	230,4
592,743	197,63
592,94	211,96
593,137	273,4
593,334	345,08
593,531	310,27
593,727	261,12
593,924	289,79
594,121	263,16
594,318	185,34
594,515	269,31
594,712	422,91
594,908	353,27
595,105	119,81
595,302	273,4
595,499	216,06
595,696	359,42
595,892	179,2
596,089	353,27
596,286	226,3
596,482	474,1
596,679	289,79
596,876	136,19
597,072	318,46
597,269	283,64
597,466	259,07
597,662	308,22
597,859	134,14
598,055	248,83
598,252	343,03
598,448	340,99
598,645	316,41
598,841	277,5
599,038	345,08
599,234	361,47
599,431	252,92
599,627	291,84
599,824	277,5
600,02	300,03
600,217	189,44
600,413	312,32
600,609	277,5
600,806	582,65
601,002	365,56
601,198	218,11
601,395	400,38
601,591	302,08
601,787	297,98
601,984	326,65
602,18	326,65
602,376	310,27
602,572	304,12
602,769	312,32
602,965	351,23
603,161	277,5
603,357	318,46
603,553	402,43
603,75	207,87
603,946	218,11
604,142	283,64
604,338	347,13
604,534	338,94
604,73	195,58
604,926	277,5
605,122	467,96
605,318	275,45
605,514	336,89
605,71	203,77
605,906	281,6
606,102	314,36
606,298	386,04
606,494	414,71
606,69	424,95
606,886	211,96
607,082	302,08
607,278	238,59
607,474	302,08
607,67	312,32
607,866	171,01
608,062	297,98
608,257	271,36
608,453	244,73
608,649	332,79
608,845	224,25
609,041	173,05
609,236	318,46
609,432	330,75
609,628	306,17
609,824	338,94
610,019	199,68
610,215	181,25
610,411	388,09
610,606	404,47
610,802	230,4
610,998	293,88
611,193	285,69
611,389	220,16
611,584	277,5
611,78	248,83
611,976	349,18
612,171	453,63
612,367	306,17
612,562	349,18
612,758	304,12
612,953	207,87
613,149	254,97
613,344	373,75
613,539	205,82
613,735	369,66
613,93	248,83
614,126	265,21
614,321	320,51
614,517	486,39
614,712	320,51
614,907	295,93
615,103	332,79
615,298	361,47
615,493	220,16
615,688	228,35
615,884	306,17
616,079	281,6
616,274	261,12
616,47	201,72
616,665	257,02
616,86	359,42
617,055	234,49
617,25	203,77
617,445	283,64
617,641	228,35
617,836	289,79
618,031	306,17
618,226	347,13
618,421	418,81
618,616	283,64
618,811	287,74
619,006	211,96
619,201	467,96
619,396	322,56
619,591	205,82
619,786	326,65
619,981	392,19
620,176	302,08
620,371	338,94
620,566	359,42
620,761	373,75
620,956	295,93
621,151	336,89
621,346	314,36
621,541	220,16
621,735	353,27
621,93	302,08
622,125	230,4
622,32	236,54
622,515	113,66
622,709	302,08
622,904	353,27
623,099	285,69
623,294	396,28
623,488	347,13
623,683	326,65
623,878	318,46
624,072	363,51
624,267	166,91
624,462	261,12
624,656	187,39
624,851	261,12
625,046	279,55
625,24	234,49
625,435	310,27
625,629	205,82
625,824	347,13
626,018	250,88
626,213	406,52
626,407	187,39
626,602	326,65
626,796	261,12
626,991	410,62
627,185	273,4
627,38	318,46
627,574	396,28
627,768	390,14
627,963	183,29
628,157	308,22
628,352	191,49
628,546	211,96
628,74	269,31
628,935	203,77
629,129	211,96
629,323	390,14
629,517	119,81
629,712	158,72
629,906	236,54
630,1	312,32
630,294	345,08
630,489	197,63
630,683	211,96
630,877	273,4
631,071	408,57
631,265	224,25
631,459	252,92
631,653	228,35
631,848	277,5
632,042	269,31
632,236	261,12
632,43	273,4
632,624	220,16
632,818	238,59
633,012	265,21
633,206	252,92
633,4	158,72
633,594	302,08
633,788	367,61
633,982	322,56
634,176	318,46
634,369	257,02
634,563	254,97
634,757	121,85
634,951	242,68
635,145	373,75
635,339	218,11
635,533	340,99
635,726	345,08
635,92	195,58
636,114	189,44
636,308	171,01
636,501	238,59
636,695	271,36
636,889	205,82
637,083	324,6
637,276	254,97
637,47	214,01
637,664	187,39
637,857	232,44
638,051	232,44
638,244	263,16
638,438	244,73
638,632	459,77
638,825	56,32
639,019	371,71
639,212	181,25
639,406	326,65
639,599	203,77
639,793	234,49
639,986	230,4
640,18	328,7
640,373	150,53
640,567	240,64
640,76	326,65
640,954	291,84
641,147	142,33
641,34	191,49
641,534	193,53
641,727	261,12
641,92	265,21
642,114	201,72
642,307	185,34
642,5	281,6
642,694	136,19
642,887	234,49
643,08	314,36
643,273	287,74
643,467	195,58
643,66	216,06
643,853	234,49
644,046	326,65
644,239	232,44
644,432	144,38
644,626	168,96
644,819	207,87
645,012	115,71
645,205	257,02
645,398	334,84
645,591	261,12
645,784	158,72
645,977	60,42
646,17	158,72
646,363	218,11
646,556	171,01
646,749	66,56
646,942	250,88
647,135	240,64
647,328	105,47
647,521	203,77
647,714	113,66
647,907	248,83
648,099	107,52
648,292	357,37
648,485	238,59
648,678	160,77
648,871	132,09
649,064	193,53
649,256	115,71
649,449	160,77
649,642	89,09
649,835	142,33
650,027	158,72
650,22	162,81
650,413	220,16
650,605	181,25
650,798	130,05
650,991	171,01
651,183	187,39
651,376	148,48
651,568	211,96
651,761	138,24
651,954	207,87
652,146	146,43
652,339	238,59
652,531	244,73
652,724	132,09
652,916	93,18
653,109	23,55
653,301	207,87
653,494	218,11
653,686	181,25
653,879	205,82
654,071	205,82
654,263	150,53
654,456	72,7
654,648	250,88
654,84	207,87
655,033	91,13
655,225	285,69
655,417	87,04
655,61	244,73
655,802	211,96
655,994	246,78
656,186	70,65
656,379	240,64
656,571	3,07
656,763	125,95
656,955	173,05
657,148	89,09
657,34	242,68
657,532	7,17
657,724	209,92
657,916	132,09
658,108	166,91
658,3	228,35
658,492	218,11
658,684	54,27
658,876	156,67
659,068	109,57
659,26	101,37
659,452	93,18
659,644	173,05
659,836	310,27
660,028	154,62
660,22	89,09
660,412	68,61
660,604	146,43
660,796	205,82
660,988	265,21
661,18	183,29
661,372	207,87
661,563	203,77
661,755	156,67
661,947	74,75
662,139	156,67
662,331	228,35
662,522	123,9
662,714	13,31
662,906	82,94
663,097	95,23
663,289	103,42
663,481	33,79
663,673	119,81
663,864	148,48
664,056	136,19
664,247	70,65
664,439	269,31
664,631	132,09
664,822	271,36
665,014	140,29
665,205	142,33
665,397	58,37
665,588	238,59
665,78	209,92
665,971	162,81
666,163	123,9
666,354	142,33
666,546	76,8
666,737	82,94
666,929	148,48
667,12	91,13
667,311	238,59
667,503	132,09
667,694	164,86
667,885	191,49
668,077	197,63
668,268	41,98
668,459	201,72
668,651	93,18
668,842	154,62
669,033	3,07
669,224	87,04
669,416	269,31
669,607	50,18
669,798	82,94
669,989	183,29
670,18	128
670,371	195,58
670,563	31,74
670,754	230,4
670,945	136,19
671,136	168,96
671,327	95,23
671,518	197,63
671,709	269,31
671,9	267,26
672,091	203,77
672,282	117,76
672,473	134,14
672,664	-21,5
672,855	142,33
673,046	148,48
673,237	183,29
673,428	107,52
673,619	156,67
673,809	35,84
674	146,43
674,191	166,91
674,382	60,42
674,573	68,61
674,764	60,42
674,954	138,24
675,145	44,03
675,336	-1,02
675,527	29,7
675,717	99,33
675,908	109,57
676,099	15,36
676,289	164,86
676,48	-41,98
676,671	80,89
676,861	17,41
677,052	142,33
677,243	44,03
677,433	70,65
677,624	113,66
677,814	103,42
678,005	-13,31
678,195	140,29
678,386	29,7
678,576	41,98
678,767	-37,89
678,957	72,7
679,148	84,99
679,338	136,19
679,529	146,43
679,719	58,37
679,909	207,87
680,1	162,81
680,29	138,24
680,481	-54,27
680,671	93,18
680,861	134,14
681,052	101,37
681,242	27,65
681,432	109,57
681,622	89,09
681,813	35,84
682,003	99,33
682,193	52,22
682,383	156,67
682,573	9,22
682,764	74,75
682,954	89,09
683,144	123,9
683,334	-21,5
683,524	27,65
683,714	9,22
683,904	72,7
684,094	15,36
684,284	48,13
684,474	78,85
684,664	142,33
684,854	41,98
685,044	84,99
685,234	52,22
685,424	72,7
685,614	56,32
685,804	220,16
685,994	66,56
686,184	41,98
686,374	146,43
686,564	58,37
686,753	80,89
686,943	29,7
687,133	101,37
687,323	97,28
687,513	80,89
687,702	123,9
687,892	29,7
688,082	105,47
688,272	142,33
688,461	123,9
688,651	175,1
688,841	193,53
689,03	56,32
689,22	39,94
689,41	125,95
689,599	154,62
689,789	-50,18
689,979	240,64
690,168	54,27
690,358	95,23
690,547	56,32
690,737	162,81
690,926	119,81
691,116	134,14
691,305	107,52
691,495	121,85
691,684	-9,22
691,874	58,37
692,063	46,08
692,252	76,8
692,442	113,66
692,631	60,42
692,82	52,22
693,01	117,76
693,199	33,79
693,388	113,66
693,578	56,32
693,767	115,71
693,956	132,09
694,146	58,37
694,335	48,13
694,524	105,47
694,713	162,81
694,902	89,09
695,092	-25,6
695,281	52,22
695,47	123,9
695,659	23,55
695,848	109,57
696,037	68,61
696,226	136,19
696,415	27,65
696,604	187,39
696,793	27,65
696,982	35,84
697,171	222,2
697,36	60,42
697,549	107,52
697,738	-31,74
697,927	31,74
698,116	35,84
698,305	99,33
698,494	60,42
698,683	105,47
698,872	228,35
699,061	72,7
699,25	9,22
699,438	41,98
699,627	-31,74
699,816	179,2
700,005	27,65
700,193	21,5
700,382	152,57
700,571	23,55
700,76	72,7
700,948	134,14
701,137	201,72
701,326	64,51
701,514	58,37
701,703	66,56
701,892	117,76
702,08	222,2
702,269	58,37
702,457	35,84
702,646	173,05
702,834	-13,31
703,023	87,04
703,212	195,58
703,4	54,27
703,589	-9,22
703,777	99,33
703,965	-23,55
704,154	107,52
704,342	-31,74
704,531	17,41
704,719	76,8
704,907	103,42
705,096	-17,41
705,284	5,12
705,472	89,09
705,661	44,03
705,849	95,23
706,037	191,49
706,226	37,89
706,414	37,89
706,602	-17,41
706,79	101,37
706,979	-76,8
707,167	105,47
707,355	-66,56
707,543	130,05
707,731	132,09
707,919	35,84
708,107	95,23
708,296	68,61
708,484	-93,18
708,672	140,29
708,86	23,55
709,048	74,75
709,236	29,7
709,424	97,28
709,612	121,85
709,8	-70,65
709,988	107,52
710,176	119,81
710,364	211,96
710,551	99,33
710,739	1,02
710,927	87,04
711,115	44,03
711,303	207,87
711,491	261,12
711,679	-3,07
711,866	105,47
712,054	9,22
712,242	140,29
712,43	115,71
712,617	-33,79
712,805	111,61
712,993	50,18
713,181	-64,51
713,368	197,63
713,556	60,42
713,744	140,29
713,931	191,49
714,119	109,57
714,306	52,22
714,494	-37,89
714,682	50,18
714,869	-76,8
715,057	44,03
715,244	-97,28
715,432	154,62
715,619	5,12
715,807	56,32
715,994	-25,6
716,182	109,57
716,369	140,29
716,556	121,85
716,744	-17,41
716,931	-101,37
717,119	58,37
717,306	58,37
717,493	142,33
717,681	-13,31
717,868	-9,22
718,055	91,13
718,242	31,74
718,43	97,28
718,617	54,27
718,804	25,6
718,991	91,13
719,179	56,32
719,366	121,85
719,553	76,8
719,74	9,22
719,927	27,65
720,114	62,46
720,301	-9,22
720,488	-37,89
720,676	-5,12
720,863	189,44
721,05	160,77
721,237	1,02
721,424	89,09
721,611	80,89
721,798	-52,22
721,985	25,6
722,172	-7,17
722,358	52,22
722,545	35,84
722,732	41,98
722,919	183,29
723,106	107,52
723,293	-19,46
723,48	138,24
723,667	-41,98
723,853	50,18
724,04	58,37
724,227	162,81
724,414	27,65
724,6	119,81
724,787	293,88
724,974	222,2
725,161	91,13
725,347	17,41
725,534	31,74
725,72	58,37
725,907	154,62
726,094	93,18
726,28	-9,22
726,467	-58,37
726,653	-44,03
726,84	148,48
727,027	130,05
727,213	23,55
727,4	87,04
727,586	5,12
727,773	39,94
727,959	11,26
728,145	13,31
728,332	50,18
728,518	-31,74
728,705	35,84
728,891	50,18
729,077	1,02
729,264	15,36
729,45	-13,31
729,636	99,33
729,823	9,22
730,009	134,14
730,195	107,52
730,382	123,9
730,568	-56,32
730,754	95,23
730,94	48,13
731,126	11,26
731,313	52,22
731,499	-19,46
731,685	44,03
731,871	97,28
732,057	27,65
732,243	93,18
732,429	66,56
732,615	197,63
732,801	19,46
732,987	39,94
733,173	107,52
733,359	-66,56
733,545	-31,74
733,731	50,18
733,917	140,29
734,103	41,98
734,289	39,94
734,475	-1,02
734,661	205,82
734,847	89,09
735,033	123,9
735,219	44,03
735,404	-50,18
735,59	-11,26
735,776	60,42
735,962	29,7
736,148	115,71
736,333	103,42
736,519	37,89
736,705	52,22
736,89	39,94
737,076	23,55
737,262	-1,02
737,447	60,42
737,633	64,51
737,819	101,37
738,004	48,13
738,19	9,22
738,375	72,7
738,561	121,85
738,747	72,7
738,932	-39,94
739,118	209,92
739,303	148,48
739,489	80,89
739,674	52,22
739,859	-56,32
740,045	66,56
740,23	101,37
740,416	-128
740,601	7,17
740,786	31,74
740,972	-58,37
741,157	-17,41
741,342	-95,23
741,528	-35,84
741,713	113,66
741,898	-23,55
742,084	-5,12
742,269	-29,7
742,454	125,95
742,639	121,85
742,824	37,89
743,01	115,71
743,195	214,01
743,38	44,03
743,565	72,7
743,75	21,5
743,935	11,26
744,12	140,29
744,305	-56,32
744,49	64,51
744,675	13,31
744,86	31,74
745,045	64,51
745,23	80,89
745,415	64,51
745,6	142,33
745,785	-29,7
745,97	91,13
746,155	158,72
746,34	166,91
746,525	115,71
746,71	115,71
746,895	-80,89
747,079	7,17
747,264	60,42
747,449	80,89
747,634	154,62
747,819	68,61
748,003	11,26
748,188	-1,02
748,373	48,13
748,557	107,52
748,742	89,09
748,927	-21,5
749,111	-29,7
749,296	-1,02
749,481	50,18
749,665	58,37
749,85	-19,46
750,034	31,74
750,219	-7,17
750,404	-50,18
750,588	54,27
750,773	-64,51
750,957	44,03
751,141	-52,22
751,326	82,94
751,51	-41,98
751,695	52,22
751,879	66,56
752,064	146,43
752,248	66,56
752,432	199,68
752,617	164,86
752,801	142,33
752,985	-19,46
753,17	144,38
753,354	3,07
753,538	115,71
753,722	-1,02
753,907	11,26
754,091	-1,02
754,275	74,75
754,459	-87,04
754,643	27,65
754,828	58,37
755,012	158,72
755,196	-7,17
755,38	80,89
755,564	41,98
755,748	7,17
755,932	103,42
756,116	95,23
756,3	123,9
756,484	31,74
756,668	84,99
756,852	-130,05
757,036	31,74
757,22	56,32
757,404	-21,5
757,588	44,03
757,772	44,03
757,956	13,31
758,14	121,85
758,323	-9,22
758,507	52,22
758,691	-1,02
758,875	136,19
759,059	152,57
759,242	-21,5
759,426	76,8
759,61	144,38
759,794	-9,22
759,977	7,17
760,161	224,25
760,345	195,58
760,528	130,05
760,712	3,07
760,895	52,22
761,079	11,26
761,263	-58,37
761,446	1,02
761,63	41,98
761,813	113,66
761,997	-103,42
762,18	80,89
762,364	76,8
762,547	-11,26
762,731	5,12
762,914	58,37
763,098	-44,03
763,281	5,12
763,464	-37,89
763,648	25,6
763,831	-39,94
764,015	-58,37
764,198	121,85
764,381	-58,37
764,564	17,41
764,748	-25,6
764,931	72,7
765,114	-31,74
765,297	99,33
765,481	-15,36
765,664	89,09
765,847	9,22
766,03	91,13
766,213	-7,17
766,397	48,13
766,58	-95,23
766,763	82,94
766,946	-39,94
767,129	64,51
767,312	-54,27
767,495	80,89
767,678	-39,94
767,861	64,51
768,044	33,79
768,227	13,31
768,41	37,89
768,593	17,41
768,776	95,23
768,959	1,02
769,142	121,85
769,324	89,09
769,507	-23,55
769,69	-17,41
769,873	-15,36
770,056	148,48
770,239	-3,07
770,421	105,47
770,604	148,48
770,787	23,55
770,97	66,56
771,152	-62,46
771,335	166,91
771,518	-3,07
771,7	171,01
771,883	146,43
772,066	-68,61
772,248	56,32
772,431	111,61
772,613	95,23
772,796	-60,42
772,978	125,95
773,161	191,49
773,343	3,07
773,526	33,79
773,708	-9,22
773,891	-31,74
774,073	-11,26
774,256	-41,98
774,438	84,99
774,621	-19,46
774,803	60,42
774,985	27,65
775,168	78,85
775,35	44,03
775,532	82,94
775,715	33,79
775,897	117,76
776,079	46,08
776,261	56,32
776,444	76,8
776,626	52,22
776,808	44,03
776,99	-97,28
777,173	89,09
777,355	56,32
777,537	25,6
777,719	27,65
777,901	13,31
778,083	7,17
778,265	-66,56
778,447	130,05
778,629	-56,32
778,811	50,18
778,993	74,75
779,175	72,7
779,357	-27,65
779,539	-35,84
779,721	99,33
779,903	74,75
780,085	33,79
780,267	-41,98
780,449	76,8
780,631	119,81
780,812	136,19
780,994	25,6
781,176	33,79
781,358	-1,02
781,54	-5,12
781,721	152,57
781,903	91,13
782,085	-82,94
782,267	148,48
782,448	-128
782,63	134,14
782,812	-41,98
782,993	107,52
783,175	33,79
783,357	-21,5
783,538	80,89
783,72	23,55
783,901	-35,84
784,083	111,61
784,264	17,41
784,446	-95,23
784,627	41,98
784,809	146,43
784,99	-33,79
785,172	19,46
785,353	39,94
785,535	52,22
785,716	-11,26
785,897	-25,6
786,079	-60,42
786,26	41,98
786,441	23,55
786,623	-84,99
786,804	-99,33
786,985	11,26
787,167	74,75
787,348	97,28
787,529	103,42
787,71	187,39
787,891	41,98
788,073	1,02
788,254	-64,51
788,435	117,76
788,616	33,79
788,797	-25,6
788,978	7,17
789,159	-13,31
789,34	60,42
789,522	3,07
789,703	21,5
789,884	7,17
790,065	130,05
790,246	142,33
790,427	-27,65
790,607	128
790,788	76,8
790,969	-31,74
791,15	48,13
791,331	7,17
791,512	-80,89
791,693	-58,37
791,874	17,41
792,054	281,6
792,235	140,29
792,416	-46,08
792,597	-5,12
792,778	52,22
792,958	56,32
793,139	50,18
793,32	25,6
793,5	-54,27
793,681	123,9
793,862	78,85
794,042	39,94
794,223	-74,75
794,404	-46,08
794,584	-48,13
794,765	31,74
794,945	15,36
795,126	107,52
795,306	97,28
795,487	17,41
795,667	-29,7
795,848	62,46
796,028	-3,07
796,209	7,17
796,389	11,26
796,57	-82,94
796,75	-35,84
796,93	72,7
797,111	-31,74
797,291	-82,94
797,471	37,89
797,652	41,98
797,832	-29,7
798,012	101,37
798,192	3,07
798,373	-76,8
798,553	33,79
798,733	89,09
798,913	-68,61
799,093	-50,18
799,274	48,13
799,454	62,46
799,634	17,41
799,814	46,08
799,994	62,46
800,174	-17,41
800,354	91,13
800,534	-138,24
800,714	33,79
800,894	-138,24
801,074	-70,65
801,254	-50,18
801,434	87,04
801,614	-1,02
801,794	-123,9
801,974	2264,03
802,154	-29,7
802,334	119,81
802,514	-25,6
802,693	17,41
802,873	17,41
803,053	93,18
803,233	89,09
803,413	23,55
803,592	-39,94
803,772	-13,31
803,952	41,98
804,131	5,12
804,311	132,09
804,491	121,85
804,67	3,07
804,85	-17,41
805,03	115,71
805,209	74,75
805,389	-5,12
805,568	7,17
805,748	7,17
805,928	7,17
806,107	152,57
806,287	39,94
806,466	23,55
806,646	48,13
806,825	11,26
807,004	-11,26
807,184	33,79
807,363	64,51
807,543	48,13
807,722	-70,65
807,901	146,43
808,081	39,94
808,26	-99,33
808,439	-11,26
808,619	-48,13
808,798	31,74
808,977	62,46
809,156	78,85
809,336	33,79
809,515	27,65
809,694	-54,27
809,873	-105,47
810,052	54,27
810,231	101,37
810,411	54,27
810,59	35,84
810,769	11,26
810,948	56,32
811,127	-64,51
811,306	-50,18
811,485	5,12
811,664	187,39
811,843	64,51
812,022	41,98
812,201	66,56
812,38	68,61
812,559	-44,03
812,737	15,36
812,916	-130,05
813,095	-41,98
813,274	74,75
813,453	31,74
813,632	72,7
813,811	41,98
813,989	-58,37
814,168	23,55
814,347	-132,09
814,526	-25,6
814,704	138,24
814,883	50,18
815,062	-87,04
815,24	41,98
815,419	-125,95
815,598	93,18
815,776	-21,5
815,955	-33,79
816,133	-142,33
816,312	-11,26
816,49	-17,41
816,669	44,03
816,847	-50,18
817,026	15,36
817,204	-41,98
817,383	-33,79
817,561	15,36
817,74	19,46
817,918	-66,56
818,097	-3,07
818,275	5,12
818,453	9,22
818,632	58,37
818,81	-50,18
818,988	-11,26
819,167	48,13
819,345	50,18
819,523	1,02
819,701	-13,31
819,879	70,65
820,058	66,56
820,236	31,74
820,414	-5,12
820,592	-72,7
820,77	-15,36
820,948	-56,32
821,127	17,41
821,305	89,09
821,483	-76,8
821,661	72,7
821,839	-7,17
822,017	-58,37
822,195	-87,04
822,373	115,71
822,551	27,65
822,729	66,56
822,907	-19,46
823,085	31,74
823,262	-9,22
823,44	-62,46
823,618	13,31
823,796	-1,02
823,974	-33,79
824,152	-58,37
824,329	15,36
824,507	66,56
824,685	80,89
824,863	74,75
825,04	-15,36
825,218	52,22
825,396	50,18
825,574	60,42
825,751	33,79
825,929	56,32
826,107	-72,7
826,284	91,13
826,462	130,05
826,639	-80,89
826,817	-68,61
826,994	-41,98
827,172	-66,56
827,349	154,62
827,527	123,9
827,704	89,09
827,882	44,03
828,059	-48,13
828,237	48,13
828,414	74,75
828,591	-144,38
828,769	44,03
828,946	-97,28
829,124	95,23
829,301	60,42
829,478	-89,09
829,655	64,51
829,833	74,75
830,01	-87,04
830,187	101,37
830,364	39,94
830,542	9,22
830,719	91,13
830,896	84,99
831,073	7,17
831,25	46,08
831,427	29,7
831,604	9,22
831,782	-82,94
831,959	70,65
832,136	19,46
832,313	-50,18
832,49	-21,5
832,667	-72,7
832,844	-72,7
833,021	154,62
833,198	11,26
833,374	89,09
833,551	54,27
833,728	25,6
833,905	37,89
834,082	-46,08
834,259	-9,22
834,436	119,81
834,612	-33,79
834,789	50,18
834,966	-1,02
835,143	9,22
835,319	-107,52
835,496	64,51
835,673	13,31
835,85	113,66
836,026	91,13
836,203	97,28
836,38	-15,36
836,556	9,22
836,733	-68,61
836,909	142,33
837,086	-82,94
837,262	-58,37
837,439	-31,74
837,616	-62,46
837,792	35,84
837,968	33,79
838,145	-93,18
838,321	15,36
838,498	74,75
838,674	107,52
838,851	82,94
839,027	-58,37
839,203	-3,07
839,38	95,23
839,556	5,12
839,732	19,46
839,909	-46,08
840,085	35,84
840,261	-46,08
840,437	64,51
840,614	15,36
840,79	97,28
840,966	15,36
841,142	44,03
841,318	-11,26
841,494	5,12
841,671	72,7
841,847	-48,13
842,023	3,07
842,199	-48,13
842,375	107,52
842,551	-99,33
842,727	-78,85
842,903	179,2
843,079	-125,95
843,255	23,55
843,431	-21,5
843,607	44,03
843,783	-181,25
843,959	48,13
844,134	-44,03
844,31	146,43
844,486	-29,7
844,662	-23,55
844,838	-72,7
845,013	23,55
845,189	33,79
845,365	58,37
845,541	39,94
845,716	70,65
845,892	68,61
846,068	-3,07
846,244	-62,46
846,419	-23,55
846,595	-58,37
846,77	-52,22
846,946	1,02
847,122	27,65
847,297	-19,46
847,473	72,7
847,648	-91,13
847,824	111,61
847,999	-115,71
848,175	23,55
848,35	31,74
848,526	52,22
848,701	27,65
848,876	121,85
849,052	105,47
849,227	19,46
849,403	78,85
849,578	-17,41
849,753	7,17
849,929	80,89
850,104	-101,37
850,279	23,55
850,454	-5,12
850,63	31,74
850,805	37,89
850,98	-37,89
851,155	29,7
851,33	82,94
851,505	-107,52
851,681	142,33
851,856	-60,42
852,031	19,46
852,206	74,75
852,381	-39,94
852,556	15,36
852,731	37,89
852,906	39,94
853,081	-21,5
853,256	99,33
853,431	-11,26
853,606	-39,94
853,781	-89,09
853,956	-128
854,131	-29,7
854,305	-72,7
854,48	-54,27
854,655	-99,33
854,83	-37,89
855,005	-25,6
855,18	25,6
855,354	33,79
855,529	-19,46
855,704	-54,27
855,879	64,51
856,053	-9,22
856,228	-58,37
856,403	-56,32
856,577	15,36
856,752	-84,99
856,926	7,17
857,101	50,18
857,276	-44,03
857,45	-19,46
857,625	89,09
857,799	15,36
857,974	-9,22
858,148	-87,04
858,323	-27,65
858,497	-91,13
858,672	-23,55
858,846	-39,94
859,02	-7,17
859,195	-72,7
859,369	15,36
859,543	76,8
859,718	95,23
859,892	31,74
860,066	5,12
860,241	5,12
860,415	3,07
860,589	-64,51
860,763	3,07
860,938	-48,13
861,112	39,94
861,286	-54,27
861,46	23,55
861,634	-5,12
861,808	54,27
861,982	-52,22
862,157	-25,6
862,331	-15,36
862,505	-97,28
862,679	-140,29
862,853	-72,7
863,027	-31,74
863,201	166,91
863,375	-21,5
863,549	56,32
863,722	48,13
863,896	119,81
864,07	11,26
864,244	-48,13
864,418	111,61
864,592	60,42
864,766	13,31
864,939	52,22
865,113	-76,8
865,287	117,76
865,461	-48,13
865,634	-41,98
865,808	-50,18
865,982	-62,46
866,156	13,31
866,329	-82,94
866,503	41,98
866,676	31,74
866,85	60,42
867,024	-74,75
867,197	56,32
867,371	123,9
867,544	113,66
867,718	-168,96
867,891	101,37
868,065	13,31
868,238	-13,31
868,412	74,75
868,585	-9,22
868,759	-95,23
868,932	-31,74
869,105	1,02
869,279	-33,79
869,452	-60,42
869,625	33,79
869,799	-84,99
869,972	9,22
870,145	-25,6
870,319	39,94
870,492	-80,89
870,665	13,31
870,838	-107,52
871,011	-128
871,185	17,41
871,358	-80,89
871,531	31,74
871,704	-33,79
871,877	-11,26
872,05	-13,31
872,223	-82,94
872,396	93,18
872,569	60,42
872,742	-66,56
872,915	19,46
873,088	-60,42
873,261	-72,7
873,434	105,47
873,607	-5,12
873,78	48,13
873,953	3,07
874,126	-35,84
874,299	27,65
874,471	-25,6
874,644	35,84
874,817	31,74
874,99	156,67
875,163	-35,84
875,335	64,51
875,508	-66,56
875,681	82,94
875,853	-11,26
876,026	-9,22
876,199	62,46
876,371	-52,22
876,544	-17,41
876,717	56,32
876,889	9,22
877,062	52,22
877,234	-35,84
877,407	-41,98
877,579	5,12
877,752	62,46
877,924	181,25
878,097	62,46
878,269	23,55
878,442	-3,07
878,614	5,12
878,786	-60,42
878,959	136,19
879,131	97,28
879,303	-115,71
879,476	-66,56
879,648	107,52
879,82	31,74
879,993	-21,5
880,165	3,07
880,337	-132,09
880,509	-15,36
880,681	-39,94
880,854	-56,32
881,026	66,56
881,198	150,53
881,37	-68,61
881,542	-23,55
881,714	-1,02
881,886	11,26
882,058	48,13
882,23	99,33
882,402	13,31
882,574	35,84
882,746	66,56
882,918	171,01
883,09	44,03
883,262	-130,05
883,434	1,02
883,606	-95,23
883,778	5,12
883,95	195,58
884,122	-15,36
884,293	156,67
884,465	37,89
884,637	64,51
884,809	-60,42
884,98	-9,22
885,152	37,89
885,324	64,51
885,496	-58,37
885,667	-50,18
885,839	-66,56
886,011	109,57
886,182	7,17
886,354	80,89
886,525	56,32
886,697	-13,31
886,869	-52,22
887,04	-54,27
887,212	80,89
887,383	105,47
887,555	5,12
887,726	-19,46
887,897	-39,94
888,069	-13,31
888,24	89,09
888,412	-37,89
888,583	-9,22
888,754	37,89
888,926	-66,56
889,097	-68,61
889,268	-138,24
889,44	-23,55
889,611	-46,08
889,782	-144,38
889,953	-64,51
890,125	25,6
890,296	-62,46
890,467	-19,46
890,638	-9,22
890,809	41,98
890,98	-1,02
891,151	41,98
891,323	168,96
891,494	39,94
891,665	7,17
891,836	-11,26
892,007	25,6
892,178	-23,55
892,349	-21,5
892,52	-123,9
892,691	17,41
892,862	-41,98
893,032	-130,05
893,203	-107,52
893,374	-33,79
893,545	130,05
893,716	-132,09
893,887	82,94
894,057	-35,84
894,228	-52,22
894,399	-64,51
894,57	82,94
894,74	-1,02
894,911	33,79
895,082	35,84
895,253	-50,18
895,423	31,74
895,594	66,56
895,764	74,75
895,935	-113,66
896,106	23,55
896,276	-91,13
896,447	-56,32
896,617	-87,04
896,788	-93,18
896,958	31,74
897,129	15,36
897,299	-54,27
897,47	93,18
897,64	-39,94
897,81	-48,13
897,981	-3,07
898,151	-82,94
898,322	93,18
898,492	89,09
898,662	-39,94
898,832	-115,71
899,003	15,36
899,173	7,17
899,343	-91,13
899,513	-64,51
