Data from laserVert_USB4F104151__4__11-49-23-376.txt Node

Date: Wed Apr 15 11:49:23 EDT 2026
User: LaboPhy
Spectrometer: USB4F10415
Trigger mode: 4
Integration Time (sec): 1,000000E-1
Scans to average: 1
Electric dark correction enabled: true
Nonlinearity correction enabled: false
Boxcar width: 0
XAxis mode: Wavelengths
Number of Pixels in Spectrum: 3648
>>>>>Begin Spectral Data<<<<<
178,204	-470,69
178,424	-470,69
178,644	-470,69
178,864	-474,79
179,084	-505,51
179,304	31,06
179,524	43,35
179,744	-13,99
179,964	82,26
180,184	55,64
180,404	41,3
180,624	-7,85
180,844	-77,48
181,064	-69,29
181,283	10,58
181,503	-77,48
181,723	-18,09
181,943	-126,63
182,163	182,61
182,383	-110,25
182,602	76,12
182,822	166,23
183,042	31,06
183,262	16,73
183,482	45,4
183,701	51,54
183,921	59,73
184,141	-59,05
184,361	0,34
184,58	53,59
184,8	59,73
185,02	-28,33
185,239	76,12
185,459	78,16
185,679	231,76
185,898	-24,23
186,118	63,83
186,338	108,88
186,557	121,17
186,777	-79,53
186,997	-40,62
187,216	6,49
187,436	184,66
187,655	55,64
187,875	139,6
188,095	49,49
188,314	180,56
188,534	123,22
188,753	-112,3
188,973	65,88
189,192	198,99
189,412	26,96
189,631	-22,19
189,851	80,21
190,07	266,58
190,29	-26,28
190,509	-28,33
190,729	78,16
190,948	137,56
191,168	242
191,387	135,51
191,607	-7,85
191,826	135,51
192,045	-44,71
192,265	-16,04
192,484	127,32
192,704	59,73
192,923	-52,91
193,142	131,41
193,362	139,6
193,581	145,75
193,8	31,06
194,02	176,47
194,239	86,36
194,458	149,84
194,678	8,53
194,897	-18,09
195,116	26,96
195,335	26,96
195,555	22,87
195,774	2,39
195,993	63,83
196,212	53,59
196,432	45,4
196,651	2,39
196,87	51,54
197,089	258,39
197,308	80,21
197,528	76,12
197,747	-36,52
197,966	80,21
198,185	94,55
198,404	-71,34
198,623	94,55
198,842	149,84
199,062	94,55
199,281	125,27
199,5	84,31
199,719	-7,85
199,938	94,55
200,157	74,07
200,376	160,08
200,595	168,27
200,814	51,54
201,033	69,97
201,252	160,08
201,471	76,12
201,69	76,12
201,909	141,65
202,128	178,51
202,347	145,75
202,566	33,11
202,785	-1,71
203,004	-75,43
203,223	258,39
203,442	18,77
203,661	-5,8
203,879	158,03
204,098	162,13
204,317	-67,24
204,536	72,02
204,755	141,65
204,974	10,58
205,193	-3,75
205,411	67,92
205,63	104,79
205,849	53,59
206,068	14,68
206,287	-89,77
206,505	115,03
206,724	31,06
206,943	-11,95
207,162	0,34
207,381	31,06
207,599	49,49
207,818	78,16
208,037	24,92
208,255	67,92
208,474	55,64
208,693	14,68
208,911	-46,76
209,13	84,31
209,349	35,16
209,567	74,07
209,786	26,96
210,005	121,17
210,223	26,96
210,442	-183,98
210,661	-73,39
210,879	135,51
211,098	10,58
211,316	47,44
211,535	104,79
211,753	92,5
211,972	100,69
212,191	92,5
212,409	51,54
212,628	117,08
212,846	-44,71
213,065	69,97
213,283	84,31
213,502	-16,04
213,72	59,73
213,938	33,11
214,157	8,53
214,375	33,11
214,594	-54,95
214,812	-1,71
215,031	33,11
215,249	0,34
215,467	45,4
215,686	47,44
215,904	84,31
216,122	31,06
216,341	67,92
216,559	12,63
216,778	168,27
216,996	184,66
217,214	67,92
217,432	-11,95
217,651	2,39
217,869	59,73
218,087	59,73
218,306	31,06
218,524	-20,14
218,742	-1,71
218,96	201,04
219,179	2,39
219,397	-5,8
219,615	231,76
219,833	72,02
220,051	-28,33
220,27	102,74
220,488	125,27
220,706	84,31
220,924	-89,77
221,142	-7,85
221,36	59,73
221,578	51,54
221,796	12,63
222,015	4,44
222,233	61,78
222,451	158,03
222,669	-18,09
222,887	102,74
223,105	92,5
223,323	53,59
223,541	-7,85
223,759	-7,85
223,977	18,77
224,195	203,09
224,413	57,68
224,631	0,34
224,849	53,59
225,067	233,81
225,285	-85,67
225,503	-13,99
225,721	-87,72
225,939	29,01
226,157	106,84
226,375	227,67
226,592	-32,43
226,81	14,68
227,028	96,6
227,246	84,31
227,464	110,93
227,682	82,26
227,9	131,41
228,117	-54,95
228,335	96,6
228,553	61,78
228,771	57,68
228,989	22,87
229,206	45,4
229,424	53,59
229,642	-59,05
229,86	-38,57
230,077	182,61
230,295	49,49
230,513	106,84
230,731	53,59
230,948	147,8
231,166	203,09
231,384	-11,95
231,601	-87,72
231,819	178,51
232,037	-18,09
232,254	69,97
232,472	-16,04
232,689	-30,38
232,907	92,5
233,125	24,92
233,342	-38,57
233,56	22,87
233,777	-22,19
233,995	-9,9
234,213	67,92
234,43	143,7
234,648	96,6
234,865	-22,19
235,083	61,78
235,3	69,97
235,518	100,69
235,735	166,23
235,953	149,84
236,17	112,98
236,388	6,49
236,605	29,01
236,822	69,97
237,04	121,17
237,257	86,36
237,475	22,87
237,692	37,2
237,909	22,87
238,127	-46,76
238,344	121,17
238,562	-28,33
238,779	-38,57
238,996	-38,57
239,214	-5,8
239,431	41,3
239,648	-44,71
239,865	94,55
240,083	69,97
240,3	35,16
240,517	35,16
240,735	2,39
240,952	96,6
241,169	61,78
241,386	69,97
241,603	108,88
241,821	-69,29
242,038	129,36
242,255	127,32
242,472	-73,39
242,689	90,45
242,907	96,6
243,124	45,4
243,341	18,77
243,558	22,87
243,775	-54,95
243,992	-18,09
244,209	98,64
244,426	227,67
244,643	45,4
244,86	65,88
245,078	76,12
245,295	115,03
245,512	33,11
245,729	35,16
245,946	35,16
246,163	-28,33
246,38	-42,67
246,597	49,49
246,814	10,58
247,031	67,92
247,248	35,16
247,464	63,83
247,681	10,58
247,898	104,79
248,115	26,96
248,332	-38,57
248,549	133,46
248,766	170,32
248,983	51,54
249,2	45,4
249,417	88,4
249,633	35,16
249,85	127,32
250,067	65,88
250,284	14,68
250,501	98,64
250,717	49,49
250,934	-77,48
251,151	88,4
251,368	-1,71
251,585	110,93
251,801	63,83
252,018	20,82
252,235	153,94
252,451	-118,44
252,668	-5,8
252,885	123,22
253,102	51,54
253,318	51,54
253,535	29,01
253,752	-3,75
253,968	-7,85
254,185	-97,96
254,401	78,16
254,618	96,6
254,835	-40,62
255,051	192,85
255,268	98,64
255,484	86,36
255,701	59,73
255,917	43,35
256,134	26,96
256,351	43,35
256,567	-73,39
256,784	-13,99
257	-30,38
257,217	102,74
257,433	47,44
257,65	37,2
257,866	143,7
258,082	0,34
258,299	-73,39
258,515	108,88
258,732	37,2
258,948	-5,8
259,165	-1,71
259,381	33,11
259,597	65,88
259,814	4,44
260,03	-13,99
260,246	39,25
260,463	72,02
260,679	115,03
260,895	45,4
261,112	121,17
261,328	0,34
261,544	6,49
261,761	117,08
261,977	26,96
262,193	-11,95
262,409	147,8
262,626	51,54
262,842	59,73
263,058	-32,43
263,274	4,44
263,49	72,02
263,707	94,55
263,923	74,07
264,139	-128,68
264,355	18,77
264,571	176,47
264,787	82,26
265,004	143,7
265,22	-26,28
265,436	-36,52
265,652	20,82
265,868	67,92
266,084	-81,58
266,3	20,82
266,516	-67,24
266,732	8,53
266,948	145,75
267,164	-13,99
267,38	96,6
267,596	69,97
267,812	190,8
268,028	39,25
268,244	-46,76
268,46	35,16
268,676	-3,75
268,892	26,96
269,108	-11,95
269,324	-22,19
269,54	-79,53
269,756	51,54
269,972	2,39
270,188	35,16
270,403	-50,86
270,619	45,4
270,835	35,16
271,051	51,54
271,267	-5,8
271,483	47,44
271,698	74,07
271,914	10,58
272,13	51,54
272,346	-5,8
272,562	59,73
272,777	174,42
272,993	-22,19
273,209	-38,57
273,425	47,44
273,64	-95,91
273,856	121,17
274,072	-46,76
274,287	26,96
274,503	53,59
274,719	115,03
274,934	-11,95
275,15	-52,91
275,366	59,73
275,581	-5,8
275,797	110,93
276,012	51,54
276,228	-3,75
276,444	37,2
276,659	80,21
276,875	-22,19
277,09	10,58
277,306	-22,19
277,521	123,22
277,737	63,83
277,952	78,16
278,168	92,5
278,383	-38,57
278,599	41,3
278,814	170,32
279,03	35,16
279,245	96,6
279,461	104,79
279,676	59,73
279,892	-63,15
280,107	-36,52
280,322	-71,34
280,538	26,96
280,753	82,26
280,969	108,88
281,184	108,88
281,399	127,32
281,615	78,16
281,83	51,54
282,045	-22,19
282,26	-5,8
282,476	147,8
282,691	37,2
282,906	72,02
283,122	20,82
283,337	-75,43
283,552	110,93
283,767	39,25
283,983	39,25
284,198	-13,99
284,413	123,22
284,628	-71,34
284,843	84,31
285,058	92,5
285,274	20,82
285,489	-34,47
285,704	80,21
285,919	-65,19
286,134	-22,19
286,349	53,59
286,564	-28,33
286,779	162,13
286,995	-3,75
287,21	-61,1
287,425	102,74
287,64	-9,9
287,855	53,59
288,07	-85,67
288,285	110,93
288,5	121,17
288,715	80,21
288,93	-28,33
289,145	2,39
289,36	65,88
289,575	35,16
289,79	149,84
290,004	10,58
290,219	43,35
290,434	-38,57
290,649	12,63
290,864	-34,47
291,079	-13,99
291,294	18,77
291,509	35,16
291,724	-11,95
291,938	-28,33
292,153	49,49
292,368	47,44
292,583	57,68
292,798	92,5
293,012	78,16
293,227	100,69
293,442	0,34
293,657	102,74
293,871	135,51
294,086	59,73
294,301	223,57
294,516	135,51
294,73	8,53
294,945	-65,19
295,16	26,96
295,374	180,56
295,589	20,82
295,804	14,68
296,018	84,31
296,233	147,8
296,447	55,64
296,662	-57
296,877	145,75
297,091	29,01
297,306	-3,75
297,52	-28,33
297,735	53,59
297,949	43,35
298,164	104,79
298,378	133,46
298,593	-9,9
298,807	-16,04
299,022	2,39
299,236	84,31
299,451	2,39
299,665	24,92
299,88	-13,99
300,094	59,73
300,309	-24,23
300,523	29,01
300,737	4,44
300,952	115,03
301,166	110,93
301,381	-42,67
301,595	-38,57
301,809	55,64
302,024	-5,8
302,238	-87,72
302,452	117,08
302,667	76,12
302,881	153,94
303,095	20,82
303,309	86,36
303,524	-13,99
303,738	-73,39
303,952	6,49
304,166	31,06
304,381	-102,06
304,595	133,46
304,809	-3,75
305,023	51,54
305,237	-24,23
305,452	-22,19
305,666	35,16
305,88	-40,62
306,094	112,98
306,308	108,88
306,522	37,2
306,736	53,59
306,95	104,79
307,164	43,35
307,379	-71,34
307,593	129,36
307,807	211,28
308,021	145,75
308,235	29,01
308,449	-110,25
308,663	74,07
308,877	250,19
309,091	78,16
309,305	43,35
309,519	-71,34
309,733	127,32
309,947	-79,53
310,161	69,97
310,374	143,7
310,588	110,93
310,802	-63,15
311,016	-22,19
311,23	147,8
311,444	-77,48
311,658	22,87
311,872	155,99
312,085	176,47
312,299	112,98
312,513	164,18
312,727	51,54
312,941	4,44
313,154	168,27
313,368	57,68
313,582	-1,71
313,796	98,64
314,009	14,68
314,223	63,83
314,437	10,58
314,651	22,87
314,864	6,49
315,078	29,01
315,292	-42,67
315,505	-30,38
315,719	-32,43
315,933	76,12
316,146	20,82
316,36	-42,67
316,573	108,88
316,787	115,03
317,001	59,73
317,214	-18,09
317,428	37,2
317,641	-38,57
317,855	2,39
318,068	72,02
318,282	90,45
318,495	125,27
318,709	100,69
318,922	6,49
319,136	155,99
319,349	133,46
319,563	6,49
319,776	84,31
319,99	-153,26
320,203	86,36
320,417	-13,99
320,63	76,12
320,843	92,5
321,057	-38,57
321,27	35,16
321,483	53,59
321,697	145,75
321,91	47,44
322,124	35,16
322,337	78,16
322,55	29,01
322,763	59,73
322,977	24,92
323,19	24,92
323,403	-16,04
323,617	53,59
323,83	102,74
324,043	-26,28
324,256	110,93
324,469	-87,72
324,683	117,08
324,896	-28,33
325,109	35,16
325,322	-114,34
325,535	90,45
325,748	76,12
325,962	39,25
326,175	4,44
326,388	18,77
326,601	125,27
326,814	-22,19
327,027	47,44
327,24	209,23
327,453	-20,14
327,666	96,6
327,879	98,64
328,092	72,02
328,305	104,79
328,518	-83,63
328,731	41,3
328,944	39,25
329,157	92,5
329,37	69,97
329,583	194,9
329,796	184,66
330,009	-18,09
330,222	100,69
330,435	59,73
330,648	80,21
330,861	59,73
331,073	80,21
331,286	155,99
331,499	6,49
331,712	-20,14
331,925	4,44
332,138	67,92
332,35	45,4
332,563	-1,71
332,776	92,5
332,989	16,73
333,202	18,77
333,414	20,82
333,627	-36,52
333,84	2,39
334,053	0,34
334,265	-32,43
334,478	37,2
334,691	59,73
334,903	55,64
335,116	-63,15
335,329	45,4
335,541	29,01
335,754	168,27
335,966	-5,8
336,179	-18,09
336,392	2,39
336,604	-1,71
336,817	104,79
337,029	63,83
337,242	10,58
337,454	12,63
337,667	53,59
337,88	141,65
338,092	55,64
338,305	74,07
338,517	-32,43
338,729	88,4
338,942	76,12
339,154	-122,54
339,367	-30,38
339,579	65,88
339,792	-18,09
340,004	106,84
340,217	26,96
340,429	108,88
340,641	-13,99
340,854	-32,43
341,066	45,4
341,278	133,46
341,491	139,6
341,703	29,01
341,915	10,58
342,128	112,98
342,34	24,92
342,552	-50,86
342,764	74,07
342,977	2,39
343,189	94,55
343,401	88,4
343,613	-93,87
343,826	47,44
344,038	-1,71
344,25	74,07
344,462	59,73
344,674	37,2
344,886	-57
345,099	39,25
345,311	45,4
345,523	-13,99
345,735	-83,63
345,947	18,77
346,159	72,02
346,371	4,44
346,583	41,3
346,795	280,91
347,007	-20,14
347,219	47,44
347,431	76,12
347,643	92,5
347,855	-46,76
348,067	127,32
348,279	-97,96
348,491	29,01
348,703	133,46
348,915	29,01
349,127	14,68
349,339	127,32
349,551	12,63
349,763	119,12
349,975	2,39
350,187	96,6
350,399	43,35
350,61	2,39
350,822	-42,67
351,034	45,4
351,246	86,36
351,458	104,79
351,669	65,88
351,881	141,65
352,093	133,46
352,305	33,11
352,517	4,44
352,728	80,21
352,94	-1,71
353,152	104,79
353,363	-54,95
353,575	151,89
353,787	168,27
353,999	26,96
354,21	209,23
354,422	-75,43
354,633	0,34
354,845	20,82
355,057	14,68
355,268	-9,9
355,48	139,6
355,692	-57
355,903	31,06
356,115	33,11
356,326	-69,29
356,538	139,6
356,749	61,78
356,961	190,8
357,172	18,77
357,384	69,97
357,595	190,8
357,807	-7,85
358,018	-65,19
358,23	-18,09
358,441	90,45
358,653	49,49
358,864	2,39
359,075	-87,72
359,287	43,35
359,498	63,83
359,709	86,36
359,921	63,83
360,132	41,3
360,344	-20,14
360,555	-16,04
360,766	10,58
360,977	-7,85
361,189	69,97
361,4	47,44
361,611	84,31
361,823	110,93
362,034	31,06
362,245	-71,34
362,456	-26,28
362,667	67,92
362,879	-44,71
363,09	24,92
363,301	51,54
363,512	39,25
363,723	35,16
363,935	-71,34
364,146	45,4
364,357	12,63
364,568	29,01
364,779	-42,67
364,99	151,89
365,201	-46,76
365,412	100,69
365,623	-32,43
365,834	110,93
366,045	-11,95
366,256	117,08
366,467	35,16
366,678	33,11
366,889	108,88
367,1	-13,99
367,311	108,88
367,522	26,96
367,733	90,45
367,944	69,97
368,155	35,16
368,366	63,83
368,577	67,92
368,788	92,5
368,999	-11,95
369,209	55,64
369,42	164,18
369,631	289,1
369,842	112,98
370,053	-91,82
370,264	119,12
370,474	-61,1
370,685	74,07
370,896	63,83
371,107	108,88
371,317	67,92
371,528	29,01
371,739	53,59
371,95	43,35
372,16	51,54
372,371	-81,58
372,582	67,92
372,792	137,56
373,003	86,36
373,214	-104,11
373,424	82,26
373,635	-38,57
373,846	133,46
374,056	8,53
374,267	94,55
374,477	76,12
374,688	26,96
374,898	67,92
375,109	43,35
375,319	86,36
375,53	127,32
375,74	69,97
375,951	-5,8
376,161	47,44
376,372	186,71
376,582	-87,72
376,793	55,64
377,003	-57
377,214	-5,8
377,424	149,84
377,635	-20,14
377,845	-38,57
378,055	135,51
378,266	-61,1
378,476	2,39
378,686	121,17
378,897	-1,71
379,107	86,36
379,317	65,88
379,528	-7,85
379,738	84,31
379,948	-85,67
380,158	184,66
380,369	51,54
380,579	57,68
380,789	43,35
380,999	125,27
381,21	102,74
381,42	201,04
381,63	43,35
381,84	100,69
382,05	24,92
382,261	88,4
382,471	127,32
382,681	-22,19
382,891	160,08
383,101	88,4
383,311	-16,04
383,521	20,82
383,731	98,64
383,941	133,46
384,151	35,16
384,361	59,73
384,571	90,45
384,781	65,88
384,991	168,27
385,201	149,84
385,411	29,01
385,621	80,21
385,831	76,12
386,041	-22,19
386,251	-3,75
386,461	192,85
386,671	35,16
386,881	-7,85
387,091	-13,99
387,301	47,44
387,511	10,58
387,72	67,92
387,93	78,16
388,14	-42,67
388,35	61,78
388,56	57,68
388,769	117,08
388,979	-11,95
389,189	-7,85
389,399	35,16
389,609	47,44
389,818	74,07
390,028	16,73
390,238	67,92
390,447	-69,29
390,657	45,4
390,867	-61,1
391,076	-95,91
391,286	29,01
391,496	29,01
391,705	39,25
391,915	184,66
392,125	39,25
392,334	45,4
392,544	110,93
392,753	26,96
392,963	8,53
393,172	14,68
393,382	-36,52
393,591	229,71
393,801	-48,81
394,01	112,98
394,22	143,7
394,429	55,64
394,639	57,68
394,848	57,68
395,058	6,49
395,267	18,77
395,477	106,84
395,686	74,07
395,895	201,04
396,105	227,67
396,314	26,96
396,524	-77,48
396,733	-3,75
396,942	166,23
397,152	100,69
397,361	112,98
397,57	86,36
397,78	10,58
397,989	59,73
398,198	225,62
398,407	67,92
398,617	57,68
398,826	96,6
399,035	18,77
399,244	102,74
399,453	61,78
399,663	41,3
399,872	37,2
400,081	-67,24
400,29	129,36
400,499	-11,95
400,708	84,31
400,917	2,39
401,127	-18,09
401,336	-20,14
401,545	86,36
401,754	84,31
401,963	110,93
402,172	-40,62
402,381	-73,39
402,59	26,96
402,799	14,68
403,008	80,21
403,217	61,78
403,426	-18,09
403,635	-112,3
403,844	0,34
404,053	-16,04
404,262	39,25
404,471	192,85
404,68	59,73
404,888	12,63
405,097	37,2
405,306	10,58
405,515	74,07
405,724	37,2
405,933	96,6
406,142	43,35
406,35	102,74
406,559	63,83
406,768	10,58
406,977	127,32
407,185	43,35
407,394	98,64
407,603	-104,11
407,812	117,08
408,02	86,36
408,229	10,58
408,438	26,96
408,646	-5,8
408,855	10,58
409,064	20,82
409,272	-34,47
409,481	65,88
409,69	-77,48
409,898	-34,47
410,107	69,97
410,315	51,54
410,524	-83,63
410,733	-48,81
410,941	-42,67
411,15	67,92
411,358	24,92
411,567	117,08
411,775	10,58
411,984	29,01
412,192	-34,47
412,401	-26,28
412,609	123,22
412,818	149,84
413,026	98,64
413,234	29,01
413,443	53,59
413,651	-18,09
413,86	51,54
414,068	133,46
414,276	131,41
414,485	10,58
414,693	125,27
414,901	80,21
415,11	-24,23
415,318	84,31
415,526	4,44
415,734	92,5
415,943	14,68
416,151	215,38
416,359	108,88
416,567	12,63
416,776	67,92
416,984	67,92
417,192	141,65
417,4	-26,28
417,608	20,82
417,817	-3,75
418,025	127,32
418,233	174,42
418,441	-1,71
418,649	-77,48
418,857	29,01
419,065	117,08
419,273	41,3
419,481	-3,75
419,689	76,12
419,897	51,54
420,105	-95,91
420,313	94,55
420,521	24,92
420,729	119,12
420,937	-28,33
421,145	14,68
421,353	137,56
421,561	96,6
421,769	80,21
421,977	-11,95
422,185	80,21
422,393	35,16
422,601	137,56
422,809	82,26
423,017	20,82
423,224	74,07
423,432	88,4
423,64	14,68
423,848	108,88
424,056	-13,99
424,263	184,66
424,471	14,68
424,679	67,92
424,887	2,39
425,094	125,27
425,302	47,44
425,51	47,44
425,718	61,78
425,925	63,83
426,133	-5,8
426,341	213,33
426,548	43,35
426,756	39,25
426,964	61,78
427,171	-11,95
427,379	20,82
427,586	-18,09
427,794	59,73
428,001	115,03
428,209	100,69
428,417	108,88
428,624	72,02
428,832	96,6
429,039	-34,47
429,247	110,93
429,454	53,59
429,662	123,22
429,869	98,64
430,076	86,36
430,284	29,01
430,491	188,75
430,699	96,6
430,906	223,57
431,114	108,88
431,321	51,54
431,528	67,92
431,736	94,55
431,943	88,4
432,15	69,97
432,358	149,84
432,565	217,43
432,772	-44,71
432,979	72,02
433,187	-11,95
433,394	153,94
433,601	67,92
433,808	151,89
434,016	180,56
434,223	100,69
434,43	131,41
434,637	84,31
434,844	96,6
435,052	26,96
435,259	76,12
435,466	16,73
435,673	76,12
435,88	39,25
436,087	108,88
436,294	119,12
436,501	86,36
436,708	96,6
436,915	180,56
437,122	155,99
437,329	-34,47
437,537	74,07
437,743	90,45
437,95	248,15
438,157	59,73
438,364	102,74
438,571	29,01
438,778	158,03
438,985	133,46
439,192	137,56
439,399	72,02
439,606	96,6
439,813	203,09
440,02	215,38
440,227	186,71
440,433	135,51
440,64	45,4
440,847	35,16
441,054	51,54
441,261	221,52
441,467	69,97
441,674	65,88
441,881	104,79
442,088	29,01
442,294	94,55
442,501	174,42
442,708	190,8
442,914	47,44
443,121	139,6
443,328	139,6
443,534	129,36
443,741	67,92
443,948	-32,43
444,154	180,56
444,361	149,84
444,568	61,78
444,774	143,7
444,981	76,12
445,187	205,14
445,394	149,84
445,6	102,74
445,807	39,25
446,013	112,98
446,22	-63,15
446,426	22,87
446,633	139,6
446,839	254,29
447,046	-9,9
447,252	231,76
447,459	47,44
447,665	37,2
447,871	141,65
448,078	201,04
448,284	172,37
448,491	201,04
448,697	182,61
448,903	174,42
449,11	166,23
449,316	90,45
449,522	94,55
449,728	194,9
449,935	162,13
450,141	117,08
450,347	223,57
450,553	153,94
450,76	86,36
450,966	149,84
451,172	237,91
451,378	174,42
451,584	198,99
451,791	289,1
451,997	168,27
452,203	174,42
452,409	182,61
452,615	221,52
452,821	139,6
453,027	6,49
453,233	276,82
453,44	117,08
453,646	92,5
453,852	194,9
454,058	110,93
454,264	209,23
454,47	188,75
454,676	174,42
454,882	182,61
455,088	258,39
455,294	207,19
455,5	158,03
455,705	295,25
455,911	94,55
456,117	74,07
456,323	272,72
456,529	151,89
456,735	217,43
456,941	127,32
457,147	166,23
457,352	174,42
457,558	141,65
457,764	244,05
457,97	196,95
458,176	190,8
458,381	96,6
458,587	299,34
458,793	139,6
458,999	110,93
459,204	149,84
459,41	106,84
459,616	139,6
459,821	203,09
460,027	31,06
460,233	198,99
460,438	246,1
460,644	184,66
460,85	198,99
461,055	258,39
461,261	194,9
461,466	135,51
461,672	162,13
461,878	69,97
462,083	217,43
462,289	51,54
462,494	90,45
462,7	145,75
462,905	125,27
463,111	190,8
463,316	346,45
463,522	211,28
463,727	135,51
463,932	166,23
464,138	112,98
464,343	149,84
464,549	207,19
464,754	264,53
464,959	252,24
465,165	84,31
465,37	256,34
465,575	147,8
465,781	129,36
465,986	125,27
466,191	131,41
466,397	153,94
466,602	268,63
466,807	166,23
467,012	215,38
467,218	160,08
467,423	43,35
467,628	141,65
467,833	35,16
468,038	88,4
468,244	35,16
468,449	76,12
468,654	131,41
468,859	76,12
469,064	180,56
469,269	135,51
469,474	217,43
469,679	295,25
469,885	143,7
470,09	100,69
470,295	153,94
470,5	65,88
470,705	270,67
470,91	188,75
471,115	164,18
471,32	160,08
471,525	346,45
471,73	248,15
471,935	149,84
472,139	69,97
472,344	72,02
472,549	57,68
472,754	268,63
472,959	153,94
473,164	153,94
473,369	184,66
473,574	205,14
473,778	102,74
473,983	182,61
474,188	264,53
474,393	108,88
474,598	133,46
474,802	76,12
475,007	69,97
475,212	223,57
475,417	141,65
475,621	248,15
475,826	106,84
476,031	86,36
476,235	151,89
476,44	141,65
476,645	141,65
476,849	84,31
477,054	112,98
477,259	86,36
477,463	182,61
477,668	330,06
477,872	231,76
478,077	117,08
478,282	43,35
478,486	162,13
478,691	178,51
478,895	76,12
479,1	223,57
479,304	178,51
479,509	127,32
479,713	211,28
479,918	190,8
480,122	139,6
480,326	131,41
480,531	137,56
480,735	125,27
480,94	61,78
481,144	182,61
481,348	233,81
481,553	74,07
481,757	41,3
481,961	108,88
482,166	162,13
482,37	51,54
482,574	258,39
482,778	100,69
482,983	219,47
483,187	182,61
483,391	119,12
483,595	108,88
483,8	223,57
484,004	264,53
484,208	149,84
484,412	321,87
484,616	201,04
484,821	125,27
485,025	74,07
485,229	94,55
485,433	188,75
485,637	123,22
485,841	162,13
486,045	145,75
486,249	192,85
486,453	192,85
486,657	63,83
486,861	59,73
487,065	158,03
487,269	162,13
487,473	119,12
487,677	104,79
487,881	356,69
488,085	151,89
488,289	198,99
488,493	205,14
488,697	317,78
488,901	221,52
489,105	174,42
489,309	160,08
489,512	264,53
489,716	201,04
489,92	194,9
490,124	172,37
490,328	262,48
490,531	119,12
490,735	311,63
490,939	119,12
491,143	162,13
491,346	198,99
491,55	108,88
491,754	123,22
491,958	215,38
492,161	158,03
492,365	231,76
492,569	74,07
492,772	217,43
492,976	328,02
493,18	94,55
493,383	198,99
493,587	90,45
493,79	198,99
493,994	127,32
494,197	43,35
494,401	178,51
494,605	141,65
494,808	178,51
495,012	213,33
495,215	256,34
495,419	309,58
495,622	127,32
495,825	110,93
496,029	201,04
496,232	219,47
496,436	147,8
496,639	280,91
496,843	170,32
497,046	125,27
497,249	260,43
497,453	196,95
497,656	84,31
497,859	110,93
498,063	211,28
498,266	215,38
498,469	149,84
498,673	102,74
498,876	153,94
499,079	123,22
499,282	133,46
499,485	338,26
499,689	213,33
499,892	299,34
500,095	133,46
500,298	198,99
500,501	155,99
500,705	61,78
500,908	207,19
501,111	98,64
501,314	201,04
501,517	305,49
501,72	231,76
501,923	153,94
502,126	153,94
502,329	221,52
502,532	135,51
502,735	278,87
502,938	248,15
503,141	250,19
503,344	88,4
503,547	344,4
503,75	201,04
503,953	201,04
504,156	278,87
504,359	215,38
504,562	164,18
504,765	147,8
504,968	260,43
505,17	248,15
505,373	317,78
505,576	289,1
505,779	178,51
505,982	153,94
506,185	201,04
506,387	231,76
506,59	256,34
506,793	153,94
506,996	186,71
507,198	254,29
507,401	332,11
507,604	321,87
507,807	198,99
508,009	287,06
508,212	270,67
508,415	194,9
508,617	153,94
508,82	180,56
509,022	264,53
509,225	244,05
509,428	278,87
509,63	235,86
509,833	256,34
510,035	428,37
510,238	389,46
510,44	192,85
510,643	323,92
510,845	350,54
511,048	342,35
511,25	242
511,453	239,95
511,655	289,1
511,858	336,21
512,06	403,79
512,262	299,34
512,465	174,42
512,667	282,96
512,87	139,6
513,072	418,13
513,274	227,67
513,477	160,08
513,679	280,91
513,881	203,09
514,084	147,8
514,286	350,54
514,488	293,2
514,69	272,72
514,893	235,86
515,095	313,68
515,297	221,52
515,499	348,5
515,701	201,04
515,904	307,54
516,106	391,5
516,308	309,58
516,51	297,3
516,712	272,72
516,914	299,34
517,116	137,56
517,318	272,72
517,52	225,62
517,722	223,57
517,925	223,57
518,127	276,82
518,329	381,26
518,531	115,03
518,733	291,15
518,935	170,32
519,136	266,58
519,338	239,95
519,54	291,15
519,742	389,46
519,944	463,18
520,146	344,4
520,348	299,34
520,55	268,63
520,752	217,43
520,954	250,19
521,155	299,34
521,357	213,33
521,559	442,7
521,761	362,83
521,963	334,16
522,164	389,46
522,366	248,15
522,568	305,49
522,77	414,03
522,971	364,88
523,173	256,34
523,375	350,54
523,576	160,08
523,778	223,57
523,98	250,19
524,181	338,26
524,383	295,25
524,584	258,39
524,786	299,34
524,988	274,77
525,189	352,59
525,391	307,54
525,592	182,61
525,794	244,05
525,995	321,87
526,197	379,22
526,398	473,42
526,6	278,87
526,801	346,45
527,003	229,71
527,204	362,83
527,406	352,59
527,607	293,2
527,808	311,63
528,01	469,33
528,211	403,79
528,412	305,49
528,614	493,9
528,815	475,47
529,016	440,65
529,218	403,79
529,419	338,26
529,62	340,3
529,822	498
530,023	571,72
530,224	745,8
530,425	997,7
530,626	1296,71
530,828	1769,79
531,029	2783,53
531,23	4497,68
531,431	6906,09
531,632	10162,36
531,833	13961,34
532,035	19390,51
532,236	24430,56
532,437	29087,64
532,638	32477,03
532,839	36167,47
533,04	38530,83
533,241	40107,76
533,442	40396,52
533,643	39563
533,844	37553,94
534,045	35223,36
534,246	31254,39
534,447	27070,39
534,648	22783,99
534,849	19347,5
535,05	15765,6
535,251	12896,4
535,451	10377,4
535,652	8224,98
535,853	6154,49
536,054	4798,73
536,255	3299,62
536,456	2324,79
536,657	1605,95
536,857	1165,64
537,058	991,56
537,259	667,98
537,46	547,15
537,66	526,67
537,861	403,79
538,062	469,33
538,263	299,34
538,463	340,3
538,664	385,36
538,865	260,43
539,065	321,87
539,266	401,74
539,466	282,96
539,667	461,13
539,868	325,97
540,068	297,3
540,269	325,97
540,469	305,49
540,67	368,98
540,87	356,69
541,071	313,68
541,271	389,46
541,472	350,54
541,672	409,94
541,873	317,78
542,073	319,82
542,274	309,58
542,474	344,4
542,675	299,34
542,875	334,16
543,075	106,84
543,276	260,43
543,476	340,3
543,676	274,77
543,877	227,67
544,077	375,12
544,277	426,32
544,478	330,06
544,678	340,3
544,878	270,67
545,078	223,57
545,279	258,39
545,479	231,76
545,679	205,14
545,879	313,68
546,079	330,06
546,28	172,37
546,48	239,95
546,68	377,17
546,88	352,59
547,08	301,39
547,28	321,87
547,48	119,12
547,68	289,1
547,88	268,63
548,081	289,1
548,281	147,8
548,481	192,85
548,681	260,43
548,881	221,52
549,081	313,68
549,28	309,58
549,48	168,27
549,68	311,63
549,88	301,39
550,08	155,99
550,28	229,71
550,48	338,26
550,68	272,72
550,88	217,43
551,08	278,87
551,279	346,45
551,479	133,46
551,679	375,12
551,879	131,41
552,079	256,34
552,278	280,91
552,478	440,65
552,678	227,67
552,878	414,03
553,077	268,63
553,277	203,09
553,477	252,24
553,676	371,02
553,876	246,1
554,076	184,66
554,275	373,07
554,475	219,47
554,674	248,15
554,874	303,44
555,074	160,08
555,273	239,95
555,473	258,39
555,672	254,29
555,872	166,23
556,071	362,83
556,271	338,26
556,47	248,15
556,67	256,34
556,869	223,57
557,068	223,57
557,268	256,34
557,467	205,14
557,667	297,3
557,866	217,43
558,065	305,49
558,265	192,85
558,464	227,67
558,663	276,82
558,863	332,11
559,062	289,1
559,261	203,09
559,461	299,34
559,66	321,87
559,859	201,04
560,058	223,57
560,258	160,08
560,457	256,34
560,656	342,35
560,855	155,99
561,054	368,98
561,253	293,2
561,453	293,2
561,652	207,19
561,851	385,36
562,05	233,81
562,249	211,28
562,448	285,01
562,647	123,22
562,846	272,72
563,045	287,06
563,244	164,18
563,443	311,63
563,642	260,43
563,841	289,1
564,04	272,72
564,239	295,25
564,438	295,25
564,637	188,75
564,836	276,82
565,035	229,71
565,234	260,43
565,432	291,15
565,631	274,77
565,83	338,26
566,029	317,78
566,228	260,43
566,427	358,74
566,625	117,08
566,824	297,3
567,023	164,18
567,222	295,25
567,42	272,72
567,619	248,15
567,818	321,87
568,016	444,75
568,215	250,19
568,414	301,39
568,612	217,43
568,811	313,68
569,01	256,34
569,208	184,66
569,407	340,3
569,605	377,17
569,804	272,72
570,002	262,48
570,201	209,23
570,4	358,74
570,598	203,09
570,797	274,77
570,995	147,8
571,193	219,47
571,392	264,53
571,59	145,75
571,789	338,26
571,987	297,3
572,186	385,36
572,384	217,43
572,582	280,91
572,781	276,82
572,979	160,08
573,177	266,58
573,376	364,88
573,574	246,1
573,772	272,72
573,971	170,32
574,169	102,74
574,367	264,53
574,565	166,23
574,763	215,38
574,962	246,1
575,16	280,91
575,358	127,32
575,556	242
575,754	180,56
575,952	242
576,151	266,58
576,349	362,83
576,547	178,51
576,745	287,06
576,943	272,72
577,141	215,38
577,339	133,46
577,537	334,16
577,735	258,39
577,933	291,15
578,131	182,61
578,329	297,3
578,527	192,85
578,725	252,24
578,923	112,98
579,121	233,81
579,319	59,73
579,516	176,47
579,714	454,99
579,912	235,86
580,11	106,84
580,308	276,82
580,506	215,38
580,704	143,7
580,901	162,13
581,099	383,31
581,297	198,99
581,495	219,47
581,692	149,84
581,89	362,83
582,088	274,77
582,285	307,54
582,483	162,13
582,681	248,15
582,878	217,43
583,076	366,93
583,274	250,19
583,471	356,69
583,669	225,62
583,866	164,18
584,064	266,58
584,262	242
584,459	135,51
584,657	258,39
584,854	280,91
585,052	223,57
585,249	262,48
585,447	282,96
585,644	166,23
585,841	385,36
586,039	330,06
586,236	362,83
586,434	272,72
586,631	233,81
586,828	174,42
587,026	248,15
587,223	172,37
587,42	110,93
587,618	307,54
587,815	395,6
588,012	198,99
588,21	223,57
588,407	280,91
588,604	315,73
588,801	141,65
588,999	225,62
589,196	330,06
589,393	135,51
589,59	256,34
589,787	258,39
589,984	313,68
590,182	244,05
590,379	256,34
590,576	242
590,773	221,52
590,97	217,43
591,167	256,34
591,364	342,35
591,561	268,63
591,758	448,85
591,955	356,69
592,152	231,76
592,349	227,67
592,546	307,54
592,743	166,23
592,94	186,71
593,137	278,87
593,334	340,3
593,531	418,13
593,727	375,12
593,924	315,73
594,121	317,78
594,318	209,23
594,515	256,34
594,712	430,41
594,908	338,26
595,105	217,43
595,302	233,81
595,499	346,45
595,696	438,61
595,892	145,75
596,089	364,88
596,286	166,23
596,482	364,88
596,679	237,91
596,876	235,86
597,072	362,83
597,269	260,43
597,466	297,3
597,662	336,21
597,859	196,95
598,055	246,1
598,252	420,17
598,448	272,72
598,645	319,82
598,841	291,15
599,038	377,17
599,234	411,98
599,431	295,25
599,627	289,1
599,824	334,16
600,02	276,82
600,217	186,71
600,413	252,24
600,609	266,58
600,806	493,9
601,002	246,1
601,198	196,95
601,395	330,06
601,591	250,19
601,787	256,34
601,984	403,79
602,18	303,44
602,376	330,06
602,572	350,54
602,769	381,26
602,965	274,77
603,161	383,31
603,357	354,64
603,553	424,27
603,75	258,39
603,946	250,19
604,142	219,47
604,338	420,17
604,534	235,86
604,73	364,88
604,926	266,58
605,122	364,88
605,318	201,04
605,514	371,02
605,71	198,99
605,906	305,49
606,102	268,63
606,298	411,98
606,494	315,73
606,69	356,69
606,886	383,31
607,082	235,86
607,278	244,05
607,474	344,4
607,67	289,1
607,866	231,76
608,062	399,7
608,257	350,54
608,453	67,92
608,649	297,3
608,845	198,99
609,041	225,62
609,236	350,54
609,432	309,58
609,628	362,83
609,824	366,93
610,019	291,15
610,215	250,19
610,411	393,55
610,606	360,78
610,802	270,67
610,998	289,1
611,193	332,11
611,389	244,05
611,584	328,02
611,78	196,95
611,976	342,35
612,171	371,02
612,367	368,98
612,562	280,91
612,758	342,35
612,953	190,8
613,149	215,38
613,344	217,43
613,539	231,76
613,735	364,88
613,93	264,53
614,126	205,14
614,321	313,68
614,517	315,73
614,712	289,1
614,907	340,3
615,103	340,3
615,298	354,64
615,493	158,03
615,688	358,74
615,884	217,43
616,079	248,15
616,274	256,34
616,47	280,91
616,665	272,72
616,86	285,01
617,055	201,04
617,25	170,32
617,445	254,29
617,641	311,63
617,836	278,87
618,031	153,94
618,226	293,2
618,421	383,31
618,616	297,3
618,811	364,88
619,006	203,09
619,201	414,03
619,396	266,58
619,591	190,8
619,786	348,5
619,981	340,3
620,176	373,07
620,371	201,04
620,566	313,68
620,761	360,78
620,956	354,64
621,151	258,39
621,346	358,74
621,541	244,05
621,735	430,41
621,93	362,83
622,125	217,43
622,32	244,05
622,515	76,12
622,709	356,69
622,904	381,26
623,099	289,1
623,294	375,12
623,488	264,53
623,683	307,54
623,878	301,39
624,072	403,79
624,267	104,79
624,462	289,1
624,656	160,08
624,851	274,77
625,046	244,05
625,24	368,98
625,435	313,68
625,629	315,73
625,824	416,08
626,018	305,49
626,213	381,26
626,407	178,51
626,602	315,73
626,796	233,81
626,991	362,83
627,185	301,39
627,38	274,77
627,574	323,92
627,768	352,59
627,963	237,91
628,157	221,52
628,352	237,91
628,546	192,85
628,74	287,06
628,935	190,8
629,129	268,63
629,323	250,19
629,517	102,74
629,712	215,38
629,906	266,58
630,1	278,87
630,294	346,45
630,489	235,86
630,683	207,19
630,877	174,42
631,071	418,13
631,265	217,43
631,459	321,87
631,653	274,77
631,848	215,38
632,042	354,64
632,236	149,84
632,43	315,73
632,624	231,76
632,818	325,97
633,012	248,15
633,206	215,38
633,4	207,19
633,594	289,1
633,788	328,02
633,982	285,01
634,176	276,82
634,369	244,05
634,563	239,95
634,757	84,31
634,951	293,2
635,145	362,83
635,339	260,43
635,533	354,64
635,726	332,11
635,92	274,77
636,114	198,99
636,308	119,12
636,501	207,19
636,695	291,15
636,889	108,88
637,083	258,39
637,276	282,96
637,47	178,51
637,664	182,61
637,857	225,62
638,051	190,8
638,244	305,49
638,438	244,05
638,632	405,84
638,825	67,92
639,019	344,4
639,212	192,85
639,406	313,68
639,599	256,34
639,793	149,84
639,986	188,75
640,18	364,88
640,373	168,27
640,567	182,61
640,76	272,72
640,954	330,06
641,147	164,18
641,34	266,58
641,534	258,39
641,727	387,41
641,92	217,43
642,114	233,81
642,307	242
642,5	305,49
642,694	125,27
642,887	225,62
643,08	250,19
643,273	305,49
643,467	84,31
643,66	121,17
643,853	72,02
644,046	198,99
644,239	237,91
644,432	129,36
644,626	141,65
644,819	178,51
645,012	125,27
645,205	266,58
645,398	280,91
645,591	182,61
645,784	180,56
645,977	88,4
646,17	219,47
646,363	213,33
646,556	131,41
646,749	92,5
646,942	198,99
647,135	184,66
647,328	149,84
647,521	235,86
647,714	239,95
647,907	276,82
648,099	137,56
648,292	301,39
648,485	274,77
648,678	184,66
648,871	117,08
649,064	201,04
649,256	69,97
649,449	115,03
649,642	147,8
649,835	180,56
650,027	129,36
650,22	276,82
650,413	160,08
650,605	190,8
650,798	182,61
650,991	63,83
651,183	145,75
651,376	258,39
651,568	235,86
651,761	121,17
651,954	227,67
652,146	41,3
652,339	272,72
652,531	309,58
652,724	112,98
652,916	145,75
653,109	123,22
653,301	276,82
653,494	170,32
653,686	137,56
653,879	287,06
654,071	182,61
654,263	100,69
654,456	151,89
654,648	258,39
654,84	192,85
655,033	104,79
655,225	248,15
655,417	53,59
655,61	256,34
655,802	192,85
655,994	237,91
656,186	153,94
656,379	303,44
656,571	98,64
656,763	209,23
656,955	94,55
657,148	174,42
657,34	264,53
657,532	160,08
657,724	94,55
657,916	205,14
658,108	221,52
658,3	145,75
658,492	215,38
658,684	190,8
658,876	276,82
659,068	41,3
659,26	8,53
659,452	29,01
659,644	164,18
659,836	276,82
660,028	192,85
660,22	90,45
660,412	207,19
660,604	53,59
660,796	184,66
660,988	209,23
661,18	112,98
661,372	217,43
661,563	182,61
661,755	158,03
661,947	88,4
662,139	143,7
662,331	153,94
662,522	162,13
662,714	76,12
662,906	100,69
663,097	76,12
663,289	137,56
663,481	94,55
663,673	166,23
663,864	147,8
664,056	158,03
664,247	-3,75
664,439	229,71
664,631	133,46
664,822	270,67
665,014	137,56
665,205	59,73
665,397	110,93
665,588	170,32
665,78	166,23
665,971	168,27
666,163	53,59
666,354	178,51
666,546	14,68
666,737	45,4
666,929	67,92
667,12	76,12
667,311	158,03
667,503	172,37
667,694	168,27
667,885	190,8
668,077	219,47
668,268	43,35
668,459	135,51
668,651	162,13
668,842	119,12
669,033	2,39
669,224	78,16
669,416	317,78
669,607	24,92
669,798	-3,75
669,989	131,41
670,18	29,01
670,371	104,79
670,563	-28,33
670,754	227,67
670,945	158,03
671,136	192,85
671,327	112,98
671,518	213,33
671,709	233,81
671,9	192,85
672,091	274,77
672,282	119,12
672,473	100,69
672,664	20,82
672,855	112,98
673,046	168,27
673,237	246,1
673,428	131,41
673,619	129,36
673,809	14,68
674	215,38
674,191	270,67
674,382	80,21
674,573	135,51
674,764	82,26
674,954	147,8
675,145	16,73
675,336	72,02
675,527	-44,71
675,717	100,69
675,908	72,02
676,099	78,16
676,289	104,79
676,48	-24,23
676,671	176,47
676,861	76,12
677,052	131,41
677,243	119,12
677,433	55,64
677,624	106,84
677,814	141,65
678,005	47,44
678,195	190,8
678,386	51,54
678,576	65,88
678,767	37,2
678,957	29,01
679,148	166,23
679,338	174,42
679,529	82,26
679,719	69,97
679,909	164,18
680,1	117,08
680,29	139,6
680,481	-46,76
680,671	151,89
680,861	76,12
681,052	88,4
681,242	6,49
681,432	141,65
681,622	61,78
681,813	-38,57
682,003	112,98
682,193	26,96
682,383	14,68
682,573	63,83
682,764	12,63
682,954	121,17
683,144	209,23
683,334	20,82
683,524	37,2
683,714	84,31
683,904	160,08
684,094	-3,75
684,284	108,88
684,474	174,42
684,664	59,73
684,854	104,79
685,044	18,77
685,234	6,49
685,424	51,54
685,614	43,35
685,804	129,36
685,994	104,79
686,184	69,97
686,374	61,78
686,564	45,4
686,753	86,36
686,943	-5,8
687,133	31,06
687,323	20,82
687,513	147,8
687,702	117,08
687,892	20,82
688,082	174,42
688,272	135,51
688,461	96,6
688,651	209,23
688,841	35,16
689,03	61,78
689,22	45,4
689,41	190,8
689,599	129,36
689,789	-28,33
689,979	201,04
690,168	47,44
690,358	72,02
690,547	131,41
690,737	-13,99
690,926	16,73
691,116	67,92
691,305	104,79
691,495	102,74
691,684	33,11
691,874	57,68
692,063	65,88
692,252	112,98
692,442	223,57
692,631	82,26
692,82	94,55
693,01	94,55
693,199	29,01
693,388	104,79
693,578	43,35
693,767	145,75
693,956	108,88
694,146	78,16
694,335	88,4
694,524	76,12
694,713	72,02
694,902	0,34
695,092	37,2
695,281	127,32
695,47	51,54
695,659	76,12
695,848	74,07
696,037	12,63
696,226	205,14
696,415	69,97
696,604	233,81
696,793	104,79
696,982	119,12
697,171	264,53
697,36	29,01
697,549	135,51
697,738	-13,99
697,927	31,06
698,116	14,68
698,305	164,18
698,494	160,08
698,683	69,97
698,872	172,37
699,061	47,44
699,25	86,36
699,438	53,59
699,627	53,59
699,816	162,13
700,005	80,21
700,193	-18,09
700,382	135,51
700,571	125,27
700,76	6,49
700,948	145,75
701,137	80,21
701,326	244,05
701,514	-28,33
701,703	145,75
701,892	143,7
702,08	205,14
702,269	129,36
702,457	6,49
702,646	57,68
702,834	65,88
703,023	137,56
703,212	203,09
703,4	39,25
703,589	59,73
703,777	18,77
703,965	51,54
704,154	16,73
704,342	-1,71
704,531	-65,19
704,719	65,88
704,907	186,71
705,096	2,39
705,284	-38,57
705,472	92,5
705,661	53,59
705,849	72,02
706,037	119,12
706,226	86,36
706,414	43,35
706,602	-16,04
706,79	63,83
706,979	-77,48
707,167	14,68
707,355	-34,47
707,543	84,31
707,731	88,4
707,919	26,96
708,107	2,39
708,296	10,58
708,484	18,77
708,672	53,59
708,86	121,17
709,048	108,88
709,236	-32,43
709,424	92,5
709,612	102,74
709,8	-22,19
709,988	92,5
710,176	188,75
710,364	178,51
710,551	47,44
710,739	104,79
710,927	10,58
711,115	117,08
711,303	188,75
711,491	133,46
711,679	22,87
711,866	121,17
712,054	-63,15
712,242	119,12
712,43	123,22
712,617	108,88
712,805	80,21
712,993	0,34
713,181	-11,95
713,368	117,08
713,556	37,2
713,744	61,78
713,931	215,38
714,119	100,69
714,306	80,21
714,494	121,17
714,682	-50,86
714,869	-110,25
715,057	22,87
715,244	-138,92
715,432	72,02
715,619	35,16
715,807	49,49
715,994	4,44
716,182	78,16
716,369	20,82
716,556	143,7
716,744	-116,39
716,931	8,53
717,119	-16,04
717,306	80,21
717,493	102,74
717,681	88,4
717,868	4,44
718,055	76,12
718,242	49,49
718,43	8,53
718,617	119,12
718,804	67,92
718,991	198,99
719,179	14,68
719,366	72,02
719,553	-30,38
719,74	45,4
719,927	-46,76
720,114	49,49
720,301	-71,34
720,488	18,77
720,676	8,53
720,863	123,22
721,05	158,03
721,237	43,35
721,424	108,88
721,611	96,6
721,798	-63,15
721,985	-32,43
722,172	14,68
722,358	-5,8
722,545	84,31
722,732	63,83
722,919	121,17
723,106	102,74
723,293	-44,71
723,48	80,21
723,667	14,68
723,853	117,08
724,04	47,44
724,227	131,41
724,414	-52,91
724,6	115,03
724,787	155,99
724,974	227,67
725,161	-48,81
725,347	24,92
725,534	31,06
725,72	18,77
725,907	127,32
726,094	119,12
726,28	-13,99
726,467	37,2
726,653	-50,86
726,84	139,6
727,027	84,31
727,213	-32,43
727,4	127,32
727,586	92,5
727,773	102,74
727,959	-20,14
728,145	14,68
728,332	29,01
728,518	4,44
728,705	72,02
728,891	57,68
729,077	82,26
729,264	-5,8
729,45	-26,28
729,636	90,45
729,823	29,01
730,009	123,22
730,195	117,08
730,382	135,51
730,568	16,73
730,754	29,01
730,94	31,06
731,126	10,58
731,313	35,16
731,499	16,73
731,685	78,16
731,871	110,93
732,057	108,88
732,243	65,88
732,429	76,12
732,615	166,23
732,801	69,97
732,987	-22,19
733,173	80,21
733,359	2,39
733,545	133,46
733,731	100,69
733,917	182,61
734,103	121,17
734,289	110,93
734,475	-83,63
734,661	209,23
734,847	39,25
735,033	92,5
735,219	108,88
735,404	-9,9
735,59	29,01
735,776	-16,04
735,962	4,44
736,148	133,46
736,333	61,78
736,519	94,55
736,705	-3,75
736,89	26,96
737,076	10,58
737,262	-50,86
737,447	4,44
737,633	51,54
737,819	168,27
738,004	61,78
738,19	4,44
738,375	-32,43
738,561	76,12
738,747	100,69
738,932	2,39
739,118	139,6
739,303	96,6
739,489	143,7
739,674	59,73
739,859	-13,99
740,045	53,59
740,23	84,31
740,416	-93,87
740,601	67,92
740,786	20,82
740,972	-38,57
741,157	-20,14
741,342	90,45
741,528	-26,28
741,713	129,36
741,898	-34,47
742,084	20,82
742,269	51,54
742,454	88,4
742,639	168,27
742,824	76,12
743,01	133,46
743,195	205,14
743,38	61,78
743,565	-32,43
743,75	49,49
743,935	41,3
744,12	151,89
744,305	-46,76
744,49	-1,71
744,675	35,16
744,86	-44,71
745,045	127,32
745,23	84,31
745,415	-44,71
745,6	160,08
745,785	-1,71
745,97	112,98
746,155	112,98
746,34	149,84
746,525	22,87
746,71	176,47
746,895	-67,24
747,079	55,64
747,264	49,49
747,449	131,41
747,634	35,16
747,819	108,88
748,003	20,82
748,188	-36,52
748,373	151,89
748,557	22,87
748,742	119,12
748,927	43,35
749,111	-5,8
749,296	-38,57
749,481	127,32
749,665	59,73
749,85	-9,9
750,034	78,16
750,219	39,25
750,404	37,2
750,588	76,12
750,773	10,58
750,957	10,58
751,141	86,36
751,326	123,22
751,51	-16,04
751,695	-26,28
751,879	59,73
752,064	213,33
752,248	137,56
752,432	125,27
752,617	135,51
752,801	201,04
752,985	22,87
753,17	84,31
753,354	53,59
753,538	0,34
753,722	-1,71
753,907	-36,52
754,091	-59,05
754,275	35,16
754,459	84,31
754,643	20,82
754,828	31,06
755,012	26,96
755,196	-46,76
755,38	35,16
755,564	-54,95
755,748	-30,38
755,932	90,45
756,116	135,51
756,3	57,68
756,484	20,82
756,668	59,73
756,852	-28,33
757,036	65,88
757,22	4,44
757,404	37,2
757,588	6,49
757,772	80,21
757,956	78,16
758,14	151,89
758,323	-89,77
758,507	67,92
758,691	72,02
758,875	53,59
759,059	131,41
759,242	22,87
759,426	20,82
759,61	100,69
759,794	-9,9
759,977	26,96
760,161	289,1
760,345	151,89
760,528	119,12
760,712	18,77
760,895	76,12
761,079	92,5
761,263	-63,15
761,446	-54,95
761,63	47,44
761,813	133,46
761,997	-61,1
762,18	0,34
762,364	119,12
762,547	-120,49
762,731	-3,75
762,914	12,63
763,098	-38,57
763,281	31,06
763,464	10,58
763,648	26,96
763,831	45,4
764,015	0,34
764,198	22,87
764,381	-5,8
764,564	18,77
764,748	76,12
764,931	67,92
765,114	14,68
765,297	14,68
765,481	-9,9
765,664	-3,75
765,847	12,63
766,03	106,84
766,213	4,44
766,397	63,83
766,58	-7,85
766,763	69,97
766,946	10,58
767,129	4,44
767,312	-63,15
767,495	2,39
767,678	-24,23
767,861	53,59
768,044	-38,57
768,227	-5,8
768,41	10,58
768,593	102,74
768,776	-1,71
768,959	18,77
769,142	141,65
769,324	-24,23
769,507	47,44
769,69	0,34
769,873	37,2
770,056	252,24
770,239	14,68
770,421	82,26
770,604	94,55
770,787	-9,9
770,97	69,97
771,152	-50,86
771,335	53,59
771,518	-71,34
771,7	84,31
771,883	90,45
772,066	10,58
772,248	-30,38
772,431	172,37
772,613	78,16
772,796	100,69
772,978	2,39
773,161	141,65
773,343	-22,19
773,526	-13,99
773,708	-95,91
773,891	-22,19
774,073	-11,95
774,256	14,68
774,438	104,79
774,621	-34,47
774,803	2,39
774,985	-63,15
775,168	39,25
775,35	8,53
775,532	125,27
775,715	-26,28
775,897	39,25
776,079	20,82
776,261	51,54
776,444	-11,95
776,626	22,87
776,808	20,82
776,99	-63,15
777,173	55,64
777,355	-32,43
777,537	8,53
777,719	47,44
777,901	-61,1
778,083	-26,28
778,265	-54,95
778,447	78,16
778,629	-13,99
778,811	53,59
778,993	168,27
779,175	178,51
779,357	0,34
779,539	-20,14
779,721	-3,75
779,903	43,35
780,085	84,31
780,267	100,69
780,449	20,82
780,631	45,4
780,812	166,23
780,994	59,73
781,176	-26,28
781,358	-16,04
781,54	31,06
781,721	55,64
781,903	67,92
782,085	-28,33
782,267	115,03
782,448	-11,95
782,63	14,68
782,812	74,07
782,993	98,64
783,175	84,31
783,357	-65,19
783,538	69,97
783,72	-22,19
783,901	10,58
784,083	57,68
784,264	117,08
784,446	31,06
784,627	-91,82
784,809	110,93
784,99	67,92
785,172	129,36
785,353	2,39
785,535	78,16
785,716	-104,11
785,897	-63,15
786,079	29,01
786,26	51,54
786,441	18,77
786,623	-118,44
786,804	-61,1
786,985	22,87
787,167	80,21
787,348	-22,19
787,529	31,06
787,71	141,65
787,891	84,31
788,073	47,44
788,254	-71,34
788,435	104,79
788,616	-28,33
788,797	-63,15
788,978	-77,48
789,159	47,44
789,34	45,4
789,522	49,49
789,703	-7,85
789,884	51,54
790,065	37,2
790,246	198,99
790,427	-67,24
790,607	151,89
790,788	121,17
790,969	-40,62
791,15	33,11
791,331	-13,99
791,512	-54,95
791,693	-7,85
791,874	-46,76
792,054	166,23
792,235	106,84
792,416	2,39
792,597	-36,52
792,778	84,31
792,958	20,82
793,139	80,21
793,32	16,73
793,5	-52,91
793,681	106,84
793,862	112,98
794,042	-11,95
794,223	-40,62
794,404	61,78
794,584	-128,68
794,765	-1,71
794,945	-26,28
795,126	80,21
795,306	123,22
795,487	14,68
795,667	-28,33
795,848	26,96
796,028	10,58
796,209	-52,91
796,389	145,75
796,57	18,77
796,75	-32,43
796,93	-13,99
797,111	-11,95
797,291	22,87
797,471	96,6
797,652	-1,71
797,832	-69,29
798,012	106,84
798,192	-13,99
798,373	-95,91
798,553	67,92
798,733	29,01
798,913	24,92
799,093	-38,57
799,274	12,63
799,454	-61,1
799,634	-1,71
799,814	0,34
799,994	18,77
800,174	41,3
800,354	65,88
800,534	-69,29
800,714	74,07
800,894	-85,67
801,074	-71,34
801,254	0,34
801,434	76,12
801,614	-28,33
801,794	-104,11
801,974	2283,83
802,154	10,58
802,334	69,97
802,514	-63,15
802,693	-11,95
802,873	18,77
803,053	135,51
803,233	59,73
803,413	18,77
803,592	26,96
803,772	-13,99
803,952	76,12
804,131	-75,43
804,311	49,49
804,491	135,51
804,67	-40,62
804,85	-116,39
805,03	67,92
805,209	160,08
805,389	-32,43
805,568	-63,15
805,748	-3,75
805,928	12,63
806,107	22,87
806,287	49,49
806,466	72,02
806,646	-118,44
806,825	-20,14
807,004	12,63
807,184	45,4
807,363	100,69
807,543	16,73
807,722	-24,23
807,901	115,03
808,081	86,36
808,26	-130,73
808,439	-61,1
808,619	-16,04
808,798	-26,28
808,977	41,3
809,156	78,16
809,336	-1,71
809,515	61,78
809,694	-59,05
809,873	-9,9
810,052	41,3
810,231	108,88
810,411	8,53
810,59	59,73
810,769	-38,57
810,948	78,16
811,127	-95,91
811,306	-28,33
811,485	-3,75
811,664	162,13
811,843	55,64
812,022	-1,71
812,201	4,44
812,38	0,34
812,559	-61,1
812,737	49,49
812,916	-114,34
813,095	-50,86
813,274	10,58
813,453	2,39
813,632	59,73
813,811	24,92
813,989	-97,96
814,168	10,58
814,347	14,68
814,526	-59,05
814,704	82,26
814,883	84,31
815,062	-13,99
815,24	22,87
815,419	-54,95
815,598	18,77
815,776	-138,92
815,955	41,3
816,133	-210,6
816,312	4,44
816,49	-36,52
816,669	18,77
816,847	10,58
817,026	69,97
817,204	39,25
817,383	39,25
817,561	-63,15
817,74	31,06
817,918	45,4
818,097	-67,24
818,275	-59,05
818,453	39,25
818,632	121,17
818,81	-20,14
818,988	-50,86
819,167	43,35
819,345	0,34
819,523	8,53
819,701	12,63
819,879	59,73
820,058	100,69
820,236	90,45
820,414	67,92
820,592	-24,23
820,77	-5,8
820,948	-1,71
821,127	-59,05
821,305	39,25
821,483	-85,67
821,661	145,75
821,839	88,4
822,017	-91,82
822,195	-16,04
822,373	61,78
822,551	-54,95
822,729	98,64
822,907	-24,23
823,085	12,63
823,262	-30,38
823,44	-102,06
823,618	-20,14
823,796	-11,95
823,974	-11,95
824,152	0,34
824,329	76,12
824,507	92,5
824,685	80,21
824,863	-106,15
825,04	37,2
825,218	72,02
825,396	-32,43
825,574	51,54
825,751	-46,76
825,929	45,4
826,107	-145,06
826,284	76,12
826,462	-16,04
826,639	-79,53
826,817	-67,24
826,994	-11,95
827,172	-22,19
827,349	151,89
827,527	78,16
827,704	-38,57
827,882	45,4
828,059	16,73
828,237	-52,91
828,414	51,54
828,591	-138,92
828,769	16,73
828,946	-54,95
829,124	82,26
829,301	108,88
829,478	8,53
829,655	49,49
829,833	0,34
830,01	-188,07
830,187	61,78
830,364	-13,99
830,542	-9,9
830,719	166,23
830,896	-46,76
831,073	-20,14
831,25	112,98
831,427	39,25
831,604	35,16
831,782	2,39
831,959	-13,99
832,136	22,87
832,313	55,64
832,49	-5,8
832,667	33,11
832,844	-50,86
833,021	143,7
833,198	26,96
833,374	12,63
833,551	20,82
833,728	20,82
833,905	131,41
834,082	-140,97
834,259	6,49
834,436	119,12
834,612	-38,57
834,789	49,49
834,966	-5,8
835,143	4,44
835,319	-63,15
835,496	119,12
835,673	84,31
835,85	35,16
836,026	78,16
836,203	86,36
836,38	26,96
836,556	-7,85
836,733	-57
836,909	115,03
837,086	-100,01
837,262	-163,5
837,439	86,36
837,616	-30,38
837,792	-24,23
837,968	49,49
838,145	-120,49
838,321	63,83
838,498	67,92
838,674	69,97
838,851	22,87
839,027	12,63
839,203	-52,91
839,38	92,5
839,556	-79,53
839,732	80,21
839,909	-22,19
840,085	-18,09
840,261	37,2
840,437	20,82
840,614	-71,34
840,79	22,87
840,966	65,88
841,142	35,16
841,318	14,68
841,494	53,59
841,671	59,73
841,847	-54,95
842,023	-85,67
842,199	10,58
842,375	131,41
842,551	-77,48
842,727	-52,91
842,903	149,84
843,079	-32,43
843,255	86,36
843,431	-7,85
843,607	55,64
843,783	-159,4
843,959	65,88
844,134	-89,77
844,31	102,74
844,486	4,44
844,662	-77,48
844,838	41,3
845,013	26,96
845,189	151,89
845,365	84,31
845,541	90,45
845,716	106,84
845,892	43,35
846,068	-73,39
846,244	-83,63
846,419	67,92
846,595	-36,52
846,77	-87,72
846,946	88,4
847,122	-79,53
847,297	-34,47
847,473	125,27
847,648	-155,3
847,824	26,96
847,999	-143,02
848,175	-22,19
848,35	82,26
848,526	139,6
848,701	18,77
848,876	106,84
849,052	8,53
849,227	-81,58
849,403	2,39
849,578	41,3
849,753	4,44
849,929	84,31
850,104	-118,44
850,279	112,98
850,454	88,4
850,63	-24,23
850,805	63,83
850,98	-28,33
851,155	-38,57
851,33	61,78
851,505	-48,81
851,681	239,95
851,856	6,49
852,031	18,77
852,206	4,44
852,381	-42,67
852,556	2,39
852,731	94,55
852,906	82,26
853,081	69,97
853,256	59,73
853,431	26,96
853,606	0,34
853,781	-38,57
853,956	-128,68
854,131	-36,52
854,305	-79,53
854,48	10,58
854,655	-34,47
854,83	-9,9
855,005	-93,87
855,18	29,01
855,354	-59,05
855,529	16,73
855,704	-34,47
855,879	72,02
856,053	-83,63
856,228	86,36
856,403	-108,2
856,577	-46,76
856,752	-75,43
856,926	-3,75
857,101	-95,91
857,276	-85,67
857,45	63,83
857,625	55,64
857,799	8,53
857,974	4,44
858,148	-32,43
858,323	84,31
858,497	14,68
858,672	-83,63
858,846	26,96
859,02	86,36
859,195	-26,28
859,369	-50,86
859,543	26,96
859,718	67,92
859,892	72,02
860,066	6,49
860,241	20,82
860,415	-46,76
860,589	-34,47
860,763	-9,9
860,938	-13,99
861,112	-36,52
861,286	-5,8
861,46	53,59
861,634	31,06
861,808	88,4
861,982	-61,1
862,157	-87,72
862,331	-5,8
862,505	-46,76
862,679	-40,62
862,853	6,49
863,027	-48,81
863,201	176,47
863,375	-128,68
863,549	12,63
863,722	76,12
863,896	164,18
864,07	-7,85
864,244	33,11
864,418	8,53
864,592	43,35
864,766	-83,63
864,939	-9,9
865,113	-5,8
865,287	29,01
865,461	-83,63
865,634	10,58
865,808	33,11
865,982	0,34
866,156	-65,19
866,329	-65,19
866,503	20,82
866,676	72,02
866,85	61,78
867,024	-69,29
867,197	78,16
867,371	12,63
867,544	4,44
867,718	-95,91
867,891	141,65
868,065	-110,25
868,238	-11,95
868,412	184,66
868,585	-52,91
868,759	-22,19
868,932	-87,72
869,105	-54,95
869,279	-3,75
869,452	-71,34
869,625	49,49
869,799	22,87
869,972	-46,76
870,145	-50,86
870,319	102,74
870,492	-77,48
870,665	-83,63
870,838	-100,01
871,011	-104,11
871,185	-20,14
871,358	-3,75
871,531	31,06
871,704	-9,9
871,877	2,39
872,05	-38,57
872,223	-83,63
872,396	49,49
872,569	63,83
872,742	-71,34
872,915	59,73
873,088	-18,09
873,261	-1,71
873,434	78,16
873,607	-54,95
873,78	39,25
873,953	-177,83
874,126	-28,33
874,299	16,73
874,471	-32,43
874,644	-7,85
874,817	100,69
874,99	112,98
875,163	-13,99
875,335	49,49
875,508	-61,1
875,681	145,75
875,853	2,39
876,026	-5,8
876,199	69,97
876,371	80,21
876,544	-11,95
876,717	-22,19
876,889	-69,29
877,062	78,16
877,234	-124,58
877,407	-67,24
877,579	65,88
877,752	63,83
877,924	31,06
878,097	100,69
878,269	-9,9
878,442	-13,99
878,614	102,74
878,786	-11,95
878,959	55,64
879,131	26,96
879,303	-97,96
879,476	61,78
879,648	51,54
879,82	22,87
879,993	-30,38
880,165	8,53
880,337	-95,91
880,509	69,97
880,681	-65,19
880,854	-11,95
881,026	88,4
881,198	96,6
881,37	-42,67
881,542	2,39
881,714	-40,62
881,886	18,77
882,058	-5,8
882,23	72,02
882,402	47,44
882,574	49,49
882,746	90,45
882,918	112,98
883,09	69,97
883,262	-11,95
883,434	31,06
883,606	-118,44
883,778	-46,76
883,95	184,66
884,122	-20,14
884,293	102,74
884,465	-30,38
884,637	88,4
884,809	-20,14
884,98	65,88
885,152	110,93
885,324	129,36
885,496	-61,1
885,667	49,49
885,839	-71,34
886,011	141,65
886,182	4,44
886,354	-13,99
886,525	10,58
886,697	53,59
886,869	-102,06
887,04	-3,75
887,212	86,36
887,383	110,93
887,555	0,34
887,726	55,64
887,897	-16,04
888,069	59,73
888,24	80,21
888,412	41,3
888,583	16,73
888,754	80,21
888,926	-138,92
889,097	-34,47
889,268	-38,57
889,44	-11,95
889,611	-169,64
889,782	-85,67
889,953	-83,63
890,125	61,78
890,296	-34,47
890,467	22,87
890,638	-13,99
890,809	-20,14
890,98	-89,77
891,151	51,54
891,323	90,45
891,494	-61,1
891,665	6,49
891,836	12,63
892,007	80,21
892,178	-24,23
892,349	12,63
892,52	-30,38
892,691	49,49
892,862	10,58
893,032	-65,19
893,203	10,58
893,374	-9,9
893,545	47,44
893,716	4,44
893,887	92,5
894,057	-36,52
894,228	-7,85
894,399	-95,91
894,57	31,06
894,74	8,53
894,911	35,16
895,082	14,68
895,253	-114,34
895,423	10,58
895,594	92,5
895,764	43,35
895,935	-1,71
896,106	59,73
896,276	-122,54
896,447	-1,71
896,617	-89,77
896,788	-59,05
896,958	18,77
897,129	16,73
897,299	-52,91
897,47	74,07
897,64	76,12
897,81	-28,33
897,981	37,2
898,151	-110,25
898,322	92,5
898,492	69,97
898,662	-5,8
898,832	-61,1
899,003	-36,52
899,173	-30,38
899,343	-87,72
899,513	-122,54
