Data from laserVert_USB4F104151__9__11-49-23-877.txt Node

Date: Wed Apr 15 11:49:23 EDT 2026
User: LaboPhy
Spectrometer: USB4F10415
Trigger mode: 4
Integration Time (sec): 1,000000E-1
Scans to average: 1
Electric dark correction enabled: true
Nonlinearity correction enabled: false
Boxcar width: 0
XAxis mode: Wavelengths
Number of Pixels in Spectrum: 3648
>>>>>Begin Spectral Data<<<<<
178,204	-427,34
178,424	-427,34
178,644	-427,34
178,864	-408,91
179,084	-392,53
179,304	45,74
179,524	19,11
179,744	-9,56
179,964	27,31
180,184	58,03
180,404	-13,65
180,624	27,31
180,844	10,92
181,064	-83,28
181,283	-9,56
181,503	-105,81
181,723	33,45
181,943	-173,39
182,163	180,9
182,383	-44,37
182,602	68,27
182,822	213,67
183,042	78,51
183,262	-83,28
183,482	0,68
183,701	-36,18
183,921	17,07
184,141	23,21
184,361	60,07
184,58	78,51
184,8	156,33
185,02	8,87
185,239	84,65
185,459	96,94
185,679	51,88
185,898	-71
186,118	-23,89
186,338	113,32
186,557	139,94
186,777	-68,95
186,997	-66,9
187,216	51,88
187,436	219,82
187,655	66,22
187,875	68,27
188,095	35,5
188,314	187,05
188,534	133,8
188,753	-58,71
188,973	125,61
189,192	137,9
189,412	103,08
189,631	84,65
189,851	47,79
190,07	195,24
190,29	-75,09
190,509	-34,13
190,729	39,59
190,948	84,65
191,168	217,77
191,387	58,03
191,607	-5,46
191,826	115,37
192,045	88,75
192,265	49,83
192,484	117,42
192,704	6,83
192,923	-66,9
193,142	213,67
193,362	144,04
193,581	80,55
193,8	64,17
194,02	121,51
194,239	82,6
194,458	76,46
194,678	35,5
194,897	123,56
195,116	37,55
195,335	55,98
195,555	55,98
195,774	-17,75
195,993	55,98
196,212	60,07
196,432	53,93
196,651	-42,32
196,87	53,93
197,089	311,97
197,308	17,07
197,528	51,88
197,747	-87,38
197,966	103,08
198,185	135,85
198,404	-87,38
198,623	109,23
198,842	185
199,062	146,09
199,281	86,7
199,5	2,73
199,719	96,94
199,938	98,99
200,157	60,07
200,376	88,75
200,595	135,85
200,814	68,27
201,033	15,02
201,252	185
201,471	127,66
201,69	35,5
201,909	72,36
202,128	113,32
202,347	137,9
202,566	78,51
202,785	-83,28
203,004	76,46
203,223	289,45
203,442	55,98
203,661	-3,41
203,879	21,16
204,098	117,42
204,317	-32,08
204,536	135,85
204,755	-15,7
204,974	178,86
205,193	-5,46
205,411	121,51
205,63	137,9
205,849	96,94
206,068	-60,76
206,287	-23,89
206,505	144,04
206,724	121,51
206,943	-40,28
207,162	15,02
207,381	96,94
207,599	80,55
207,818	4,78
208,037	-60,76
208,255	64,17
208,474	105,13
208,693	39,59
208,911	43,69
209,13	68,27
209,349	111,27
209,567	96,94
209,786	10,92
210,005	180,9
210,223	107,18
210,442	-179,54
210,661	4,78
210,879	58,03
211,098	47,79
211,316	66,22
211,535	129,7
211,753	2,73
211,972	137,9
212,191	23,21
212,409	35,5
212,628	60,07
212,846	-52,56
213,065	31,4
213,283	88,75
213,502	39,59
213,72	17,07
213,938	90,79
214,157	-46,42
214,375	115,37
214,594	41,64
214,812	96,94
215,031	-3,41
215,249	6,83
215,467	64,17
215,686	-9,56
215,904	68,27
216,122	72,36
216,341	215,72
216,559	55,98
216,778	76,46
216,996	197,29
217,214	33,45
217,432	21,16
217,651	-62,8
217,869	129,7
218,087	41,64
218,306	-34,13
218,524	55,98
218,742	-66,9
218,96	103,08
219,179	-25,94
219,397	17,07
219,615	225,96
219,833	43,69
220,051	-73,04
220,27	111,27
220,488	96,94
220,706	23,21
220,924	19,11
221,142	23,21
221,36	137,9
221,578	96,94
221,796	35,5
222,015	70,31
222,233	84,65
222,451	156,33
222,669	17,07
222,887	23,21
223,105	25,26
223,323	113,32
223,541	-9,56
223,759	53,93
223,977	94,89
224,195	123,56
224,413	72,36
224,631	43,69
224,849	70,31
225,067	203,43
225,285	-7,51
225,503	-38,23
225,721	-93,52
225,939	72,36
226,157	45,74
226,375	131,75
226,592	74,41
226,81	62,12
227,028	164,52
227,246	133,8
227,464	64,17
227,682	49,83
227,9	64,17
228,117	35,5
228,335	-1,37
228,553	15,02
228,771	53,93
228,989	47,79
229,206	90,79
229,424	92,84
229,642	33,45
229,86	-32,08
230,077	129,7
230,295	33,45
230,513	113,32
230,731	66,22
230,948	195,24
231,166	156,33
231,384	29,35
231,601	-1,37
231,819	203,43
232,037	-1,37
232,254	-9,56
232,472	41,64
232,689	23,21
232,907	156,33
233,125	39,59
233,342	-3,41
233,56	-13,65
233,777	37,55
233,995	45,74
234,213	111,27
234,43	66,22
234,648	33,45
234,865	37,55
235,083	2,73
235,3	17,07
235,518	137,9
235,735	88,75
235,953	80,55
236,17	109,23
236,388	86,7
236,605	47,79
236,822	113,32
237,04	180,9
237,257	25,26
237,475	-75,09
237,692	6,83
237,909	-1,37
238,127	-30,04
238,344	96,94
238,562	123,56
238,779	-23,89
238,996	-60,76
239,214	154,28
239,431	113,32
239,648	-13,65
239,865	47,79
240,083	68,27
240,3	17,07
240,517	60,07
240,735	2,73
240,952	123,56
241,169	-21,84
241,386	-3,41
241,603	60,07
241,821	-21,84
242,038	31,4
242,255	117,42
242,472	-27,99
242,689	119,46
242,907	-19,8
243,124	51,88
243,341	-32,08
243,558	-58,71
243,775	-30,04
243,992	-91,48
244,209	105,13
244,426	146,09
244,643	60,07
244,86	15,02
245,078	76,46
245,295	80,55
245,512	4,78
245,729	49,83
245,946	123,56
246,163	-11,61
246,38	-81,24
246,597	72,36
246,814	92,84
247,031	23,21
247,248	-5,46
247,464	137,9
247,681	17,07
247,898	31,4
248,115	76,46
248,332	-48,47
248,549	180,9
248,766	156,33
248,983	64,17
249,2	76,46
249,417	25,26
249,633	2,73
249,85	88,75
250,067	82,6
250,284	47,79
250,501	72,36
250,717	2,73
250,934	-32,08
251,151	25,26
251,368	66,22
251,585	-21,84
251,801	133,8
252,018	-89,43
252,235	123,56
252,451	-27,99
252,668	76,46
252,885	115,37
253,102	39,59
253,318	21,16
253,535	-58,71
253,752	2,73
253,968	-38,23
254,185	-103,76
254,401	64,17
254,618	58,03
254,835	39,59
255,051	166,57
255,268	111,27
255,484	-7,51
255,701	-38,23
255,917	53,93
256,134	47,79
256,351	58,03
256,567	-68,95
256,784	90,79
257	-85,33
257,217	219,82
257,433	139,94
257,65	-54,61
257,866	191,14
258,082	-85,33
258,299	-23,89
258,515	17,07
258,732	74,41
258,948	27,31
259,165	15,02
259,381	-64,85
259,597	144,04
259,814	17,07
260,03	41,64
260,246	41,64
260,463	146,09
260,679	131,75
260,895	80,55
261,112	33,45
261,328	-21,84
261,544	-40,28
261,761	164,52
261,977	-132,44
262,193	-58,71
262,409	55,98
262,626	33,45
262,842	76,46
263,058	-66,9
263,274	213,67
263,49	35,5
263,707	47,79
263,923	123,56
264,139	-64,85
264,355	31,4
264,571	70,31
264,787	58,03
265,004	113,32
265,22	27,31
265,436	-87,38
265,652	23,21
265,868	47,79
266,084	17,07
266,3	68,27
266,516	-17,75
266,732	33,45
266,948	119,46
267,164	37,55
267,38	96,94
267,596	125,61
267,812	191,14
268,028	-11,61
268,244	58,03
268,46	80,55
268,676	-56,66
268,892	90,79
269,108	0,68
269,324	-42,32
269,54	-124,24
269,756	82,6
269,972	-23,89
270,188	15,02
270,403	8,87
270,619	92,84
270,835	84,65
271,051	53,93
271,267	53,93
271,483	-5,46
271,698	150,18
271,914	90,79
272,13	90,79
272,346	15,02
272,562	23,21
272,777	135,85
272,993	25,26
273,209	-13,65
273,425	64,17
273,64	-40,28
273,856	49,83
274,072	2,73
274,287	-23,89
274,503	84,65
274,719	31,4
274,934	27,31
275,15	-56,66
275,366	58,03
275,581	-13,65
275,797	49,83
276,012	66,22
276,228	12,97
276,444	17,07
276,659	187,05
276,875	72,36
277,09	6,83
277,306	8,87
277,521	111,27
277,737	29,35
277,952	121,51
278,168	60,07
278,383	-17,75
278,599	92,84
278,814	109,23
279,03	-1,37
279,245	96,94
279,461	117,42
279,676	150,18
279,892	-85,33
280,107	-27,99
280,322	-38,23
280,538	98,99
280,753	33,45
280,969	60,07
281,184	-9,56
281,399	162,47
281,615	43,69
281,83	113,32
282,045	-44,37
282,26	6,83
282,476	68,27
282,691	33,45
282,906	107,18
283,122	35,5
283,337	2,73
283,552	103,08
283,767	64,17
283,983	123,56
284,198	-1,37
284,413	72,36
284,628	-1,37
284,843	37,55
285,058	-17,75
285,274	-56,66
285,489	2,73
285,704	41,64
285,919	62,12
286,134	43,69
286,349	45,74
286,564	-17,75
286,779	131,75
286,995	74,41
287,21	10,92
287,425	96,94
287,64	-46,42
287,855	103,08
288,07	-75,09
288,285	92,84
288,5	82,6
288,715	64,17
288,93	-23,89
289,145	-30,04
289,36	60,07
289,575	-34,13
289,79	105,13
290,004	41,64
290,219	105,13
290,434	23,21
290,649	-17,75
290,864	-60,76
291,079	-38,23
291,294	-34,13
291,509	39,59
291,724	19,11
291,938	27,31
292,153	23,21
292,368	31,4
292,583	133,8
292,798	111,27
293,012	76,46
293,227	17,07
293,442	-44,37
293,657	84,65
293,871	133,8
294,086	113,32
294,301	189,1
294,516	55,98
294,73	31,4
294,945	-25,94
295,16	21,16
295,374	105,13
295,589	117,42
295,804	25,26
296,018	23,21
296,233	150,18
296,447	117,42
296,662	-15,7
296,877	172,71
297,091	90,79
297,306	47,79
297,52	-15,7
297,735	141,99
297,949	60,07
298,164	53,93
298,378	55,98
298,593	-107,86
298,807	23,21
299,022	37,55
299,236	162,47
299,451	2,73
299,665	-7,51
299,88	43,69
300,094	53,93
300,309	21,16
300,523	58,03
300,737	64,17
300,952	10,92
301,166	111,27
301,381	-50,52
301,595	-38,23
301,809	27,31
302,024	-11,61
302,238	-44,37
302,452	162,47
302,667	-13,65
302,881	139,94
303,095	90,79
303,309	88,75
303,524	8,87
303,738	8,87
303,952	-3,41
304,166	80,55
304,381	-99,67
304,595	74,41
304,809	17,07
305,023	23,21
305,237	29,35
305,452	0,68
305,666	39,59
305,88	31,4
306,094	146,09
306,308	107,18
306,522	148,14
306,736	90,79
306,95	129,7
307,164	17,07
307,379	45,74
307,593	133,8
307,807	88,75
308,021	68,27
308,235	137,9
308,449	-34,13
308,663	35,5
308,877	273,06
309,091	60,07
309,305	109,23
309,519	-91,48
309,733	72,36
309,947	39,59
310,161	82,6
310,374	107,18
310,588	135,85
310,802	-13,65
311,016	-17,75
311,23	131,75
311,444	-50,52
311,658	55,98
311,872	131,75
312,085	150,18
312,299	166,57
312,513	92,84
312,727	-30,04
312,941	4,78
313,154	41,64
313,368	49,83
313,582	31,4
313,796	74,41
314,009	53,93
314,223	187,05
314,437	55,98
314,651	86,7
314,864	39,59
315,078	-40,28
315,292	-122,2
315,505	53,93
315,719	72,36
315,933	80,55
316,146	15,02
316,36	-9,56
316,573	90,79
316,787	117,42
317,001	53,93
317,214	-118,1
317,428	72,36
317,641	-13,65
317,855	17,07
318,068	-34,13
318,282	51,88
318,495	168,62
318,709	131,75
318,922	-52,56
319,136	170,66
319,349	123,56
319,563	33,45
319,776	109,23
319,99	-79,19
320,203	39,59
320,417	15,02
320,63	-34,13
320,843	166,57
321,057	39,59
321,27	78,51
321,483	35,5
321,697	86,7
321,91	72,36
322,124	45,74
322,337	121,51
322,55	23,21
322,763	55,98
322,977	17,07
323,19	19,11
323,403	-9,56
323,617	125,61
323,83	72,36
324,043	10,92
324,256	-13,65
324,469	-58,71
324,683	137,9
324,896	39,59
325,109	98,99
325,322	-62,8
325,535	170,66
325,748	68,27
325,962	-30,04
326,175	62,12
326,388	107,18
326,601	78,51
326,814	39,59
327,027	101,03
327,24	148,14
327,453	-79,19
327,666	101,03
327,879	133,8
328,092	123,56
328,305	37,55
328,518	-15,7
328,731	-50,52
328,944	70,31
329,157	55,98
329,37	15,02
329,583	154,28
329,796	162,47
330,009	2,73
330,222	178,86
330,435	90,79
330,648	8,87
330,861	123,56
331,073	51,88
331,286	78,51
331,499	66,22
331,712	51,88
331,925	19,11
332,138	-1,37
332,35	31,4
332,563	-32,08
332,776	189,1
332,989	25,26
333,202	-7,51
333,414	39,59
333,627	-5,46
333,84	-13,65
334,053	-48,47
334,265	-23,89
334,478	-9,56
334,691	49,83
334,903	53,93
335,116	33,45
335,329	68,27
335,541	170,66
335,754	187,05
335,966	-54,61
336,179	84,65
336,392	15,02
336,604	47,79
336,817	66,22
337,029	33,45
337,242	33,45
337,454	90,79
337,667	8,87
337,88	148,14
338,092	82,6
338,305	84,65
338,517	-66,9
338,729	66,22
338,942	213,67
339,154	-87,38
339,367	-13,65
339,579	123,56
339,792	-40,28
340,004	53,93
340,217	-30,04
340,429	49,83
340,641	-44,37
340,854	-30,04
341,066	72,36
341,278	141,99
341,491	117,42
341,703	51,88
341,915	39,59
342,128	86,7
342,34	17,07
342,552	-64,85
342,764	-5,46
342,977	-68,95
343,189	47,79
343,401	39,59
343,613	-52,56
343,826	64,17
344,038	-85,33
344,25	72,36
344,462	-13,65
344,674	60,07
344,886	-42,32
345,099	4,78
345,311	109,23
345,523	31,4
345,735	-118,1
345,947	62,12
346,159	53,93
346,371	25,26
346,583	53,93
346,795	238,25
347,007	19,11
347,219	72,36
347,431	111,27
347,643	117,42
347,855	-27,99
348,067	101,03
348,279	-79,19
348,491	2,73
348,703	39,59
348,915	15,02
349,127	-19,8
349,339	70,31
349,551	8,87
349,763	86,7
349,975	-46,42
350,187	94,89
350,399	197,29
350,61	84,65
350,822	10,92
351,034	8,87
351,246	129,7
351,458	115,37
351,669	66,22
351,881	51,88
352,093	115,37
352,305	180,9
352,517	82,6
352,728	121,51
352,94	19,11
353,152	41,64
353,363	-30,04
353,575	88,75
353,787	172,71
353,999	62,12
354,21	162,47
354,422	-75,09
354,633	-46,42
354,845	21,16
355,057	72,36
355,268	41,64
355,48	168,62
355,692	-114
355,903	29,35
356,115	-44,37
356,326	-93,52
356,538	182,95
356,749	96,94
356,961	141,99
357,172	68,27
357,384	-36,18
357,595	240,3
357,807	21,16
358,018	-9,56
358,23	101,03
358,441	105,13
358,653	68,27
358,864	25,26
359,075	-73,04
359,287	64,17
359,498	111,27
359,709	82,6
359,921	31,4
360,132	78,51
360,344	41,64
360,555	19,11
360,766	105,13
360,977	-56,66
361,189	64,17
361,4	45,74
361,611	228,01
361,823	129,7
362,034	55,98
362,245	-116,05
362,456	58,03
362,667	60,07
362,879	-50,52
363,09	15,02
363,301	90,79
363,512	84,65
363,723	-75,09
363,935	12,97
364,146	168,62
364,357	-30,04
364,568	6,83
364,779	-38,23
364,99	41,64
365,201	0,68
365,412	105,13
365,623	-89,43
365,834	90,79
366,045	-11,61
366,256	31,4
366,467	98,99
366,678	-48,47
366,889	47,79
367,1	-56,66
367,311	133,8
367,522	-21,84
367,733	154,28
367,944	92,84
368,155	-3,41
368,366	123,56
368,577	113,32
368,788	137,9
368,999	-38,23
369,209	41,64
369,42	234,15
369,631	223,91
369,842	92,84
370,053	17,07
370,264	86,7
370,474	-77,14
370,685	58,03
370,896	15,02
371,107	129,7
371,317	111,27
371,528	21,16
371,739	207,53
371,95	76,46
372,16	41,64
372,371	-71
372,582	-32,08
372,792	64,17
373,003	23,21
373,214	58,03
373,424	113,32
373,635	-54,61
373,846	199,34
374,056	37,55
374,267	90,79
374,477	-21,84
374,688	-11,61
374,898	-5,46
375,109	96,94
375,319	49,83
375,53	139,94
375,74	84,65
375,951	64,17
376,161	47,79
376,372	131,75
376,582	-25,94
376,793	43,69
377,003	62,12
377,214	-11,61
377,424	121,51
377,635	-3,41
377,845	-52,56
378,055	115,37
378,266	-42,32
378,476	-52,56
378,686	113,32
378,897	76,46
379,107	152,23
379,317	101,03
379,528	-105,81
379,738	53,93
379,948	10,92
380,158	103,08
380,369	2,73
380,579	60,07
380,789	6,83
380,999	90,79
381,21	60,07
381,42	217,77
381,63	-7,51
381,84	27,31
382,05	55,98
382,261	141,99
382,471	158,38
382,681	-15,7
382,891	144,04
383,101	6,83
383,311	21,16
383,521	-132,44
383,731	129,7
383,941	125,61
384,151	133,8
384,361	72,36
384,571	68,27
384,781	-66,9
384,991	174,76
385,201	219,82
385,411	129,7
385,621	58,03
385,831	23,21
386,041	-38,23
386,251	68,27
386,461	90,79
386,671	8,87
386,881	55,98
387,091	-21,84
387,301	115,37
387,511	31,4
387,72	72,36
387,93	154,28
388,14	-3,41
388,35	78,51
388,56	156,33
388,769	78,51
388,979	39,59
389,189	-50,52
389,399	60,07
389,609	51,88
389,818	96,94
390,028	80,55
390,238	-7,51
390,447	-71
390,657	35,5
390,867	-15,7
391,076	-40,28
391,286	17,07
391,496	10,92
391,705	55,98
391,915	133,8
392,125	58,03
392,334	6,83
392,544	141,99
392,753	62,12
392,963	-21,84
393,172	55,98
393,382	-64,85
393,591	197,29
393,801	8,87
394,01	88,75
394,22	76,46
394,429	39,59
394,639	-3,41
394,848	64,17
395,058	39,59
395,267	62,12
395,477	49,83
395,686	72,36
395,895	242,34
396,105	199,34
396,314	101,03
396,524	88,75
396,733	-1,37
396,942	141,99
397,152	101,03
397,361	107,18
397,57	90,79
397,78	27,31
397,989	55,98
398,198	201,38
398,407	6,83
398,617	-32,08
398,826	62,12
399,035	-11,61
399,244	158,38
399,453	74,41
399,663	-23,89
399,872	47,79
400,081	21,16
400,29	133,8
400,499	-19,8
400,708	80,55
400,917	0,68
401,127	-30,04
401,336	-23,89
401,545	109,23
401,754	123,56
401,963	129,7
402,172	-15,7
402,381	-42,32
402,59	31,4
402,799	70,31
403,008	133,8
403,217	31,4
403,426	84,65
403,635	-79,19
403,844	68,27
404,053	37,55
404,262	8,87
404,471	197,29
404,68	8,87
404,888	49,83
405,097	49,83
405,306	43,69
405,515	72,36
405,724	37,55
405,933	84,65
406,142	115,37
406,35	164,52
406,559	25,26
406,768	53,93
406,977	178,86
407,185	29,35
407,394	64,17
407,603	-99,67
407,812	90,79
408,02	129,7
408,229	49,83
408,438	72,36
408,646	-132,44
408,855	21,16
409,064	58,03
409,272	23,21
409,481	19,11
409,69	19,11
409,898	-44,37
410,107	101,03
410,315	39,59
410,524	-19,8
410,733	37,55
410,941	53,93
411,15	113,32
411,358	131,75
411,567	160,42
411,775	-75,09
411,984	-15,7
412,192	66,22
412,401	-42,32
412,609	148,14
412,818	70,31
413,026	90,79
413,234	68,27
413,443	68,27
413,651	-21,84
413,86	-15,7
414,068	185
414,276	127,66
414,485	51,88
414,693	141,99
414,901	199,34
415,11	55,98
415,318	-34,13
415,526	31,4
415,734	117,42
415,943	68,27
416,151	121,51
416,359	76,46
416,567	17,07
416,776	133,8
416,984	137,9
417,192	162,47
417,4	15,02
417,608	23,21
417,817	-25,94
418,025	82,6
418,233	70,31
418,441	-11,61
418,649	-89,43
418,857	41,64
419,065	105,13
419,273	-79,19
419,481	64,17
419,689	-1,37
419,897	39,59
420,105	0,68
420,313	109,23
420,521	115,37
420,729	115,37
420,937	-19,8
421,145	15,02
421,353	58,03
421,561	152,23
421,769	94,89
421,977	-19,8
422,185	86,7
422,393	33,45
422,601	86,7
422,809	49,83
423,017	74,41
423,224	70,31
423,432	105,13
423,64	33,45
423,848	135,85
424,056	-23,89
424,263	203,43
424,471	-23,89
424,679	148,14
424,887	-54,61
425,094	121,51
425,302	96,94
425,51	-25,94
425,718	133,8
425,925	45,74
426,133	23,21
426,341	137,9
426,548	43,69
426,756	-23,89
426,964	103,08
427,171	-50,52
427,379	35,5
427,586	39,59
427,794	37,55
428,001	164,52
428,209	-1,37
428,417	195,24
428,624	51,88
428,832	90,79
429,039	-15,7
429,247	31,4
429,454	131,75
429,662	238,25
429,869	86,7
430,076	90,79
430,284	137,9
430,491	156,33
430,699	-17,75
430,906	123,56
431,114	78,51
431,321	47,79
431,528	25,26
431,736	76,46
431,943	23,21
432,15	47,79
432,358	111,27
432,565	262,82
432,772	-122,2
432,979	84,65
433,187	96,94
433,394	117,42
433,601	33,45
433,808	129,7
434,016	141,99
434,223	160,42
434,43	105,13
434,637	123,56
434,844	109,23
435,052	101,03
435,259	150,18
435,466	31,4
435,673	74,41
435,88	80,55
436,087	107,18
436,294	150,18
436,501	72,36
436,708	-5,46
436,915	101,03
437,122	154,28
437,329	-9,56
437,537	117,42
437,743	60,07
437,95	217,77
438,157	47,79
438,364	78,51
438,571	25,26
438,778	111,27
438,985	115,37
439,192	150,18
439,399	98,99
439,606	43,69
439,813	119,46
440,02	158,38
440,227	311,97
440,433	182,95
440,64	135,85
440,847	80,55
441,054	135,85
441,261	162,47
441,467	166,57
441,674	25,26
441,881	213,67
442,088	109,23
442,294	139,94
442,501	189,1
442,708	211,62
442,914	76,46
443,121	174,76
443,328	109,23
443,534	164,52
443,741	74,41
443,948	49,83
444,154	84,65
444,361	344,74
444,568	160,42
444,774	105,13
444,981	23,21
445,187	314,02
445,394	82,6
445,6	60,07
445,807	39,59
446,013	86,7
446,22	29,35
446,426	156,33
446,633	117,42
446,839	246,44
447,046	41,64
447,252	236,2
447,459	31,4
447,665	49,83
447,871	139,94
448,078	236,2
448,284	139,94
448,491	260,77
448,697	180,9
448,903	160,42
449,11	137,9
449,316	80,55
449,522	182,95
449,728	141,99
449,935	180,9
450,141	162,47
450,347	225,96
450,553	185
450,76	146,09
450,966	178,86
451,172	178,86
451,378	187,05
451,584	197,29
451,791	205,48
451,997	213,67
452,203	105,13
452,409	359,08
452,615	271,01
452,821	139,94
453,027	53,93
453,233	326,31
453,44	146,09
453,646	189,1
453,852	113,32
454,058	86,7
454,264	225,96
454,47	176,81
454,676	101,03
454,882	252,58
455,088	228,01
455,294	221,86
455,5	213,67
455,705	273,06
455,911	162,47
456,117	127,66
456,323	205,48
456,529	238,25
456,735	166,57
456,941	238,25
457,147	154,28
457,352	232,1
457,558	101,03
457,764	228,01
457,97	137,9
458,176	297,64
458,381	137,9
458,587	285,35
458,793	203,43
458,999	82,6
459,204	113,32
459,41	139,94
459,616	144,04
459,821	223,91
460,027	2,73
460,233	144,04
460,438	139,94
460,644	160,42
460,85	211,62
461,055	228,01
461,261	213,67
461,466	170,66
461,672	146,09
461,878	219,82
462,083	219,82
462,289	135,85
462,494	92,84
462,7	150,18
462,905	199,34
463,111	260,77
463,316	225,96
463,522	232,1
463,727	107,18
463,932	154,28
464,138	146,09
464,343	223,91
464,549	248,49
464,754	277,16
464,959	262,82
465,165	105,13
465,37	139,94
465,575	121,51
465,781	162,47
465,986	117,42
466,191	131,75
466,397	150,18
466,602	260,77
466,807	141,99
467,012	170,66
467,218	133,8
467,423	127,66
467,628	166,57
467,833	47,79
468,038	205,48
468,244	90,79
468,449	55,98
468,654	174,76
468,859	191,14
469,064	172,71
469,269	148,14
469,474	205,48
469,679	277,16
469,885	103,08
470,09	86,7
470,295	121,51
470,5	154,28
470,705	156,33
470,91	135,85
471,115	225,96
471,32	101,03
471,525	303,78
471,73	342,69
471,935	197,29
472,139	182,95
472,344	187,05
472,549	203,43
472,754	242,34
472,959	217,77
473,164	166,57
473,369	117,42
473,574	172,71
473,778	201,38
473,983	160,42
474,188	154,28
474,393	8,87
474,598	166,57
474,802	88,75
475,007	164,52
475,212	268,97
475,417	137,9
475,621	215,72
475,826	23,21
476,031	219,82
476,235	39,59
476,44	137,9
476,645	174,76
476,849	172,71
477,054	25,26
477,259	105,13
477,463	256,68
477,668	318,12
477,872	307,88
478,077	131,75
478,282	66,22
478,486	205,48
478,691	123,56
478,895	58,03
479,1	203,43
479,304	225,96
479,509	139,94
479,713	303,78
479,918	119,46
480,122	115,37
480,326	146,09
480,531	139,94
480,735	170,66
480,94	92,84
481,144	189,1
481,348	277,16
481,553	215,72
481,757	15,02
481,961	109,23
482,166	103,08
482,37	107,18
482,574	254,63
482,778	96,94
482,983	199,34
483,187	172,71
483,391	162,47
483,595	119,46
483,8	154,28
484,004	182,95
484,208	113,32
484,412	322,21
484,616	230,06
484,821	131,75
485,025	121,51
485,229	41,64
485,433	141,99
485,637	39,59
485,841	172,71
486,045	244,39
486,249	207,53
486,453	139,94
486,657	23,21
486,861	21,16
487,065	187,05
487,269	162,47
487,473	98,99
487,677	228,01
487,881	354,98
488,085	213,67
488,289	221,86
488,493	96,94
488,697	262,82
488,901	203,43
489,105	141,99
489,309	211,62
489,512	170,66
489,716	150,18
489,92	182,95
490,124	131,75
490,328	236,2
490,531	74,41
490,735	238,25
490,939	62,12
491,143	185
491,346	187,05
491,55	207,53
491,754	174,76
491,958	123,56
492,161	154,28
492,365	53,93
492,569	76,46
492,772	154,28
492,976	248,49
493,18	205,48
493,383	90,79
493,587	111,27
493,79	213,67
493,994	123,56
494,197	137,9
494,401	182,95
494,605	172,71
494,808	98,99
495,012	232,1
495,215	266,92
495,419	279,21
495,622	168,62
495,825	72,36
496,029	185
496,232	170,66
496,436	172,71
496,639	242,34
496,843	207,53
497,046	86,7
497,249	277,16
497,453	254,63
497,656	144,04
497,859	182,95
498,063	246,44
498,266	154,28
498,469	107,18
498,673	109,23
498,876	148,14
499,079	107,18
499,282	109,23
499,485	459,43
499,689	115,37
499,892	240,3
500,095	144,04
500,298	187,05
500,501	88,75
500,705	228,01
500,908	121,51
501,111	121,51
501,314	248,49
501,517	330,41
501,72	144,04
501,923	189,1
502,126	223,91
502,329	268,97
502,532	289,45
502,735	187,05
502,938	260,77
503,141	234,15
503,344	103,08
503,547	400,04
503,75	172,71
503,953	156,33
504,156	273,06
504,359	232,1
504,562	191,14
504,765	242,34
504,968	291,49
505,17	277,16
505,373	250,53
505,576	221,86
505,779	289,45
505,982	129,7
506,185	318,12
506,387	252,58
506,59	416,42
506,793	242,34
506,996	193,19
507,198	342,69
507,401	277,16
507,604	381,6
507,807	252,58
508,009	293,54
508,212	346,79
508,415	191,14
508,617	146,09
508,82	293,54
509,022	336,55
509,225	260,77
509,428	273,06
509,63	264,87
509,833	266,92
510,035	436,9
510,238	361,13
510,44	201,38
510,643	346,79
510,845	301,73
511,048	402,08
511,25	244,39
511,453	316,07
511,655	408,23
511,858	346,79
512,06	436,9
512,262	268,97
512,465	262,82
512,667	314,02
512,87	203,43
513,072	426,66
513,274	303,78
513,477	150,18
513,679	350,89
513,881	346,79
514,084	264,87
514,286	363,17
514,488	326,31
514,69	303,78
514,893	344,74
515,095	307,88
515,297	244,39
515,499	244,39
515,701	215,72
515,904	285,35
516,106	410,28
516,308	404,13
516,51	371,37
516,712	367,27
516,914	254,63
517,116	297,64
517,318	291,49
517,52	330,41
517,722	240,3
517,925	213,67
518,127	240,3
518,329	443,04
518,531	197,29
518,733	271,01
518,935	242,34
519,136	295,59
519,338	244,39
519,54	203,43
519,742	369,32
519,944	404,13
520,146	326,31
520,348	268,97
520,55	416,42
520,752	141,99
520,954	195,24
521,155	322,21
521,357	342,69
521,559	377,51
521,761	457,38
521,963	354,98
522,164	373,41
522,366	371,37
522,568	342,69
522,77	330,41
522,971	334,5
523,173	244,39
523,375	481,96
523,576	293,54
523,778	311,97
523,98	297,64
524,181	432,8
524,383	383,65
524,584	363,17
524,786	283,3
524,988	367,27
525,189	369,32
525,391	463,52
525,592	250,53
525,794	242,34
525,995	322,21
526,197	346,79
526,398	543,39
526,6	387,75
526,801	379,56
527,003	242,34
527,204	451,24
527,406	295,59
527,607	377,51
527,808	367,27
528,01	371,37
528,211	498,34
528,412	408,23
528,614	494,24
528,815	492,2
529,016	633,51
529,218	510,63
529,419	467,62
529,62	426,66
529,822	578,21
530,023	647,84
530,224	977,56
530,425	1516,18
530,626	2067,08
530,828	3267,19
531,029	4837,98
531,23	7889,46
531,431	12141,04
531,632	18393,49
531,833	25850,14
532,035	35016,85
532,236	44091,4
532,437	51711,89
532,638	57632,57
532,839	62295,8
533,04	63645,41
533,241	63645,41
533,442	63645,41
533,643	63645,41
533,844	63645,41
534,045	60102,42
534,246	52627,34
534,447	45117,43
534,648	38213,73
534,849	32045,25
535,05	26743,06
535,251	21475,68
535,451	17121,7
535,652	13464,03
535,853	10484,23
536,054	7752,24
536,255	5499,48
536,456	3656,31
536,657	2458,25
536,857	1671,83
537,058	1348,25
537,259	1014,43
537,46	735,9
537,66	633,51
537,861	584,35
538,062	520,87
538,263	400,04
538,463	471,72
538,664	400,04
538,865	344,74
539,065	481,96
539,266	471,72
539,466	361,13
539,667	492,2
539,868	486,05
540,068	383,65
540,269	500,39
540,469	367,27
540,67	432,8
540,87	418,47
541,071	293,54
541,271	367,27
541,472	467,62
541,672	420,52
541,873	334,5
542,073	299,69
542,274	406,18
542,474	287,4
542,675	367,27
542,875	320,17
543,075	172,71
543,276	260,77
543,476	156,33
543,676	336,55
543,877	197,29
544,077	338,6
544,277	477,86
544,478	279,21
544,678	283,3
544,878	305,83
545,078	264,87
545,279	277,16
545,479	121,51
545,679	230,06
545,879	336,55
546,079	305,83
546,28	209,58
546,48	309,93
546,68	393,89
546,88	268,97
547,08	348,84
547,28	338,6
547,48	119,46
547,68	441
547,88	328,36
548,081	303,78
548,281	197,29
548,481	279,21
548,681	238,25
548,881	322,21
549,081	324,26
549,28	219,82
549,48	223,91
549,68	260,77
549,88	287,4
550,08	154,28
550,28	273,06
550,48	381,6
550,68	330,41
550,88	271,01
551,08	262,82
551,279	281,25
551,479	297,64
551,679	385,7
551,879	275,11
552,079	219,82
552,278	348,84
552,478	389,8
552,678	400,04
552,878	428,71
553,077	264,87
553,277	320,17
553,477	260,77
553,676	420,52
553,876	336,55
554,076	344,74
554,275	361,13
554,475	268,97
554,674	426,66
554,874	291,49
555,074	203,43
555,273	404,13
555,473	260,77
555,672	326,31
555,872	301,73
556,071	303,78
556,271	422,56
556,47	266,92
556,67	264,87
556,869	258,73
557,068	248,49
557,268	271,01
557,467	244,39
557,667	420,52
557,866	207,53
558,065	334,5
558,265	225,96
558,464	236,2
558,663	309,93
558,863	268,97
559,062	285,35
559,261	279,21
559,461	406,18
559,66	287,4
559,859	170,66
560,058	277,16
560,258	148,14
560,457	334,5
560,656	393,89
560,855	258,73
561,054	277,16
561,253	402,08
561,453	180,9
561,652	285,35
561,851	334,5
562,05	273,06
562,249	152,23
562,448	342,69
562,647	211,62
562,846	281,25
563,045	228,01
563,244	326,31
563,443	412,32
563,642	242,34
563,841	250,53
564,04	344,74
564,239	131,75
564,438	289,45
564,637	191,14
564,836	277,16
565,035	182,95
565,234	221,86
565,432	293,54
565,631	273,06
565,83	271,01
566,029	248,49
566,228	322,21
566,427	397,99
566,625	201,38
566,824	354,98
567,023	297,64
567,222	334,5
567,42	252,58
567,619	228,01
567,818	303,78
568,016	443,04
568,215	293,54
568,414	318,12
568,612	254,63
568,811	295,59
569,01	252,58
569,208	238,25
569,407	303,78
569,605	260,77
569,804	271,01
570,002	367,27
570,201	148,14
570,4	348,84
570,598	287,4
570,797	215,72
570,995	166,57
571,193	363,17
571,392	260,77
571,59	197,29
571,789	297,64
571,987	275,11
572,186	352,93
572,384	148,14
572,582	285,35
572,781	314,02
572,979	146,09
573,177	256,68
573,376	260,77
573,574	291,49
573,772	189,1
573,971	176,81
574,169	139,94
574,367	244,39
574,565	271,01
574,763	205,48
574,962	203,43
575,16	287,4
575,358	199,34
575,556	217,77
575,754	195,24
575,952	158,38
576,151	330,41
576,349	289,45
576,547	176,81
576,745	256,68
576,943	311,97
577,141	199,34
577,339	242,34
577,537	256,68
577,735	326,31
577,933	285,35
578,131	185
578,329	379,56
578,527	262,82
578,725	367,27
578,923	70,31
579,121	281,25
579,319	88,75
579,516	326,31
579,714	510,63
579,912	268,97
580,11	209,58
580,308	215,72
580,506	185
580,704	84,65
580,901	176,81
581,099	330,41
581,297	182,95
581,495	316,07
581,692	230,06
581,89	381,6
582,088	176,81
582,285	211,62
582,483	219,82
582,681	248,49
582,878	285,35
583,076	244,39
583,274	264,87
583,471	367,27
583,669	246,44
583,866	137,9
584,064	197,29
584,262	176,81
584,459	258,73
584,657	225,96
584,854	342,69
585,052	291,49
585,249	283,3
585,447	320,17
585,644	154,28
585,841	332,45
586,039	256,68
586,236	357,03
586,434	176,81
586,631	195,24
586,828	283,3
587,026	275,11
587,223	141,99
587,42	189,1
587,618	176,81
587,815	400,04
588,012	330,41
588,21	139,94
588,407	338,6
588,604	336,55
588,801	191,14
588,999	223,91
589,196	316,07
589,393	174,76
589,59	301,73
589,787	297,64
589,984	287,4
590,182	291,49
590,379	178,86
590,576	271,01
590,773	203,43
590,97	172,71
591,167	273,06
591,364	248,49
591,561	133,8
591,758	354,98
591,955	279,21
592,152	291,49
592,349	236,2
592,546	293,54
592,743	242,34
592,94	293,54
593,137	256,68
593,334	346,79
593,531	307,88
593,727	328,36
593,924	250,53
594,121	178,86
594,318	260,77
594,515	320,17
594,712	391,84
594,908	387,75
595,105	152,23
595,302	363,17
595,499	303,78
595,696	457,38
595,892	182,95
596,089	383,65
596,286	285,35
596,482	363,17
596,679	260,77
596,876	125,61
597,072	268,97
597,269	268,97
597,466	268,97
597,662	238,25
597,859	287,4
598,055	285,35
598,252	309,93
598,448	361,13
598,645	395,94
598,841	320,17
599,038	449,19
599,234	377,51
599,431	299,69
599,627	342,69
599,824	369,32
600,02	277,16
600,217	137,9
600,413	301,73
600,609	250,53
600,806	563,87
601,002	289,45
601,198	211,62
601,395	340,65
601,591	334,5
601,787	289,45
601,984	328,36
602,18	287,4
602,376	363,17
602,572	320,17
602,769	426,66
602,965	318,12
603,161	352,93
603,357	314,02
603,553	432,8
603,75	244,39
603,946	215,72
604,142	311,97
604,338	408,23
604,534	197,29
604,73	297,64
604,926	250,53
605,122	385,7
605,318	293,54
605,514	305,83
605,71	271,01
605,906	422,56
606,102	363,17
606,298	408,23
606,494	354,98
606,69	381,6
606,886	328,36
607,082	271,01
607,278	185
607,474	281,25
607,67	334,5
607,866	215,72
608,062	324,26
608,257	418,47
608,453	217,77
608,649	367,27
608,845	248,49
609,041	236,2
609,236	340,65
609,432	277,16
609,628	393,89
609,824	367,27
610,019	240,3
610,215	258,73
610,411	383,65
610,606	350,89
610,802	260,77
610,998	174,76
611,193	314,02
611,389	285,35
611,584	334,5
611,78	293,54
611,976	297,64
612,171	518,82
612,367	361,13
612,562	369,32
612,758	279,21
612,953	191,14
613,149	252,58
613,344	320,17
613,539	203,43
613,735	367,27
613,93	342,69
614,126	166,57
614,321	328,36
614,517	408,23
614,712	402,08
614,907	410,28
615,103	289,45
615,298	275,11
615,493	187,05
615,688	264,87
615,884	350,89
616,079	256,68
616,274	271,01
616,47	230,06
616,665	191,14
616,86	350,89
617,055	314,02
617,25	201,38
617,445	305,83
617,641	289,45
617,836	273,06
618,031	295,59
618,226	369,32
618,421	424,61
618,616	201,38
618,811	342,69
619,006	275,11
619,201	434,85
619,396	328,36
619,591	242,34
619,786	334,5
619,981	377,51
620,176	371,37
620,371	303,78
620,566	244,39
620,761	367,27
620,956	328,36
621,151	326,31
621,346	268,97
621,541	205,48
621,735	400,04
621,93	248,49
622,125	252,58
622,32	154,28
622,515	135,85
622,709	365,22
622,904	246,44
623,099	252,58
623,294	350,89
623,488	281,25
623,683	301,73
623,878	285,35
624,072	385,7
624,267	285,35
624,462	219,82
624,656	215,72
624,851	346,79
625,046	260,77
625,24	211,62
625,435	354,98
625,629	248,49
625,824	361,13
626,018	369,32
626,213	338,6
626,407	211,62
626,602	340,65
626,796	234,15
626,991	320,17
627,185	279,21
627,38	297,64
627,574	320,17
627,768	340,65
627,963	223,91
628,157	266,92
628,352	301,73
628,546	131,75
628,74	285,35
628,935	258,73
629,129	195,24
629,323	309,93
629,517	213,67
629,712	219,82
629,906	176,81
630,1	326,31
630,294	221,86
630,489	232,1
630,683	152,23
630,877	221,86
631,071	336,55
631,265	166,57
631,459	268,97
631,653	262,82
631,848	309,93
632,042	301,73
632,236	221,86
632,43	359,08
632,624	195,24
632,818	295,59
633,012	252,58
633,206	342,69
633,4	174,76
633,594	252,58
633,788	268,97
633,982	322,21
634,176	408,23
634,369	219,82
634,563	228,01
634,757	62,12
634,951	287,4
635,145	316,07
635,339	135,85
635,533	271,01
635,726	215,72
635,92	228,01
636,114	225,96
636,308	178,86
636,501	334,5
636,695	338,6
636,889	154,28
637,083	328,36
637,276	248,49
637,47	21,16
637,664	197,29
637,857	215,72
638,051	213,67
638,244	289,45
638,438	234,15
638,632	320,17
638,825	156,33
639,019	262,82
639,212	201,38
639,406	334,5
639,599	189,1
639,793	287,4
639,986	228,01
640,18	260,77
640,373	238,25
640,567	191,14
640,76	252,58
640,954	342,69
641,147	170,66
641,34	193,19
641,534	248,49
641,727	236,2
641,92	221,86
642,114	273,06
642,307	252,58
642,5	357,03
642,694	166,57
642,887	242,34
643,08	289,45
643,273	236,2
643,467	195,24
643,66	129,7
643,853	141,99
644,046	252,58
644,239	244,39
644,432	105,13
644,626	82,6
644,819	197,29
645,012	178,86
645,205	207,53
645,398	248,49
645,591	146,09
645,784	174,76
645,977	240,3
646,17	213,67
646,363	252,58
646,556	166,57
646,749	88,75
646,942	156,33
647,135	299,69
647,328	230,06
647,521	289,45
647,714	244,39
647,907	236,2
648,099	160,42
648,292	303,78
648,485	201,38
648,678	84,65
648,871	144,04
649,064	246,44
649,256	6,83
649,449	84,65
649,642	162,47
649,835	137,9
650,027	111,27
650,22	230,06
650,413	217,77
650,605	180,9
650,798	197,29
650,991	152,23
651,183	129,7
651,376	180,9
651,568	209,58
651,761	154,28
651,954	221,86
652,146	72,36
652,339	199,34
652,531	221,86
652,724	148,14
652,916	166,57
653,109	0,68
653,301	234,15
653,494	187,05
653,686	144,04
653,879	213,67
654,071	236,2
654,263	125,61
654,456	105,13
654,648	215,72
654,84	172,71
655,033	166,57
655,225	287,4
655,417	58,03
655,61	307,88
655,802	201,38
655,994	301,73
656,186	58,03
656,379	246,44
656,571	64,17
656,763	103,08
656,955	150,18
657,148	203,43
657,34	271,01
657,532	144,04
657,724	86,7
657,916	164,52
658,108	205,48
658,3	178,86
658,492	266,92
658,684	115,37
658,876	221,86
659,068	60,07
659,26	74,41
659,452	62,12
659,644	191,14
659,836	268,97
660,028	199,34
660,22	232,1
660,412	189,1
660,604	137,9
660,796	182,95
660,988	285,35
661,18	113,32
661,372	240,3
661,563	168,62
661,755	207,53
661,947	37,55
662,139	94,89
662,331	209,58
662,522	96,94
662,714	96,94
662,906	129,7
663,097	158,38
663,289	47,79
663,481	53,93
663,673	135,85
663,864	187,05
664,056	168,62
664,247	94,89
664,439	303,78
664,631	121,51
664,822	166,57
665,014	164,52
665,205	64,17
665,397	94,89
665,588	162,47
665,78	105,13
665,971	244,39
666,163	127,66
666,354	197,29
666,546	131,75
666,737	144,04
666,929	174,76
667,12	92,84
667,311	228,01
667,503	160,42
667,694	199,34
667,885	187,05
668,077	236,2
668,268	-32,08
668,459	129,7
668,651	160,42
668,842	119,46
669,033	88,75
669,224	33,45
669,416	342,69
669,607	135,85
669,798	49,83
669,989	185
670,18	113,32
670,371	279,21
670,563	76,46
670,754	228,01
670,945	180,9
671,136	144,04
671,327	62,12
671,518	244,39
671,709	336,55
671,9	154,28
672,091	262,82
672,282	144,04
672,473	107,18
672,664	105,13
672,855	64,17
673,046	117,42
673,237	180,9
673,428	129,7
673,619	223,91
673,809	80,55
674	172,71
674,191	191,14
674,382	119,46
674,573	189,1
674,764	129,7
674,954	189,1
675,145	88,75
675,336	41,64
675,527	144,04
675,717	45,74
675,908	49,83
676,099	82,6
676,289	150,18
676,48	37,55
676,671	127,66
676,861	76,46
677,052	180,9
677,243	80,55
677,433	2,73
677,624	187,05
677,814	76,46
678,005	53,93
678,195	203,43
678,386	66,22
678,576	33,45
678,767	37,55
678,957	66,22
679,148	129,7
679,338	268,97
679,529	111,27
679,719	64,17
679,909	58,03
680,1	47,79
680,29	225,96
680,481	12,97
680,671	90,79
680,861	123,56
681,052	53,93
681,242	49,83
681,432	115,37
681,622	60,07
681,813	-30,04
682,003	78,51
682,193	-114
682,383	88,75
682,573	101,03
682,764	-5,46
682,954	60,07
683,144	129,7
683,334	19,11
683,524	23,21
683,714	101,03
683,904	90,79
684,094	15,02
684,284	80,55
684,474	160,42
684,664	121,51
684,854	115,37
685,044	96,94
685,234	109,23
685,424	55,98
685,614	117,42
685,804	252,58
685,994	62,12
686,184	64,17
686,374	70,31
686,564	92,84
686,753	121,51
686,943	-23,89
687,133	80,55
687,323	62,12
687,513	146,09
687,702	72,36
687,892	41,64
688,082	158,38
688,272	94,89
688,461	113,32
688,651	232,1
688,841	107,18
689,03	-13,65
689,22	74,41
689,41	4,78
689,599	135,85
689,789	15,02
689,979	133,8
690,168	47,79
690,358	234,15
690,547	90,79
690,737	203,43
690,926	51,88
691,116	158,38
691,305	172,71
691,495	131,75
691,684	-19,8
691,874	2,73
692,063	-11,61
692,252	43,69
692,442	197,29
692,631	-9,56
692,82	21,16
693,01	64,17
693,199	160,42
693,388	178,86
693,578	51,88
693,767	164,52
693,956	129,7
694,146	78,51
694,335	223,91
694,524	98,99
694,713	166,57
694,902	76,46
695,092	84,65
695,281	180,9
695,47	29,35
695,659	82,6
695,848	92,84
696,037	2,73
696,226	221,86
696,415	94,89
696,604	195,24
696,793	162,47
696,982	23,21
697,171	281,25
697,36	55,98
697,549	41,64
697,738	-17,75
697,927	60,07
698,116	-30,04
698,305	160,42
698,494	94,89
698,683	39,59
698,872	213,67
699,061	94,89
699,25	66,22
699,438	113,32
699,627	23,21
699,816	221,86
700,005	-3,41
700,193	-1,37
700,382	172,71
700,571	60,07
700,76	170,66
700,948	86,7
701,137	154,28
701,326	115,37
701,514	-17,75
701,703	119,46
701,892	123,56
702,08	217,77
702,269	-9,56
702,457	47,79
702,646	129,7
702,834	121,51
703,023	139,94
703,212	90,79
703,4	66,22
703,589	76,46
703,777	31,4
703,965	-1,37
704,154	49,83
704,342	12,97
704,531	51,88
704,719	74,41
704,907	88,75
705,096	23,21
705,284	4,78
705,472	127,66
705,661	66,22
705,849	68,27
706,037	154,28
706,226	37,55
706,414	129,7
706,602	12,97
706,79	162,47
706,979	-9,56
707,167	55,98
707,355	-19,8
707,543	39,59
707,731	107,18
707,919	64,17
708,107	88,75
708,296	6,83
708,484	-64,85
708,672	137,9
708,86	197,29
709,048	12,97
709,236	23,21
709,424	129,7
709,612	160,42
709,8	-73,04
709,988	47,79
710,176	166,57
710,364	113,32
710,551	94,89
710,739	51,88
710,927	-40,28
711,115	51,88
711,303	94,89
711,491	254,63
711,679	33,45
711,866	98,99
712,054	41,64
712,242	58,03
712,43	168,62
712,617	39,59
712,805	96,94
712,993	21,16
713,181	-13,65
713,368	55,98
713,556	123,56
713,744	53,93
713,931	213,67
714,119	0,68
714,306	45,74
714,494	35,5
714,682	80,55
714,869	-21,84
715,057	131,75
715,244	-93,52
715,432	12,97
715,619	27,31
715,807	55,98
715,994	31,4
716,182	55,98
716,369	129,7
716,556	41,64
716,744	-7,51
716,931	-19,8
717,119	60,07
717,306	82,6
717,493	141,99
717,681	-7,51
717,868	-25,94
718,055	105,13
718,242	76,46
718,43	29,35
718,617	51,88
718,804	74,41
718,991	101,03
719,179	27,31
719,366	103,08
719,553	105,13
719,74	-1,37
719,927	0,68
720,114	58,03
720,301	-101,72
720,488	-17,75
720,676	-7,51
720,863	141,99
721,05	238,25
721,237	-7,51
721,424	170,66
721,611	39,59
721,798	-99,67
721,985	6,83
722,172	27,31
722,358	-25,94
722,545	121,51
722,732	31,4
722,919	152,23
723,106	76,46
723,293	19,11
723,48	17,07
723,667	-21,84
723,853	125,61
724,04	53,93
724,227	135,85
724,414	6,83
724,6	105,13
724,787	230,06
724,974	160,42
725,161	10,92
725,347	-13,65
725,534	-17,75
725,72	86,7
725,907	148,14
726,094	115,37
726,28	60,07
726,467	33,45
726,653	-23,89
726,84	168,62
727,027	154,28
727,213	66,22
727,4	121,51
727,586	15,02
727,773	117,42
727,959	-15,7
728,145	94,89
728,332	35,5
728,518	-9,56
728,705	121,51
728,891	58,03
729,077	64,17
729,264	-58,71
729,45	-1,37
729,636	105,13
729,823	19,11
730,009	92,84
730,195	115,37
730,382	107,18
730,568	-83,28
730,754	23,21
730,94	58,03
731,126	80,55
731,313	141,99
731,499	-11,61
731,685	74,41
731,871	94,89
732,057	133,8
732,243	178,86
732,429	47,79
732,615	152,23
732,801	115,37
732,987	58,03
733,173	47,79
733,359	-66,9
733,545	88,75
733,731	27,31
733,917	189,1
734,103	31,4
734,289	66,22
734,475	33,45
734,661	213,67
734,847	164,52
735,033	68,27
735,219	162,47
735,404	53,93
735,59	-11,61
735,776	76,46
735,962	21,16
736,148	60,07
736,333	187,05
736,519	60,07
736,705	23,21
736,89	19,11
737,076	19,11
737,262	6,83
737,447	60,07
737,633	-79,19
737,819	150,18
738,004	62,12
738,19	109,23
738,375	84,65
738,561	146,09
738,747	70,31
738,932	-21,84
739,118	189,1
739,303	125,61
739,489	162,47
739,674	8,87
739,859	72,36
740,045	41,64
740,23	131,75
740,416	-66,9
740,601	19,11
740,786	164,52
740,972	-44,37
741,157	-25,94
741,342	62,12
741,528	-17,75
741,713	88,75
741,898	2,73
742,084	78,51
742,269	98,99
742,454	115,37
742,639	86,7
742,824	109,23
743,01	166,57
743,195	180,9
743,38	94,89
743,565	12,97
743,75	115,37
743,935	107,18
744,12	78,51
744,305	-46,42
744,49	31,4
744,675	6,83
744,86	27,31
745,045	43,69
745,23	47,79
745,415	49,83
745,6	195,24
745,785	-50,52
745,97	103,08
746,155	88,75
746,34	156,33
746,525	-3,41
746,71	133,8
746,895	23,21
747,079	-23,89
747,264	33,45
747,449	53,93
747,634	105,13
747,819	39,59
748,003	72,36
748,188	-27,99
748,373	96,94
748,557	64,17
748,742	33,45
748,927	43,69
749,111	55,98
749,296	49,83
749,481	164,52
749,665	72,36
749,85	-42,32
750,034	195,24
750,219	47,79
750,404	23,21
750,588	25,26
750,773	21,16
750,957	17,07
751,141	55,98
751,326	80,55
751,51	-52,56
751,695	101,03
751,879	21,16
752,064	238,25
752,248	86,7
752,432	271,01
752,617	115,37
752,801	103,08
752,985	15,02
753,17	178,86
753,354	109,23
753,538	64,17
753,722	25,26
753,907	45,74
754,091	-25,94
754,275	84,65
754,459	-87,38
754,643	8,87
754,828	43,69
755,012	53,93
755,196	-54,61
755,38	49,83
755,564	92,84
755,748	35,5
755,932	51,88
756,116	119,46
756,3	90,79
756,484	-9,56
756,668	154,28
756,852	-19,8
757,036	62,12
757,22	17,07
757,404	2,73
757,588	39,59
757,772	31,4
757,956	51,88
758,14	209,58
758,323	-34,13
758,507	72,36
758,691	47,79
758,875	92,84
759,059	197,29
759,242	51,88
759,426	41,64
759,61	49,83
759,794	21,16
759,977	154,28
760,161	248,49
760,345	230,06
760,528	115,37
760,712	105,13
760,895	107,18
761,079	6,83
761,263	-68,95
761,446	-13,65
761,63	15,02
761,813	105,13
761,997	-58,71
762,18	82,6
762,364	31,4
762,547	-73,04
762,731	10,92
762,914	117,42
763,098	6,83
763,281	33,45
763,464	15,02
763,648	96,94
763,831	49,83
764,015	-79,19
764,198	115,37
764,381	92,84
764,564	80,55
764,748	70,31
764,931	23,21
765,114	-19,8
765,297	109,23
765,481	-32,08
765,664	-13,65
765,847	27,31
766,03	107,18
766,213	-71
766,397	86,7
766,58	-83,28
766,763	109,23
766,946	2,73
767,129	15,02
767,312	-60,76
767,495	66,22
767,678	-40,28
767,861	66,22
768,044	39,59
768,227	-1,37
768,41	-32,08
768,593	62,12
768,776	74,41
768,959	-58,71
769,142	109,23
769,324	55,98
769,507	72,36
769,69	2,73
769,873	47,79
770,056	316,07
770,239	15,02
770,421	82,6
770,604	76,46
770,787	-3,41
770,97	21,16
771,152	-52,56
771,335	51,88
771,518	33,45
771,7	80,55
771,883	162,47
772,066	29,35
772,248	49,83
772,431	117,42
772,613	62,12
772,796	80,55
772,978	172,71
773,161	156,33
773,343	6,83
773,526	47,79
773,708	-83,28
773,891	-62,8
774,073	23,21
774,256	-1,37
774,438	109,23
774,621	45,74
774,803	121,51
774,985	37,55
775,168	113,32
775,35	8,87
775,532	23,21
775,715	-23,89
775,897	31,4
776,079	-9,56
776,261	58,03
776,444	15,02
776,626	21,16
776,808	23,21
776,99	-62,8
777,173	86,7
777,355	-17,75
777,537	8,87
777,719	68,27
777,901	17,07
778,083	17,07
778,265	-50,52
778,447	139,94
778,629	15,02
778,811	80,55
778,993	62,12
779,175	166,57
779,357	146,09
779,539	-128,34
779,721	58,03
779,903	113,32
780,085	-30,04
780,267	51,88
780,449	109,23
780,631	103,08
780,812	115,37
780,994	68,27
781,176	-32,08
781,358	88,75
781,54	-15,7
781,721	72,36
781,903	131,75
782,085	2,73
782,267	90,79
782,448	-17,75
782,63	-30,04
782,812	70,31
782,993	68,27
783,175	144,04
783,357	6,83
783,538	58,03
783,72	-27,99
783,901	27,31
784,083	60,07
784,264	78,51
784,446	-13,65
784,627	-48,47
784,809	182,95
784,99	8,87
785,172	162,47
785,353	49,83
785,535	35,5
785,716	15,02
785,897	-42,32
786,079	17,07
786,26	31,4
786,441	19,11
786,623	-116,05
786,804	-17,75
786,985	10,92
787,167	119,46
787,348	39,59
787,529	60,07
787,71	232,1
787,891	88,75
788,073	-52,56
788,254	-83,28
788,435	113,32
788,616	127,66
788,797	-42,32
788,978	41,64
789,159	-38,23
789,34	109,23
789,522	58,03
789,703	-81,24
789,884	80,55
790,065	-1,37
790,246	148,14
790,427	55,98
790,607	119,46
790,788	76,46
790,969	-25,94
791,15	4,78
791,331	-27,99
791,512	-9,56
791,693	-75,09
791,874	8,87
792,054	248,49
792,235	107,18
792,416	-30,04
792,597	-17,75
792,778	125,61
792,958	84,65
793,139	72,36
793,32	58,03
793,5	-27,99
793,681	146,09
793,862	66,22
794,042	19,11
794,223	-30,04
794,404	19,11
794,584	-97,62
794,765	47,79
794,945	-21,84
795,126	117,42
795,306	133,8
795,487	8,87
795,667	-75,09
795,848	12,97
796,028	23,21
796,209	23,21
796,389	41,64
796,57	-36,18
796,75	-21,84
796,93	0,68
797,111	-17,75
797,291	17,07
797,471	135,85
797,652	-66,9
797,832	-42,32
798,012	96,94
798,192	-15,7
798,373	-73,04
798,553	98,99
798,733	-25,94
798,913	-9,56
799,093	-111,96
799,274	2,73
799,454	105,13
799,634	182,95
799,814	19,11
799,994	0,68
800,174	125,61
800,354	43,69
800,534	-95,57
800,714	88,75
800,894	-97,62
801,074	-62,8
801,254	-89,43
801,434	146,09
801,614	-1,37
801,794	-142,68
801,974	2282,12
802,154	29,35
802,334	131,75
802,514	-25,94
802,693	74,41
802,873	15,02
803,053	129,7
803,233	88,75
803,413	6,83
803,592	15,02
803,772	-21,84
803,952	62,12
804,131	-124,24
804,311	121,51
804,491	31,4
804,67	-19,8
804,85	-11,61
805,03	43,69
805,209	178,86
805,389	8,87
805,568	-38,23
805,748	2,73
805,928	45,74
806,107	80,55
806,287	0,68
806,466	109,23
806,646	72,36
806,825	37,55
807,004	17,07
807,184	133,8
807,363	88,75
807,543	47,79
807,722	-109,91
807,901	45,74
808,081	21,16
808,26	-132,44
808,439	45,74
808,619	70,31
808,798	-3,41
808,977	39,59
809,156	141,99
809,336	74,41
809,515	94,89
809,694	-1,37
809,873	-95,57
810,052	62,12
810,231	103,08
810,411	41,64
810,59	-13,65
810,769	-21,84
810,948	121,51
811,127	-126,29
811,306	8,87
811,485	-13,65
811,664	121,51
811,843	-30,04
812,022	47,79
812,201	-19,8
812,38	66,22
812,559	-17,75
812,737	117,42
812,916	-44,37
813,095	-83,28
813,274	43,69
813,453	-7,51
813,632	49,83
813,811	88,75
813,989	-50,52
814,168	53,93
814,347	-54,61
814,526	21,16
814,704	162,47
814,883	88,75
815,062	-50,52
815,24	6,83
815,419	-58,71
815,598	74,41
815,776	-56,66
815,955	27,31
816,133	-73,04
816,312	49,83
816,49	-19,8
816,669	31,4
816,847	72,36
817,026	12,97
817,204	-71
817,383	8,87
817,561	-83,28
817,74	6,83
817,918	84,65
818,097	-79,19
818,275	-30,04
818,453	43,69
818,632	98,99
818,81	35,5
818,988	2,73
819,167	-60,76
819,345	-50,52
819,523	-64,85
819,701	45,74
819,879	43,69
820,058	82,6
820,236	-25,94
820,414	47,79
820,592	45,74
820,77	-17,75
820,948	-9,56
821,127	15,02
821,305	37,55
821,483	21,16
821,661	82,6
821,839	31,4
822,017	-85,33
822,195	25,26
822,373	121,51
822,551	23,21
822,729	109,23
822,907	-58,71
823,085	27,31
823,262	115,37
823,44	-50,52
823,618	45,74
823,796	27,31
823,974	2,73
824,152	-109,91
824,329	4,78
824,507	60,07
824,685	101,03
824,863	-7,51
825,04	55,98
825,218	84,65
825,396	-19,8
825,574	58,03
825,751	96,94
825,929	0,68
826,107	-46,42
826,284	0,68
826,462	53,93
826,639	-93,52
826,817	-34,13
826,994	2,73
827,172	-46,42
827,349	74,41
827,527	88,75
827,704	-5,46
827,882	23,21
828,059	41,64
828,237	-11,61
828,414	47,79
828,591	-171,35
828,769	10,92
828,946	-95,57
829,124	154,28
829,301	66,22
829,478	-46,42
829,655	55,98
829,833	98,99
830,01	-132,44
830,187	113,32
830,364	-73,04
830,542	66,22
830,719	207,53
830,896	45,74
831,073	58,03
831,25	103,08
831,427	60,07
831,604	31,4
831,782	-42,32
831,959	-3,41
832,136	-13,65
832,313	66,22
832,49	-42,32
832,667	47,79
832,844	58,03
833,021	205,48
833,198	25,26
833,374	8,87
833,551	41,64
833,728	-79,19
833,905	60,07
834,082	-87,38
834,259	33,45
834,436	152,23
834,612	-3,41
834,789	129,7
834,966	25,26
835,143	25,26
835,319	-40,28
835,496	23,21
835,673	0,68
835,85	41,64
836,026	98,99
836,203	105,13
836,38	-62,8
836,556	-21,84
836,733	55,98
836,909	98,99
837,086	-46,42
837,262	-54,61
837,439	4,78
837,616	60,07
837,792	-118,1
837,968	31,4
838,145	-107,86
838,321	72,36
838,498	-11,61
838,674	64,17
838,851	80,55
839,027	-15,7
839,203	-1,37
839,38	117,42
839,556	45,74
839,732	15,02
839,909	-62,8
840,085	47,79
840,261	-54,61
840,437	-38,23
840,614	-48,47
840,79	86,7
840,966	43,69
841,142	31,4
841,318	4,78
841,494	55,98
841,671	84,65
841,847	-99,67
842,023	-44,37
842,199	96,94
842,375	35,5
842,551	-138,58
842,727	-116,05
842,903	125,61
843,079	-105,81
843,255	29,35
843,431	6,83
843,607	-36,18
843,783	-118,1
843,959	43,69
844,134	-21,84
844,31	90,79
844,486	-27,99
844,662	-3,41
844,838	-17,75
845,013	6,83
845,189	55,98
845,365	25,26
845,541	-1,37
845,716	-15,7
845,892	107,18
846,068	-46,42
846,244	10,92
846,419	82,6
846,595	-52,56
846,77	-56,66
846,946	158,38
847,122	-46,42
847,297	-1,37
847,473	133,8
847,648	-38,23
847,824	35,5
847,999	-79,19
848,175	15,02
848,35	80,55
848,526	113,32
848,701	92,84
848,876	88,75
849,052	74,41
849,227	-1,37
849,403	-73,04
849,578	-34,13
849,753	8,87
849,929	35,5
850,104	-89,43
850,279	15,02
850,454	68,27
850,63	29,35
850,805	31,4
850,98	25,26
851,155	70,31
851,33	15,02
851,505	-77,14
851,681	90,79
851,856	-64,85
852,031	64,17
852,206	45,74
852,381	-34,13
852,556	-3,41
852,731	76,46
852,906	162,47
853,081	-7,51
853,256	123,56
853,431	-48,47
853,606	-91,48
853,781	-79,19
853,956	-197,97
854,131	39,59
854,305	-68,95
854,48	-30,04
854,655	-7,51
854,83	39,59
855,005	12,97
855,18	-9,56
855,354	-17,75
855,529	15,02
855,704	23,21
855,879	33,45
856,053	-50,52
856,228	27,31
856,403	-75,09
856,577	8,87
856,752	-11,61
856,926	41,64
857,101	51,88
857,276	-81,24
857,45	23,21
857,625	68,27
857,799	78,51
857,974	53,93
858,148	-122,2
858,323	17,07
858,497	-40,28
858,672	-66,9
858,846	-71
859,02	78,51
859,195	-107,86
859,369	-56,66
859,543	-3,41
859,718	25,26
859,892	47,79
860,066	15,02
860,241	-91,48
860,415	15,02
860,589	-32,08
860,763	-58,71
860,938	-13,65
861,112	-5,46
861,286	-21,84
861,46	31,4
861,634	19,11
861,808	-15,7
861,982	-46,42
862,157	-52,56
862,331	-83,28
862,505	-58,71
862,679	-144,72
862,853	-79,19
863,027	-50,52
863,201	96,94
863,375	-64,85
863,549	88,75
863,722	64,17
863,896	45,74
864,07	-46,42
864,244	68,27
864,418	25,26
864,592	-75,09
864,766	-52,56
864,939	78,51
865,113	-44,37
865,287	86,7
865,461	-68,95
865,634	37,55
865,808	-7,51
865,982	0,68
866,156	-105,81
866,329	-99,67
866,503	72,36
866,676	72,36
866,85	119,46
867,024	-48,47
867,197	43,69
867,371	2,73
867,544	64,17
867,718	-38,23
867,891	49,83
868,065	-42,32
868,238	-34,13
868,412	92,84
868,585	2,73
868,759	-54,61
868,932	2,73
869,105	-56,66
869,279	105,13
869,452	-114
869,625	43,69
869,799	23,21
869,972	-116,05
870,145	-75,09
870,319	125,61
870,492	-21,84
870,665	-15,7
870,838	-48,47
871,011	-107,86
871,185	8,87
871,358	-15,7
871,531	53,93
871,704	-42,32
871,877	-23,89
872,05	-42,32
872,223	-128,34
872,396	139,94
872,569	60,07
872,742	-42,32
872,915	-42,32
873,088	-71
873,261	-34,13
873,434	90,79
873,607	70,31
873,78	158,38
873,953	-23,89
874,126	-3,41
874,299	23,21
874,471	-66,9
874,644	0,68
874,817	121,51
874,99	166,57
875,163	37,55
875,335	-50,52
875,508	35,5
875,681	66,22
875,853	-83,28
876,026	-7,51
876,199	64,17
876,371	39,59
876,544	-34,13
876,717	23,21
876,889	35,5
877,062	41,64
877,234	-103,76
877,407	-40,28
877,579	-13,65
877,752	17,07
877,924	125,61
878,097	82,6
878,269	-85,33
878,442	96,94
878,614	-19,8
878,786	55,98
878,959	-17,75
879,131	27,31
879,303	-111,96
879,476	33,45
879,648	68,27
879,82	25,26
879,993	-66,9
880,165	-9,56
880,337	-73,04
880,509	-21,84
880,681	-71
880,854	23,21
881,026	131,75
881,198	117,42
881,37	74,41
881,542	88,75
881,714	-11,61
881,886	-42,32
882,058	0,68
882,23	35,5
882,402	-23,89
882,574	49,83
882,746	162,47
882,918	158,38
883,09	80,55
883,262	8,87
883,434	-40,28
883,606	-93,52
883,778	2,73
883,95	70,31
884,122	6,83
884,293	82,6
884,465	121,51
884,637	72,36
884,809	15,02
884,98	-1,37
885,152	58,03
885,324	84,65
885,496	-66,9
885,667	37,55
885,839	-40,28
886,011	84,65
886,182	27,31
886,354	105,13
886,525	80,55
886,697	80,55
886,869	-17,75
887,04	-40,28
887,212	117,42
887,383	187,05
887,555	-25,94
887,726	-27,99
887,897	-5,46
888,069	-1,37
888,24	131,75
888,412	-42,32
888,583	-11,61
888,754	25,26
888,926	-75,09
889,097	12,97
889,268	-103,76
889,44	-3,41
889,611	-54,61
889,782	-122,2
889,953	-40,28
890,125	137,9
890,296	-56,66
890,467	-9,56
890,638	-7,51
890,809	-56,66
890,98	-38,23
891,151	10,92
891,323	80,55
891,494	37,55
891,665	-85,33
891,836	19,11
892,007	2,73
892,178	25,26
892,349	66,22
892,52	-27,99
892,691	82,6
892,862	-25,94
893,032	-173,39
893,203	-32,08
893,374	8,87
893,545	121,51
893,716	-30,04
893,887	64,17
894,057	0,68
894,228	-62,8
894,399	-50,52
894,57	90,79
894,74	15,02
894,911	-5,46
895,082	-89,43
895,253	-25,94
895,423	-7,51
895,594	51,88
895,764	25,26
895,935	-118,1
896,106	78,51
896,276	-30,04
896,447	-36,18
896,617	-64,85
896,788	-116,05
896,958	-81,24
897,129	-46,42
897,299	-27,99
897,47	96,94
897,64	-1,37
897,81	-19,8
897,981	-32,08
898,151	-124,24
898,322	23,21
898,492	6,83
898,662	-79,19
898,832	31,4
899,003	23,21
899,173	68,27
899,343	-71
899,513	-75,09
