Data from laserVert_USB4F104151__8__11-49-23-776.txt Node

Date: Wed Apr 15 11:49:23 EDT 2026
User: LaboPhy
Spectrometer: USB4F10415
Trigger mode: 4
Integration Time (sec): 1,000000E-1
Scans to average: 1
Electric dark correction enabled: true
Nonlinearity correction enabled: false
Boxcar width: 0
XAxis mode: Wavelengths
Number of Pixels in Spectrum: 3648
>>>>>Begin Spectral Data<<<<<
178,204	-428,03
178,424	-428,03
178,644	-428,03
178,864	-479,22
179,084	-438,27
179,304	-43,01
179,524	-16,38
179,744	28,67
179,964	-30,72
180,184	40,96
180,404	14,34
180,624	-88,06
180,844	-8,19
181,064	6,14
181,283	57,34
181,503	-26,62
181,723	65,53
181,943	-81,92
182,163	221,18
182,383	-32,77
182,602	75,77
182,822	176,13
183,042	98,3
183,262	-38,91
183,482	-4,1
183,701	32,77
183,921	116,73
184,141	-53,25
184,361	2,05
184,58	-30,72
184,8	65,53
185,02	-14,34
185,239	155,65
185,459	45,06
185,679	59,39
185,898	-143,36
186,118	4,1
186,338	49,15
186,557	81,92
186,777	-12,29
186,997	34,82
187,216	59,39
187,436	229,37
187,655	43,01
187,875	116,73
188,095	57,34
188,314	151,55
188,534	30,72
188,753	-73,73
188,973	108,54
189,192	198,65
189,412	71,68
189,631	6,14
189,851	-2,05
190,07	153,6
190,29	-98,3
190,509	36,86
190,729	36,86
190,948	155,65
191,168	180,22
191,387	47,1
191,607	16,38
191,826	49,15
192,045	20,48
192,265	-36,86
192,484	110,59
192,704	86,01
192,923	14,34
193,142	126,97
193,362	65,53
193,581	86,01
193,8	112,64
194,02	77,82
194,239	88,06
194,458	73,73
194,678	75,77
194,897	-0
195,116	57,34
195,335	57,34
195,555	69,63
195,774	4,1
195,993	180,22
196,212	53,25
196,432	-45,06
196,651	-18,43
196,87	10,24
197,089	237,56
197,308	43,01
197,528	43,01
197,747	28,67
197,966	77,82
198,185	163,84
198,404	-24,58
198,623	108,54
198,842	122,88
199,062	14,34
199,281	116,73
199,5	61,44
199,719	114,69
199,938	57,34
200,157	8,19
200,376	94,21
200,595	88,06
200,814	75,77
201,033	14,34
201,252	190,46
201,471	83,97
201,69	28,67
201,909	2,05
202,128	102,4
202,347	145,41
202,566	24,58
202,785	-73,73
203,004	-88,06
203,223	272,38
203,442	71,68
203,661	-94,21
203,879	108,54
204,098	147,45
204,317	-63,49
204,536	43,01
204,755	100,35
204,974	112,64
205,193	-16,38
205,411	98,3
205,63	153,6
205,849	75,77
206,068	-0
206,287	-96,25
206,505	118,78
206,724	36,86
206,943	-71,68
207,162	-36,86
207,381	131,07
207,599	61,44
207,818	14,34
208,037	-122,88
208,255	55,3
208,474	51,2
208,693	-28,67
208,911	-14,34
209,13	133,12
209,349	88,06
209,567	28,67
209,786	86,01
210,005	77,82
210,223	20,48
210,442	-90,11
210,661	-18,43
210,879	18,43
211,098	34,82
211,316	-12,29
211,535	16,38
211,753	12,29
211,972	53,25
212,191	-34,82
212,409	81,92
212,628	108,54
212,846	-96,25
213,065	-8,19
213,283	126,97
213,502	47,1
213,72	69,63
213,938	-53,25
214,157	57,34
214,375	131,07
214,594	-94,21
214,812	16,38
215,031	-6,14
215,249	53,25
215,467	12,29
215,686	104,45
215,904	43,01
216,122	65,53
216,341	133,12
216,559	49,15
216,778	124,93
216,996	114,69
217,214	-2,05
217,432	-22,53
217,651	-108,54
217,869	22,53
218,087	-12,29
218,306	-18,43
218,524	-8,19
218,742	30,72
218,96	143,36
219,179	10,24
219,397	-0
219,615	284,67
219,833	114,69
220,051	-14,34
220,27	135,17
220,488	180,22
220,706	45,06
220,924	-2,05
221,142	24,58
221,36	59,39
221,578	55,3
221,796	2,05
222,015	18,43
222,233	65,53
222,451	153,6
222,669	-0
222,887	120,83
223,105	26,62
223,323	-0
223,541	-40,96
223,759	71,68
223,977	4,1
224,195	176,13
224,413	20,48
224,631	24,58
224,849	24,58
225,067	202,75
225,285	49,15
225,503	-61,44
225,721	-45,06
225,939	40,96
226,157	-32,77
226,375	159,74
226,592	-22,53
226,81	-28,67
227,028	145,41
227,246	53,25
227,464	-14,34
227,682	92,16
227,9	81,92
228,117	88,06
228,335	135,17
228,553	71,68
228,771	-38,91
228,989	-32,77
229,206	124,93
229,424	18,43
229,642	40,96
229,86	-81,92
230,077	143,36
230,295	81,92
230,513	59,39
230,731	14,34
230,948	139,26
231,166	157,69
231,384	75,77
231,601	-90,11
231,819	206,84
232,037	-40,96
232,254	-40,96
232,472	16,38
232,689	-4,1
232,907	92,16
233,125	-61,44
233,342	-14,34
233,56	-55,3
233,777	4,1
233,995	40,96
234,213	114,69
234,43	110,59
234,648	100,35
234,865	-0
235,083	88,06
235,3	118,78
235,518	94,21
235,735	34,82
235,953	112,64
236,17	16,38
236,388	34,82
236,605	65,53
236,822	110,59
237,04	151,55
237,257	98,3
237,475	34,82
237,692	71,68
237,909	30,72
238,127	38,91
238,344	26,62
238,562	57,34
238,779	-32,77
238,996	-73,73
239,214	14,34
239,431	108,54
239,648	-2,05
239,865	90,11
240,083	71,68
240,3	-38,91
240,517	-12,29
240,735	-49,15
240,952	104,45
241,169	40,96
241,386	157,69
241,603	-12,29
241,821	-53,25
242,038	67,58
242,255	112,64
242,472	32,77
242,689	-16,38
242,907	59,39
243,124	-14,34
243,341	-2,05
243,558	-4,1
243,775	-102,4
243,992	-30,72
244,209	141,31
244,426	124,93
244,643	40,96
244,86	30,72
245,078	63,49
245,295	26,62
245,512	-4,1
245,729	-6,14
245,946	57,34
246,163	30,72
246,38	-24,58
246,597	79,87
246,814	139,26
247,031	63,49
247,248	-2,05
247,464	114,69
247,681	40,96
247,898	90,11
248,115	51,2
248,332	-8,19
248,549	194,56
248,766	83,97
248,983	26,62
249,2	90,11
249,417	94,21
249,633	-45,06
249,85	32,77
250,067	59,39
250,284	-61,44
250,501	81,92
250,717	2,05
250,934	-36,86
251,151	51,2
251,368	-16,38
251,585	75,77
251,801	12,29
252,018	-77,82
252,235	67,58
252,451	-77,82
252,668	4,1
252,885	126,97
253,102	51,2
253,318	20,48
253,535	38,91
253,752	30,72
253,968	-20,48
254,185	-106,49
254,401	102,4
254,618	61,44
254,835	8,19
255,051	75,77
255,268	88,06
255,484	22,53
255,701	110,59
255,917	49,15
256,134	-65,54
256,351	24,58
256,567	-38,91
256,784	-30,72
257	-163,84
257,217	131,07
257,433	133,12
257,65	12,29
257,866	108,54
258,082	-49,15
258,299	-32,77
258,515	67,58
258,732	10,24
258,948	20,48
259,165	32,77
259,381	-40,96
259,597	71,68
259,814	53,25
260,03	-45,06
260,246	69,63
260,463	186,37
260,679	172,03
260,895	79,87
261,112	30,72
261,328	38,91
261,544	-36,86
261,761	94,21
261,977	61,44
262,193	-71,68
262,409	112,64
262,626	38,91
262,842	14,34
263,058	-71,68
263,274	92,16
263,49	110,59
263,707	40,96
263,923	100,35
264,139	-63,49
264,355	40,96
264,571	122,88
264,787	59,39
265,004	98,3
265,22	43,01
265,436	-24,58
265,652	18,43
265,868	40,96
266,084	-112,64
266,3	-6,14
266,516	-16,38
266,732	40,96
266,948	75,77
267,164	32,77
267,38	102,4
267,596	165,89
267,812	186,37
268,028	16,38
268,244	10,24
268,46	116,73
268,676	-4,1
268,892	100,35
269,108	-67,58
269,324	-53,25
269,54	-71,68
269,756	139,26
269,972	-59,39
270,188	-0
270,403	-79,87
270,619	24,58
270,835	83,97
271,051	67,58
271,267	-53,25
271,483	28,67
271,698	86,01
271,914	96,25
272,13	43,01
272,346	36,86
272,562	67,58
272,777	159,74
272,993	-14,34
273,209	108,54
273,425	106,49
273,64	-98,3
273,856	67,58
274,072	47,1
274,287	-12,29
274,503	53,25
274,719	51,2
274,934	-4,1
275,15	-40,96
275,366	22,53
275,581	-43,01
275,797	-8,19
276,012	38,91
276,228	38,91
276,444	49,15
276,659	96,25
276,875	-65,54
277,09	61,44
277,306	49,15
277,521	45,06
277,737	49,15
277,952	141,31
278,168	100,35
278,383	49,15
278,599	69,63
278,814	40,96
279,03	61,44
279,245	98,3
279,461	24,58
279,676	104,45
279,892	-0
280,107	-16,38
280,322	-10,24
280,538	122,88
280,753	18,43
280,969	-8,19
281,184	-4,1
281,399	139,26
281,615	102,4
281,83	137,21
282,045	-55,3
282,26	61,44
282,476	43,01
282,691	106,49
282,906	69,63
283,122	53,25
283,337	-18,43
283,552	8,19
283,767	-6,14
283,983	114,69
284,198	-32,77
284,413	28,67
284,628	-96,25
284,843	-2,05
285,058	65,53
285,274	-22,53
285,489	51,2
285,704	65,53
285,919	-28,67
286,134	4,1
286,349	-14,34
286,564	24,58
286,779	188,41
286,995	-73,73
287,21	-86,01
287,425	20,48
287,64	-12,29
287,855	81,92
288,07	-92,16
288,285	110,59
288,5	139,26
288,715	12,29
288,93	26,62
289,145	-0
289,36	69,63
289,575	2,05
289,79	116,73
290,004	22,53
290,219	67,58
290,434	-2,05
290,649	-10,24
290,864	12,29
291,079	34,82
291,294	20,48
291,509	40,96
291,724	71,68
291,938	-2,05
292,153	79,87
292,368	-16,38
292,583	71,68
292,798	53,25
293,012	108,54
293,227	45,06
293,442	-65,54
293,657	98,3
293,871	106,49
294,086	65,53
294,301	135,17
294,516	73,73
294,73	38,91
294,945	4,1
295,16	106,49
295,374	69,63
295,589	118,78
295,804	-59,39
296,018	10,24
296,233	100,35
296,447	141,31
296,662	-28,67
296,877	139,26
297,091	32,77
297,306	-14,34
297,52	38,91
297,735	100,35
297,949	24,58
298,164	86,01
298,378	6,14
298,593	-77,82
298,807	14,34
299,022	-0
299,236	169,98
299,451	65,53
299,665	45,06
299,88	-18,43
300,094	75,77
300,309	20,48
300,523	92,16
300,737	-16,38
300,952	67,58
301,166	40,96
301,381	-4,1
301,595	-26,62
301,809	118,78
302,024	59,39
302,238	67,58
302,452	112,64
302,667	-2,05
302,881	120,83
303,095	122,88
303,309	112,64
303,524	16,38
303,738	32,77
303,952	-26,62
304,166	18,43
304,381	-133,12
304,595	196,6
304,809	-36,86
305,023	73,73
305,237	20,48
305,452	-55,3
305,666	172,03
305,88	88,06
306,094	94,21
306,308	81,92
306,522	106,49
306,736	81,92
306,95	83,97
307,164	-18,43
307,379	-49,15
307,593	190,46
307,807	43,01
308,021	112,64
308,235	153,6
308,449	-106,49
308,663	49,15
308,877	243,71
309,091	-0
309,305	53,25
309,519	-90,11
309,733	108,54
309,947	-63,49
310,161	63,49
310,374	24,58
310,588	163,84
310,802	-65,54
311,016	-0
311,23	71,68
311,444	-6,14
311,658	34,82
311,872	141,31
312,085	118,78
312,299	131,07
312,513	88,06
312,727	32,77
312,941	2,05
313,154	8,19
313,368	102,4
313,582	43,01
313,796	65,53
314,009	104,45
314,223	169,98
314,437	16,38
314,651	73,73
314,864	-18,43
315,078	53,25
315,292	-8,19
315,505	49,15
315,719	133,12
315,933	49,15
316,146	-90,11
316,36	-86,01
316,573	90,11
316,787	65,53
317,001	32,77
317,214	-114,69
317,428	79,87
317,641	-77,82
317,855	36,86
318,068	20,48
318,282	-0
318,495	270,33
318,709	30,72
318,922	-14,34
319,136	100,35
319,349	75,77
319,563	-36,86
319,776	69,63
319,99	-81,92
320,203	63,49
320,417	-49,15
320,63	116,73
320,843	163,84
321,057	45,06
321,27	-12,29
321,483	118,78
321,697	102,4
321,91	77,82
322,124	108,54
322,337	65,53
322,55	24,58
322,763	-26,62
322,977	-6,14
323,19	12,29
323,403	-24,58
323,617	114,69
323,83	57,34
324,043	-10,24
324,256	32,77
324,469	-51,2
324,683	143,36
324,896	-18,43
325,109	-4,1
325,322	-47,1
325,535	53,25
325,748	112,64
325,962	79,87
326,175	77,82
326,388	-0
326,601	163,84
326,814	24,58
327,027	43,01
327,24	157,69
327,453	-147,45
327,666	40,96
327,879	149,5
328,092	65,53
328,305	81,92
328,518	-55,3
328,731	-45,06
328,944	-4,1
329,157	90,11
329,37	2,05
329,583	135,17
329,796	83,97
330,009	-71,68
330,222	186,37
330,435	55,3
330,648	28,67
330,861	32,77
331,073	122,88
331,286	102,4
331,499	73,73
331,712	-14,34
331,925	38,91
332,138	96,25
332,35	100,35
332,563	-10,24
332,776	133,12
332,989	-34,82
333,202	-28,67
333,414	-38,91
333,627	49,15
333,84	-8,19
334,053	83,97
334,265	-20,48
334,478	26,62
334,691	-30,72
334,903	26,62
335,116	-6,14
335,329	-16,38
335,541	81,92
335,754	151,55
335,966	-24,58
336,179	-10,24
336,392	-8,19
336,604	6,14
336,817	116,73
337,029	71,68
337,242	71,68
337,454	77,82
337,667	49,15
337,88	155,65
338,092	120,83
338,305	108,54
338,517	-59,39
338,729	61,44
338,942	110,59
339,154	8,19
339,367	-59,39
339,579	30,72
339,792	-28,67
340,004	114,69
340,217	-61,44
340,429	92,16
340,641	-22,53
340,854	-34,82
341,066	-18,43
341,278	102,4
341,491	135,17
341,703	34,82
341,915	-18,43
342,128	126,97
342,34	83,97
342,552	-6,14
342,764	43,01
342,977	14,34
343,189	67,58
343,401	79,87
343,613	-55,3
343,826	-10,24
344,038	-2,05
344,25	10,24
344,462	-12,29
344,674	20,48
344,886	-10,24
345,099	92,16
345,311	53,25
345,523	26,62
345,735	-88,06
345,947	75,77
346,159	-6,14
346,371	-18,43
346,583	16,38
346,795	251,9
347,007	24,58
347,219	86,01
347,431	96,25
347,643	98,3
347,855	4,1
348,067	163,84
348,279	-59,39
348,491	-24,58
348,703	73,73
348,915	36,86
349,127	-12,29
349,339	28,67
349,551	-8,19
349,763	106,49
349,975	-53,25
350,187	172,03
350,399	131,07
350,61	116,73
350,822	-73,73
351,034	114,69
351,246	88,06
351,458	94,21
351,669	114,69
351,881	110,59
352,093	61,44
352,305	100,35
352,517	34,82
352,728	145,41
352,94	139,26
353,152	141,31
353,363	-75,77
353,575	65,53
353,787	172,03
353,999	102,4
354,21	151,55
354,422	-8,19
354,633	45,06
354,845	12,29
355,057	24,58
355,268	40,96
355,48	106,49
355,692	-71,68
355,903	14,34
356,115	-22,53
356,326	-108,54
356,538	169,98
356,749	94,21
356,961	182,27
357,172	-18,43
357,384	-212,99
357,595	198,65
357,807	-0
358,018	-36,86
358,23	-8,19
358,441	116,73
358,653	20,48
358,864	22,53
359,075	2,05
359,287	49,15
359,498	49,15
359,709	63,49
359,921	-28,67
360,132	116,73
360,344	-51,2
360,555	-14,34
360,766	61,44
360,977	40,96
361,189	43,01
361,4	-79,87
361,611	63,49
361,823	88,06
362,034	-32,77
362,245	-63,49
362,456	24,58
362,667	69,63
362,879	4,1
363,09	4,1
363,301	55,3
363,512	-20,48
363,723	34,82
363,935	-51,2
364,146	57,34
364,357	20,48
364,568	40,96
364,779	-6,14
364,99	122,88
365,201	30,72
365,412	124,93
365,623	-36,86
365,834	40,96
366,045	24,58
366,256	108,54
366,467	108,54
366,678	38,91
366,889	69,63
367,1	-18,43
367,311	190,46
367,522	-45,06
367,733	114,69
367,944	-55,3
368,155	34,82
368,366	165,89
368,577	98,3
368,788	141,31
368,999	40,96
369,209	67,58
369,42	102,4
369,631	276,48
369,842	61,44
370,053	-22,53
370,264	147,45
370,474	6,14
370,685	51,2
370,896	-22,53
371,107	145,41
371,317	-18,43
371,528	-28,67
371,739	57,34
371,95	18,43
372,16	65,53
372,371	-14,34
372,582	16,38
372,792	96,25
373,003	40,96
373,214	67,58
373,424	114,69
373,635	34,82
373,846	65,53
374,056	10,24
374,267	145,41
374,477	45,06
374,688	-0
374,898	83,97
375,109	108,54
375,319	102,4
375,53	172,03
375,74	40,96
375,951	-45,06
376,161	59,39
376,372	124,93
376,582	10,24
376,793	141,31
377,003	-57,34
377,214	-67,58
377,424	38,91
377,635	18,43
377,845	32,77
378,055	114,69
378,266	-106,49
378,476	-8,19
378,686	28,67
378,897	18,43
379,107	79,87
379,317	-10,24
379,528	34,82
379,738	45,06
379,948	-90,11
380,158	108,54
380,369	-67,58
380,579	53,25
380,789	-2,05
380,999	145,41
381,21	90,11
381,42	184,32
381,63	45,06
381,84	86,01
382,05	40,96
382,261	73,73
382,471	139,26
382,681	-16,38
382,891	217,08
383,101	51,2
383,311	-12,29
383,521	40,96
383,731	98,3
383,941	120,83
384,151	43,01
384,361	-49,15
384,571	45,06
384,781	47,1
384,991	174,08
385,201	270,33
385,411	43,01
385,621	57,34
385,831	-12,29
386,041	14,34
386,251	28,67
386,461	110,59
386,671	-10,24
386,881	-45,06
387,091	2,05
387,301	102,4
387,511	81,92
387,72	122,88
387,93	57,34
388,14	-73,73
388,35	-0
388,56	159,74
388,769	88,06
388,979	40,96
389,189	26,62
389,399	6,14
389,609	55,3
389,818	40,96
390,028	49,15
390,238	81,92
390,447	-81,92
390,657	-43,01
390,867	-2,05
391,076	-63,49
391,286	71,68
391,496	-0
391,705	75,77
391,915	137,21
392,125	129,02
392,334	-90,11
392,544	143,36
392,753	32,77
392,963	6,14
393,172	26,62
393,382	-61,44
393,591	204,8
393,801	-61,44
394,01	178,17
394,22	59,39
394,429	8,19
394,639	-14,34
394,848	71,68
395,058	88,06
395,267	4,1
395,477	98,3
395,686	-4,1
395,895	272,38
396,105	198,65
396,314	43,01
396,524	36,86
396,733	-63,49
396,942	114,69
397,152	47,1
397,361	63,49
397,57	26,62
397,78	53,25
397,989	79,87
398,198	188,41
398,407	122,88
398,617	12,29
398,826	26,62
399,035	24,58
399,244	67,58
399,453	81,92
399,663	86,01
399,872	67,58
400,081	4,1
400,29	90,11
400,499	-83,97
400,708	81,92
400,917	2,05
401,127	69,63
401,336	-53,25
401,545	210,94
401,754	143,36
401,963	38,91
402,172	16,38
402,381	-79,87
402,59	-24,58
402,799	32,77
403,008	88,06
403,217	73,73
403,426	83,97
403,635	-83,97
403,844	-53,25
404,053	-49,15
404,262	-2,05
404,471	229,37
404,68	16,38
404,888	-30,72
405,097	-22,53
405,306	4,1
405,515	131,07
405,724	-38,91
405,933	108,54
406,142	-10,24
406,35	114,69
406,559	131,07
406,768	90,11
406,977	190,46
407,185	36,86
407,394	57,34
407,603	-75,77
407,812	43,01
408,02	120,83
408,229	-28,67
408,438	69,63
408,646	-120,83
408,855	32,77
409,064	118,78
409,272	32,77
409,481	73,73
409,69	-63,49
409,898	-30,72
410,107	81,92
410,315	40,96
410,524	-71,68
410,733	10,24
410,941	-30,72
411,15	94,21
411,358	106,49
411,567	194,56
411,775	32,77
411,984	6,14
412,192	174,08
412,401	-32,77
412,609	178,17
412,818	139,26
413,026	88,06
413,234	4,1
413,443	8,19
413,651	-75,77
413,86	75,77
414,068	114,69
414,276	143,36
414,485	8,19
414,693	114,69
414,901	112,64
415,11	34,82
415,318	102,4
415,526	71,68
415,734	143,36
415,943	10,24
416,151	161,79
416,359	-38,91
416,567	114,69
416,776	122,88
416,984	-4,1
417,192	217,08
417,4	-57,34
417,608	63,49
417,817	-57,34
418,025	2,05
418,233	155,65
418,441	57,34
418,649	-73,73
418,857	155,65
419,065	137,21
419,273	-47,1
419,481	81,92
419,689	16,38
419,897	-18,43
420,105	2,05
420,313	126,97
420,521	133,12
420,729	49,15
420,937	-8,19
421,145	-71,68
421,353	129,02
421,561	139,26
421,769	18,43
421,977	-16,38
422,185	92,16
422,393	8,19
422,601	63,49
422,809	135,17
423,017	38,91
423,224	18,43
423,432	147,45
423,64	30,72
423,848	124,93
424,056	90,11
424,263	112,64
424,471	-0
424,679	92,16
424,887	-69,63
425,094	45,06
425,302	129,02
425,51	-14,34
425,718	126,97
425,925	59,39
426,133	-4,1
426,341	75,77
426,548	22,53
426,756	36,86
426,964	90,11
427,171	-75,77
427,379	55,3
427,586	24,58
427,794	114,69
428,001	75,77
428,209	-12,29
428,417	149,5
428,624	67,58
428,832	16,38
429,039	40,96
429,247	49,15
429,454	12,29
429,662	149,5
429,869	61,44
430,076	2,05
430,284	108,54
430,491	92,16
430,699	104,45
430,906	196,6
431,114	49,15
431,321	118,78
431,528	20,48
431,736	153,6
431,943	114,69
432,15	40,96
432,358	71,68
432,565	178,17
432,772	-106,49
432,979	81,92
433,187	83,97
433,394	73,73
433,601	10,24
433,808	114,69
434,016	145,41
434,223	67,58
434,43	34,82
434,637	118,78
434,844	165,89
435,052	100,35
435,259	71,68
435,466	61,44
435,673	61,44
435,88	81,92
436,087	167,93
436,294	131,07
436,501	135,17
436,708	65,53
436,915	38,91
437,122	81,92
437,329	-30,72
437,537	-28,67
437,743	118,78
437,95	245,76
438,157	69,63
438,364	40,96
438,571	61,44
438,778	104,45
438,985	114,69
439,192	116,73
439,399	16,38
439,606	51,2
439,813	141,31
440,02	165,89
440,227	311,29
440,433	163,84
440,64	49,15
440,847	51,2
441,054	149,5
441,261	141,31
441,467	49,15
441,674	65,53
441,881	77,82
442,088	69,63
442,294	98,3
442,501	135,17
442,708	172,03
442,914	67,58
443,121	129,02
443,328	92,16
443,534	120,83
443,741	116,73
443,948	32,77
444,154	45,06
444,361	378,87
444,568	55,3
444,774	22,53
444,981	71,68
445,187	280,57
445,394	102,4
445,6	-10,24
445,807	65,53
446,013	126,97
446,22	32,77
446,426	96,25
446,633	165,89
446,839	208,89
447,046	2,05
447,252	180,22
447,459	81,92
447,665	77,82
447,871	133,12
448,078	249,85
448,284	188,41
448,491	198,65
448,697	126,97
448,903	206,84
449,11	79,87
449,316	90,11
449,522	206,84
449,728	120,83
449,935	126,97
450,141	86,01
450,347	212,99
450,553	149,5
450,76	147,45
450,966	137,21
451,172	215,04
451,378	145,41
451,584	90,11
451,791	223,23
451,997	129,02
452,203	116,73
452,409	219,13
452,615	219,13
452,821	96,25
453,027	49,15
453,233	307,2
453,44	172,03
453,646	116,73
453,852	137,21
454,058	126,97
454,264	147,45
454,47	165,89
454,676	153,6
454,882	178,17
455,088	196,6
455,294	167,93
455,5	174,08
455,705	212,99
455,911	131,07
456,117	106,49
456,323	237,56
456,529	212,99
456,735	174,08
456,941	227,32
457,147	223,23
457,352	192,51
457,558	116,73
457,764	180,22
457,97	151,55
458,176	184,32
458,381	139,26
458,587	258,04
458,793	116,73
458,999	145,41
459,204	147,45
459,41	163,84
459,616	169,98
459,821	223,23
460,027	45,06
460,233	196,6
460,438	172,03
460,644	126,97
460,85	98,3
461,055	172,03
461,261	223,23
461,466	133,12
461,672	108,54
461,878	108,54
462,083	229,37
462,289	47,1
462,494	73,73
462,7	180,22
462,905	135,17
463,111	200,7
463,316	192,51
463,522	180,22
463,727	139,26
463,932	139,26
464,138	180,22
464,343	188,41
464,549	208,89
464,754	276,48
464,959	200,7
465,165	90,11
465,37	124,93
465,575	186,37
465,781	106,49
465,986	155,65
466,191	137,21
466,397	270,33
466,602	196,6
466,807	116,73
467,012	303,1
467,218	212,99
467,423	225,28
467,628	102,4
467,833	126,97
468,038	120,83
468,244	61,44
468,449	172,03
468,654	73,73
468,859	147,45
469,064	55,3
469,269	67,58
469,474	153,6
469,679	282,62
469,885	188,41
470,09	122,88
470,295	96,25
470,5	149,5
470,705	272,38
470,91	145,41
471,115	184,32
471,32	94,21
471,525	268,28
471,73	264,19
471,935	120,83
472,139	69,63
472,344	24,58
472,549	212,99
472,754	90,11
472,959	161,79
473,164	100,35
473,369	129,02
473,574	223,23
473,778	153,6
473,983	210,94
474,188	163,84
474,393	112,64
474,598	108,54
474,802	81,92
475,007	79,87
475,212	262,14
475,417	100,35
475,621	245,76
475,826	126,97
476,031	141,31
476,235	133,12
476,44	167,93
476,645	167,93
476,849	120,83
477,054	65,53
477,259	67,58
477,463	204,8
477,668	307,2
477,872	229,37
478,077	190,46
478,282	71,68
478,486	194,56
478,691	192,51
478,895	96,25
479,1	219,13
479,304	278,52
479,509	108,54
479,713	198,65
479,918	167,93
480,122	116,73
480,326	133,12
480,531	137,21
480,735	100,35
480,94	182,27
481,144	247,8
481,348	133,12
481,553	198,65
481,757	94,21
481,961	126,97
482,166	120,83
482,37	77,82
482,574	163,84
482,778	-4,1
482,983	141,31
483,187	59,39
483,391	149,5
483,595	206,84
483,8	225,28
484,004	206,84
484,208	167,93
484,412	243,71
484,616	192,51
484,821	163,84
485,025	86,01
485,229	40,96
485,433	182,27
485,637	65,53
485,841	161,79
486,045	241,66
486,249	268,28
486,453	196,6
486,657	45,06
486,861	-14,34
487,065	182,27
487,269	114,69
487,473	116,73
487,677	227,32
487,881	342,01
488,085	198,65
488,289	167,93
488,493	229,37
488,697	221,18
488,901	180,22
489,105	102,4
489,309	106,49
489,512	247,8
489,716	192,51
489,92	116,73
490,124	116,73
490,328	286,72
490,531	163,84
490,735	98,3
490,939	67,58
491,143	77,82
491,346	247,8
491,55	135,17
491,754	124,93
491,958	163,84
492,161	192,51
492,365	143,36
492,569	61,44
492,772	172,03
492,976	301,05
493,18	157,69
493,383	184,32
493,587	192,51
493,79	202,75
493,994	100,35
494,197	165,89
494,401	182,27
494,605	157,69
494,808	126,97
495,012	165,89
495,215	299
495,419	188,41
495,622	88,06
495,825	153,6
496,029	155,65
496,232	237,56
496,436	135,17
496,639	118,78
496,843	131,07
497,046	90,11
497,249	290,81
497,453	180,22
497,656	135,17
497,859	79,87
498,063	188,41
498,266	172,03
498,469	94,21
498,673	167,93
498,876	174,08
499,079	81,92
499,282	157,69
499,485	391,16
499,689	155,65
499,892	221,18
500,095	233,47
500,298	190,46
500,501	116,73
500,705	124,93
500,908	112,64
501,111	100,35
501,314	299
501,517	272,38
501,72	151,55
501,923	172,03
502,126	92,16
502,329	212,99
502,532	184,32
502,735	258,04
502,938	276,48
503,141	278,52
503,344	122,88
503,547	305,15
503,75	110,59
503,953	75,77
504,156	237,56
504,359	204,8
504,562	165,89
504,765	196,6
504,968	262,14
505,17	202,75
505,373	253,95
505,576	270,33
505,779	184,32
505,982	129,02
506,185	145,41
506,387	212,99
506,59	307,2
506,793	141,31
506,996	286,72
507,198	331,77
507,401	425,98
507,604	335,87
507,807	221,18
508,009	192,51
508,212	344,06
508,415	143,36
508,617	235,52
508,82	245,76
509,022	301,05
509,225	344,06
509,428	157,69
509,63	262,14
509,833	258,04
510,035	450,55
510,238	294,91
510,44	196,6
510,643	331,77
510,845	374,78
511,048	380,92
511,25	315,39
511,453	303,1
511,655	335,87
511,858	393,21
512,06	468,98
512,262	239,61
512,465	313,34
512,667	301,05
512,87	278,52
513,072	464,89
513,274	303,1
513,477	192,51
513,679	260,09
513,881	249,85
514,084	231,42
514,286	385,02
514,488	294,91
514,69	221,18
514,893	231,42
515,095	241,66
515,297	172,03
515,499	274,43
515,701	180,22
515,904	348,15
516,106	382,97
516,308	346,11
516,51	212,99
516,712	280,57
516,914	301,05
517,116	264,19
517,318	237,56
517,52	331,77
517,722	290,81
517,925	229,37
518,127	266,24
518,329	419,83
518,531	90,11
518,733	280,57
518,935	194,56
519,136	333,82
519,338	251,9
519,54	278,52
519,742	348,15
519,944	352,25
520,146	352,25
520,348	335,87
520,55	407,55
520,752	215,04
520,954	225,28
521,155	225,28
521,357	342,01
521,559	350,2
521,761	368,63
521,963	346,11
522,164	327,67
522,366	331,77
522,568	378,87
522,77	364,54
522,971	350,2
523,173	198,65
523,375	401,4
523,576	307,2
523,778	231,42
523,98	339,96
524,181	325,63
524,383	391,16
524,584	303,1
524,786	278,52
524,988	239,61
525,189	288,76
525,391	331,77
525,592	278,52
525,794	249,85
525,995	256
526,197	360,44
526,398	583,67
526,6	329,72
526,801	423,93
527,003	258,04
527,204	311,29
527,406	419,83
527,607	421,88
527,808	348,15
528,01	356,35
528,211	419,83
528,412	380,92
528,614	454,65
528,815	446,46
529,016	493,56
529,218	432,12
529,419	438,27
529,62	376,83
529,822	552,95
530,023	628,73
530,224	876,53
530,425	1341,42
530,626	2203,61
530,828	3407,82
531,029	5132,21
531,23	8456,06
531,431	13535,03
531,632	20391,62
531,833	28622,41
532,035	39005,61
532,236	48932,12
532,437	57549,97
532,638	62547,01
532,839	63638,58
533,04	63638,58
533,241	63638,58
533,442	63638,58
533,643	63638,58
533,844	63638,58
534,045	63638,58
534,246	63638,58
534,447	53302,48
534,648	41229,71
534,849	34639,34
535,05	28001,88
535,251	22867,62
535,451	18188,01
535,652	14550,82
535,853	11157,33
536,054	8339,33
536,255	5584,81
536,456	3772,36
536,657	2473,95
536,857	1679,33
537,058	1173,49
537,259	978,93
537,46	747,51
537,66	598,01
537,861	626,68
538,062	511,99
538,263	217,08
538,463	438,27
538,664	401,4
538,865	311,29
539,065	450,55
539,266	401,4
539,466	253,95
539,667	473,08
539,868	319,48
540,068	362,49
540,269	380,92
540,469	329,72
540,67	403,45
540,87	368,63
541,071	303,1
541,271	335,87
541,472	417,79
541,672	460,79
541,873	286,72
542,073	274,43
542,274	368,63
542,474	385,02
542,675	409,59
542,875	325,63
543,075	215,04
543,276	212,99
543,476	217,08
543,676	313,34
543,877	169,98
544,077	368,63
544,277	391,16
544,478	167,93
544,678	309,24
544,878	327,67
545,078	335,87
545,279	276,48
545,479	137,21
545,679	233,47
545,879	231,42
546,079	270,33
546,28	147,45
546,48	223,23
546,68	430,07
546,88	307,2
547,08	157,69
547,28	405,5
547,48	206,84
547,68	368,63
547,88	315,39
548,081	335,87
548,281	172,03
548,481	274,43
548,681	294,91
548,881	311,29
549,081	274,43
549,28	286,72
549,48	204,8
549,68	323,58
549,88	303,1
550,08	157,69
550,28	174,08
550,48	380,92
550,68	235,52
550,88	272,38
551,08	219,13
551,279	368,63
551,479	294,91
551,679	434,17
551,879	253,95
552,079	288,76
552,278	329,72
552,478	460,79
552,678	333,82
552,878	311,29
553,077	247,8
553,277	243,71
553,477	253,95
553,676	323,58
553,876	286,72
554,076	294,91
554,275	344,06
554,475	227,32
554,674	385,02
554,874	253,95
555,074	161,79
555,273	278,52
555,473	198,65
555,672	231,42
555,872	280,57
556,071	323,58
556,271	290,81
556,47	327,67
556,67	307,2
556,869	329,72
557,068	229,37
557,268	286,72
557,467	286,72
557,667	368,63
557,866	317,44
558,065	303,1
558,265	221,18
558,464	231,42
558,663	262,14
558,863	256
559,062	299
559,261	266,24
559,461	276,48
559,66	247,8
559,859	204,8
560,058	212,99
560,258	151,55
560,457	221,18
560,656	360,44
560,855	149,5
561,054	286,72
561,253	352,25
561,453	241,66
561,652	262,14
561,851	372,73
562,05	233,47
562,249	106,49
562,448	299
562,647	90,11
562,846	258,04
563,045	331,77
563,244	200,7
563,443	272,38
563,642	235,52
563,841	323,58
564,04	362,49
564,239	229,37
564,438	301,05
564,637	143,36
564,836	241,66
565,035	237,56
565,234	163,84
565,432	325,63
565,631	313,34
565,83	286,72
566,029	276,48
566,228	270,33
566,427	325,63
566,625	159,74
566,824	253,95
567,023	258,04
567,222	389,11
567,42	227,32
567,619	233,47
567,818	241,66
568,016	452,6
568,215	247,8
568,414	344,06
568,612	251,9
568,811	286,72
569,01	212,99
569,208	247,8
569,407	272,38
569,605	258,04
569,804	172,03
570,002	319,48
570,201	176,13
570,4	294,91
570,598	198,65
570,797	280,57
570,995	178,17
571,193	210,94
571,392	305,15
571,59	212,99
571,789	305,15
571,987	292,86
572,186	419,83
572,384	186,37
572,582	200,7
572,781	286,72
572,979	208,89
573,177	223,23
573,376	219,13
573,574	321,53
573,772	212,99
573,971	178,17
574,169	110,59
574,367	260,09
574,565	251,9
574,763	182,27
574,962	202,75
575,16	266,24
575,358	151,55
575,556	315,39
575,754	227,32
575,952	215,04
576,151	247,8
576,349	380,92
576,547	114,69
576,745	180,22
576,943	299
577,141	192,51
577,339	126,97
577,537	301,05
577,735	239,61
577,933	243,71
578,131	194,56
578,329	313,34
578,527	233,47
578,725	229,37
578,923	86,01
579,121	270,33
579,319	94,21
579,516	204,8
579,714	456,7
579,912	253,95
580,11	122,88
580,308	159,74
580,506	200,7
580,704	61,44
580,901	131,07
581,099	391,16
581,297	192,51
581,495	245,76
581,692	198,65
581,89	348,15
582,088	219,13
582,285	286,72
582,483	178,17
582,681	194,56
582,878	245,76
583,076	247,8
583,274	235,52
583,471	348,15
583,669	184,32
583,866	169,98
584,064	169,98
584,262	167,93
584,459	192,51
584,657	303,1
584,854	374,78
585,052	280,57
585,249	280,57
585,447	282,62
585,644	129,02
585,841	303,1
586,039	206,84
586,236	262,14
586,434	161,79
586,631	139,26
586,828	225,28
587,026	188,41
587,223	153,6
587,42	159,74
587,618	299
587,815	339,96
588,012	223,23
588,21	198,65
588,407	264,19
588,604	221,18
588,801	208,89
588,999	212,99
589,196	385,02
589,393	169,98
589,59	243,71
589,787	258,04
589,984	241,66
590,182	196,6
590,379	204,8
590,576	180,22
590,773	352,25
590,97	198,65
591,167	329,72
591,364	315,39
591,561	202,75
591,758	352,25
591,955	184,32
592,152	305,15
592,349	159,74
592,546	229,37
592,743	241,66
592,94	196,6
593,137	307,2
593,334	348,15
593,531	323,58
593,727	286,72
593,924	315,39
594,121	223,23
594,318	229,37
594,515	352,25
594,712	339,96
594,908	321,53
595,105	124,93
595,302	278,52
595,499	303,1
595,696	497,66
595,892	202,75
596,089	348,15
596,286	149,5
596,482	421,88
596,679	233,47
596,876	194,56
597,072	327,67
597,269	249,85
597,466	319,48
597,662	174,08
597,859	204,8
598,055	225,28
598,252	223,23
598,448	337,91
598,645	294,91
598,841	280,57
599,038	401,4
599,234	278,52
599,431	329,72
599,627	264,19
599,824	307,2
600,02	157,69
600,217	270,33
600,413	284,67
600,609	227,32
600,806	503,8
601,002	270,33
601,198	219,13
601,395	350,2
601,591	202,75
601,787	249,85
601,984	262,14
602,18	348,15
602,376	309,24
602,572	307,2
602,769	389,11
602,965	290,81
603,161	292,86
603,357	292,86
603,553	342,01
603,75	221,18
603,946	262,14
604,142	290,81
604,338	477,18
604,534	245,76
604,73	260,09
604,926	217,08
605,122	415,74
605,318	233,47
605,514	352,25
605,71	196,6
605,906	235,52
606,102	227,32
606,298	339,96
606,494	376,83
606,69	374,78
606,886	217,08
607,082	208,89
607,278	161,79
607,474	337,91
607,67	307,2
607,866	188,41
608,062	241,66
608,257	301,05
608,453	194,56
608,649	333,82
608,845	233,47
609,041	163,84
609,236	278,52
609,432	231,42
609,628	299
609,824	262,14
610,019	270,33
610,215	204,8
610,411	364,54
610,606	505,85
610,802	282,62
610,998	237,56
611,193	311,29
611,389	174,08
611,584	274,43
611,78	247,8
611,976	342,01
612,171	403,45
612,367	288,76
612,562	309,24
612,758	274,43
612,953	172,03
613,149	274,43
613,344	389,11
613,539	329,72
613,735	292,86
613,93	311,29
614,126	266,24
614,321	280,57
614,517	430,07
614,712	313,34
614,907	327,67
615,103	276,48
615,298	256
615,493	221,18
615,688	247,8
615,884	296,96
616,079	196,6
616,274	290,81
616,47	157,69
616,665	237,56
616,86	329,72
617,055	227,32
617,25	237,56
617,445	260,09
617,641	215,04
617,836	221,18
618,031	245,76
618,226	387,07
618,421	313,34
618,616	258,04
618,811	288,76
619,006	278,52
619,201	425,98
619,396	323,58
619,591	172,03
619,786	260,09
619,981	378,87
620,176	296,96
620,371	270,33
620,566	327,67
620,761	385,02
620,956	348,15
621,151	210,94
621,346	348,15
621,541	247,8
621,735	358,39
621,93	223,23
622,125	227,32
622,32	159,74
622,515	231,42
622,709	319,48
622,904	329,72
623,099	296,96
623,294	376,83
623,488	372,73
623,683	288,76
623,878	258,04
624,072	339,96
624,267	149,5
624,462	292,86
624,656	114,69
624,851	346,11
625,046	239,61
625,24	247,8
625,435	303,1
625,629	333,82
625,824	321,53
626,018	301,05
626,213	311,29
626,407	215,04
626,602	325,63
626,796	262,14
626,991	382,97
627,185	366,59
627,38	333,82
627,574	296,96
627,768	335,87
627,963	256
628,157	239,61
628,352	208,89
628,546	202,75
628,74	307,2
628,935	241,66
629,129	212,99
629,323	305,15
629,517	126,97
629,712	145,41
629,906	237,56
630,1	309,24
630,294	339,96
630,489	311,29
630,683	223,23
630,877	268,28
631,071	378,87
631,265	172,03
631,459	296,96
631,653	243,71
631,848	274,43
632,042	208,89
632,236	192,51
632,43	280,57
632,624	194,56
632,818	311,29
633,012	286,72
633,206	196,6
633,4	151,55
633,594	366,59
633,788	321,53
633,982	208,89
634,176	331,77
634,369	221,18
634,563	270,33
634,757	178,17
634,951	313,34
635,145	360,44
635,339	108,54
635,533	274,43
635,726	307,2
635,92	231,42
636,114	210,94
636,308	182,27
636,501	192,51
636,695	342,01
636,889	163,84
637,083	364,54
637,276	239,61
637,47	90,11
637,664	165,89
637,857	247,8
638,051	253,95
638,244	344,06
638,438	184,32
638,632	446,46
638,825	38,91
639,019	346,11
639,212	155,65
639,406	237,56
639,599	210,94
639,793	182,27
639,986	253,95
640,18	286,72
640,373	143,36
640,567	296,96
640,76	280,57
640,954	258,04
641,147	212,99
641,34	245,76
641,534	217,08
641,727	262,14
641,92	260,09
642,114	258,04
642,307	151,55
642,5	212,99
642,694	157,69
642,887	274,43
643,08	268,28
643,273	274,43
643,467	225,28
643,66	204,8
643,853	190,46
644,046	278,52
644,239	184,32
644,432	157,69
644,626	92,16
644,819	90,11
645,012	176,13
645,205	270,33
645,398	364,54
645,591	221,18
645,784	116,73
645,977	133,12
646,17	217,08
646,363	188,41
646,556	122,88
646,749	83,97
646,942	178,17
647,135	270,33
647,328	200,7
647,521	245,76
647,714	264,19
647,907	245,76
648,099	69,63
648,292	323,58
648,485	237,56
648,678	176,13
648,871	131,07
649,064	157,69
649,256	24,58
649,449	92,16
649,642	55,3
649,835	186,37
650,027	47,1
650,22	157,69
650,413	151,55
650,605	233,47
650,798	131,07
650,991	124,93
651,183	184,32
651,376	301,05
651,568	206,84
651,761	188,41
651,954	192,51
652,146	151,55
652,339	241,66
652,531	311,29
652,724	40,96
652,916	155,65
653,109	45,06
653,301	233,47
653,494	253,95
653,686	143,36
653,879	284,67
654,071	174,08
654,263	108,54
654,456	102,4
654,648	192,51
654,84	188,41
655,033	116,73
655,225	217,08
655,417	45,06
655,61	237,56
655,802	270,33
655,994	194,56
656,186	47,1
656,379	239,61
656,571	90,11
656,763	165,89
656,955	114,69
657,148	120,83
657,34	182,27
657,532	141,31
657,724	106,49
657,916	172,03
658,108	155,65
658,3	184,32
658,492	176,13
658,684	79,87
658,876	167,93
659,068	-61,44
659,26	34,82
659,452	124,93
659,644	112,64
659,836	241,66
660,028	137,21
660,22	180,22
660,412	145,41
660,604	65,53
660,796	196,6
660,988	286,72
661,18	108,54
661,372	196,6
661,563	73,73
661,755	192,51
661,947	45,06
662,139	92,16
662,331	118,78
662,522	124,93
662,714	122,88
662,906	49,15
663,097	167,93
663,289	59,39
663,481	73,73
663,673	98,3
663,864	110,59
664,056	161,79
664,247	53,25
664,439	229,37
664,631	124,93
664,822	243,71
665,014	172,03
665,205	159,74
665,397	30,72
665,588	165,89
665,78	79,87
665,971	124,93
666,163	63,49
666,354	143,36
666,546	59,39
666,737	151,55
666,929	131,07
667,12	57,34
667,311	139,26
667,503	206,84
667,694	172,03
667,885	141,31
668,077	149,5
668,268	14,34
668,459	55,3
668,651	253,95
668,842	188,41
669,033	26,62
669,224	55,3
669,416	352,25
669,607	102,4
669,798	16,38
669,989	196,6
670,18	106,49
670,371	102,4
670,563	45,06
670,754	208,89
670,945	174,08
671,136	147,45
671,327	63,49
671,518	196,6
671,709	262,14
671,9	167,93
672,091	143,36
672,282	124,93
672,473	147,45
672,664	61,44
672,855	79,87
673,046	219,13
673,237	165,89
673,428	63,49
673,619	188,41
673,809	83,97
674	196,6
674,191	161,79
674,382	73,73
674,573	124,93
674,764	49,15
674,954	188,41
675,145	126,97
675,336	-24,58
675,527	40,96
675,717	96,25
675,908	-0
676,099	10,24
676,289	151,55
676,48	-73,73
676,671	67,58
676,861	110,59
677,052	116,73
677,243	86,01
677,433	24,58
677,624	157,69
677,814	116,73
678,005	22,53
678,195	237,56
678,386	-28,67
678,576	83,97
678,767	8,19
678,957	65,53
679,148	75,77
679,338	196,6
679,529	116,73
679,719	67,58
679,909	161,79
680,1	155,65
680,29	124,93
680,481	-28,67
680,671	155,65
680,861	122,88
681,052	102,4
681,242	-0
681,432	143,36
681,622	49,15
681,813	-45,06
682,003	90,11
682,193	45,06
682,383	104,45
682,573	-2,05
682,764	-40,96
682,954	53,25
683,144	172,03
683,334	49,15
683,524	22,53
683,714	49,15
683,904	143,36
684,094	57,34
684,284	-14,34
684,474	190,46
684,664	104,45
684,854	106,49
685,044	69,63
685,234	86,01
685,424	51,2
685,614	-55,3
685,804	243,71
685,994	141,31
686,184	63,49
686,374	137,21
686,564	-16,38
686,753	137,21
686,943	43,01
687,133	106,49
687,323	-20,48
687,513	159,74
687,702	43,01
687,892	24,58
688,082	110,59
688,272	139,26
688,461	83,97
688,651	172,03
688,841	122,88
689,03	40,96
689,22	43,01
689,41	157,69
689,599	112,64
689,789	-20,48
689,979	143,36
690,168	126,97
690,358	167,93
690,547	126,97
690,737	75,77
690,926	24,58
691,116	90,11
691,305	75,77
691,495	180,22
691,684	30,72
691,874	69,63
692,063	88,06
692,252	143,36
692,442	149,5
692,631	-4,1
692,82	106,49
693,01	100,35
693,199	-14,34
693,388	116,73
693,578	65,53
693,767	157,69
693,956	131,07
694,146	114,69
694,335	137,21
694,524	57,34
694,713	116,73
694,902	32,77
695,092	73,73
695,281	104,45
695,47	143,36
695,659	49,15
695,848	120,83
696,037	55,3
696,226	102,4
696,415	8,19
696,604	243,71
696,793	202,75
696,982	-24,58
697,171	215,04
697,36	-30,72
697,549	30,72
697,738	-75,77
697,927	18,43
698,116	-10,24
698,305	137,21
698,494	65,53
698,683	55,3
698,872	243,71
699,061	86,01
699,25	108,54
699,438	49,15
699,627	40,96
699,816	172,03
700,005	-38,91
700,193	6,14
700,382	118,78
700,571	100,35
700,76	110,59
700,948	147,45
701,137	120,83
701,326	129,02
701,514	40,96
701,703	141,31
701,892	141,31
702,08	264,19
702,269	61,44
702,457	-10,24
702,646	16,38
702,834	-14,34
703,023	69,63
703,212	174,08
703,4	16,38
703,589	2,05
703,777	14,34
703,965	30,72
704,154	30,72
704,342	8,19
704,531	53,25
704,719	69,63
704,907	98,3
705,096	-40,96
705,284	-18,43
705,472	81,92
705,661	100,35
705,849	2,05
706,037	165,89
706,226	190,46
706,414	143,36
706,602	-36,86
706,79	122,88
706,979	65,53
707,167	61,44
707,355	6,14
707,543	32,77
707,731	165,89
707,919	47,1
708,107	2,05
708,296	22,53
708,484	-30,72
708,672	98,3
708,86	131,07
709,048	96,25
709,236	-4,1
709,424	149,5
709,612	49,15
709,8	43,01
709,988	18,43
710,176	40,96
710,364	137,21
710,551	43,01
710,739	-18,43
710,927	18,43
711,115	53,25
711,303	110,59
711,491	106,49
711,679	-24,58
711,866	206,84
712,054	51,2
712,242	65,53
712,43	196,6
712,617	79,87
712,805	114,69
712,993	16,38
713,181	-126,97
713,368	92,16
713,556	61,44
713,744	24,58
713,931	182,27
714,119	88,06
714,306	-18,43
714,494	-0
714,682	65,53
714,869	8,19
715,057	63,49
715,244	-40,96
715,432	131,07
715,619	36,86
715,807	40,96
715,994	-79,87
716,182	4,1
716,369	102,4
716,556	208,89
716,744	-40,96
716,931	-57,34
717,119	135,17
717,306	32,77
717,493	100,35
717,681	-24,58
717,868	18,43
718,055	90,11
718,242	-61,44
718,43	86,01
718,617	65,53
718,804	16,38
718,991	172,03
719,179	51,2
719,366	67,58
719,553	57,34
719,74	30,72
719,927	40,96
720,114	49,15
720,301	-120,83
720,488	-67,58
720,676	-47,1
720,863	131,07
721,05	219,13
721,237	38,91
721,424	149,5
721,611	63,49
721,798	-126,97
721,985	-20,48
722,172	8,19
722,358	2,05
722,545	34,82
722,732	106,49
722,919	73,73
723,106	51,2
723,293	28,67
723,48	51,2
723,667	-0
723,853	116,73
724,04	26,62
724,227	124,93
724,414	53,25
724,6	59,39
724,787	172,03
724,974	141,31
725,161	79,87
725,347	-51,2
725,534	38,91
725,72	106,49
725,907	131,07
726,094	139,26
726,28	6,14
726,467	36,86
726,653	-12,29
726,84	137,21
727,027	157,69
727,213	18,43
727,4	34,82
727,586	49,15
727,773	26,62
727,959	49,15
728,145	-18,43
728,332	-55,3
728,518	8,19
728,705	49,15
728,891	-16,38
729,077	71,68
729,264	-34,82
729,45	57,34
729,636	120,83
729,823	83,97
730,009	32,77
730,195	126,97
730,382	90,11
730,568	-4,1
730,754	18,43
730,94	83,97
731,126	8,19
731,313	38,91
731,499	-45,06
731,685	40,96
731,871	40,96
732,057	40,96
732,243	98,3
732,429	81,92
732,615	133,12
732,801	57,34
732,987	67,58
733,173	-26,62
733,359	-28,67
733,545	83,97
733,731	-6,14
733,917	155,65
734,103	81,92
734,289	71,68
734,475	-20,48
734,661	114,69
734,847	32,77
735,033	61,44
735,219	67,58
735,404	67,58
735,59	6,14
735,776	38,91
735,962	-10,24
736,148	61,44
736,333	112,64
736,519	63,49
736,705	10,24
736,89	53,25
737,076	40,96
737,262	-0
737,447	-59,39
737,633	34,82
737,819	145,41
738,004	51,2
738,19	6,14
738,375	96,25
738,561	131,07
738,747	77,82
738,932	-18,43
739,118	245,76
739,303	75,77
739,489	49,15
739,674	20,48
739,859	-8,19
740,045	126,97
740,23	61,44
740,416	-98,3
740,601	51,2
740,786	61,44
740,972	8,19
741,157	-57,34
741,342	-71,68
741,528	-16,38
741,713	69,63
741,898	-47,1
742,084	81,92
742,269	28,67
742,454	-14,34
742,639	94,21
742,824	73,73
743,01	174,08
743,195	174,08
743,38	-32,77
743,565	43,01
743,75	16,38
743,935	32,77
744,12	122,88
744,305	61,44
744,49	-22,53
744,675	69,63
744,86	-24,58
745,045	114,69
745,23	75,77
745,415	-30,72
745,6	186,37
745,785	6,14
745,97	98,3
746,155	104,45
746,34	149,5
746,525	147,45
746,71	122,88
746,895	-32,77
747,079	24,58
747,264	-53,25
747,449	14,34
747,634	114,69
747,819	96,25
748,003	22,53
748,188	-4,1
748,373	90,11
748,557	18,43
748,742	77,82
748,927	40,96
749,111	34,82
749,296	47,1
749,481	182,27
749,665	94,21
749,85	-16,38
750,034	163,84
750,219	20,48
750,404	18,43
750,588	32,77
750,773	-16,38
750,957	65,53
751,141	67,58
751,326	51,2
751,51	-86,01
751,695	36,86
751,879	22,53
752,064	139,26
752,248	67,58
752,432	256
752,617	131,07
752,801	155,65
752,985	71,68
753,17	163,84
753,354	-26,62
753,538	75,77
753,722	-20,48
753,907	24,58
754,091	-49,15
754,275	176,13
754,459	-47,1
754,643	8,19
754,828	69,63
755,012	94,21
755,196	-81,92
755,38	10,24
755,564	-49,15
755,748	98,3
755,932	126,97
756,116	65,53
756,3	81,92
756,484	-0
756,668	90,11
756,852	-79,87
757,036	-12,29
757,22	81,92
757,404	12,29
757,588	40,96
757,772	24,58
757,956	-10,24
758,14	122,88
758,323	-8,19
758,507	81,92
758,691	-6,14
758,875	67,58
759,059	176,13
759,242	-12,29
759,426	-8,19
759,61	-4,1
759,794	-65,54
759,977	174,08
760,161	294,91
760,345	86,01
760,528	172,03
760,712	61,44
760,895	73,73
761,079	43,01
761,263	-34,82
761,446	-12,29
761,63	14,34
761,813	116,73
761,997	-69,63
762,18	-8,19
762,364	12,29
762,547	-112,64
762,731	14,34
762,914	81,92
763,098	-28,67
763,281	8,19
763,464	32,77
763,648	55,3
763,831	45,06
764,015	16,38
764,198	192,51
764,381	40,96
764,564	45,06
764,748	12,29
764,931	79,87
765,114	34,82
765,297	92,16
765,481	-26,62
765,664	-8,19
765,847	-22,53
766,03	75,77
766,213	-12,29
766,397	53,25
766,58	-49,15
766,763	36,86
766,946	8,19
767,129	-6,14
767,312	-38,91
767,495	-2,05
767,678	-30,72
767,861	61,44
768,044	-26,62
768,227	-4,1
768,41	108,54
768,593	51,2
768,776	67,58
768,959	26,62
769,142	151,55
769,324	-65,54
769,507	8,19
769,69	-24,58
769,873	4,1
770,056	241,66
770,239	49,15
770,421	118,78
770,604	116,73
770,787	-24,58
770,97	34,82
771,152	-32,77
771,335	55,3
771,518	-40,96
771,7	45,06
771,883	108,54
772,066	67,58
772,248	100,35
772,431	122,88
772,613	73,73
772,796	24,58
772,978	131,07
773,161	131,07
773,343	106,49
773,526	-67,58
773,708	-90,11
773,891	-73,73
774,073	-4,1
774,256	-36,86
774,438	155,65
774,621	83,97
774,803	100,35
774,985	-38,91
775,168	40,96
775,35	49,15
775,532	14,34
775,715	-4,1
775,897	57,34
776,079	-94,21
776,261	75,77
776,444	-22,53
776,626	65,53
776,808	-36,86
776,99	-104,45
777,173	10,24
777,355	8,19
777,537	65,53
777,719	24,58
777,901	65,53
778,083	53,25
778,265	-6,14
778,447	100,35
778,629	-4,1
778,811	88,06
778,993	73,73
779,175	90,11
779,357	51,2
779,539	-53,25
779,721	-16,38
779,903	45,06
780,085	20,48
780,267	69,63
780,449	-6,14
780,631	12,29
780,812	212,99
780,994	-38,91
781,176	10,24
781,358	51,2
781,54	-0
781,721	108,54
781,903	106,49
782,085	26,62
782,267	98,3
782,448	-43,01
782,63	12,29
782,812	40,96
782,993	51,2
783,175	106,49
783,357	-30,72
783,538	30,72
783,72	-100,35
783,901	34,82
784,083	98,3
784,264	98,3
784,446	-26,62
784,627	-12,29
784,809	129,02
784,99	-49,15
785,172	106,49
785,353	116,73
785,535	100,35
785,716	28,67
785,897	-53,25
786,079	4,1
786,26	32,77
786,441	124,93
786,623	-71,68
786,804	-49,15
786,985	38,91
787,167	30,72
787,348	10,24
787,529	20,48
787,71	182,27
787,891	104,45
788,073	77,82
788,254	22,53
788,435	235,52
788,616	-16,38
788,797	-49,15
788,978	-24,58
789,159	-90,11
789,34	133,12
789,522	-16,38
789,703	-69,63
789,884	16,38
790,065	43,01
790,246	137,21
790,427	49,15
790,607	202,75
790,788	69,63
790,969	-32,77
791,15	124,93
791,331	-10,24
791,512	-49,15
791,693	-20,48
791,874	-16,38
792,054	147,45
792,235	96,25
792,416	26,62
792,597	-2,05
792,778	-0
792,958	-47,1
793,139	98,3
793,32	16,38
793,5	-143,36
793,681	100,35
793,862	57,34
794,042	-24,58
794,223	-0
794,404	18,43
794,584	-38,91
794,765	12,29
794,945	-4,1
795,126	14,34
795,306	120,83
795,487	57,34
795,667	-14,34
795,848	90,11
796,028	-69,63
796,209	16,38
796,389	104,45
796,57	-20,48
796,75	-65,54
796,93	16,38
797,111	-24,58
797,291	-0
797,471	57,34
797,652	-8,19
797,832	-28,67
798,012	55,3
798,192	-2,05
798,373	-20,48
798,553	20,48
798,733	34,82
798,913	-20,48
799,093	24,58
799,274	-0
799,454	124,93
799,634	98,3
799,814	153,6
799,994	47,1
800,174	65,53
800,354	2,05
800,534	-38,91
800,714	18,43
800,894	-67,58
801,074	-36,86
801,254	-6,14
801,434	163,84
801,614	-71,68
801,794	-110,59
801,974	2187,23
802,154	34,82
802,334	135,17
802,514	-86,01
802,693	10,24
802,873	4,1
803,053	147,45
803,233	153,6
803,413	-8,19
803,592	43,01
803,772	2,05
803,952	2,05
804,131	-73,73
804,311	26,62
804,491	73,73
804,67	-100,35
804,85	18,43
805,03	57,34
805,209	96,25
805,389	22,53
805,568	-18,43
805,748	-36,86
805,928	69,63
806,107	45,06
806,287	28,67
806,466	32,77
806,646	-53,25
806,825	-12,29
807,004	-55,3
807,184	10,24
807,363	32,77
807,543	-6,14
807,722	-73,73
807,901	116,73
808,081	96,25
808,26	-114,69
808,439	-22,53
808,619	90,11
808,798	-38,91
808,977	30,72
809,156	53,25
809,336	43,01
809,515	79,87
809,694	-92,16
809,873	-24,58
810,052	90,11
810,231	92,16
810,411	98,3
810,59	149,5
810,769	-2,05
810,948	61,44
811,127	-81,92
811,306	-34,82
811,485	43,01
811,664	108,54
811,843	-18,43
812,022	-0
812,201	-79,87
812,38	16,38
812,559	8,19
812,737	47,1
812,916	-20,48
813,095	-30,72
813,274	92,16
813,453	18,43
813,632	40,96
813,811	73,73
813,989	-159,74
814,168	51,2
814,347	-75,77
814,526	47,1
814,704	106,49
814,883	149,5
815,062	-104,45
815,24	137,21
815,419	-81,92
815,598	20,48
815,776	-67,58
815,955	2,05
816,133	-163,84
816,312	49,15
816,49	-6,14
816,669	-45,06
816,847	-0
817,026	104,45
817,204	-16,38
817,383	-63,49
817,561	-104,45
817,74	63,49
817,918	34,82
818,097	8,19
818,275	-16,38
818,453	59,39
818,632	51,2
818,81	34,82
818,988	14,34
819,167	-102,4
819,345	45,06
819,523	-49,15
819,701	112,64
819,879	149,5
820,058	75,77
820,236	-61,44
820,414	49,15
820,592	12,29
820,77	-0
820,948	6,14
821,127	-12,29
821,305	110,59
821,483	-90,11
821,661	30,72
821,839	26,62
822,017	38,91
822,195	24,58
822,373	63,49
822,551	26,62
822,729	43,01
822,907	-18,43
823,085	108,54
823,262	57,34
823,44	-40,96
823,618	2,05
823,796	-16,38
823,974	-32,77
824,152	2,05
824,329	45,06
824,507	40,96
824,685	43,01
824,863	-24,58
825,04	55,3
825,218	51,2
825,396	49,15
825,574	43,01
825,751	12,29
825,929	81,92
826,107	-38,91
826,284	30,72
826,462	40,96
826,639	-10,24
826,817	-106,49
826,994	-36,86
827,172	-79,87
827,349	143,36
827,527	8,19
827,704	-22,53
827,882	77,82
828,059	-24,58
828,237	-12,29
828,414	79,87
828,591	-145,41
828,769	92,16
828,946	-8,19
829,124	122,88
829,301	67,58
829,478	-40,96
829,655	61,44
829,833	49,15
830,01	-112,64
830,187	71,68
830,364	6,14
830,542	57,34
830,719	106,49
830,896	45,06
831,073	-20,48
831,25	69,63
831,427	90,11
831,604	-32,77
831,782	-16,38
831,959	90,11
832,136	-53,25
832,313	-16,38
832,49	-36,86
832,667	20,48
832,844	2,05
833,021	73,73
833,198	-4,1
833,374	-45,06
833,551	100,35
833,728	-65,54
833,905	30,72
834,082	-120,83
834,259	65,53
834,436	126,97
834,612	-28,67
834,789	40,96
834,966	12,29
835,143	51,2
835,319	-90,11
835,496	94,21
835,673	106,49
835,85	90,11
836,026	36,86
836,203	75,77
836,38	-59,39
836,556	12,29
836,733	12,29
836,909	149,5
837,086	-43,01
837,262	-81,92
837,439	55,3
837,616	-32,77
837,792	36,86
837,968	32,77
838,145	-73,73
838,321	-26,62
838,498	12,29
838,674	34,82
838,851	16,38
839,027	-22,53
839,203	-20,48
839,38	57,34
839,556	-32,77
839,732	92,16
839,909	-30,72
840,085	47,1
840,261	-38,91
840,437	100,35
840,614	-59,39
840,79	18,43
840,966	110,59
841,142	-4,1
841,318	-69,63
841,494	45,06
841,671	92,16
841,847	-79,87
842,023	-53,25
842,199	24,58
842,375	90,11
842,551	-135,17
842,727	-63,49
842,903	51,2
843,079	-94,21
843,255	174,08
843,431	-53,25
843,607	90,11
843,783	-167,93
843,959	51,2
844,134	-110,59
844,31	63,49
844,486	-16,38
844,662	-45,06
844,838	2,05
845,013	45,06
845,189	77,82
845,365	34,82
845,541	6,14
845,716	10,24
845,892	104,45
846,068	-104,45
846,244	-67,58
846,419	20,48
846,595	-73,73
846,77	-8,19
846,946	61,44
847,122	-22,53
847,297	-8,19
847,473	141,31
847,648	-118,78
847,824	45,06
847,999	-114,69
848,175	-71,68
848,35	61,44
848,526	51,2
848,701	120,83
848,876	124,93
849,052	69,63
849,227	26,62
849,403	-40,96
849,578	2,05
849,753	77,82
849,929	36,86
850,104	-65,54
850,279	43,01
850,454	49,15
850,63	43,01
850,805	43,01
850,98	32,77
851,155	8,19
851,33	-38,91
851,505	-108,54
851,681	106,49
851,856	-114,69
852,031	61,44
852,206	-12,29
852,381	-86,01
852,556	-83,97
852,731	86,01
852,906	-22,53
853,081	8,19
853,256	106,49
853,431	-51,2
853,606	-16,38
853,781	-45,06
853,956	-79,87
854,131	-24,58
854,305	-4,1
854,48	-59,39
854,655	-90,11
854,83	-73,73
855,005	16,38
855,18	4,1
855,354	8,19
855,529	4,1
855,704	6,14
855,879	106,49
856,053	-53,25
856,228	22,53
856,403	-49,15
856,577	-10,24
856,752	-151,55
856,926	-30,72
857,101	-63,49
857,276	-67,58
857,45	-18,43
857,625	83,97
857,799	-36,86
857,974	47,1
858,148	-98,3
858,323	-22,53
858,497	-28,67
858,672	-73,73
858,846	-49,15
859,02	57,34
859,195	-157,69
859,369	38,91
859,543	77,82
859,718	8,19
859,892	2,05
860,066	45,06
860,241	-32,77
860,415	-49,15
860,589	-43,01
860,763	-18,43
860,938	-28,67
861,112	10,24
861,286	-20,48
861,46	20,48
861,634	-28,67
861,808	53,25
861,982	-73,73
862,157	-90,11
862,331	-79,87
862,505	-49,15
862,679	-67,58
862,853	-57,34
863,027	-12,29
863,201	167,93
863,375	-14,34
863,549	75,77
863,722	22,53
863,896	61,44
864,07	-32,77
864,244	8,19
864,418	124,93
864,592	81,92
864,766	-43,01
864,939	10,24
865,113	-24,58
865,287	53,25
865,461	-22,53
865,634	-4,1
865,808	-47,1
865,982	-65,54
866,156	-122,88
866,329	-161,79
866,503	-4,1
866,676	92,16
866,85	4,1
867,024	47,1
867,197	135,17
867,371	57,34
867,544	-73,73
867,718	-137,21
867,891	139,26
868,065	-129,02
868,238	75,77
868,412	116,73
868,585	-6,14
868,759	-73,73
868,932	4,1
869,105	-100,35
869,279	-16,38
869,452	-71,68
869,625	-24,58
869,799	28,67
869,972	-63,49
870,145	-55,3
870,319	10,24
870,492	-22,53
870,665	4,1
870,838	-63,49
871,011	-172,03
871,185	-0
871,358	16,38
871,531	10,24
871,704	-14,34
871,877	49,15
872,05	-32,77
872,223	-51,2
872,396	73,73
872,569	45,06
872,742	-100,35
872,915	86,01
873,088	-28,67
873,261	-129,02
873,434	24,58
873,607	16,38
873,78	114,69
873,953	-90,11
874,126	-24,58
874,299	83,97
874,471	-22,53
874,644	-47,1
874,817	73,73
874,99	196,6
875,163	-4,1
875,335	18,43
875,508	24,58
875,681	65,53
875,853	-38,91
876,026	38,91
876,199	73,73
876,371	-51,2
876,544	-2,05
876,717	69,63
876,889	-126,97
877,062	28,67
877,234	-49,15
877,407	-139,26
877,579	69,63
877,752	45,06
877,924	-10,24
878,097	75,77
878,269	-12,29
878,442	32,77
878,614	69,63
878,786	12,29
878,959	63,49
879,131	-16,38
879,303	-106,49
879,476	40,96
879,648	116,73
879,82	-34,82
879,993	-14,34
880,165	-63,49
880,337	-106,49
880,509	8,19
880,681	-102,4
880,854	-34,82
881,026	12,29
881,198	122,88
881,37	-24,58
881,542	-100,35
881,714	-40,96
881,886	-49,15
882,058	43,01
882,23	43,01
882,402	-79,87
882,574	45,06
882,746	94,21
882,918	98,3
883,09	73,73
883,262	-57,34
883,434	-10,24
883,606	-110,59
883,778	-57,34
883,95	169,98
884,122	-47,1
884,293	40,96
884,465	40,96
884,637	83,97
884,809	-22,53
884,98	30,72
885,152	51,2
885,324	90,11
885,496	-90,11
885,667	32,77
885,839	-24,58
886,011	165,89
886,182	-24,58
886,354	100,35
886,525	4,1
886,697	77,82
886,869	-40,96
887,04	-18,43
887,212	98,3
887,383	188,41
887,555	59,39
887,726	-71,68
887,897	-49,15
888,069	-6,14
888,24	92,16
888,412	-4,1
888,583	-14,34
888,754	14,34
888,926	-159,74
889,097	-28,67
889,268	-104,45
889,44	-6,14
889,611	-83,97
889,782	-90,11
889,953	-118,78
890,125	81,92
890,296	-106,49
890,467	-4,1
890,638	-40,96
890,809	-16,38
890,98	-49,15
891,151	63,49
891,323	100,35
891,494	-32,77
891,665	-4,1
891,836	40,96
892,007	18,43
892,178	32,77
892,349	-100,35
892,52	-28,67
892,691	71,68
892,862	-30,72
893,032	-49,15
893,203	-120,83
893,374	-14,34
893,545	90,11
893,716	4,1
893,887	34,82
894,057	-0
894,228	49,15
894,399	-69,63
894,57	131,07
894,74	-63,49
894,911	34,82
895,082	-47,1
895,253	-102,4
895,423	32,77
895,594	57,34
895,764	83,97
895,935	-122,88
896,106	79,87
896,276	-61,44
896,447	8,19
896,617	38,91
896,788	-90,11
896,958	-88,06
897,129	-108,54
897,299	26,62
897,47	86,01
897,64	36,86
897,81	24,58
897,981	38,91
898,151	32,77
898,322	32,77
898,492	-16,38
898,662	-34,82
898,832	-102,4
899,003	24,58
899,173	63,49
899,343	-100,35
899,513	-112,64
