Data from laserVert_USB4F104151__3__11-49-23-276.txt Node

Date: Wed Apr 15 11:49:23 EDT 2026
User: LaboPhy
Spectrometer: USB4F10415
Trigger mode: 4
Integration Time (sec): 1,000000E-1
Scans to average: 1
Electric dark correction enabled: true
Nonlinearity correction enabled: false
Boxcar width: 0
XAxis mode: Wavelengths
Number of Pixels in Spectrum: 3648
>>>>>Begin Spectral Data<<<<<
178,204	-435,53
178,424	-435,53
178,644	-435,53
178,864	-451,92
179,084	-441,68
179,304	-62,8
179,524	8,87
179,744	-38,23
179,964	29,35
180,184	-46,42
180,404	139,94
180,624	-23,89
180,844	-54,61
181,064	-15,7
181,283	72,36
181,503	-71
181,723	62,12
181,943	-64,85
182,163	232,1
182,383	-66,9
182,602	-11,61
182,822	166,57
183,042	55,98
183,262	-38,23
183,482	39,59
183,701	49,83
183,921	39,59
184,141	-40,28
184,361	84,65
184,58	72,36
184,8	-3,41
185,02	27,31
185,239	39,59
185,459	39,59
185,679	166,57
185,898	-81,24
186,118	17,07
186,338	109,23
186,557	84,65
186,777	-58,71
186,997	6,83
187,216	31,4
187,436	156,33
187,655	101,03
187,875	70,31
188,095	39,59
188,314	146,09
188,534	146,09
188,753	23,21
188,973	135,85
189,192	172,71
189,412	15,02
189,631	-1,37
189,851	84,65
190,07	195,24
190,29	-89,43
190,509	8,87
190,729	31,4
190,948	193,19
191,168	162,47
191,387	105,13
191,607	51,88
191,826	72,36
192,045	21,16
192,265	6,83
192,484	141,99
192,704	17,07
192,923	-93,52
193,142	195,24
193,362	139,94
193,581	228,01
193,8	6,83
194,02	139,94
194,239	41,64
194,458	113,32
194,678	96,94
194,897	78,51
195,116	41,64
195,335	123,56
195,555	-32,08
195,774	74,41
195,993	98,99
196,212	82,6
196,432	-46,42
196,651	-56,66
196,87	-13,65
197,089	178,86
197,308	76,46
197,528	117,42
197,747	51,88
197,966	51,88
198,185	187,05
198,404	-21,84
198,623	103,08
198,842	98,99
199,062	127,66
199,281	125,61
199,5	90,79
199,719	111,27
199,938	82,6
200,157	88,75
200,376	107,18
200,595	178,86
200,814	70,31
201,033	-48,47
201,252	195,24
201,471	68,27
201,69	55,98
201,909	88,75
202,128	168,62
202,347	92,84
202,566	31,4
202,785	-71
203,004	-13,65
203,223	311,97
203,442	51,88
203,661	-66,9
203,879	27,31
204,098	158,38
204,317	41,64
204,536	101,03
204,755	60,07
204,974	168,62
205,193	-5,46
205,411	144,04
205,63	107,18
205,849	55,98
206,068	-17,75
206,287	-15,7
206,505	234,15
206,724	82,6
206,943	-66,9
207,162	25,26
207,381	55,98
207,599	31,4
207,818	10,92
208,037	-103,76
208,255	74,41
208,474	109,23
208,693	-15,7
208,911	-15,7
209,13	94,89
209,349	176,81
209,567	41,64
209,786	78,51
210,005	133,8
210,223	8,87
210,442	-120,15
210,661	-62,8
210,879	84,65
211,098	-30,04
211,316	86,7
211,535	49,83
211,753	55,98
211,972	101,03
212,191	47,79
212,409	78,51
212,628	137,9
212,846	-23,89
213,065	21,16
213,283	39,59
213,502	-7,51
213,72	-25,94
213,938	45,74
214,157	60,07
214,375	182,95
214,594	-40,28
214,812	68,27
215,031	-40,28
215,249	31,4
215,467	84,65
215,686	-3,41
215,904	72,36
216,122	-30,04
216,341	156,33
216,559	51,88
216,778	113,32
216,996	182,95
217,214	70,31
217,432	-15,7
217,651	-50,52
217,869	68,27
218,087	154,28
218,306	-17,75
218,524	15,02
218,742	-46,42
218,96	49,83
219,179	-38,23
219,397	-23,89
219,615	215,72
219,833	53,93
220,051	27,31
220,27	170,66
220,488	146,09
220,706	37,55
220,924	51,88
221,142	-9,56
221,36	131,75
221,578	47,79
221,796	-17,75
222,015	66,22
222,233	74,41
222,451	129,7
222,669	-44,37
222,887	72,36
223,105	0,68
223,323	41,64
223,541	-32,08
223,759	109,23
223,977	45,74
224,195	141,99
224,413	103,08
224,631	43,69
224,849	68,27
225,067	252,58
225,285	25,26
225,503	-7,51
225,721	-54,61
225,939	35,5
226,157	39,59
226,375	281,25
226,592	-1,37
226,81	39,59
227,028	137,9
227,246	174,76
227,464	129,7
227,682	101,03
227,9	109,23
228,117	115,37
228,335	109,23
228,553	33,45
228,771	-38,23
228,989	82,6
229,206	109,23
229,424	2,73
229,642	72,36
229,86	31,4
230,077	168,62
230,295	49,83
230,513	203,43
230,731	109,23
230,948	170,66
231,166	264,87
231,384	64,17
231,601	-73,04
231,819	178,86
232,037	-15,7
232,254	-3,41
232,472	8,87
232,689	39,59
232,907	146,09
233,125	49,83
233,342	-17,75
233,56	-56,66
233,777	41,64
233,995	0,68
234,213	70,31
234,43	78,51
234,648	-5,46
234,865	76,46
235,083	68,27
235,3	92,84
235,518	117,42
235,735	111,27
235,953	66,22
236,17	92,84
236,388	-15,7
236,605	43,69
236,822	109,23
237,04	162,47
237,257	27,31
237,475	-21,84
237,692	66,22
237,909	72,36
238,127	-58,71
238,344	137,9
238,562	39,59
238,779	-1,37
238,996	-79,19
239,214	41,64
239,431	55,98
239,648	-11,61
239,865	107,18
240,083	94,89
240,3	33,45
240,517	-34,13
240,735	121,51
240,952	60,07
241,169	105,13
241,386	137,9
241,603	-9,56
241,821	45,74
242,038	121,51
242,255	178,86
242,472	-42,32
242,689	35,5
242,907	49,83
243,124	25,26
243,341	49,83
243,558	-66,9
243,775	-81,24
243,992	-99,67
244,209	105,13
244,426	238,25
244,643	80,55
244,86	86,7
245,078	82,6
245,295	0,68
245,512	31,4
245,729	-71
245,946	72,36
246,163	33,45
246,38	45,74
246,597	-13,65
246,814	-17,75
247,031	4,78
247,248	37,55
247,464	119,46
247,681	74,41
247,898	84,65
248,115	45,74
248,332	-64,85
248,549	137,9
248,766	139,94
248,983	109,23
249,2	31,4
249,417	96,94
249,633	-60,76
249,85	8,87
250,067	88,75
250,284	-32,08
250,501	74,41
250,717	62,12
250,934	-79,19
251,151	15,02
251,368	39,59
251,585	107,18
251,801	98,99
252,018	-17,75
252,235	111,27
252,451	-116,05
252,668	37,55
252,885	111,27
253,102	60,07
253,318	-19,8
253,535	-1,37
253,752	-60,76
253,968	-21,84
254,185	-27,99
254,401	58,03
254,618	35,5
254,835	15,02
255,051	78,51
255,268	117,42
255,484	-5,46
255,701	8,87
255,917	133,8
256,134	-50,52
256,351	47,79
256,567	-58,71
256,784	39,59
257	-73,04
257,217	129,7
257,433	90,79
257,65	88,75
257,866	156,33
258,082	-60,76
258,299	27,31
258,515	64,17
258,732	23,21
258,948	-73,04
259,165	68,27
259,381	-42,32
259,597	101,03
259,814	41,64
260,03	-32,08
260,246	17,07
260,463	133,8
260,679	195,24
260,895	101,03
261,112	90,79
261,328	49,83
261,544	23,21
261,761	187,05
261,977	25,26
262,193	0,68
262,409	66,22
262,626	92,84
262,842	31,4
263,058	-30,04
263,274	129,7
263,49	49,83
263,707	2,73
263,923	90,79
264,139	-73,04
264,355	45,74
264,571	82,6
264,787	72,36
265,004	133,8
265,22	47,79
265,436	-5,46
265,652	-38,23
265,868	62,12
266,084	-21,84
266,3	58,03
266,516	-75,09
266,732	162,47
266,948	-1,37
267,164	62,12
267,38	187,05
267,596	-30,04
267,812	113,32
268,028	6,83
268,244	31,4
268,46	0,68
268,676	-38,23
268,892	82,6
269,108	-68,95
269,324	-32,08
269,54	-62,8
269,756	33,45
269,972	29,35
270,188	-89,43
270,403	-1,37
270,619	0,68
270,835	103,08
271,051	105,13
271,267	-73,04
271,483	39,59
271,698	64,17
271,914	107,18
272,13	35,5
272,346	43,69
272,562	70,31
272,777	131,75
272,993	47,79
273,209	-7,51
273,425	58,03
273,64	-75,09
273,856	121,51
274,072	-56,66
274,287	-7,51
274,503	27,31
274,719	74,41
274,934	-17,75
275,15	-73,04
275,366	88,75
275,581	-54,61
275,797	-23,89
276,012	68,27
276,228	-3,41
276,444	64,17
276,659	68,27
276,875	6,83
277,09	-7,51
277,306	62,12
277,521	84,65
277,737	19,11
277,952	211,62
278,168	-11,61
278,383	72,36
278,599	53,93
278,814	111,27
279,03	66,22
279,245	107,18
279,461	43,69
279,676	88,75
279,892	-30,04
280,107	-56,66
280,322	-25,94
280,538	72,36
280,753	-46,42
280,969	-30,04
281,184	98,99
281,399	156,33
281,615	0,68
281,83	43,69
282,045	8,87
282,26	49,83
282,476	29,35
282,691	148,14
282,906	76,46
283,122	37,55
283,337	2,73
283,552	98,99
283,767	2,73
283,983	139,94
284,198	-25,94
284,413	80,55
284,628	-25,94
284,843	49,83
285,058	141,99
285,274	23,21
285,489	-17,75
285,704	115,37
285,919	58,03
286,134	6,83
286,349	80,55
286,564	98,99
286,779	96,94
286,995	-85,33
287,21	-83,28
287,425	68,27
287,64	29,35
287,855	121,51
288,07	25,26
288,285	158,38
288,5	76,46
288,715	43,69
288,93	117,42
289,145	27,31
289,36	37,55
289,575	17,07
289,79	115,37
290,004	-25,94
290,219	137,9
290,434	33,45
290,649	29,35
290,864	-73,04
291,079	-9,56
291,294	80,55
291,509	121,51
291,724	-1,37
291,938	-11,61
292,153	15,02
292,368	27,31
292,583	0,68
292,798	84,65
293,012	27,31
293,227	64,17
293,442	27,31
293,657	68,27
293,871	172,71
294,086	150,18
294,301	248,49
294,516	150,18
294,73	-9,56
294,945	-38,23
295,16	-23,89
295,374	92,84
295,589	58,03
295,804	-48,47
296,018	90,79
296,233	178,86
296,447	53,93
296,662	31,4
296,877	127,66
297,091	105,13
297,306	80,55
297,52	23,21
297,735	25,26
297,949	90,79
298,164	47,79
298,378	-9,56
298,593	-23,89
298,807	31,4
299,022	47,79
299,236	195,24
299,451	-50,52
299,665	12,97
299,88	64,17
300,094	98,99
300,309	2,73
300,523	49,83
300,737	43,69
300,952	84,65
301,166	146,09
301,381	45,74
301,595	-73,04
301,809	84,65
302,024	-99,67
302,238	47,79
302,452	146,09
302,667	80,55
302,881	148,14
303,095	64,17
303,309	90,79
303,524	47,79
303,738	23,21
303,952	-64,85
304,166	74,41
304,381	-138,58
304,595	131,75
304,809	-19,8
305,023	68,27
305,237	-54,61
305,452	10,92
305,666	68,27
305,88	94,89
306,094	90,79
306,308	185
306,522	12,97
306,736	80,55
306,95	193,19
307,164	47,79
307,379	60,07
307,593	139,94
307,807	129,7
308,021	55,98
308,235	39,59
308,449	-34,13
308,663	19,11
308,877	268,97
309,091	41,64
309,305	84,65
309,519	-62,8
309,733	178,86
309,947	-27,99
310,161	123,56
310,374	131,75
310,588	94,89
310,802	-17,75
311,016	23,21
311,23	94,89
311,444	-42,32
311,658	60,07
311,872	88,75
312,085	82,6
312,299	139,94
312,513	133,8
312,727	92,84
312,941	-50,52
313,154	88,75
313,368	88,75
313,582	-19,8
313,796	41,64
314,009	55,98
314,223	94,89
314,437	62,12
314,651	103,08
314,864	25,26
315,078	29,35
315,292	-83,28
315,505	10,92
315,719	105,13
315,933	154,28
316,146	64,17
316,36	-30,04
316,573	156,33
316,787	113,32
317,001	27,31
317,214	-5,46
317,428	80,55
317,641	-89,43
317,855	72,36
318,068	62,12
318,282	90,79
318,495	199,34
318,709	101,03
318,922	8,87
319,136	64,17
319,349	115,37
319,563	-9,56
319,776	82,6
319,99	-97,62
320,203	121,51
320,417	64,17
320,63	27,31
320,843	195,24
321,057	68,27
321,27	60,07
321,483	25,26
321,697	139,94
321,91	19,11
322,124	101,03
322,337	60,07
322,55	10,92
322,763	55,98
322,977	58,03
323,19	64,17
323,403	0,68
323,617	80,55
323,83	82,6
324,043	49,83
324,256	117,42
324,469	-34,13
324,683	115,37
324,896	4,78
325,109	74,41
325,322	-87,38
325,535	105,13
325,748	117,42
325,962	-71
326,175	72,36
326,388	137,9
326,601	66,22
326,814	-21,84
327,027	74,41
327,24	133,8
327,453	-42,32
327,666	115,37
327,879	119,46
328,092	148,14
328,305	62,12
328,518	6,83
328,731	-27,99
328,944	-23,89
329,157	84,65
329,37	-56,66
329,583	166,57
329,796	172,71
330,009	-38,23
330,222	111,27
330,435	125,61
330,648	72,36
330,861	27,31
331,073	90,79
331,286	191,14
331,499	90,79
331,712	6,83
331,925	53,93
332,138	-5,46
332,35	109,23
332,563	-9,56
332,776	139,94
332,989	-34,13
333,202	-36,18
333,414	27,31
333,627	33,45
333,84	49,83
334,053	84,65
334,265	-19,8
334,478	15,02
334,691	82,6
334,903	72,36
335,116	-81,24
335,329	33,45
335,541	66,22
335,754	189,1
335,966	23,21
336,179	70,31
336,392	58,03
336,604	-9,56
336,817	123,56
337,029	80,55
337,242	23,21
337,454	55,98
337,667	35,5
337,88	129,7
338,092	139,94
338,305	80,55
338,517	39,59
338,729	98,99
338,942	129,7
339,154	-30,04
339,367	-122,2
339,579	94,89
339,792	2,73
340,004	96,94
340,217	31,4
340,429	29,35
340,641	-1,37
340,854	12,97
341,066	4,78
341,278	76,46
341,491	137,9
341,703	55,98
341,915	19,11
342,128	117,42
342,34	6,83
342,552	-66,9
342,764	-21,84
342,977	-40,28
343,189	98,99
343,401	21,16
343,613	-1,37
343,826	113,32
344,038	-48,47
344,25	82,6
344,462	-64,85
344,674	70,31
344,886	-32,08
345,099	160,42
345,311	8,87
345,523	-11,61
345,735	-64,85
345,947	60,07
346,159	43,69
346,371	4,78
346,583	-9,56
346,795	191,14
347,007	27,31
347,219	45,74
347,431	72,36
347,643	174,76
347,855	-17,75
348,067	129,7
348,279	-54,61
348,491	60,07
348,703	90,79
348,915	60,07
349,127	-5,46
349,339	103,08
349,551	-17,75
349,763	49,83
349,975	58,03
350,187	88,75
350,399	152,23
350,61	55,98
350,822	55,98
351,034	37,55
351,246	29,35
351,458	103,08
351,669	76,46
351,881	78,51
352,093	141,99
352,305	23,21
352,517	78,51
352,728	6,83
352,94	105,13
353,152	39,59
353,363	-23,89
353,575	94,89
353,787	139,94
353,999	31,4
354,21	148,14
354,422	-62,8
354,633	-1,37
354,845	21,16
355,057	4,78
355,268	115,37
355,48	141,99
355,692	-83,28
355,903	39,59
356,115	-66,9
356,326	-103,76
356,538	168,62
356,749	90,79
356,961	232,1
357,172	60,07
357,384	68,27
357,595	211,62
357,807	25,26
358,018	15,02
358,23	27,31
358,441	90,79
358,653	101,03
358,864	53,93
359,075	31,4
359,287	25,26
359,498	76,46
359,709	70,31
359,921	105,13
360,132	47,79
360,344	-34,13
360,555	2,73
360,766	84,65
360,977	-79,19
361,189	92,84
361,4	39,59
361,611	84,65
361,823	64,17
362,034	88,75
362,245	-36,18
362,456	21,16
362,667	160,42
362,879	2,73
363,09	6,83
363,301	94,89
363,512	64,17
363,723	10,92
363,935	0,68
364,146	58,03
364,357	23,21
364,568	15,02
364,779	35,5
364,99	185
365,201	-25,94
365,412	35,5
365,623	-52,56
365,834	39,59
366,045	37,55
366,256	23,21
366,467	41,64
366,678	23,21
366,889	47,79
367,1	6,83
367,311	33,45
367,522	-73,04
367,733	107,18
367,944	80,55
368,155	-21,84
368,366	-5,46
368,577	58,03
368,788	176,81
368,999	-58,71
369,209	53,93
369,42	260,77
369,631	307,88
369,842	139,94
370,053	37,55
370,264	80,55
370,474	-17,75
370,685	86,7
370,896	90,79
371,107	119,46
371,317	82,6
371,528	6,83
371,739	162,47
371,95	19,11
372,16	150,18
372,371	4,78
372,582	96,94
372,792	51,88
373,003	105,13
373,214	21,16
373,424	55,98
373,635	-32,08
373,846	182,95
374,056	64,17
374,267	33,45
374,477	39,59
374,688	-1,37
374,898	29,35
375,109	144,04
375,319	29,35
375,53	129,7
375,74	146,09
375,951	-42,32
376,161	23,21
376,372	53,93
376,582	2,73
376,793	107,18
377,003	-85,33
377,214	6,83
377,424	15,02
377,635	-17,75
377,845	2,73
378,055	152,23
378,266	-13,65
378,476	43,69
378,686	66,22
378,897	72,36
379,107	51,88
379,317	98,99
379,528	2,73
379,738	82,6
379,948	-163,15
380,158	92,84
380,369	-40,28
380,579	101,03
380,789	94,89
380,999	-17,75
381,21	96,94
381,42	168,62
381,63	72,36
381,84	82,6
382,05	51,88
382,261	88,75
382,471	172,71
382,681	-5,46
382,891	111,27
383,101	60,07
383,311	-34,13
383,521	-36,18
383,731	96,94
383,941	6,83
384,151	43,69
384,361	6,83
384,571	78,51
384,781	-5,46
384,991	144,04
385,201	195,24
385,411	92,84
385,621	19,11
385,831	25,26
386,041	17,07
386,251	8,87
386,461	115,37
386,671	23,21
386,881	51,88
387,091	55,98
387,301	90,79
387,511	47,79
387,72	105,13
387,93	80,55
388,14	-50,52
388,35	133,8
388,56	121,51
388,769	146,09
388,979	121,51
389,189	-58,71
389,399	41,64
389,609	141,99
389,818	33,45
390,028	23,21
390,238	58,03
390,447	-9,56
390,657	66,22
390,867	6,83
391,076	-50,52
391,286	72,36
391,496	41,64
391,705	55,98
391,915	88,75
392,125	109,23
392,334	0,68
392,544	152,23
392,753	51,88
392,963	-60,76
393,172	90,79
393,382	15,02
393,591	189,1
393,801	-52,56
394,01	148,14
394,22	60,07
394,429	-3,41
394,639	74,41
394,848	76,46
395,058	-40,28
395,267	10,92
395,477	41,64
395,686	64,17
395,895	260,77
396,105	174,76
396,314	-1,37
396,524	84,65
396,733	-3,41
396,942	72,36
397,152	137,9
397,361	109,23
397,57	84,65
397,78	27,31
397,989	21,16
398,198	242,34
398,407	109,23
398,617	31,4
398,826	19,11
399,035	-1,37
399,244	146,09
399,453	15,02
399,663	72,36
399,872	49,83
400,081	-32,08
400,29	168,62
400,499	-60,76
400,708	74,41
400,917	-15,7
401,127	0,68
401,336	-5,46
401,545	195,24
401,754	101,03
401,963	-1,37
402,172	53,93
402,381	-21,84
402,59	19,11
402,799	39,59
403,008	125,61
403,217	60,07
403,426	55,98
403,635	-30,04
403,844	64,17
404,053	31,4
404,262	27,31
404,471	172,71
404,68	105,13
404,888	43,69
405,097	12,97
405,306	103,08
405,515	148,14
405,724	8,87
405,933	10,92
406,142	72,36
406,35	64,17
406,559	-17,75
406,768	8,87
406,977	137,9
407,185	15,02
407,394	33,45
407,603	-17,75
407,812	88,75
408,02	170,66
408,229	17,07
408,438	62,12
408,646	-58,71
408,855	27,31
409,064	84,65
409,272	-40,28
409,481	82,6
409,69	15,02
409,898	-75,09
410,107	33,45
410,315	189,1
410,524	-42,32
410,733	107,18
410,941	70,31
411,15	115,37
411,358	125,61
411,567	207,53
411,775	12,97
411,984	45,74
412,192	139,94
412,401	-13,65
412,609	131,75
412,818	70,31
413,026	-5,46
413,234	23,21
413,443	25,26
413,651	-1,37
413,86	23,21
414,068	98,99
414,276	78,51
414,485	-58,71
414,693	154,28
414,901	203,43
415,11	105,13
415,318	23,21
415,526	-9,56
415,734	133,8
415,943	29,35
416,151	141,99
416,359	76,46
416,567	37,55
416,776	119,46
416,984	58,03
417,192	129,7
417,4	-46,42
417,608	-17,75
417,817	-3,41
418,025	111,27
418,233	113,32
418,441	19,11
418,649	-11,61
418,857	-25,94
419,065	133,8
419,273	-5,46
419,481	29,35
419,689	17,07
419,897	-9,56
420,105	-27,99
420,313	113,32
420,521	111,27
420,729	125,61
420,937	0,68
421,145	-46,42
421,353	107,18
421,561	82,6
421,769	103,08
421,977	-66,9
422,185	164,52
422,393	60,07
422,601	39,59
422,809	125,61
423,017	90,79
423,224	2,73
423,432	84,65
423,64	49,83
423,848	166,57
424,056	-38,23
424,263	158,38
424,471	-54,61
424,679	180,9
424,887	15,02
425,094	105,13
425,302	58,03
425,51	-7,51
425,718	107,18
425,925	66,22
426,133	-7,51
426,341	180,9
426,548	62,12
426,756	19,11
426,964	70,31
427,171	-62,8
427,379	29,35
427,586	51,88
427,794	129,7
428,001	129,7
428,209	86,7
428,417	154,28
428,624	68,27
428,832	51,88
429,039	98,99
429,247	113,32
429,454	113,32
429,662	113,32
429,869	88,75
430,076	84,65
430,284	154,28
430,491	197,29
430,699	62,12
430,906	180,9
431,114	90,79
431,321	66,22
431,528	68,27
431,736	23,21
431,943	-13,65
432,15	94,89
432,358	137,9
432,565	221,86
432,772	-79,19
432,979	185
433,187	6,83
433,394	158,38
433,601	-34,13
433,808	133,8
434,016	164,52
434,223	10,92
434,43	-23,89
434,637	90,79
434,844	39,59
435,052	72,36
435,259	45,74
435,466	35,5
435,673	166,57
435,88	105,13
436,087	148,14
436,294	160,42
436,501	96,94
436,708	45,74
436,915	51,88
437,122	107,18
437,329	31,4
437,537	-9,56
437,743	49,83
437,95	152,23
438,157	109,23
438,364	80,55
438,571	8,87
438,778	127,66
438,985	92,84
439,192	176,81
439,399	72,36
439,606	39,59
439,813	191,14
440,02	176,81
440,227	236,2
440,433	96,94
440,64	78,51
440,847	-25,94
441,054	174,76
441,261	221,86
441,467	101,03
441,674	47,79
441,881	101,03
442,088	-27,99
442,294	123,56
442,501	189,1
442,708	162,47
442,914	58,03
443,121	141,99
443,328	170,66
443,534	141,99
443,741	131,75
443,948	45,74
444,154	121,51
444,361	330,41
444,568	107,18
444,774	101,03
444,981	23,21
445,187	189,1
445,394	90,79
445,6	49,83
445,807	117,42
446,013	39,59
446,22	4,78
446,426	141,99
446,633	127,66
446,839	213,67
447,046	-5,46
447,252	213,67
447,459	107,18
447,665	103,08
447,871	158,38
448,078	123,56
448,284	203,43
448,491	205,48
448,697	187,05
448,903	154,28
449,11	141,99
449,316	121,51
449,522	187,05
449,728	139,94
449,935	185
450,141	137,9
450,347	244,39
450,553	156,33
450,76	158,38
450,966	166,57
451,172	266,92
451,378	135,85
451,584	172,71
451,791	316,07
451,997	228,01
452,203	191,14
452,409	320,17
452,615	221,86
452,821	162,47
453,027	76,46
453,233	379,56
453,44	154,28
453,646	178,86
453,852	158,38
454,058	76,46
454,264	225,96
454,47	182,95
454,676	98,99
454,882	170,66
455,088	137,9
455,294	174,76
455,5	221,86
455,705	193,19
455,911	139,94
456,117	76,46
456,323	92,84
456,529	301,73
456,735	146,09
456,941	148,14
457,147	228,01
457,352	178,86
457,558	156,33
457,764	187,05
457,97	137,9
458,176	252,58
458,381	154,28
458,587	346,79
458,793	211,62
458,999	135,85
459,204	96,94
459,41	148,14
459,616	146,09
459,821	213,67
460,027	41,64
460,233	209,58
460,438	268,97
460,644	230,06
460,85	277,16
461,055	178,86
461,261	205,48
461,466	98,99
461,672	131,75
461,878	88,75
462,083	264,87
462,289	66,22
462,494	129,7
462,7	189,1
462,905	160,42
463,111	264,87
463,316	240,3
463,522	127,66
463,727	82,6
463,932	232,1
464,138	146,09
464,343	211,62
464,549	240,3
464,754	256,68
464,959	228,01
465,165	168,62
465,37	182,95
465,575	146,09
465,781	170,66
465,986	203,43
466,191	178,86
466,397	105,13
466,602	324,26
466,807	185
467,012	209,58
467,218	189,1
467,423	107,18
467,628	207,53
467,833	90,79
468,038	88,75
468,244	74,41
468,449	31,4
468,654	135,85
468,859	162,47
469,064	90,79
469,269	82,6
469,474	129,7
469,679	203,43
469,885	170,66
470,09	115,37
470,295	170,66
470,5	199,34
470,705	195,24
470,91	168,62
471,115	252,58
471,32	98,99
471,525	320,17
471,73	260,77
471,935	80,55
472,139	121,51
472,344	109,23
472,549	133,8
472,754	195,24
472,959	178,86
473,164	117,42
473,369	180,9
473,574	354,98
473,778	156,33
473,983	178,86
474,188	221,86
474,393	107,18
474,598	168,62
474,802	158,38
475,007	111,27
475,212	293,54
475,417	105,13
475,621	311,97
475,826	119,46
476,031	160,42
476,235	80,55
476,44	94,89
476,645	127,66
476,849	127,66
477,054	96,94
477,259	55,98
477,463	307,88
477,668	281,25
477,872	162,47
478,077	125,61
478,282	-11,61
478,486	148,14
478,691	166,57
478,895	129,7
479,1	234,15
479,304	316,07
479,509	180,9
479,713	230,06
479,918	287,4
480,122	33,45
480,326	172,71
480,531	117,42
480,735	172,71
480,94	119,46
481,144	225,96
481,348	92,84
481,553	172,71
481,757	152,23
481,961	121,51
482,166	129,7
482,37	98,99
482,574	178,86
482,778	115,37
482,983	209,58
483,187	139,94
483,391	150,18
483,595	189,1
483,8	189,1
484,004	299,69
484,208	182,95
484,412	252,58
484,616	162,47
484,821	66,22
485,025	88,75
485,229	94,89
485,433	180,9
485,637	166,57
485,841	96,94
486,045	178,86
486,249	205,48
486,453	170,66
486,657	101,03
486,861	-36,18
487,065	174,76
487,269	109,23
487,473	96,94
487,677	96,94
487,881	391,84
488,085	133,8
488,289	199,34
488,493	78,51
488,697	350,89
488,901	246,44
489,105	154,28
489,309	139,94
489,512	299,69
489,716	187,05
489,92	178,86
490,124	236,2
490,328	252,58
490,531	96,94
490,735	254,63
490,939	94,89
491,143	121,51
491,346	213,67
491,55	96,94
491,754	168,62
491,958	96,94
492,161	178,86
492,365	187,05
492,569	137,9
492,772	236,2
492,976	205,48
493,18	137,9
493,383	189,1
493,587	162,47
493,79	221,86
493,994	174,76
494,197	150,18
494,401	166,57
494,605	41,64
494,808	133,8
495,012	129,7
495,215	213,67
495,419	244,39
495,622	137,9
495,825	82,6
496,029	148,14
496,232	232,1
496,436	187,05
496,639	244,39
496,843	182,95
497,046	98,99
497,249	318,12
497,453	197,29
497,656	152,23
497,859	148,14
498,063	238,25
498,266	305,83
498,469	33,45
498,673	139,94
498,876	174,76
499,079	101,03
499,282	146,09
499,485	428,71
499,689	254,63
499,892	277,16
500,095	166,57
500,298	146,09
500,501	66,22
500,705	195,24
500,908	170,66
501,111	156,33
501,314	277,16
501,517	244,39
501,72	154,28
501,923	281,25
502,126	211,62
502,329	221,86
502,532	250,53
502,735	211,62
502,938	287,4
503,141	195,24
503,344	180,9
503,547	303,78
503,75	123,56
503,953	135,85
504,156	303,78
504,359	221,86
504,562	228,01
504,765	221,86
504,968	264,87
505,17	250,53
505,373	242,34
505,576	287,4
505,779	162,47
505,982	187,05
506,185	285,35
506,387	211,62
506,59	291,49
506,793	213,67
506,996	205,48
507,198	193,19
507,401	342,69
507,604	348,84
507,807	203,43
508,009	254,63
508,212	334,5
508,415	215,72
508,617	187,05
508,82	238,25
509,022	334,5
509,225	268,97
509,428	289,45
509,63	219,82
509,833	246,44
510,035	438,95
510,238	266,92
510,44	146,09
510,643	305,83
510,845	416,42
511,048	377,51
511,25	213,67
511,453	228,01
511,655	260,77
511,858	416,42
512,06	379,56
512,262	223,91
512,465	293,54
512,667	256,68
512,87	156,33
513,072	408,23
513,274	295,59
513,477	293,54
513,679	234,15
513,881	307,88
514,084	199,34
514,286	318,12
514,488	248,49
514,69	332,45
514,893	207,53
515,095	260,77
515,297	275,11
515,499	271,01
515,701	187,05
515,904	264,87
516,106	348,84
516,308	408,23
516,51	246,44
516,712	307,88
516,914	354,98
517,116	213,67
517,318	268,97
517,52	248,49
517,722	277,16
517,925	250,53
518,127	264,87
518,329	424,61
518,531	221,86
518,733	334,5
518,935	248,49
519,136	346,79
519,338	256,68
519,54	242,34
519,742	318,12
519,944	395,94
520,146	320,17
520,348	348,84
520,55	342,69
520,752	262,82
520,954	281,25
521,155	266,92
521,357	197,29
521,559	385,7
521,761	357,03
521,963	352,93
522,164	371,37
522,366	381,6
522,568	354,98
522,77	375,46
522,971	375,46
523,173	191,14
523,375	342,69
523,576	277,16
523,778	311,97
523,98	291,49
524,181	432,8
524,383	404,13
524,584	420,52
524,786	342,69
524,988	252,58
525,189	279,21
525,391	363,17
525,592	297,64
525,794	203,43
525,995	336,55
526,197	428,71
526,398	475,81
526,6	352,93
526,801	230,06
527,003	174,76
527,204	301,73
527,406	305,83
527,607	330,41
527,808	320,17
528,01	350,89
528,211	436,9
528,412	271,01
528,614	404,13
528,815	395,94
529,016	416,42
529,218	418,47
529,419	348,84
529,62	303,78
529,822	418,47
530,023	500,39
530,224	662,18
530,425	977,56
530,626	1450,64
530,828	2171,53
531,029	3172,99
531,23	5063,26
531,431	7797,3
531,632	11747,83
531,833	15999,41
532,035	22045,02
532,236	27590,92
532,437	32968,88
532,638	36743,29
532,839	40486,98
533,04	44060,68
533,241	45393,91
533,442	46333,93
533,643	45101,05
533,844	43032,6
534,045	39891,02
534,246	35004,56
534,447	30777,56
534,648	25973,02
534,849	21778,78
535,05	17961,37
535,251	14703,05
535,451	11936,24
535,652	9441,82
535,853	7240,25
536,054	5454,42
536,255	3689,07
536,456	2499,2
536,657	1702,54
536,857	1211,03
537,058	836,25
537,259	727,71
537,46	555,68
537,66	486,05
537,861	465,57
538,062	475,81
538,263	311,97
538,463	539,3
538,664	375,46
538,865	434,85
539,065	342,69
539,266	375,46
539,466	215,72
539,667	283,3
539,868	326,31
540,068	359,08
540,269	285,35
540,469	328,36
540,67	498,34
540,87	424,61
541,071	238,25
541,271	395,94
541,472	432,8
541,672	354,98
541,873	451,24
542,073	297,64
542,274	357,03
542,474	391,84
542,675	260,77
542,875	354,98
543,075	182,95
543,276	174,76
543,476	242,34
543,676	348,84
543,877	254,63
544,077	326,31
544,277	354,98
544,478	273,06
544,678	273,06
544,878	205,48
545,078	234,15
545,279	238,25
545,479	234,15
545,679	330,41
545,879	129,7
546,079	393,89
546,28	160,42
546,48	328,36
546,68	350,89
546,88	289,45
547,08	246,44
547,28	397,99
547,48	178,86
547,68	367,27
547,88	277,16
548,081	303,78
548,281	228,01
548,481	223,91
548,681	234,15
548,881	258,73
549,081	332,45
549,28	326,31
549,48	168,62
549,68	357,03
549,88	365,22
550,08	170,66
550,28	283,3
550,48	299,69
550,68	211,62
550,88	283,3
551,08	187,05
551,279	377,51
551,479	244,39
551,679	381,6
551,879	209,58
552,079	336,55
552,278	307,88
552,478	418,47
552,678	252,58
552,878	336,55
553,077	326,31
553,277	225,96
553,477	248,49
553,676	332,45
553,876	252,58
554,076	242,34
554,275	375,46
554,475	246,44
554,674	354,98
554,874	266,92
555,074	246,44
555,273	264,87
555,473	211,62
555,672	285,35
555,872	211,62
556,071	268,97
556,271	404,13
556,47	279,21
556,67	279,21
556,869	340,65
557,068	219,82
557,268	287,4
557,467	301,73
557,667	389,8
557,866	293,54
558,065	299,69
558,265	285,35
558,464	318,12
558,663	289,45
558,863	309,93
559,062	205,48
559,261	262,82
559,461	234,15
559,66	262,82
559,859	150,18
560,058	260,77
560,258	150,18
560,457	240,3
560,656	455,33
560,855	123,56
561,054	344,74
561,253	295,59
561,453	271,01
561,652	197,29
561,851	404,13
562,05	277,16
562,249	217,77
562,448	326,31
562,647	197,29
562,846	238,25
563,045	336,55
563,244	264,87
563,443	305,83
563,642	262,82
563,841	279,21
564,04	271,01
564,239	215,72
564,438	256,68
564,637	90,79
564,836	316,07
565,035	318,12
565,234	228,01
565,432	295,59
565,631	332,45
565,83	234,15
566,029	197,29
566,228	185
566,427	281,25
566,625	277,16
566,824	334,5
567,023	205,48
567,222	275,11
567,42	268,97
567,619	287,4
567,818	254,63
568,016	479,91
568,215	248,49
568,414	295,59
568,612	201,38
568,811	219,82
569,01	178,86
569,208	258,73
569,407	363,17
569,605	389,8
569,804	162,47
570,002	238,25
570,201	266,92
570,4	328,36
570,598	238,25
570,797	207,53
570,995	201,38
571,193	228,01
571,392	314,02
571,59	215,72
571,789	334,5
571,987	295,59
572,186	350,89
572,384	191,14
572,582	258,73
572,781	375,46
572,979	137,9
573,177	213,67
573,376	219,82
573,574	422,56
573,772	271,01
573,971	217,77
574,169	123,56
574,367	268,97
574,565	244,39
574,763	178,86
574,962	275,11
575,16	281,25
575,358	187,05
575,556	273,06
575,754	215,72
575,952	180,9
576,151	291,49
576,349	369,32
576,547	172,71
576,745	195,24
576,943	264,87
577,141	154,28
577,339	123,56
577,537	271,01
577,735	361,13
577,933	309,93
578,131	133,8
578,329	410,28
578,527	238,25
578,725	311,97
578,923	80,55
579,121	283,3
579,319	19,11
579,516	187,05
579,714	475,81
579,912	305,83
580,11	117,42
580,308	199,34
580,506	213,67
580,704	103,08
580,901	178,86
581,099	291,49
581,297	256,68
581,495	268,97
581,692	148,14
581,89	367,27
582,088	328,36
582,285	238,25
582,483	195,24
582,681	197,29
582,878	189,1
583,076	293,54
583,274	246,44
583,471	363,17
583,669	246,44
583,866	195,24
584,064	246,44
584,262	146,09
584,459	166,57
584,657	209,58
584,854	213,67
585,052	250,53
585,249	363,17
585,447	268,97
585,644	203,43
585,841	266,92
586,039	277,16
586,236	271,01
586,434	207,53
586,631	205,48
586,828	133,8
587,026	254,63
587,223	164,52
587,42	152,23
587,618	215,72
587,815	393,89
588,012	242,34
588,21	211,62
588,407	393,89
588,604	305,83
588,801	199,34
588,999	246,44
589,196	332,45
589,393	268,97
589,59	260,77
589,787	191,14
589,984	225,96
590,182	283,3
590,379	211,62
590,576	180,9
590,773	260,77
590,97	191,14
591,167	246,44
591,364	252,58
591,561	195,24
591,758	338,6
591,955	326,31
592,152	156,33
592,349	225,96
592,546	219,82
592,743	191,14
592,94	318,12
593,137	277,16
593,334	303,78
593,531	316,07
593,727	271,01
593,924	350,89
594,121	211,62
594,318	254,63
594,515	324,26
594,712	383,65
594,908	447,14
595,105	109,23
595,302	281,25
595,499	279,21
595,696	352,93
595,892	137,9
596,089	408,23
596,286	236,2
596,482	387,75
596,679	230,06
596,876	268,97
597,072	299,69
597,269	328,36
597,466	211,62
597,662	250,53
597,859	256,68
598,055	246,44
598,252	285,35
598,448	264,87
598,645	318,12
598,841	279,21
599,038	397,99
599,234	441
599,431	309,93
599,627	234,15
599,824	287,4
600,02	371,37
600,217	225,96
600,413	320,17
600,609	240,3
600,806	516,77
601,002	305,83
601,198	211,62
601,395	381,6
601,591	271,01
601,787	289,45
601,984	359,08
602,18	301,73
602,376	207,53
602,572	352,93
602,769	289,45
602,965	318,12
603,161	320,17
603,357	385,7
603,553	406,18
603,75	187,05
603,946	314,02
604,142	287,4
604,338	379,56
604,534	273,06
604,73	285,35
604,926	228,01
605,122	344,74
605,318	207,53
605,514	295,59
605,71	221,86
605,906	400,04
606,102	273,06
606,298	443,04
606,494	334,5
606,69	416,42
606,886	297,64
607,082	240,3
607,278	301,73
607,474	416,42
607,67	391,84
607,866	279,21
608,062	383,65
608,257	434,85
608,453	180,9
608,649	350,89
608,845	262,82
609,041	215,72
609,236	316,07
609,432	338,6
609,628	244,39
609,824	324,26
610,019	236,2
610,215	281,25
610,411	361,13
610,606	402,08
610,802	238,25
610,998	230,06
611,193	318,12
611,389	195,24
611,584	342,69
611,78	211,62
611,976	299,69
612,171	500,39
612,367	490,15
612,562	283,3
612,758	303,78
612,953	174,76
613,149	244,39
613,344	289,45
613,539	295,59
613,735	340,65
613,93	301,73
614,126	279,21
614,321	273,06
614,517	393,89
614,712	314,02
614,907	369,32
615,103	395,94
615,298	195,24
615,493	217,77
615,688	301,73
615,884	295,59
616,079	225,96
616,274	326,31
616,47	252,58
616,665	215,72
616,86	256,68
617,055	170,66
617,25	221,86
617,445	260,77
617,641	275,11
617,836	254,63
618,031	195,24
618,226	369,32
618,421	352,93
618,616	236,2
618,811	268,97
619,006	254,63
619,201	441
619,396	322,21
619,591	213,67
619,786	260,77
619,981	338,6
620,176	340,65
620,371	260,77
620,566	297,64
620,761	416,42
620,956	375,46
621,151	293,54
621,346	320,17
621,541	172,71
621,735	416,42
621,93	359,08
622,125	281,25
622,32	236,2
622,515	144,04
622,709	334,5
622,904	299,69
623,099	293,54
623,294	305,83
623,488	334,5
623,683	320,17
623,878	297,64
624,072	334,5
624,267	260,77
624,462	309,93
624,656	187,05
624,851	303,78
625,046	328,36
625,24	244,39
625,435	326,31
625,629	273,06
625,824	426,66
626,018	395,94
626,213	320,17
626,407	197,29
626,602	342,69
626,796	146,09
626,991	420,52
627,185	238,25
627,38	334,5
627,574	320,17
627,768	318,12
627,963	273,06
628,157	234,15
628,352	182,95
628,546	166,57
628,74	279,21
628,935	221,86
629,129	123,56
629,323	363,17
629,517	144,04
629,712	281,25
629,906	268,97
630,1	285,35
630,294	277,16
630,489	295,59
630,683	236,2
630,877	211,62
631,071	371,37
631,265	232,1
631,459	281,25
631,653	262,82
631,848	248,49
632,042	203,43
632,236	195,24
632,43	268,97
632,624	268,97
632,818	285,35
633,012	316,07
633,206	250,53
633,4	314,02
633,594	236,2
633,788	264,87
633,982	291,49
634,176	379,56
634,369	256,68
634,563	252,58
634,757	90,79
634,951	266,92
635,145	352,93
635,339	170,66
635,533	242,34
635,726	273,06
635,92	234,15
636,114	189,1
636,308	160,42
636,501	119,46
636,695	275,11
636,889	172,71
637,083	252,58
637,276	197,29
637,47	113,32
637,664	164,52
637,857	203,43
638,051	240,3
638,244	277,16
638,438	156,33
638,632	320,17
638,825	105,13
639,019	285,35
639,212	164,52
639,406	240,3
639,599	228,01
639,793	285,35
639,986	219,82
640,18	332,45
640,373	178,86
640,567	260,77
640,76	230,06
640,954	322,21
641,147	158,38
641,34	236,2
641,534	164,52
641,727	279,21
641,92	361,13
642,114	256,68
642,307	170,66
642,5	318,12
642,694	209,58
642,887	228,01
643,08	385,7
643,273	246,44
643,467	187,05
643,66	139,94
643,853	64,17
644,046	187,05
644,239	193,19
644,432	129,7
644,626	66,22
644,819	246,44
645,012	258,73
645,205	275,11
645,398	330,41
645,591	156,33
645,784	113,32
645,977	123,56
646,17	152,23
646,363	221,86
646,556	189,1
646,749	62,12
646,942	180,9
647,135	221,86
647,328	195,24
647,521	166,57
647,714	217,77
647,907	174,76
648,099	162,47
648,292	322,21
648,485	162,47
648,678	201,38
648,871	105,13
649,064	152,23
649,256	125,61
649,449	189,1
649,642	131,75
649,835	217,77
650,027	84,65
650,22	262,82
650,413	166,57
650,605	205,48
650,798	72,36
650,991	152,23
651,183	160,42
651,376	189,1
651,568	238,25
651,761	141,99
651,954	273,06
652,146	148,14
652,339	205,48
652,531	187,05
652,724	107,18
652,916	121,51
653,109	31,4
653,301	264,87
653,494	189,1
653,686	189,1
653,879	242,34
654,071	252,58
654,263	96,94
654,456	148,14
654,648	262,82
654,84	268,97
655,033	64,17
655,225	246,44
655,417	43,69
655,61	228,01
655,802	211,62
655,994	248,49
656,186	109,23
656,379	252,58
656,571	133,8
656,763	180,9
656,955	209,58
657,148	113,32
657,34	211,62
657,532	98,99
657,724	33,45
657,916	158,38
658,108	293,54
658,3	238,25
658,492	156,33
658,684	121,51
658,876	236,2
659,068	141,99
659,26	49,83
659,452	101,03
659,644	123,56
659,836	254,63
660,028	148,14
660,22	105,13
660,412	182,95
660,604	78,51
660,796	193,19
660,988	246,44
661,18	228,01
661,372	158,38
661,563	228,01
661,755	287,4
661,947	62,12
662,139	-23,89
662,331	133,8
662,522	123,56
662,714	74,41
662,906	64,17
663,097	72,36
663,289	111,27
663,481	35,5
663,673	148,14
663,864	125,61
664,056	193,19
664,247	12,97
664,439	146,09
664,631	158,38
664,822	252,58
665,014	135,85
665,205	154,28
665,397	94,89
665,588	139,94
665,78	211,62
665,971	230,06
666,163	180,9
666,354	176,81
666,546	64,17
666,737	123,56
666,929	82,6
667,12	94,89
667,311	158,38
667,503	55,98
667,694	98,99
667,885	215,72
668,077	199,34
668,268	39,59
668,459	129,7
668,651	158,38
668,842	182,95
669,033	37,55
669,224	70,31
669,416	393,89
669,607	162,47
669,798	98,99
669,989	293,54
670,18	98,99
670,371	242,34
670,563	-5,46
670,754	201,38
670,945	203,43
671,136	260,77
671,327	37,55
671,518	203,43
671,709	285,35
671,9	223,91
672,091	182,95
672,282	92,84
672,473	154,28
672,664	-11,61
672,855	115,37
673,046	113,32
673,237	156,33
673,428	82,6
673,619	105,13
673,809	88,75
674	203,43
674,191	213,67
674,382	111,27
674,573	131,75
674,764	70,31
674,954	191,14
675,145	39,59
675,336	76,46
675,527	47,79
675,717	129,7
675,908	64,17
676,099	131,75
676,289	150,18
676,48	-44,37
676,671	101,03
676,861	146,09
677,052	170,66
677,243	80,55
677,433	82,6
677,624	162,47
677,814	131,75
678,005	78,51
678,195	197,29
678,386	-66,9
678,576	74,41
678,767	35,5
678,957	62,12
679,148	92,84
679,338	137,9
679,529	133,8
679,719	84,65
679,909	199,34
680,1	125,61
680,29	115,37
680,481	15,02
680,671	187,05
680,861	96,94
681,052	88,75
681,242	0,68
681,432	117,42
681,622	80,55
681,813	39,59
682,003	94,89
682,193	-1,37
682,383	74,41
682,573	92,84
682,764	21,16
682,954	21,16
683,144	105,13
683,334	76,46
683,524	27,31
683,714	41,64
683,904	158,38
684,094	49,83
684,284	27,31
684,474	164,52
684,664	103,08
684,854	90,79
685,044	98,99
685,234	58,03
685,424	76,46
685,614	-9,56
685,804	215,72
685,994	160,42
686,184	53,93
686,374	131,75
686,564	12,97
686,753	33,45
686,943	8,87
687,133	82,6
687,323	-15,7
687,513	131,75
687,702	47,79
687,892	29,35
688,082	164,52
688,272	154,28
688,461	60,07
688,651	254,63
688,841	123,56
689,03	82,6
689,22	64,17
689,41	137,9
689,599	96,94
689,789	47,79
689,979	264,87
690,168	8,87
690,358	105,13
690,547	101,03
690,737	49,83
690,926	92,84
691,116	113,32
691,305	148,14
691,495	152,23
691,684	19,11
691,874	72,36
692,063	72,36
692,252	146,09
692,442	135,85
692,631	74,41
692,82	31,4
693,01	113,32
693,199	17,07
693,388	178,86
693,578	74,41
693,767	187,05
693,956	111,27
694,146	-5,46
694,335	129,7
694,524	-1,37
694,713	141,99
694,902	90,79
695,092	150,18
695,281	148,14
695,47	113,32
695,659	90,79
695,848	146,09
696,037	55,98
696,226	180,9
696,415	19,11
696,604	170,66
696,793	80,55
696,982	113,32
697,171	135,85
697,36	70,31
697,549	94,89
697,738	-34,13
697,927	64,17
698,116	-60,76
698,305	213,67
698,494	101,03
698,683	-25,94
698,872	268,97
699,061	117,42
699,25	49,83
699,438	74,41
699,627	70,31
699,816	187,05
700,005	33,45
700,193	29,35
700,382	154,28
700,571	88,75
700,76	80,55
700,948	137,9
701,137	148,14
701,326	154,28
701,514	62,12
701,703	60,07
701,892	105,13
702,08	223,91
702,269	88,75
702,457	37,55
702,646	144,04
702,834	70,31
703,023	162,47
703,212	187,05
703,4	74,41
703,589	98,99
703,777	-58,71
703,965	23,21
704,154	49,83
704,342	25,26
704,531	15,02
704,719	160,42
704,907	170,66
705,096	-62,8
705,284	41,64
705,472	88,75
705,661	19,11
705,849	53,93
706,037	228,01
706,226	47,79
706,414	119,46
706,602	19,11
706,79	150,18
706,979	-17,75
707,167	35,5
707,355	-60,76
707,543	139,94
707,731	66,22
707,919	146,09
708,107	121,51
708,296	35,5
708,484	-40,28
708,672	152,23
708,86	115,37
709,048	84,65
709,236	-15,7
709,424	115,37
709,612	90,79
709,8	-83,28
709,988	-9,56
710,176	76,46
710,364	176,81
710,551	60,07
710,739	66,22
710,927	35,5
711,115	60,07
711,303	98,99
711,491	244,39
711,679	68,27
711,866	152,23
712,054	41,64
712,242	113,32
712,43	82,6
712,617	-27,99
712,805	154,28
712,993	41,64
713,181	-38,23
713,368	139,94
713,556	129,7
713,744	45,74
713,931	195,24
714,119	82,6
714,306	10,92
714,494	-7,51
714,682	47,79
714,869	-7,51
715,057	37,55
715,244	-9,56
715,432	64,17
715,619	-3,41
715,807	-1,37
715,994	-23,89
716,182	47,79
716,369	66,22
716,556	60,07
716,744	-124,24
716,931	-81,24
717,119	37,55
717,306	55,98
717,493	12,97
717,681	-3,41
717,868	29,35
718,055	117,42
718,242	-5,46
718,43	127,66
718,617	53,93
718,804	58,03
718,991	96,94
719,179	19,11
719,366	148,14
719,553	131,75
719,74	45,74
719,927	62,12
720,114	72,36
720,301	-1,37
720,488	2,73
720,676	-73,04
720,863	154,28
721,05	133,8
721,237	117,42
721,424	74,41
721,611	88,75
721,798	-71
721,985	17,07
722,172	31,4
722,358	-21,84
722,545	60,07
722,732	33,45
722,919	141,99
723,106	74,41
723,293	70,31
723,48	80,55
723,667	31,4
723,853	101,03
724,04	80,55
724,227	123,56
724,414	31,4
724,6	133,8
724,787	98,99
724,974	287,4
725,161	45,74
725,347	-48,47
725,534	35,5
725,72	103,08
725,907	129,7
726,094	137,9
726,28	-9,56
726,467	0,68
726,653	27,31
726,84	176,81
727,027	154,28
727,213	47,79
727,4	189,1
727,586	25,26
727,773	96,94
727,959	8,87
728,145	-17,75
728,332	8,87
728,518	-21,84
728,705	133,8
728,891	86,7
729,077	94,89
729,264	-66,9
729,45	66,22
729,636	105,13
729,823	62,12
730,009	139,94
730,195	68,27
730,382	117,42
730,568	-25,94
730,754	80,55
730,94	60,07
731,126	27,31
731,313	105,13
731,499	78,51
731,685	29,35
731,871	64,17
732,057	84,65
732,243	58,03
732,429	121,51
732,615	125,61
732,801	60,07
732,987	-1,37
733,173	19,11
733,359	-42,32
733,545	27,31
733,731	-40,28
733,917	135,85
734,103	119,46
734,289	39,59
734,475	-7,51
734,661	182,95
734,847	53,93
735,033	37,55
735,219	27,31
735,404	6,83
735,59	-36,18
735,776	19,11
735,962	103,08
736,148	154,28
736,333	66,22
736,519	53,93
736,705	-21,84
736,89	-15,7
737,076	8,87
737,262	35,5
737,447	-7,51
737,633	-62,8
737,819	176,81
738,004	70,31
738,19	41,64
738,375	94,89
738,561	137,9
738,747	105,13
738,932	-81,24
739,118	201,38
739,303	15,02
739,489	156,33
739,674	33,45
739,859	-114
740,045	174,76
740,23	49,83
740,416	-3,41
740,601	27,31
740,786	29,35
740,972	-1,37
741,157	-7,51
741,342	58,03
741,528	-13,65
741,713	117,42
741,898	12,97
742,084	103,08
742,269	66,22
742,454	2,73
742,639	74,41
742,824	43,69
743,01	111,27
743,195	180,9
743,38	-27,99
743,565	21,16
743,75	92,84
743,935	103,08
744,12	221,86
744,305	15,02
744,49	-3,41
744,675	55,98
744,86	10,92
745,045	96,94
745,23	68,27
745,415	-1,37
745,6	111,27
745,785	10,92
745,97	182,95
746,155	90,79
746,34	115,37
746,525	101,03
746,71	135,85
746,895	-3,41
747,079	-46,42
747,264	96,94
747,449	90,79
747,634	133,8
747,819	84,65
748,003	17,07
748,188	-73,04
748,373	98,99
748,557	-7,51
748,742	64,17
748,927	88,75
749,111	-5,46
749,296	39,59
749,481	72,36
749,665	127,66
749,85	-42,32
750,034	113,32
750,219	90,79
750,404	-54,61
750,588	90,79
750,773	62,12
750,957	74,41
751,141	31,4
751,326	94,89
751,51	0,68
751,695	45,74
751,879	-1,37
752,064	156,33
752,248	8,87
752,432	150,18
752,617	164,52
752,801	90,79
752,985	156,33
753,17	148,14
753,354	60,07
753,538	141,99
753,722	-38,23
753,907	60,07
754,091	-5,46
754,275	105,13
754,459	-46,42
754,643	-40,28
754,828	92,84
755,012	23,21
755,196	4,78
755,38	96,94
755,564	-38,23
755,748	78,51
755,932	74,41
756,116	123,56
756,3	45,74
756,484	-9,56
756,668	94,89
756,852	-62,8
757,036	4,78
757,22	31,4
757,404	15,02
757,588	10,92
757,772	64,17
757,956	43,69
758,14	129,7
758,323	-23,89
758,507	58,03
758,691	-17,75
758,875	144,04
759,059	123,56
759,242	10,92
759,426	55,98
759,61	98,99
759,794	17,07
759,977	47,79
760,161	232,1
760,345	174,76
760,528	127,66
760,712	37,55
760,895	84,65
761,079	-5,46
761,263	31,4
761,446	39,59
761,63	-9,56
761,813	80,55
761,997	-32,08
762,18	58,03
762,364	60,07
762,547	-71
762,731	4,78
762,914	10,92
763,098	-50,52
763,281	53,93
763,464	15,02
763,648	29,35
763,831	-58,71
764,015	0,68
764,198	109,23
764,381	-17,75
764,564	101,03
764,748	84,65
764,931	66,22
765,114	105,13
765,297	68,27
765,481	25,26
765,664	-9,56
765,847	12,97
766,03	125,61
766,213	2,73
766,397	-30,04
766,58	-50,52
766,763	103,08
766,946	0,68
767,129	55,98
767,312	-44,37
767,495	43,69
767,678	82,6
767,861	21,16
768,044	4,78
768,227	-1,37
768,41	25,26
768,593	8,87
768,776	27,31
768,959	-42,32
769,142	96,94
769,324	-25,94
769,507	2,73
769,69	-56,66
769,873	-17,75
770,056	230,06
770,239	29,35
770,421	121,51
770,604	2,73
770,787	150,18
770,97	123,56
771,152	-30,04
771,335	47,79
771,518	55,98
771,7	129,7
771,883	115,37
772,066	33,45
772,248	-7,51
772,431	162,47
772,613	105,13
772,796	53,93
772,978	55,98
773,161	162,47
773,343	-42,32
773,526	-46,42
773,708	-83,28
773,891	-66,9
774,073	-38,23
774,256	-9,56
774,438	203,43
774,621	-3,41
774,803	98,99
774,985	2,73
775,168	127,66
775,35	47,79
775,532	74,41
775,715	-36,18
775,897	74,41
776,079	25,26
776,261	55,98
776,444	37,55
776,626	35,5
776,808	-23,89
776,99	-17,75
777,173	37,55
777,355	25,26
777,537	-54,61
777,719	41,64
777,901	-17,75
778,083	-13,65
778,265	-83,28
778,447	105,13
778,629	43,69
778,811	33,45
778,993	33,45
779,175	168,62
779,357	2,73
779,539	-97,62
779,721	27,31
779,903	144,04
780,085	8,87
780,267	-5,46
780,449	51,88
780,631	51,88
780,812	125,61
780,994	82,6
781,176	-9,56
781,358	-48,47
781,54	-9,56
781,721	148,14
781,903	51,88
782,085	-66,9
782,267	84,65
782,448	-83,28
782,63	68,27
782,812	98,99
782,993	129,7
783,175	121,51
783,357	-64,85
783,538	74,41
783,72	-36,18
783,901	23,21
784,083	23,21
784,264	47,79
784,446	-32,08
784,627	19,11
784,809	2,73
784,99	6,83
785,172	19,11
785,353	47,79
785,535	-11,61
785,716	-25,94
785,897	-19,8
786,079	-1,37
786,26	58,03
786,441	113,32
786,623	-77,14
786,804	-66,9
786,985	47,79
787,167	72,36
787,348	51,88
787,529	64,17
787,71	238,25
787,891	131,75
788,073	-1,37
788,254	-46,42
788,435	88,75
788,616	39,59
788,797	-9,56
788,978	4,78
789,159	15,02
789,34	101,03
789,522	103,08
789,703	2,73
789,884	98,99
790,065	47,79
790,246	197,29
790,427	66,22
790,607	92,84
790,788	66,22
790,969	-9,56
791,15	45,74
791,331	-13,65
791,512	25,26
791,693	-17,75
791,874	23,21
792,054	193,19
792,235	164,52
792,416	-116,05
792,597	35,5
792,778	94,89
792,958	15,02
793,139	-38,23
793,32	58,03
793,5	-50,52
793,681	76,46
793,862	125,61
794,042	4,78
794,223	-77,14
794,404	8,87
794,584	-81,24
794,765	-9,56
794,945	39,59
795,126	23,21
795,306	76,46
795,487	23,21
795,667	12,97
795,848	88,75
796,028	-13,65
796,209	12,97
796,389	60,07
796,57	17,07
796,75	-79,19
796,93	49,83
797,111	-68,95
797,291	-11,61
797,471	111,27
797,652	-38,23
797,832	-3,41
798,012	98,99
798,192	-66,9
798,373	-114
798,553	-58,71
798,733	47,79
798,913	15,02
799,093	29,35
799,274	-11,61
799,454	27,31
799,634	47,79
799,814	21,16
799,994	84,65
800,174	-17,75
800,354	-32,08
800,534	-79,19
800,714	101,03
800,894	-44,37
801,074	-15,7
801,254	-42,32
801,434	137,9
801,614	27,31
801,794	6,83
801,974	2278,02
802,154	-75,09
802,334	119,46
802,514	-105,81
802,693	39,59
802,873	19,11
803,053	131,75
803,233	29,35
803,413	139,94
803,592	41,64
803,772	-44,37
803,952	47,79
804,131	-64,85
804,311	107,18
804,491	119,46
804,67	-13,65
804,85	-9,56
805,03	39,59
805,209	168,62
805,389	-5,46
805,568	-64,85
805,748	-54,61
805,928	53,93
806,107	58,03
806,287	98,99
806,466	6,83
806,646	-1,37
806,825	8,87
807,004	-9,56
807,184	23,21
807,363	115,37
807,543	25,26
807,722	-17,75
807,901	125,61
808,081	39,59
808,26	-58,71
808,439	72,36
808,619	-17,75
808,798	47,79
808,977	76,46
809,156	103,08
809,336	4,78
809,515	80,55
809,694	-25,94
809,873	-44,37
810,052	47,79
810,231	90,79
810,411	64,17
810,59	117,42
810,769	115,37
810,948	101,03
811,127	-99,67
811,306	-77,14
811,485	-52,56
811,664	109,23
811,843	78,51
812,022	0,68
812,201	2,73
812,38	-17,75
812,559	-32,08
812,737	35,5
812,916	-48,47
813,095	-38,23
813,274	45,74
813,453	15,02
813,632	49,83
813,811	139,94
813,989	-120,15
814,168	23,21
814,347	-21,84
814,526	-50,52
814,704	51,88
814,883	94,89
815,062	-21,84
815,24	78,51
815,419	-132,44
815,598	105,13
815,776	-91,48
815,955	-7,51
816,133	-109,91
816,312	-21,84
816,49	-50,52
816,669	19,11
816,847	-42,32
817,026	45,74
817,204	-30,04
817,383	27,31
817,561	37,55
817,74	-7,51
817,918	31,4
818,097	-71
818,275	-15,7
818,453	92,84
818,632	-13,65
818,81	39,59
818,988	-73,04
819,167	-56,66
819,345	64,17
819,523	-15,7
819,701	2,73
819,879	113,32
820,058	-7,51
820,236	19,11
820,414	-34,13
820,592	-71
820,77	4,78
820,948	-17,75
821,127	-17,75
821,305	60,07
821,483	-91,48
821,661	96,94
821,839	41,64
822,017	12,97
822,195	-9,56
822,373	139,94
822,551	-54,61
822,729	148,14
822,907	37,55
823,085	94,89
823,262	-9,56
823,44	-77,14
823,618	23,21
823,796	23,21
823,974	15,02
824,152	-34,13
824,329	49,83
824,507	62,12
824,685	96,94
824,863	35,5
825,04	-13,65
825,218	88,75
825,396	53,93
825,574	-32,08
825,751	17,07
825,929	35,5
826,107	-56,66
826,284	53,93
826,462	76,46
826,639	6,83
826,817	-144,72
826,994	66,22
827,172	-73,04
827,349	125,61
827,527	8,87
827,704	74,41
827,882	66,22
828,059	15,02
828,237	-44,37
828,414	111,27
828,591	-128,34
828,769	129,7
828,946	-36,18
829,124	64,17
829,301	141,99
829,478	-34,13
829,655	8,87
829,833	76,46
830,01	-140,63
830,187	78,51
830,364	-27,99
830,542	-5,46
830,719	156,33
830,896	72,36
831,073	39,59
831,25	-1,37
831,427	80,55
831,604	-7,51
831,782	-54,61
831,959	47,79
832,136	-11,61
832,313	51,88
832,49	2,73
832,667	-1,37
832,844	12,97
833,021	92,84
833,198	74,41
833,374	0,68
833,551	70,31
833,728	-23,89
833,905	78,51
834,082	-66,9
834,259	53,93
834,436	58,03
834,612	-32,08
834,789	70,31
834,966	0,68
835,143	-21,84
835,319	-42,32
835,496	92,84
835,673	72,36
835,85	74,41
836,026	164,52
836,203	178,86
836,38	-34,13
836,556	-95,57
836,733	-23,89
836,909	115,37
837,086	84,65
837,262	-64,85
837,439	6,83
837,616	-50,52
837,792	-32,08
837,968	-3,41
838,145	-50,52
838,321	-23,89
838,498	-64,85
838,674	55,98
838,851	53,93
839,027	-71
839,203	88,75
839,38	29,35
839,556	15,02
839,732	92,84
839,909	6,83
840,085	105,13
840,261	-60,76
840,437	19,11
840,614	72,36
840,79	8,87
840,966	19,11
841,142	-1,37
841,318	-58,71
841,494	53,93
841,671	121,51
841,847	-99,67
842,023	-3,41
842,199	58,03
842,375	109,23
842,551	-134,48
842,727	19,11
842,903	156,33
843,079	47,79
843,255	115,37
843,431	31,4
843,607	37,55
843,783	-116,05
843,959	64,17
844,134	-46,42
844,31	105,13
844,486	-13,65
844,662	-52,56
844,838	-44,37
845,013	76,46
845,189	49,83
845,365	-21,84
845,541	-17,75
845,716	35,5
845,892	129,7
846,068	-32,08
846,244	31,4
846,419	80,55
846,595	-128,34
846,77	-64,85
846,946	109,23
847,122	-71
847,297	33,45
847,473	121,51
847,648	-163,15
847,824	41,64
847,999	-124,24
848,175	15,02
848,35	58,03
848,526	121,51
848,701	152,23
848,876	82,6
849,052	131,75
849,227	-9,56
849,403	-27,99
849,578	25,26
849,753	25,26
849,929	31,4
850,104	-111,96
850,279	17,07
850,454	76,46
850,63	129,7
850,805	-11,61
850,98	47,79
851,155	25,26
851,33	88,75
851,505	-50,52
851,681	172,71
851,856	-132,44
852,031	88,75
852,206	39,59
852,381	-128,34
852,556	31,4
852,731	-3,41
852,906	64,17
853,081	27,31
853,256	101,03
853,431	-38,23
853,606	8,87
853,781	-21,84
853,956	-130,39
854,131	10,92
854,305	12,97
854,48	-13,65
854,655	-58,71
854,83	-109,91
855,005	-7,51
855,18	-19,8
855,354	-62,8
855,529	8,87
855,704	-105,81
855,879	92,84
856,053	-27,99
856,228	103,08
856,403	-56,66
856,577	33,45
856,752	-95,57
856,926	43,69
857,101	64,17
857,276	-68,95
857,45	31,4
857,625	96,94
857,799	80,55
857,974	27,31
858,148	-73,04
858,323	84,65
858,497	53,93
858,672	-30,04
858,846	-48,47
859,02	88,75
859,195	-85,33
859,369	72,36
859,543	64,17
859,718	39,59
859,892	45,74
860,066	-17,75
860,241	-30,04
860,415	-81,24
860,589	19,11
860,763	0,68
860,938	29,35
861,112	90,79
861,286	-66,9
861,46	-5,46
861,634	0,68
861,808	135,85
861,982	12,97
862,157	-103,76
862,331	23,21
862,505	-85,33
862,679	-83,28
862,853	31,4
863,027	-13,65
863,201	148,14
863,375	-109,91
863,549	92,84
863,722	2,73
863,896	21,16
864,07	-25,94
864,244	-21,84
864,418	146,09
864,592	-9,56
864,766	27,31
864,939	82,6
865,113	-3,41
865,287	199,34
865,461	-34,13
865,634	66,22
865,808	23,21
865,982	-50,52
866,156	-56,66
866,329	-116,05
866,503	78,51
866,676	129,7
866,85	-32,08
867,024	-73,04
867,197	80,55
867,371	47,79
867,544	80,55
867,718	-75,09
867,891	150,18
868,065	-105,81
868,238	29,35
868,412	53,93
868,585	8,87
868,759	-73,04
868,932	55,98
869,105	-77,14
869,279	6,83
869,452	-66,9
869,625	0,68
869,799	-79,19
869,972	-9,56
870,145	-58,71
870,319	68,27
870,492	-13,65
870,665	-38,23
870,838	-77,14
871,011	-152,91
871,185	23,21
871,358	-50,52
871,531	47,79
871,704	-27,99
871,877	84,65
872,05	33,45
872,223	-42,32
872,396	101,03
872,569	15,02
872,742	-46,42
872,915	133,8
873,088	-77,14
873,261	-93,52
873,434	170,66
873,607	25,26
873,78	90,79
873,953	-56,66
874,126	-21,84
874,299	49,83
874,471	-42,32
874,644	-32,08
874,817	25,26
874,99	199,34
875,163	8,87
875,335	8,87
875,508	0,68
875,681	29,35
875,853	-17,75
876,026	-1,37
876,199	66,22
876,371	33,45
876,544	-34,13
876,717	-32,08
876,889	45,74
877,062	84,65
877,234	-118,1
877,407	-32,08
877,579	23,21
877,752	31,4
877,924	58,03
878,097	66,22
878,269	17,07
878,442	70,31
878,614	17,07
878,786	49,83
878,959	25,26
879,131	68,27
879,303	-75,09
879,476	6,83
879,648	64,17
879,82	-15,7
879,993	-40,28
880,165	-9,56
880,337	-25,94
880,509	68,27
880,681	-71
880,854	-64,85
881,026	35,5
881,198	166,57
881,37	47,79
881,542	23,21
881,714	-48,47
881,886	-7,51
882,058	19,11
882,23	39,59
882,402	-101,72
882,574	103,08
882,746	109,23
882,918	82,6
883,09	88,75
883,262	-17,75
883,434	-54,61
883,606	-68,95
883,778	-3,41
883,95	107,18
884,122	-11,61
884,293	121,51
884,465	2,73
884,637	119,46
884,809	0,68
884,98	17,07
885,152	98,99
885,324	17,07
885,496	-7,51
885,667	-9,56
885,839	-66,9
886,011	154,28
886,182	-9,56
886,354	51,88
886,525	-1,37
886,697	21,16
886,869	-25,94
887,04	-34,13
887,212	185
887,383	154,28
887,555	6,83
887,726	8,87
887,897	-38,23
888,069	-9,56
888,24	105,13
888,412	29,35
888,583	-32,08
888,754	23,21
888,926	-118,1
889,097	-66,9
889,268	-99,67
889,44	25,26
889,611	-13,65
889,782	-62,8
889,953	-116,05
890,125	68,27
890,296	-95,57
890,467	12,97
890,638	-116,05
890,809	-48,47
890,98	-60,76
891,151	53,93
891,323	51,88
891,494	10,92
891,665	-5,46
891,836	-46,42
892,007	23,21
892,178	-21,84
892,349	33,45
892,52	-27,99
892,691	-48,47
892,862	19,11
893,032	-83,28
893,203	-9,56
893,374	39,59
893,545	68,27
893,716	-30,04
893,887	58,03
894,057	8,87
894,228	23,21
894,399	-40,28
894,57	101,03
894,74	-32,08
894,911	31,4
895,082	6,83
895,253	-1,37
895,423	12,97
895,594	98,99
895,764	51,88
895,935	-101,72
896,106	41,64
896,276	-44,37
896,447	10,92
896,617	-17,75
896,788	-89,43
896,958	-1,37
897,129	-1,37
897,299	-42,32
897,47	88,75
897,64	64,17
897,81	27,31
897,981	31,4
898,151	-56,66
898,322	55,98
898,492	8,87
898,662	-118,1
898,832	-83,28
899,003	-17,75
899,173	60,07
899,343	-89,43
899,513	-64,85
