Data from laserVert_USB4F104151__2__11-49-23-176.txt Node

Date: Wed Apr 15 11:49:23 EDT 2026
User: LaboPhy
Spectrometer: USB4F10415
Trigger mode: 4
Integration Time (sec): 1,000000E-1
Scans to average: 1
Electric dark correction enabled: true
Nonlinearity correction enabled: false
Boxcar width: 0
XAxis mode: Wavelengths
Number of Pixels in Spectrum: 3648
>>>>>Begin Spectral Data<<<<<
178,204	-453,63
178,424	-453,63
178,644	-453,63
178,864	-467,96
179,084	-381,95
179,304	60,42
179,524	-31,74
179,744	-41,98
179,964	93,18
180,184	-15,36
180,404	74,75
180,624	-60,42
180,844	-19,46
181,064	-50,18
181,283	48,13
181,503	-62,46
181,723	5,12
181,943	-132,09
182,163	222,2
182,383	-17,41
182,602	78,85
182,822	148,48
183,042	91,13
183,262	-33,79
183,482	17,41
183,701	41,98
183,921	33,79
184,141	3,07
184,361	74,75
184,58	111,61
184,8	21,5
185,02	-11,26
185,239	130,05
185,459	119,81
185,679	187,39
185,898	-115,71
186,118	-3,07
186,338	134,14
186,557	41,98
186,777	-46,08
186,997	-29,7
187,216	33,79
187,436	183,29
187,655	89,09
187,875	107,52
188,095	62,46
188,314	248,83
188,534	138,24
188,753	-66,56
188,973	119,81
189,192	185,34
189,412	-13,31
189,631	9,22
189,851	87,04
190,07	150,53
190,29	-52,22
190,509	1,02
190,729	37,89
190,948	119,81
191,168	209,92
191,387	64,51
191,607	48,13
191,826	70,65
192,045	46,08
192,265	21,5
192,484	109,57
192,704	56,32
192,923	-99,33
193,142	146,43
193,362	115,71
193,581	171,01
193,8	31,74
194,02	130,05
194,239	13,31
194,458	115,71
194,678	76,8
194,897	-44,03
195,116	119,81
195,335	5,12
195,555	74,75
195,774	9,22
195,993	138,24
196,212	54,27
196,432	17,41
196,651	-5,12
196,87	84,99
197,089	261,12
197,308	13,31
197,528	91,13
197,747	-29,7
197,966	123,9
198,185	111,61
198,404	-27,65
198,623	105,47
198,842	115,71
199,062	91,13
199,281	130,05
199,5	5,12
199,719	168,96
199,938	99,33
200,157	93,18
200,376	130,05
200,595	132,09
200,814	25,6
201,033	-25,6
201,252	162,81
201,471	60,42
201,69	27,65
201,909	21,5
202,128	78,85
202,347	111,61
202,566	-9,22
202,785	-33,79
203,004	-44,03
203,223	345,08
203,442	41,98
203,661	-97,28
203,879	103,42
204,098	140,29
204,317	-52,22
204,536	74,75
204,755	125,95
204,974	113,66
205,193	-31,74
205,411	97,28
205,63	101,37
205,849	119,81
206,068	68,61
206,287	50,18
206,505	148,48
206,724	87,04
206,943	-19,46
207,162	-91,13
207,381	132,09
207,599	89,09
207,818	56,32
208,037	-52,22
208,255	87,04
208,474	109,57
208,693	78,85
208,911	-1,02
209,13	62,46
209,349	72,7
209,567	136,19
209,786	103,42
210,005	128
210,223	128
210,442	-72,7
210,661	19,46
210,879	48,13
211,098	41,98
211,316	19,46
211,535	37,89
211,753	-21,5
211,972	46,08
212,191	31,74
212,409	15,36
212,628	52,22
212,846	-58,37
213,065	-9,22
213,283	138,24
213,502	44,03
213,72	109,57
213,938	60,42
214,157	76,8
214,375	64,51
214,594	72,7
214,812	62,46
215,031	29,7
215,249	72,7
215,467	52,22
215,686	52,22
215,904	95,23
216,122	46,08
216,341	136,19
216,559	58,37
216,778	128
216,996	125,95
217,214	56,32
217,432	-60,42
217,651	-68,61
217,869	89,09
218,087	-11,26
218,306	-50,18
218,524	37,89
218,742	62,46
218,96	156,67
219,179	60,42
219,397	11,26
219,615	285,69
219,833	111,61
220,051	-5,12
220,27	60,42
220,488	158,72
220,706	97,28
220,924	-11,26
221,142	-50,18
221,36	64,51
221,578	130,05
221,796	-17,41
222,015	84,99
222,233	3,07
222,451	146,43
222,669	-3,07
222,887	128
223,105	11,26
223,323	70,65
223,541	-48,13
223,759	58,37
223,977	5,12
224,195	173,05
224,413	68,61
224,631	44,03
224,849	82,94
225,067	263,16
225,285	-46,08
225,503	29,7
225,721	-156,67
225,939	41,98
226,157	78,85
226,375	236,54
226,592	-23,55
226,81	33,79
227,028	130,05
227,246	95,23
227,464	87,04
227,682	164,86
227,9	29,7
228,117	-31,74
228,335	95,23
228,553	9,22
228,771	-19,46
228,989	46,08
229,206	119,81
229,424	56,32
229,642	23,55
229,86	-64,51
230,077	140,29
230,295	105,47
230,513	128
230,731	97,28
230,948	175,1
231,166	177,15
231,384	1,02
231,601	-5,12
231,819	154,62
232,037	-48,13
232,254	-19,46
232,472	58,37
232,689	1,02
232,907	70,65
233,125	-3,07
233,342	-60,42
233,56	15,36
233,777	99,33
233,995	13,31
234,213	103,42
234,43	154,62
234,648	46,08
234,865	-44,03
235,083	39,94
235,3	-25,6
235,518	130,05
235,735	132,09
235,953	82,94
236,17	23,55
236,388	56,32
236,605	48,13
236,822	119,81
237,04	-9,22
237,257	119,81
237,475	-27,65
237,692	101,37
237,909	54,27
238,127	-3,07
238,344	91,13
238,562	58,37
238,779	-11,26
238,996	-58,37
239,214	48,13
239,431	89,09
239,648	41,98
239,865	140,29
240,083	64,51
240,3	7,17
240,517	-7,17
240,735	78,85
240,952	91,13
241,169	23,55
241,386	74,75
241,603	-25,6
241,821	-39,94
242,038	33,79
242,255	138,24
242,472	-87,04
242,689	78,85
242,907	70,65
243,124	9,22
243,341	29,7
243,558	-41,98
243,775	-41,98
243,992	13,31
244,209	89,09
244,426	201,72
244,643	101,37
244,86	-72,7
245,078	119,81
245,295	148,48
245,512	46,08
245,729	58,37
245,946	78,85
246,163	54,27
246,38	-64,51
246,597	3,07
246,814	37,89
247,031	-17,41
247,248	66,56
247,464	177,15
247,681	-13,31
247,898	105,47
248,115	70,65
248,332	-11,26
248,549	125,95
248,766	177,15
248,983	54,27
249,2	111,61
249,417	154,62
249,633	-21,5
249,85	25,6
250,067	80,89
250,284	89,09
250,501	37,89
250,717	64,51
250,934	-52,22
251,151	-3,07
251,368	-58,37
251,585	37,89
251,801	44,03
252,018	-89,09
252,235	68,61
252,451	23,55
252,668	68,61
252,885	171,01
253,102	-21,5
253,318	23,55
253,535	13,31
253,752	-33,79
253,968	-29,7
254,185	-84,99
254,401	113,66
254,618	119,81
254,835	-93,18
255,051	93,18
255,268	5,12
255,484	171,01
255,701	13,31
255,917	99,33
256,134	-52,22
256,351	21,5
256,567	-37,89
256,784	70,65
257	-41,98
257,217	82,94
257,433	80,89
257,65	33,79
257,866	214,01
258,082	-29,7
258,299	-7,17
258,515	-9,22
258,732	-50,18
258,948	-52,22
259,165	29,7
259,381	3,07
259,597	54,27
259,814	37,89
260,03	68,61
260,246	-13,31
260,463	103,42
260,679	144,38
260,895	70,65
261,112	78,85
261,328	29,7
261,544	-39,94
261,761	207,87
261,977	-33,79
262,193	-78,85
262,409	41,98
262,626	11,26
262,842	66,56
263,058	-19,46
263,274	99,33
263,49	66,56
263,707	74,75
263,923	107,52
264,139	-54,27
264,355	33,79
264,571	154,62
264,787	48,13
265,004	105,47
265,22	-23,55
265,436	-9,22
265,652	17,41
265,868	84,99
266,084	-17,41
266,3	-19,46
266,516	-3,07
266,732	52,22
266,948	46,08
267,164	-27,65
267,38	105,47
267,596	66,56
267,812	185,34
268,028	29,7
268,244	62,46
268,46	15,36
268,676	54,27
268,892	70,65
269,108	-3,07
269,324	46,08
269,54	15,36
269,756	50,18
269,972	-46,08
270,188	-33,79
270,403	9,22
270,619	1,02
270,835	101,37
271,051	50,18
271,267	-11,26
271,483	-41,98
271,698	101,37
271,914	39,94
272,13	-15,36
272,346	54,27
272,562	95,23
272,777	95,23
272,993	99,33
273,209	50,18
273,425	62,46
273,64	-19,46
273,856	54,27
274,072	-11,26
274,287	-33,79
274,503	99,33
274,719	109,57
274,934	41,98
275,15	-35,84
275,366	60,42
275,581	-1,02
275,797	87,04
276,012	13,31
276,228	39,94
276,444	121,85
276,659	146,43
276,875	-9,22
277,09	7,17
277,306	-29,7
277,521	27,65
277,737	72,7
277,952	119,81
278,168	68,61
278,383	64,51
278,599	64,51
278,814	107,52
279,03	5,12
279,245	177,15
279,461	7,17
279,676	111,61
279,892	-41,98
280,107	1,02
280,322	39,94
280,538	175,1
280,753	17,41
280,969	119,81
281,184	87,04
281,399	236,54
281,615	17,41
281,83	119,81
282,045	11,26
282,26	9,22
282,476	80,89
282,691	76,8
282,906	144,38
283,122	25,6
283,337	-15,36
283,552	50,18
283,767	23,55
283,983	144,38
284,198	-13,31
284,413	72,7
284,628	-44,03
284,843	82,94
285,058	105,47
285,274	-21,5
285,489	1,02
285,704	82,94
285,919	56,32
286,134	7,17
286,349	130,05
286,564	80,89
286,779	119,81
286,995	87,04
287,21	-58,37
287,425	111,61
287,64	-44,03
287,855	62,46
288,07	-84,99
288,285	117,76
288,5	87,04
288,715	130,05
288,93	23,55
289,145	-15,36
289,36	105,47
289,575	35,84
289,79	95,23
290,004	33,79
290,219	93,18
290,434	-52,22
290,649	-5,12
290,864	132,09
291,079	3,07
291,294	56,32
291,509	82,94
291,724	-7,17
291,938	46,08
292,153	5,12
292,368	-35,84
292,583	56,32
292,798	62,46
293,012	115,71
293,227	111,61
293,442	1,02
293,657	134,14
293,871	140,29
294,086	62,46
294,301	201,72
294,516	76,8
294,73	50,18
294,945	46,08
295,16	50,18
295,374	138,24
295,589	101,37
295,804	-46,08
296,018	17,41
296,233	76,8
296,447	7,17
296,662	54,27
296,877	125,95
297,091	121,85
297,306	23,55
297,52	29,7
297,735	31,74
297,949	41,98
298,164	111,61
298,378	119,81
298,593	-72,7
298,807	-76,8
299,022	62,46
299,236	123,9
299,451	5,12
299,665	37,89
299,88	29,7
300,094	-7,17
300,309	37,89
300,523	27,65
300,737	35,84
300,952	138,24
301,166	-19,46
301,381	9,22
301,595	-5,12
301,809	27,65
302,024	5,12
302,238	-13,31
302,452	50,18
302,667	31,74
302,881	175,1
303,095	80,89
303,309	-11,26
303,524	13,31
303,738	11,26
303,952	-33,79
304,166	-9,22
304,381	-52,22
304,595	195,58
304,809	23,55
305,023	46,08
305,237	3,07
305,452	1,02
305,666	31,74
305,88	27,65
306,094	72,7
306,308	54,27
306,522	119,81
306,736	117,76
306,95	130,05
307,164	-31,74
307,379	72,7
307,593	62,46
307,807	115,71
308,021	70,65
308,235	62,46
308,449	-68,61
308,663	60,42
308,877	171,01
309,091	21,5
309,305	160,77
309,519	-78,85
309,733	123,9
309,947	19,46
310,161	50,18
310,374	46,08
310,588	113,66
310,802	-3,07
311,016	21,5
311,23	58,37
311,444	-27,65
311,658	33,79
311,872	214,01
312,085	168,96
312,299	164,86
312,513	101,37
312,727	1,02
312,941	-95,23
313,154	95,23
313,368	29,7
313,582	-25,6
313,796	99,33
314,009	17,41
314,223	70,65
314,437	87,04
314,651	140,29
314,864	-87,04
315,078	17,41
315,292	-7,17
315,505	-72,7
315,719	48,13
315,933	121,85
316,146	-56,32
316,36	-29,7
316,573	138,24
316,787	134,14
317,001	82,94
317,214	-27,65
317,428	39,94
317,641	1,02
317,855	35,84
318,068	-25,6
318,282	23,55
318,495	144,38
318,709	95,23
318,922	66,56
319,136	140,29
319,349	48,13
319,563	-60,42
319,776	160,77
319,99	-1,02
320,203	134,14
320,417	-11,26
320,63	152,57
320,843	148,48
321,057	-41,98
321,27	23,55
321,483	111,61
321,697	152,57
321,91	58,37
322,124	11,26
322,337	80,89
322,55	29,7
322,763	31,74
322,977	-56,32
323,19	-41,98
323,403	21,5
323,617	123,9
323,83	105,47
324,043	13,31
324,256	52,22
324,469	-74,75
324,683	111,61
324,896	56,32
325,109	21,5
325,322	-21,5
325,535	95,23
325,748	78,85
325,962	21,5
326,175	93,18
326,388	87,04
326,601	138,24
326,814	-17,41
327,027	64,51
327,24	89,09
327,453	-64,51
327,666	105,47
327,879	173,05
328,092	82,94
328,305	105,47
328,518	1,02
328,731	-52,22
328,944	-25,6
329,157	107,52
329,37	5,12
329,583	187,39
329,796	105,47
330,009	-54,27
330,222	76,8
330,435	52,22
330,648	5,12
330,861	95,23
331,073	54,27
331,286	148,48
331,499	31,74
331,712	-25,6
331,925	74,75
332,138	13,31
332,35	121,85
332,563	-50,18
332,776	62,46
332,989	-121,85
333,202	5,12
333,414	-5,12
333,627	29,7
333,84	-3,07
334,053	15,36
334,265	-44,03
334,478	13,31
334,691	82,94
334,903	-37,89
335,116	-70,65
335,329	46,08
335,541	-11,26
335,754	160,77
335,966	21,5
336,179	-1,02
336,392	-29,7
336,604	-37,89
336,817	37,89
337,029	7,17
337,242	-5,12
337,454	64,51
337,667	5,12
337,88	211,96
338,092	23,55
338,305	97,28
338,517	9,22
338,729	9,22
338,942	154,62
339,154	78,85
339,367	-35,84
339,579	70,65
339,792	-70,65
340,004	33,79
340,217	25,6
340,429	66,56
340,641	29,7
340,854	-107,52
341,066	-5,12
341,278	105,47
341,491	177,15
341,703	7,17
341,915	-37,89
342,128	105,47
342,34	9,22
342,552	-44,03
342,764	-9,22
342,977	-62,46
343,189	78,85
343,401	37,89
343,613	-66,56
343,826	134,14
344,038	-11,26
344,25	33,79
344,462	1,02
344,674	-52,22
344,886	21,5
345,099	-1,02
345,311	64,51
345,523	-17,41
345,735	-130,05
345,947	46,08
346,159	107,52
346,371	19,46
346,583	1,02
346,795	111,61
347,007	-25,6
347,219	23,55
347,431	-21,5
347,643	125,95
347,855	68,61
348,067	115,71
348,279	-1,02
348,491	9,22
348,703	78,85
348,915	11,26
349,127	-27,65
349,339	31,74
349,551	25,6
349,763	87,04
349,975	82,94
350,187	95,23
350,399	119,81
350,61	97,28
350,822	21,5
351,034	33,79
351,246	95,23
351,458	62,46
351,669	27,65
351,881	46,08
352,093	187,39
352,305	91,13
352,517	9,22
352,728	148,48
352,94	31,74
353,152	37,89
353,363	-84,99
353,575	64,51
353,787	80,89
353,999	105,47
354,21	109,57
354,422	52,22
354,633	-25,6
354,845	23,55
355,057	39,94
355,268	74,75
355,48	70,65
355,692	-117,76
355,903	15,36
356,115	5,12
356,326	-109,57
356,538	162,81
356,749	177,15
356,961	132,09
357,172	72,7
357,384	46,08
357,595	179,2
357,807	-35,84
358,018	7,17
358,23	-1,02
358,441	128
358,653	113,66
358,864	29,7
359,075	-70,65
359,287	105,47
359,498	152,57
359,709	64,51
359,921	66,56
360,132	101,37
360,344	62,46
360,555	-13,31
360,766	95,23
360,977	62,46
361,189	78,85
361,4	21,5
361,611	103,42
361,823	111,61
362,034	27,65
362,245	-195,58
362,456	1,02
362,667	95,23
362,879	-74,75
363,09	89,09
363,301	39,94
363,512	78,85
363,723	-7,17
363,935	-48,13
364,146	87,04
364,357	17,41
364,568	29,7
364,779	-56,32
364,99	128
365,201	-33,79
365,412	179,2
365,623	-62,46
365,834	46,08
366,045	29,7
366,256	82,94
366,467	33,79
366,678	78,85
366,889	84,99
367,1	-23,55
367,311	87,04
367,522	15,36
367,733	37,89
367,944	37,89
368,155	37,89
368,366	134,14
368,577	52,22
368,788	99,33
368,999	27,65
369,209	41,98
369,42	164,86
369,631	318,46
369,842	160,77
370,053	-23,55
370,264	33,79
370,474	-64,51
370,685	48,13
370,896	3,07
371,107	132,09
371,317	11,26
371,528	21,5
371,739	121,85
371,95	70,65
372,16	121,85
372,371	-17,41
372,582	-11,26
372,792	-33,79
373,003	66,56
373,214	64,51
373,424	72,7
373,635	74,75
373,846	117,76
374,056	-58,37
374,267	56,32
374,477	105,47
374,688	-44,03
374,898	44,03
375,109	25,6
375,319	41,98
375,53	138,24
375,74	87,04
375,951	-5,12
376,161	113,66
376,372	128
376,582	44,03
376,793	70,65
377,003	-27,65
377,214	19,46
377,424	84,99
377,635	41,98
377,845	-82,94
378,055	134,14
378,266	-44,03
378,476	9,22
378,686	60,42
378,897	48,13
379,107	162,81
379,317	-25,6
379,528	-15,36
379,738	134,14
379,948	-89,09
380,158	140,29
380,369	17,41
380,579	-23,55
380,789	-31,74
380,999	78,85
381,21	136,19
381,42	160,77
381,63	13,31
381,84	74,75
382,05	7,17
382,261	121,85
382,471	97,28
382,681	1,02
382,891	128
383,101	70,65
383,311	-1,02
383,521	-48,13
383,731	-19,46
383,941	93,18
384,151	54,27
384,361	-23,55
384,571	-25,6
384,781	89,09
384,991	257,02
385,201	234,49
385,411	82,94
385,621	21,5
385,831	70,65
386,041	37,89
386,251	-21,5
386,461	82,94
386,671	9,22
386,881	72,7
387,091	-15,36
387,301	97,28
387,511	50,18
387,72	84,99
387,93	117,76
388,14	29,7
388,35	-13,31
388,56	29,7
388,769	97,28
388,979	62,46
389,189	-64,51
389,399	-5,12
389,609	113,66
389,818	29,7
390,028	84,99
390,238	80,89
390,447	-37,89
390,657	60,42
390,867	44,03
391,076	-37,89
391,286	25,6
391,496	101,37
391,705	31,74
391,915	113,66
392,125	101,37
392,334	5,12
392,544	119,81
392,753	37,89
392,963	7,17
393,172	78,85
393,382	11,26
393,591	134,14
393,801	44,03
394,01	97,28
394,22	23,55
394,429	48,13
394,639	17,41
394,848	37,89
395,058	17,41
395,267	-21,5
395,477	54,27
395,686	7,17
395,895	211,96
396,105	123,9
396,314	-23,55
396,524	17,41
396,733	23,55
396,942	128
397,152	-9,22
397,361	48,13
397,57	95,23
397,78	84,99
397,989	60,42
398,198	154,62
398,407	54,27
398,617	29,7
398,826	9,22
399,035	-58,37
399,244	97,28
399,453	29,7
399,663	39,94
399,872	41,98
400,081	-56,32
400,29	64,51
400,499	-58,37
400,708	89,09
400,917	76,8
401,127	-11,26
401,336	35,84
401,545	228,35
401,754	142,33
401,963	62,46
402,172	-13,31
402,381	-82,94
402,59	-27,65
402,799	13,31
403,008	144,38
403,217	74,75
403,426	99,33
403,635	-52,22
403,844	52,22
404,053	29,7
404,262	-17,41
404,471	89,09
404,68	111,61
404,888	-25,6
405,097	50,18
405,306	15,36
405,515	72,7
405,724	-44,03
405,933	142,33
406,142	89,09
406,35	97,28
406,559	1,02
406,768	15,36
406,977	183,29
407,185	48,13
407,394	58,37
407,603	-17,41
407,812	29,7
408,02	70,65
408,229	-11,26
408,438	44,03
408,646	-113,66
408,855	37,89
409,064	46,08
409,272	-3,07
409,481	15,36
409,69	-7,17
409,898	-99,33
410,107	-7,17
410,315	113,66
410,524	50,18
410,733	89,09
410,941	-25,6
411,15	95,23
411,358	66,56
411,567	101,37
411,775	15,36
411,984	39,94
412,192	78,85
412,401	-17,41
412,609	189,44
412,818	134,14
413,026	39,94
413,234	15,36
413,443	5,12
413,651	33,79
413,86	35,84
414,068	201,72
414,276	132,09
414,485	5,12
414,693	115,71
414,901	236,54
415,11	25,6
415,318	52,22
415,526	-5,12
415,734	115,71
415,943	119,81
416,151	130,05
416,359	21,5
416,567	5,12
416,776	109,57
416,984	33,79
417,192	134,14
417,4	21,5
417,608	-44,03
417,817	-15,36
418,025	136,19
418,233	175,1
418,441	-39,94
418,649	-80,89
418,857	78,85
419,065	111,61
419,273	-35,84
419,481	68,61
419,689	9,22
419,897	-68,61
420,105	-62,46
420,313	168,96
420,521	136,19
420,729	173,05
420,937	-87,04
421,145	-107,52
421,353	113,66
421,561	87,04
421,769	54,27
421,977	-19,46
422,185	109,57
422,393	64,51
422,601	132,09
422,809	70,65
423,017	25,6
423,224	50,18
423,432	41,98
423,64	-9,22
423,848	150,53
424,056	-19,46
424,263	142,33
424,471	-15,36
424,679	82,94
424,887	27,65
425,094	68,61
425,302	119,81
425,51	23,55
425,718	68,61
425,925	58,37
426,133	48,13
426,341	181,25
426,548	19,46
426,756	-50,18
426,964	95,23
427,171	-33,79
427,379	66,56
427,586	48,13
427,794	115,71
428,001	15,36
428,209	66,56
428,417	218,11
428,624	144,38
428,832	78,85
429,039	-3,07
429,247	25,6
429,454	54,27
429,662	148,48
429,869	60,42
430,076	74,75
430,284	175,1
430,491	222,2
430,699	78,85
430,906	191,49
431,114	37,89
431,321	62,46
431,528	50,18
431,736	46,08
431,943	37,89
432,15	101,37
432,358	103,42
432,565	125,95
432,772	-113,66
432,979	78,85
433,187	13,31
433,394	78,85
433,601	23,55
433,808	130,05
434,016	121,85
434,223	74,75
434,43	103,42
434,637	183,29
434,844	111,61
435,052	113,66
435,259	-44,03
435,466	117,76
435,673	119,81
435,88	103,42
436,087	201,72
436,294	134,14
436,501	84,99
436,708	13,31
436,915	64,51
437,122	181,25
437,329	-25,6
437,537	-3,07
437,743	19,46
437,95	220,16
438,157	-3,07
438,364	80,89
438,571	105,47
438,778	93,18
438,985	138,24
439,192	97,28
439,399	-13,31
439,606	125,95
439,813	121,85
440,02	183,29
440,227	250,88
440,433	128
440,64	91,13
440,847	29,7
441,054	130,05
441,261	246,78
441,467	154,62
441,674	27,65
441,881	142,33
442,088	35,84
442,294	160,77
442,501	171,01
442,708	95,23
442,914	72,7
443,121	103,42
443,328	146,43
443,534	160,77
443,741	80,89
443,948	13,31
444,154	66,56
444,361	320,51
444,568	97,28
444,774	136,19
444,981	-23,55
445,187	164,86
445,394	136,19
445,6	25,6
445,807	121,85
446,013	89,09
446,22	-3,07
446,426	62,46
446,633	181,25
446,839	207,87
447,046	19,46
447,252	164,86
447,459	70,65
447,665	148,48
447,871	230,4
448,078	240,64
448,284	238,59
448,491	189,44
448,697	148,48
448,903	154,62
449,11	105,47
449,316	41,98
449,522	207,87
449,728	179,2
449,935	203,77
450,141	64,51
450,347	220,16
450,553	197,63
450,76	95,23
450,966	148,48
451,172	201,72
451,378	216,06
451,584	111,61
451,791	279,55
451,997	232,44
452,203	84,99
452,409	152,57
452,615	291,84
452,821	121,85
453,027	80,89
453,233	265,21
453,44	128
453,646	136,19
453,852	105,47
454,058	177,15
454,264	252,92
454,47	207,87
454,676	54,27
454,882	95,23
455,088	226,3
455,294	150,53
455,5	252,92
455,705	197,63
455,911	166,91
456,117	162,81
456,323	95,23
456,529	166,91
456,735	195,58
456,941	220,16
457,147	218,11
457,352	228,35
457,558	109,57
457,764	242,68
457,97	148,48
458,176	132,09
458,381	148,48
458,587	300,03
458,793	146,43
458,999	136,19
459,204	138,24
459,41	150,53
459,616	132,09
459,821	195,58
460,027	48,13
460,233	138,24
460,438	205,82
460,644	128
460,85	201,72
461,055	175,1
461,261	232,44
461,466	138,24
461,672	220,16
461,878	62,46
462,083	261,12
462,289	54,27
462,494	128
462,7	244,73
462,905	179,2
463,111	187,39
463,316	252,92
463,522	271,36
463,727	138,24
463,932	130,05
464,138	144,38
464,343	209,92
464,549	265,21
464,754	308,22
464,959	263,16
465,165	132,09
465,37	136,19
465,575	195,58
465,781	123,9
465,986	82,94
466,191	80,89
466,397	171,01
466,602	244,73
466,807	183,29
467,012	203,77
467,218	136,19
467,423	107,52
467,628	101,37
467,833	105,47
468,038	238,59
468,244	11,26
468,449	50,18
468,654	136,19
468,859	183,29
469,064	154,62
469,269	80,89
469,474	211,96
469,679	435,19
469,885	115,71
470,09	84,99
470,295	97,28
470,5	136,19
470,705	205,82
470,91	130,05
471,115	121,85
471,32	136,19
471,525	293,88
471,73	345,08
471,935	156,67
472,139	142,33
472,344	52,22
472,549	146,43
472,754	220,16
472,959	175,1
473,164	171,01
473,369	117,76
473,574	201,72
473,778	189,44
473,983	199,68
474,188	254,97
474,393	101,37
474,598	193,53
474,802	171,01
475,007	84,99
475,212	160,77
475,417	152,57
475,621	308,22
475,826	1,02
476,031	95,23
476,235	111,61
476,44	146,43
476,645	152,57
476,849	148,48
477,054	50,18
477,259	113,66
477,463	199,68
477,668	283,64
477,872	197,63
478,077	146,43
478,282	130,05
478,486	177,15
478,691	115,71
478,895	136,19
479,1	154,62
479,304	322,56
479,509	177,15
479,713	236,54
479,918	216,06
480,122	117,76
480,326	64,51
480,531	119,81
480,735	207,87
480,94	54,27
481,144	199,68
481,348	166,91
481,553	144,38
481,757	5,12
481,961	87,04
482,166	89,09
482,37	80,89
482,574	187,39
482,778	70,65
482,983	152,57
483,187	181,25
483,391	160,77
483,595	228,35
483,8	183,29
484,004	230,4
484,208	156,67
484,412	302,08
484,616	171,01
484,821	158,72
485,025	160,77
485,229	87,04
485,433	173,05
485,637	179,2
485,841	142,33
486,045	271,36
486,249	185,34
486,453	128
486,657	175,1
486,861	13,31
487,065	148,48
487,269	160,77
487,473	144,38
487,677	177,15
487,881	390,14
488,085	173,05
488,289	214,01
488,493	142,33
488,697	218,11
488,901	168,96
489,105	109,57
489,309	107,52
489,512	222,2
489,716	220,16
489,92	82,94
490,124	166,91
490,328	322,56
490,531	154,62
490,735	310,27
490,939	46,08
491,143	203,77
491,346	158,72
491,55	152,57
491,754	211,96
491,958	82,94
492,161	261,12
492,365	123,9
492,569	130,05
492,772	203,77
492,976	275,45
493,18	209,92
493,383	179,2
493,587	185,34
493,79	218,11
493,994	146,43
494,197	80,89
494,401	240,64
494,605	148,48
494,808	121,85
495,012	152,57
495,215	324,6
495,419	246,78
495,622	132,09
495,825	140,29
496,029	171,01
496,232	271,36
496,436	193,53
496,639	218,11
496,843	234,49
497,046	25,6
497,249	295,93
497,453	195,58
497,656	68,61
497,859	173,05
498,063	285,69
498,266	197,63
498,469	48,13
498,673	119,81
498,876	158,72
499,079	74,75
499,282	111,61
499,485	373,75
499,689	171,01
499,892	287,74
500,095	80,89
500,298	189,44
500,501	111,61
500,705	130,05
500,908	164,86
501,111	211,96
501,314	295,93
501,517	302,08
501,72	201,72
501,923	154,62
502,126	154,62
502,329	226,3
502,532	300,03
502,735	287,74
502,938	285,69
503,141	150,53
503,344	97,28
503,547	259,07
503,75	93,18
503,953	248,83
504,156	164,86
504,359	162,81
504,562	140,29
504,765	226,3
504,968	271,36
505,17	326,65
505,373	207,87
505,576	267,26
505,779	211,96
505,982	68,61
506,185	240,64
506,387	162,81
506,59	302,08
506,793	187,39
506,996	209,92
507,198	334,84
507,401	355,32
507,604	334,84
507,807	312,32
508,009	283,64
508,212	250,88
508,415	148,48
508,617	195,58
508,82	214,01
509,022	218,11
509,225	283,64
509,428	252,92
509,63	234,49
509,833	189,44
510,035	402,43
510,238	343,03
510,44	218,11
510,643	324,6
510,845	338,94
511,048	353,27
511,25	181,25
511,453	365,56
511,655	246,78
511,858	361,47
512,06	379,9
512,262	242,68
512,465	254,97
512,667	193,53
512,87	105,47
513,072	404,47
513,274	340,99
513,477	162,81
513,679	312,32
513,881	422,91
514,084	234,49
514,286	330,75
514,488	275,45
514,69	203,77
514,893	189,44
515,095	291,84
515,297	191,49
515,499	293,88
515,701	189,44
515,904	302,08
516,106	406,52
516,308	316,41
516,51	267,26
516,712	291,84
516,914	293,88
517,116	179,2
517,318	334,84
517,52	259,07
517,722	316,41
517,925	226,3
518,127	300,03
518,329	340,99
518,531	257,02
518,733	205,82
518,935	220,16
519,136	297,98
519,338	211,96
519,54	281,6
519,742	326,65
519,944	439,29
520,146	324,6
520,348	343,03
520,55	406,52
520,752	240,64
520,954	267,26
521,155	316,41
521,357	263,16
521,559	306,17
521,761	361,47
521,963	242,68
522,164	279,55
522,366	359,42
522,568	375,8
522,77	328,7
522,971	257,02
523,173	230,4
523,375	392,19
523,576	259,07
523,778	297,98
523,98	312,32
524,181	394,23
524,383	316,41
524,584	295,93
524,786	343,03
524,988	238,59
525,189	279,55
525,391	379,9
525,592	242,68
525,794	248,83
525,995	177,15
526,197	365,56
526,398	525,3
526,6	332,79
526,801	400,38
527,003	197,63
527,204	340,99
527,406	351,23
527,607	404,47
527,808	361,47
528,01	371,71
528,211	431,1
528,412	322,56
528,614	433,15
528,815	408,57
529,016	392,19
529,218	316,41
529,419	404,47
529,62	381,95
529,822	424,95
530,023	447,48
530,224	621,56
530,425	879,6
530,626	1055,73
530,828	1618,92
531,029	2427,87
531,23	3769,29
531,431	5874,6
531,632	8954,74
531,833	12391,23
532,035	16538,37
532,236	21287,61
532,437	25350,78
532,638	28160,59
532,839	31502,88
533,04	33647,1
533,241	34544,11
533,442	35424,74
533,643	34617,84
533,844	32913,93
534,045	30386,74
534,246	27357,79
534,447	23532,18
534,648	19770,07
534,849	16460,55
535,05	13425,46
535,251	11029,34
535,451	8807,29
535,652	7027,6
535,853	5471,15
536,054	4125,63
536,255	2956,24
536,456	1934,31
536,657	1321,96
536,857	1088,5
537,058	820,21
537,259	551,93
537,46	517,11
537,66	553,98
537,861	480,25
538,062	459,77
538,263	326,65
538,463	381,95
538,664	273,4
538,865	316,41
539,065	386,04
539,266	422,91
539,466	191,49
539,667	517,11
539,868	302,08
540,068	273,4
540,269	388,09
540,469	267,26
540,67	359,42
540,87	386,04
541,071	279,55
541,271	320,51
541,472	422,91
541,672	367,61
541,873	267,26
542,073	300,03
542,274	277,5
542,474	302,08
542,675	326,65
542,875	308,22
543,075	121,85
543,276	259,07
543,476	297,98
543,676	312,32
543,877	293,88
544,077	271,36
544,277	396,28
544,478	308,22
544,678	340,99
544,878	306,17
545,078	269,31
545,279	218,11
545,479	177,15
545,679	291,84
545,879	187,39
546,079	265,21
546,28	152,57
546,48	316,41
546,68	257,02
546,88	334,84
547,08	302,08
547,28	312,32
547,48	152,57
547,68	353,27
547,88	250,88
548,081	293,88
548,281	195,58
548,481	160,77
548,681	320,51
548,881	306,17
549,081	287,74
549,28	277,5
549,48	199,68
549,68	279,55
549,88	238,59
550,08	273,4
550,28	263,16
550,48	453,63
550,68	232,44
550,88	234,49
551,08	144,38
551,279	328,7
551,479	230,4
551,679	390,14
551,879	205,82
552,079	173,05
552,278	216,06
552,478	502,78
552,678	349,18
552,878	312,32
553,077	189,44
553,277	269,31
553,477	205,82
553,676	373,75
553,876	277,5
554,076	277,5
554,275	363,51
554,475	226,3
554,674	279,55
554,874	234,49
555,074	248,83
555,273	236,54
555,473	265,21
555,672	293,88
555,872	218,11
556,071	332,79
556,271	439,29
556,47	302,08
556,67	267,26
556,869	291,84
557,068	257,02
557,268	191,49
557,467	222,2
557,667	353,27
557,866	214,01
558,065	250,88
558,265	254,97
558,464	267,26
558,663	246,78
558,863	312,32
559,062	242,68
559,261	154,62
559,461	328,7
559,66	279,55
559,859	228,35
560,058	179,2
560,258	152,57
560,457	273,4
560,656	418,81
560,855	189,44
561,054	316,41
561,253	312,32
561,453	224,25
561,652	222,2
561,851	308,22
562,05	193,53
562,249	134,14
562,448	353,27
562,647	185,34
562,846	236,54
563,045	261,12
563,244	263,16
563,443	244,73
563,642	324,6
563,841	285,69
564,04	340,99
564,239	236,54
564,438	283,64
564,637	183,29
564,836	248,83
565,035	201,72
565,234	199,68
565,432	293,88
565,631	289,79
565,83	310,27
566,029	316,41
566,228	252,92
566,427	330,75
566,625	119,81
566,824	275,45
567,023	236,54
567,222	263,16
567,42	171,01
567,619	300,03
567,818	222,2
568,016	443,39
568,215	240,64
568,414	207,87
568,612	230,4
568,811	265,21
569,01	160,77
569,208	285,69
569,407	216,06
569,605	302,08
569,804	185,34
570,002	211,96
570,201	187,39
570,4	302,08
570,598	226,3
570,797	201,72
570,995	195,58
571,193	275,45
571,392	334,84
571,59	111,61
571,789	326,65
571,987	322,56
572,186	379,9
572,384	209,92
572,582	259,07
572,781	400,38
572,979	158,72
573,177	164,86
573,376	252,92
573,574	349,18
573,772	242,68
573,971	119,81
574,169	171,01
574,367	275,45
574,565	99,33
574,763	218,11
574,962	234,49
575,16	248,83
575,358	207,87
575,556	201,72
575,754	230,4
575,952	283,64
576,151	193,53
576,349	308,22
576,547	121,85
576,745	330,75
576,943	271,36
577,141	242,68
577,339	168,96
577,537	218,11
577,735	238,59
577,933	326,65
578,131	146,43
578,329	357,37
578,527	207,87
578,725	252,92
578,923	148,48
579,121	302,08
579,319	150,53
579,516	171,01
579,714	527,35
579,912	304,12
580,11	150,53
580,308	197,63
580,506	226,3
580,704	97,28
580,901	152,57
581,099	343,03
581,297	195,58
581,495	308,22
581,692	252,92
581,89	394,23
582,088	220,16
582,285	279,55
582,483	226,3
582,681	197,63
582,878	252,92
583,076	277,5
583,274	267,26
583,471	381,95
583,669	232,44
583,866	244,73
584,064	160,77
584,262	187,39
584,459	154,62
584,657	230,4
584,854	287,74
585,052	228,35
585,249	377,85
585,447	310,27
585,644	218,11
585,841	373,75
586,039	283,64
586,236	328,7
586,434	195,58
586,631	185,34
586,828	261,12
587,026	279,55
587,223	132,09
587,42	173,05
587,618	340,99
587,815	310,27
588,012	310,27
588,21	209,92
588,407	316,41
588,604	332,79
588,801	185,34
588,999	220,16
589,196	318,46
589,393	193,53
589,59	318,46
589,787	293,88
589,984	273,4
590,182	332,79
590,379	154,62
590,576	252,92
590,773	205,82
590,97	228,35
591,167	338,94
591,364	361,47
591,561	189,44
591,758	439,29
591,955	345,08
592,152	283,64
592,349	222,2
592,546	242,68
592,743	265,21
592,94	334,84
593,137	254,97
593,334	398,33
593,531	269,31
593,727	314,36
593,924	359,42
594,121	340,99
594,318	269,31
594,515	297,98
594,712	369,66
594,908	349,18
595,105	128
595,302	297,98
595,499	300,03
595,696	326,65
595,892	211,96
596,089	334,84
596,286	222,2
596,482	314,36
596,679	328,7
596,876	246,78
597,072	396,28
597,269	259,07
597,466	283,64
597,662	273,4
597,859	171,01
598,055	310,27
598,252	261,12
598,448	269,31
598,645	338,94
598,841	297,98
599,038	400,38
599,234	343,03
599,431	340,99
599,627	293,88
599,824	390,14
600,02	242,68
600,217	261,12
600,413	310,27
600,609	316,41
600,806	605,17
601,002	246,78
601,198	187,39
601,395	316,41
601,591	357,37
601,787	250,88
601,984	228,35
602,18	289,79
602,376	234,49
602,572	275,45
602,769	351,23
602,965	336,89
603,161	398,33
603,357	297,98
603,553	390,14
603,75	209,92
603,946	261,12
604,142	318,46
604,338	377,85
604,534	259,07
604,73	230,4
604,926	310,27
605,122	367,61
605,318	275,45
605,514	353,27
605,71	306,17
605,906	373,75
606,102	273,4
606,298	383,99
606,494	304,12
606,69	314,36
606,886	254,97
607,082	285,69
607,278	201,72
607,474	349,18
607,67	383,99
607,866	218,11
608,062	285,69
608,257	367,61
608,453	193,53
608,649	269,31
608,845	162,81
609,041	316,41
609,236	257,02
609,432	336,89
609,628	297,98
609,824	345,08
610,019	203,77
610,215	244,73
610,411	396,28
610,606	390,14
610,802	201,72
610,998	271,36
611,193	383,99
611,389	171,01
611,584	386,04
611,78	205,82
611,976	300,03
612,171	445,43
612,367	381,95
612,562	390,14
612,758	261,12
612,953	193,53
613,149	291,84
613,344	322,56
613,539	271,36
613,735	279,55
613,93	367,61
614,126	267,26
614,321	297,98
614,517	433,15
614,712	349,18
614,907	367,61
615,103	347,13
615,298	234,49
615,493	211,96
615,688	195,58
615,884	297,98
616,079	211,96
616,274	326,65
616,47	252,92
616,665	230,4
616,86	193,53
617,055	281,6
617,25	197,63
617,445	283,64
617,641	263,16
617,836	166,91
618,031	214,01
618,226	332,79
618,421	361,47
618,616	318,46
618,811	351,23
619,006	191,49
619,201	316,41
619,396	275,45
619,591	244,73
619,786	353,27
619,981	312,32
620,176	257,02
620,371	236,54
620,566	293,88
620,761	398,33
620,956	316,41
621,151	259,07
621,346	347,13
621,541	265,21
621,735	408,57
621,93	386,04
622,125	328,7
622,32	259,07
622,515	136,19
622,709	312,32
622,904	433,15
623,099	250,88
623,294	394,23
623,488	357,37
623,683	365,56
623,878	277,5
624,072	388,09
624,267	201,72
624,462	345,08
624,656	265,21
624,851	289,79
625,046	304,12
625,24	261,12
625,435	275,45
625,629	216,06
625,824	357,37
626,018	340,99
626,213	285,69
626,407	267,26
626,602	412,67
626,796	238,59
626,991	357,37
627,185	265,21
627,38	275,45
627,574	357,37
627,768	271,36
627,963	207,87
628,157	308,22
628,352	285,69
628,546	226,3
628,74	273,4
628,935	214,01
629,129	162,81
629,323	277,5
629,517	171,01
629,712	218,11
629,906	179,2
630,1	322,56
630,294	369,66
630,489	209,92
630,683	209,92
630,877	156,67
631,071	330,75
631,265	136,19
631,459	269,31
631,653	265,21
631,848	181,25
632,042	300,03
632,236	142,33
632,43	304,12
632,624	228,35
632,818	226,3
633,012	293,88
633,206	271,36
633,4	187,39
633,594	220,16
633,788	293,88
633,982	388,09
634,176	400,38
634,369	242,68
634,563	244,73
634,757	39,94
634,951	220,16
635,145	377,85
635,339	275,45
635,533	273,4
635,726	259,07
635,92	230,4
636,114	140,29
636,308	211,96
636,501	162,81
636,695	211,96
636,889	156,67
637,083	191,49
637,276	173,05
637,47	136,19
637,664	164,86
637,857	279,55
638,051	203,77
638,244	273,4
638,438	220,16
638,632	304,12
638,825	89,09
639,019	349,18
639,212	179,2
639,406	322,56
639,599	191,49
639,793	214,01
639,986	267,26
640,18	312,32
640,373	140,29
640,567	207,87
640,76	267,26
640,954	308,22
641,147	119,81
641,34	254,97
641,534	246,78
641,727	349,18
641,92	259,07
642,114	306,17
642,307	177,15
642,5	250,88
642,694	211,96
642,887	211,96
643,08	361,47
643,273	259,07
643,467	197,63
643,66	154,62
643,853	162,81
644,046	248,83
644,239	216,06
644,432	152,57
644,626	87,04
644,819	207,87
645,012	144,38
645,205	226,3
645,398	324,6
645,591	191,49
645,784	175,1
645,977	109,57
646,17	209,92
646,363	220,16
646,556	146,43
646,749	105,47
646,942	236,54
647,135	252,92
647,328	132,09
647,521	162,81
647,714	236,54
647,907	269,31
648,099	128
648,292	211,96
648,485	199,68
648,678	218,11
648,871	306,17
649,064	189,44
649,256	152,57
649,449	123,9
649,642	160,77
649,835	168,96
650,027	109,57
650,22	214,01
650,413	146,43
650,605	257,02
650,798	144,38
650,991	164,86
651,183	164,86
651,376	242,68
651,568	228,35
651,761	103,42
651,954	183,29
652,146	162,81
652,339	134,14
652,531	226,3
652,724	158,72
652,916	107,52
653,109	58,37
653,301	252,92
653,494	252,92
653,686	111,61
653,879	203,77
654,071	205,82
654,263	97,28
654,456	177,15
654,648	220,16
654,84	185,34
655,033	132,09
655,225	320,51
655,417	-3,07
655,61	297,98
655,802	203,77
655,994	236,54
656,186	68,61
656,379	302,08
656,571	95,23
656,763	181,25
656,955	99,33
657,148	171,01
657,34	275,45
657,532	72,7
657,724	168,96
657,916	214,01
658,108	257,02
658,3	128
658,492	171,01
658,684	15,36
658,876	218,11
659,068	58,37
659,26	72,7
659,452	50,18
659,644	117,76
659,836	300,03
660,028	91,13
660,22	70,65
660,412	146,43
660,604	105,47
660,796	230,4
660,988	269,31
661,18	177,15
661,372	220,16
661,563	201,72
661,755	244,73
661,947	132,09
662,139	142,33
662,331	144,38
662,522	191,49
662,714	66,56
662,906	78,85
663,097	146,43
663,289	97,28
663,481	33,79
663,673	162,81
663,864	138,24
664,056	185,34
664,247	166,91
664,439	232,44
664,631	171,01
664,822	236,54
665,014	97,28
665,205	95,23
665,397	201,72
665,588	164,86
665,78	175,1
665,971	250,88
666,163	101,37
666,354	193,53
666,546	107,52
666,737	62,46
666,929	115,71
667,12	128
667,311	179,2
667,503	134,14
667,694	160,77
667,885	107,52
668,077	232,44
668,268	89,09
668,459	111,61
668,651	162,81
668,842	187,39
669,033	72,7
669,224	23,55
669,416	328,7
669,607	-11,26
669,798	130,05
669,989	277,5
670,18	80,89
670,371	199,68
670,563	9,22
670,754	214,01
670,945	171,01
671,136	138,24
671,327	84,99
671,518	195,58
671,709	220,16
671,9	201,72
672,091	259,07
672,282	123,9
672,473	103,42
672,664	9,22
672,855	128
673,046	113,66
673,237	250,88
673,428	115,71
673,619	152,57
673,809	109,57
674	177,15
674,191	187,39
674,382	173,05
674,573	101,37
674,764	128
674,954	197,63
675,145	23,55
675,336	109,57
675,527	93,18
675,717	121,85
675,908	21,5
676,099	107,52
676,289	138,24
676,48	-52,22
676,671	117,76
676,861	62,46
677,052	123,9
677,243	60,42
677,433	21,5
677,624	195,58
677,814	128
678,005	23,55
678,195	189,44
678,386	-52,22
678,576	62,46
678,767	-27,65
678,957	70,65
679,148	171,01
679,338	150,53
679,529	107,52
679,719	58,37
679,909	103,42
680,1	101,37
680,29	142,33
680,481	54,27
680,671	189,44
680,861	97,28
681,052	74,75
681,242	99,33
681,432	89,09
681,622	91,13
681,813	-17,41
682,003	107,52
682,193	84,99
682,383	87,04
682,573	17,41
682,764	27,65
682,954	74,75
683,144	140,29
683,334	1,02
683,524	56,32
683,714	144,38
683,904	107,52
684,094	95,23
684,284	39,94
684,474	130,05
684,664	160,77
684,854	48,13
685,044	113,66
685,234	80,89
685,424	25,6
685,614	-23,55
685,804	160,77
685,994	99,33
686,184	-17,41
686,374	70,65
686,564	105,47
686,753	7,17
686,943	7,17
687,133	11,26
687,323	39,94
687,513	-25,6
687,702	23,55
687,892	-11,26
688,082	119,81
688,272	136,19
688,461	119,81
688,651	203,77
688,841	105,47
689,03	-9,22
689,22	113,66
689,41	82,94
689,599	162,81
689,789	76,8
689,979	168,96
690,168	93,18
690,358	144,38
690,547	130,05
690,737	7,17
690,926	160,77
691,116	72,7
691,305	87,04
691,495	173,05
691,684	-21,5
691,874	109,57
692,063	89,09
692,252	87,04
692,442	207,87
692,631	37,89
692,82	7,17
693,01	97,28
693,199	128
693,388	103,42
693,578	13,31
693,767	115,71
693,956	152,57
694,146	66,56
694,335	138,24
694,524	93,18
694,713	136,19
694,902	29,7
695,092	46,08
695,281	148,48
695,47	66,56
695,659	82,94
695,848	87,04
696,037	9,22
696,226	138,24
696,415	56,32
696,604	136,19
696,793	113,66
696,982	87,04
697,171	179,2
697,36	15,36
697,549	93,18
697,738	-25,6
697,927	56,32
698,116	29,7
698,305	93,18
698,494	187,39
698,683	115,71
698,872	263,16
699,061	50,18
699,25	70,65
699,438	54,27
699,627	7,17
699,816	146,43
700,005	-70,65
700,193	25,6
700,382	224,25
700,571	54,27
700,76	97,28
700,948	136,19
701,137	146,43
701,326	183,29
701,514	5,12
701,703	109,57
701,892	109,57
702,08	244,73
702,269	103,42
702,457	-11,26
702,646	62,46
702,834	-80,89
703,023	115,71
703,212	119,81
703,4	-5,12
703,589	46,08
703,777	62,46
703,965	21,5
704,154	21,5
704,342	-31,74
704,531	21,5
704,719	130,05
704,907	138,24
705,096	-3,07
705,284	29,7
705,472	144,38
705,661	50,18
705,849	54,27
706,037	193,53
706,226	9,22
706,414	107,52
706,602	15,36
706,79	136,19
706,979	31,74
707,167	41,98
707,355	-50,18
707,543	107,52
707,731	103,42
707,919	68,61
708,107	17,41
708,296	50,18
708,484	62,46
708,672	113,66
708,86	87,04
709,048	154,62
709,236	93,18
709,424	138,24
709,612	58,37
709,8	27,65
709,988	117,76
710,176	105,47
710,364	158,72
710,551	78,85
710,739	62,46
710,927	29,7
711,115	54,27
711,303	173,05
711,491	160,77
711,679	60,42
711,866	185,34
712,054	64,51
712,242	89,09
712,43	111,61
712,617	-44,03
712,805	130,05
712,993	29,7
713,181	-52,22
713,368	113,66
713,556	-1,02
713,744	21,5
713,931	271,36
714,119	123,9
714,306	9,22
714,494	23,55
714,682	70,65
714,869	-50,18
715,057	17,41
715,244	-115,71
715,432	76,8
715,619	-27,65
715,807	46,08
715,994	-41,98
716,182	54,27
716,369	103,42
716,556	48,13
716,744	-56,32
716,931	3,07
717,119	82,94
717,306	19,46
717,493	132,09
717,681	27,65
717,868	-7,17
718,055	154,62
718,242	21,5
718,43	-1,02
718,617	130,05
718,804	95,23
718,991	156,67
719,179	54,27
719,366	70,65
719,553	68,61
719,74	70,65
719,927	13,31
720,114	66,56
720,301	23,55
720,488	13,31
720,676	-21,5
720,863	142,33
721,05	173,05
721,237	132,09
721,424	39,94
721,611	78,85
721,798	-41,98
721,985	27,65
722,172	-3,07
722,358	-17,41
722,545	134,14
722,732	5,12
722,919	154,62
723,106	138,24
723,293	15,36
723,48	181,25
723,667	-64,51
723,853	154,62
724,04	44,03
724,227	105,47
724,414	-33,79
724,6	89,09
724,787	224,25
724,974	68,61
725,161	9,22
725,347	-66,56
725,534	95,23
725,72	113,66
725,907	146,43
726,094	201,72
726,28	-25,6
726,467	60,42
726,653	1,02
726,84	171,01
727,027	195,58
727,213	5,12
727,4	117,76
727,586	-19,46
727,773	56,32
727,959	50,18
728,145	64,51
728,332	-7,17
728,518	13,31
728,705	95,23
728,891	33,79
729,077	123,9
729,264	-35,84
729,45	52,22
729,636	123,9
729,823	46,08
730,009	121,85
730,195	35,84
730,382	142,33
730,568	-11,26
730,754	33,79
730,94	48,13
731,126	15,36
731,313	95,23
731,499	23,55
731,685	87,04
731,871	74,75
732,057	54,27
732,243	164,86
732,429	87,04
732,615	144,38
732,801	76,8
732,987	62,46
733,173	101,37
733,359	-17,41
733,545	62,46
733,731	27,65
733,917	224,25
734,103	46,08
734,289	99,33
734,475	5,12
734,661	240,64
734,847	33,79
735,033	-50,18
735,219	128
735,404	62,46
735,59	-9,22
735,776	56,32
735,962	113,66
736,148	121,85
736,333	214,01
736,519	-33,79
736,705	5,12
736,89	-11,26
737,076	70,65
737,262	21,5
737,447	17,41
737,633	-11,26
737,819	164,86
738,004	70,65
738,19	-11,26
738,375	37,89
738,561	121,85
738,747	33,79
738,932	-19,46
739,118	166,91
739,303	111,61
739,489	46,08
739,674	-5,12
739,859	-15,36
740,045	109,57
740,23	46,08
740,416	-64,51
740,601	-7,17
740,786	72,7
740,972	-19,46
741,157	-3,07
741,342	-46,08
741,528	-37,89
741,713	162,81
741,898	-23,55
742,084	35,84
742,269	9,22
742,454	101,37
742,639	103,42
742,824	78,85
743,01	134,14
743,195	162,81
743,38	29,7
743,565	29,7
743,75	78,85
743,935	113,66
744,12	119,81
744,305	-15,36
744,49	-17,41
744,675	87,04
744,86	-21,5
745,045	140,29
745,23	60,42
745,415	95,23
745,6	193,53
745,785	76,8
745,97	103,42
746,155	31,74
746,34	68,61
746,525	58,37
746,71	195,58
746,895	-27,65
747,079	-91,13
747,264	25,6
747,449	78,85
747,634	82,94
747,819	142,33
748,003	29,7
748,188	15,36
748,373	31,74
748,557	82,94
748,742	13,31
748,927	29,7
749,111	54,27
749,296	72,7
749,481	138,24
749,665	13,31
749,85	-15,36
750,034	105,47
750,219	39,94
750,404	103,42
750,588	37,89
750,773	1,02
750,957	70,65
751,141	58,37
751,326	87,04
751,51	-35,84
751,695	-46,08
751,879	-13,31
752,064	259,07
752,248	146,43
752,432	232,44
752,617	154,62
752,801	64,51
752,985	41,98
753,17	76,8
753,354	144,38
753,538	144,38
753,722	-33,79
753,907	21,5
754,091	-23,55
754,275	64,51
754,459	-23,55
754,643	1,02
754,828	138,24
755,012	103,42
755,196	3,07
755,38	15,36
755,564	44,03
755,748	21,5
755,932	46,08
756,116	113,66
756,3	150,53
756,484	9,22
756,668	89,09
756,852	-164,86
757,036	3,07
757,22	80,89
757,404	-21,5
757,588	41,98
757,772	121,85
757,956	113,66
758,14	207,87
758,323	-52,22
758,507	9,22
758,691	-39,94
758,875	185,34
759,059	154,62
759,242	-27,65
759,426	46,08
759,61	44,03
759,794	46,08
759,977	181,25
760,161	297,98
760,345	216,06
760,528	56,32
760,712	56,32
760,895	154,62
761,079	11,26
761,263	-54,27
761,446	17,41
761,63	72,7
761,813	160,77
761,997	-48,13
762,18	54,27
762,364	3,07
762,547	-115,71
762,731	13,31
762,914	21,5
763,098	-56,32
763,281	-33,79
763,464	37,89
763,648	82,94
763,831	31,74
764,015	62,46
764,198	130,05
764,381	37,89
764,564	58,37
764,748	27,65
764,931	76,8
765,114	7,17
765,297	144,38
765,481	-27,65
765,664	37,89
765,847	-72,7
766,03	103,42
766,213	-58,37
766,397	5,12
766,58	-74,75
766,763	142,33
766,946	-103,42
767,129	-54,27
767,312	-115,71
767,495	107,52
767,678	13,31
767,861	17,41
768,044	21,5
768,227	-52,22
768,41	60,42
768,593	50,18
768,776	80,89
768,959	17,41
769,142	136,19
769,324	-17,41
769,507	-37,89
769,69	-19,46
769,873	-27,65
770,056	140,29
770,239	-1,02
770,421	97,28
770,604	103,42
770,787	84,99
770,97	97,28
771,152	-11,26
771,335	72,7
771,518	-35,84
771,7	150,53
771,883	148,48
772,066	58,37
772,248	25,6
772,431	183,29
772,613	41,98
772,796	15,36
772,978	68,61
773,161	89,09
773,343	23,55
773,526	39,94
773,708	-101,37
773,891	-76,8
774,073	-25,6
774,256	50,18
774,438	160,77
774,621	37,89
774,803	58,37
774,985	-66,56
775,168	54,27
775,35	-19,46
775,532	41,98
775,715	-25,6
775,897	44,03
776,079	68,61
776,261	58,37
776,444	119,81
776,626	62,46
776,808	-13,31
776,99	-52,22
777,173	31,74
777,355	-41,98
777,537	21,5
777,719	15,36
777,901	31,74
778,083	-44,03
778,265	17,41
778,447	66,56
778,629	-62,46
778,811	56,32
778,993	99,33
779,175	148,48
779,357	-5,12
779,539	-72,7
779,721	3,07
779,903	54,27
780,085	-1,02
780,267	95,23
780,449	46,08
780,631	128
780,812	109,57
780,994	39,94
781,176	31,74
781,358	70,65
781,54	-23,55
781,721	80,89
781,903	144,38
782,085	-37,89
782,267	171,01
782,448	-1,02
782,63	48,13
782,812	39,94
782,993	103,42
783,175	64,51
783,357	27,65
783,538	87,04
783,72	-35,84
783,901	29,7
784,083	56,32
784,264	103,42
784,446	-64,51
784,627	-68,61
784,809	128
784,99	29,7
785,172	95,23
785,353	3,07
785,535	64,51
785,716	-27,65
785,897	-60,42
786,079	56,32
786,26	31,74
786,441	13,31
786,623	-60,42
786,804	-50,18
786,985	-25,6
787,167	101,37
787,348	76,8
787,529	-3,07
787,71	95,23
787,891	64,51
788,073	-60,42
788,254	-56,32
788,435	197,63
788,616	39,94
788,797	-19,46
788,978	54,27
789,159	-41,98
789,34	72,7
789,522	54,27
789,703	-17,41
789,884	1,02
790,065	-9,22
790,246	191,49
790,427	58,37
790,607	179,2
790,788	91,13
790,969	3,07
791,15	111,61
791,331	66,56
791,512	33,79
791,693	-44,03
791,874	9,22
792,054	209,92
792,235	97,28
792,416	-82,94
792,597	1,02
792,778	132,09
792,958	-19,46
793,139	105,47
793,32	46,08
793,5	-66,56
793,681	128
793,862	97,28
794,042	37,89
794,223	-113,66
794,404	62,46
794,584	-148,48
794,765	60,42
794,945	19,46
795,126	80,89
795,306	91,13
795,487	-33,79
795,667	-7,17
795,848	64,51
796,028	1,02
796,209	58,37
796,389	158,72
796,57	17,41
796,75	-113,66
796,93	7,17
797,111	76,8
797,291	3,07
797,471	-3,07
797,652	-3,07
797,832	-15,36
798,012	119,81
798,192	74,75
798,373	-7,17
798,553	13,31
798,733	64,51
798,913	-9,22
799,093	23,55
799,274	23,55
799,454	37,89
799,634	99,33
799,814	87,04
799,994	62,46
800,174	-9,22
800,354	3,07
800,534	-158,72
800,714	95,23
800,894	-80,89
801,074	-21,5
801,254	-50,18
801,434	144,38
801,614	33,79
801,794	-48,13
801,974	2216,93
802,154	13,31
802,334	84,99
802,514	-80,89
802,693	-21,5
802,873	41,98
803,053	130,05
803,233	101,37
803,413	48,13
803,592	23,55
803,772	13,31
803,952	25,6
804,131	44,03
804,311	130,05
804,491	76,8
804,67	-68,61
804,85	-3,07
805,03	52,22
805,209	146,43
805,389	13,31
805,568	-19,46
805,748	46,08
805,928	7,17
806,107	105,47
806,287	78,85
806,466	23,55
806,646	-7,17
806,825	-44,03
807,004	-11,26
807,184	48,13
807,363	82,94
807,543	7,17
807,722	15,36
807,901	125,95
808,081	130,05
808,26	-134,14
808,439	70,65
808,619	41,98
808,798	-54,27
808,977	9,22
809,156	54,27
809,336	62,46
809,515	97,28
809,694	-35,84
809,873	70,65
810,052	37,89
810,231	171,01
810,411	62,46
810,59	80,89
810,769	39,94
810,948	95,23
811,127	-101,37
811,306	-15,36
811,485	-13,31
811,664	62,46
811,843	-25,6
812,022	128
812,201	-23,55
812,38	-17,41
812,559	-23,55
812,737	37,89
812,916	-13,31
813,095	29,7
813,274	48,13
813,453	54,27
813,632	15,36
813,811	62,46
813,989	-128
814,168	-19,46
814,347	-54,27
814,526	-11,26
814,704	107,52
814,883	87,04
815,062	-113,66
815,24	84,99
815,419	-33,79
815,598	97,28
815,776	-160,77
815,955	7,17
816,133	-148,48
816,312	80,89
816,49	-29,7
816,669	3,07
816,847	-31,74
817,026	41,98
817,204	-27,65
817,383	9,22
817,561	-84,99
817,74	93,18
817,918	62,46
818,097	-111,61
818,275	-89,09
818,453	144,38
818,632	50,18
818,81	-31,74
818,988	-1,02
819,167	-60,42
819,345	-39,94
819,523	-50,18
819,701	-35,84
819,879	70,65
820,058	-11,26
820,236	33,79
820,414	-17,41
820,592	23,55
820,77	-54,27
820,948	-58,37
821,127	-78,85
821,305	91,13
821,483	-48,13
821,661	111,61
821,839	5,12
822,017	-41,98
822,195	-25,6
822,373	80,89
822,551	89,09
822,729	97,28
822,907	70,65
823,085	13,31
823,262	29,7
823,44	7,17
823,618	-41,98
823,796	-72,7
823,974	-54,27
824,152	-33,79
824,329	-23,55
824,507	-37,89
824,685	-9,22
824,863	13,31
825,04	-25,6
825,218	103,42
825,396	35,84
825,574	7,17
825,751	80,89
825,929	52,22
826,107	-15,36
826,284	-27,65
826,462	107,52
826,639	-1,02
826,817	-91,13
826,994	15,36
827,172	-140,29
827,349	191,49
827,527	-37,89
827,704	58,37
827,882	136,19
828,059	72,7
828,237	1,02
828,414	56,32
828,591	-101,37
828,769	-74,75
828,946	-3,07
829,124	95,23
829,301	78,85
829,478	-27,65
829,655	115,71
829,833	15,36
830,01	-123,9
830,187	-25,6
830,364	66,56
830,542	37,89
830,719	156,67
830,896	91,13
831,073	23,55
831,25	70,65
831,427	70,65
831,604	-76,8
831,782	-25,6
831,959	15,36
832,136	54,27
832,313	80,89
832,49	-60,42
832,667	50,18
832,844	-39,94
833,021	91,13
833,198	-1,02
833,374	54,27
833,551	64,51
833,728	23,55
833,905	97,28
834,082	-80,89
834,259	-9,22
834,436	72,7
834,612	-54,27
834,789	115,71
834,966	33,79
835,143	-7,17
835,319	-89,09
835,496	99,33
835,673	-13,31
835,85	62,46
836,026	35,84
836,203	72,7
836,38	-125,95
836,556	-11,26
836,733	-107,52
836,909	193,53
837,086	-21,5
837,262	-44,03
837,439	-3,07
837,616	-60,42
837,792	9,22
837,968	11,26
838,145	-91,13
838,321	-21,5
838,498	37,89
838,674	74,75
838,851	-48,13
839,027	54,27
839,203	21,5
839,38	97,28
839,556	-50,18
839,732	50,18
839,909	17,41
840,085	78,85
840,261	58,37
840,437	5,12
840,614	-33,79
840,79	78,85
840,966	95,23
841,142	70,65
841,318	19,46
841,494	152,57
841,671	134,14
841,847	-9,22
842,023	-33,79
842,199	58,37
842,375	70,65
842,551	-48,13
842,727	-64,51
842,903	111,61
843,079	-121,85
843,255	132,09
843,431	-19,46
843,607	52,22
843,783	-115,71
843,959	117,76
844,134	-84,99
844,31	123,9
844,486	-19,46
844,662	-107,52
844,838	-44,03
845,013	60,42
845,189	103,42
845,365	72,7
845,541	50,18
845,716	52,22
845,892	197,63
846,068	-82,94
846,244	-109,57
846,419	-17,41
846,595	-46,08
846,77	-44,03
846,946	89,09
847,122	-27,65
847,297	-29,7
847,473	128
847,648	-156,67
847,824	21,5
847,999	-87,04
848,175	-3,07
848,35	17,41
848,526	119,81
848,701	91,13
848,876	50,18
849,052	64,51
849,227	58,37
849,403	-31,74
849,578	17,41
849,753	62,46
849,929	29,7
850,104	-35,84
850,279	37,89
850,454	-35,84
850,63	5,12
850,805	152,57
850,98	1,02
851,155	-3,07
851,33	95,23
851,505	-89,09
851,681	162,81
851,856	-89,09
852,031	78,85
852,206	111,61
852,381	-82,94
852,556	-70,65
852,731	84,99
852,906	84,99
853,081	48,13
853,256	160,77
853,431	-37,89
853,606	-54,27
853,781	-74,75
853,956	-140,29
854,131	13,31
854,305	-46,08
854,48	44,03
854,655	-11,26
854,83	13,31
855,005	-80,89
855,18	54,27
855,354	-3,07
855,529	39,94
855,704	-39,94
855,879	37,89
856,053	-9,22
856,228	56,32
856,403	-39,94
856,577	-1,02
856,752	-80,89
856,926	-9,22
857,101	19,46
857,276	-80,89
857,45	87,04
857,625	23,55
857,799	50,18
857,974	1,02
858,148	-70,65
858,323	95,23
858,497	-29,7
858,672	-60,42
858,846	-23,55
859,02	46,08
859,195	-23,55
859,369	7,17
859,543	33,79
859,718	50,18
859,892	23,55
860,066	29,7
860,241	-11,26
860,415	-64,51
860,589	-17,41
860,763	-23,55
860,938	21,5
861,112	31,74
861,286	-31,74
861,46	37,89
861,634	50,18
861,808	58,37
861,982	-33,79
862,157	-58,37
862,331	5,12
862,505	-101,37
862,679	-70,65
862,853	-105,47
863,027	-3,07
863,201	97,28
863,375	-29,7
863,549	33,79
863,722	87,04
863,896	121,85
864,07	-97,28
864,244	-25,6
864,418	99,33
864,592	31,74
864,766	11,26
864,939	-3,07
865,113	-50,18
865,287	64,51
865,461	-103,42
865,634	128
865,808	-19,46
865,982	-1,02
866,156	-15,36
866,329	-117,76
866,503	-60,42
866,676	15,36
866,85	44,03
867,024	-37,89
867,197	111,61
867,371	101,37
867,544	62,46
867,718	-70,65
867,891	99,33
868,065	-142,33
868,238	-25,6
868,412	144,38
868,585	17,41
868,759	-93,18
868,932	-19,46
869,105	-56,32
869,279	13,31
869,452	-68,61
869,625	27,65
869,799	-44,03
869,972	-54,27
870,145	-46,08
870,319	50,18
870,492	35,84
870,665	-62,46
870,838	-84,99
871,011	-107,52
871,185	-25,6
871,358	-41,98
871,531	50,18
871,704	-17,41
871,877	-44,03
872,05	5,12
872,223	-74,75
872,396	97,28
872,569	48,13
872,742	-97,28
872,915	21,5
873,088	-31,74
873,261	-50,18
873,434	68,61
873,607	31,74
873,78	146,43
873,953	-48,13
874,126	15,36
874,299	46,08
874,471	-48,13
874,644	-27,65
874,817	-9,22
874,99	226,3
875,163	-46,08
875,335	66,56
875,508	37,89
875,681	103,42
875,853	-46,08
876,026	64,51
876,199	-3,07
876,371	54,27
876,544	-17,41
876,717	37,89
876,889	-52,22
877,062	99,33
877,234	-109,57
877,407	7,17
877,579	17,41
877,752	60,42
877,924	99,33
878,097	97,28
878,269	5,12
878,442	5,12
878,614	70,65
878,786	13,31
878,959	25,6
879,131	74,75
879,303	-156,67
879,476	-17,41
879,648	105,47
879,82	21,5
879,993	-58,37
880,165	35,84
880,337	-64,51
880,509	39,94
880,681	-111,61
880,854	23,55
881,026	91,13
881,198	216,06
881,37	29,7
881,542	-35,84
881,714	-17,41
881,886	1,02
882,058	19,46
882,23	5,12
882,402	-21,5
882,574	39,94
882,746	31,74
882,918	136,19
883,09	66,56
883,262	-11,26
883,434	-1,02
883,606	-68,61
883,778	-33,79
883,95	130,05
884,122	13,31
884,293	173,05
884,465	-25,6
884,637	123,9
884,809	41,98
884,98	-1,02
885,152	72,7
885,324	62,46
885,496	-99,33
885,667	5,12
885,839	1,02
886,011	95,23
886,182	-5,12
886,354	37,89
886,525	87,04
886,697	33,79
886,869	-52,22
887,04	-72,7
887,212	66,56
887,383	164,86
887,555	-64,51
887,726	17,41
887,897	-13,31
888,069	-7,17
888,24	37,89
888,412	37,89
888,583	-19,46
888,754	54,27
888,926	-72,7
889,097	-68,61
889,268	-72,7
889,44	31,74
889,611	-113,66
889,782	-50,18
889,953	-70,65
890,125	154,62
890,296	-25,6
890,467	-78,85
890,638	-35,84
890,809	35,84
890,98	-3,07
891,151	97,28
891,323	162,81
891,494	1,02
891,665	-68,61
891,836	-70,65
892,007	-44,03
892,178	74,75
892,349	-17,41
892,52	-39,94
892,691	13,31
892,862	-44,03
893,032	-152,57
893,203	-56,32
893,374	13,31
893,545	111,61
893,716	-60,42
893,887	-3,07
894,057	-31,74
894,228	-27,65
894,399	-25,6
894,57	105,47
894,74	15,36
894,911	-37,89
895,082	5,12
895,253	-91,13
895,423	54,27
895,594	80,89
895,764	48,13
895,935	-105,47
896,106	-15,36
896,276	-50,18
896,447	70,65
896,617	-117,76
896,788	-35,84
896,958	-9,22
897,129	-58,37
897,299	-58,37
897,47	105,47
897,64	62,46
897,81	29,7
897,981	-3,07
898,151	-60,42
898,322	41,98
898,492	7,17
898,662	-33,79
898,832	19,46
899,003	-29,7
899,173	-1,02
899,343	-89,09
899,513	-52,22
