Data from filtre580_USB4F104151__8__11-53-55-546.txt Node

Date: Wed Apr 15 11:53:55 EDT 2026
User: LaboPhy
Spectrometer: USB4F10415
Trigger mode: 4
Integration Time (sec): 5,000000E-3
Scans to average: 1
Electric dark correction enabled: true
Nonlinearity correction enabled: false
Boxcar width: 0
XAxis mode: Wavelengths
Number of Pixels in Spectrum: 3648
>>>>>Begin Spectral Data<<<<<
178,204	-18,77
178,424	-18,77
178,644	-18,77
178,864	-43,35
179,084	-18,77
179,304	13,99
179,524	16,04
179,744	-67,92
179,964	-59,73
180,184	9,9
180,404	40,62
180,624	1,71
180,844	24,23
181,064	-0,34
181,283	11,95
181,503	9,9
181,723	-0,34
181,943	-6,49
182,163	-4,44
182,383	26,28
182,602	-10,58
182,822	87,72
183,042	7,85
183,262	77,48
183,482	34,47
183,701	-10,58
183,921	28,33
184,141	24,23
184,361	-43,35
184,58	-24,92
184,8	-2,39
185,02	-2,39
185,239	26,28
185,459	9,9
185,679	-10,58
185,898	38,57
186,118	-8,53
186,338	9,9
186,557	32,43
186,777	-8,53
186,997	44,71
187,216	57
187,436	54,95
187,655	32,43
187,875	-4,44
188,095	-2,39
188,314	44,71
188,534	3,75
188,753	20,14
188,973	40,62
189,192	44,71
189,412	-8,53
189,631	11,95
189,851	-31,06
190,07	5,8
190,29	-0,34
190,509	11,95
190,729	13,99
190,948	20,14
191,168	-10,58
191,387	34,47
191,607	-24,92
191,826	34,47
192,045	-16,73
192,265	54,95
192,484	11,95
192,704	-41,3
192,923	-2,39
193,142	3,75
193,362	95,91
193,581	83,63
193,8	-94,55
194,02	61,1
194,239	-47,44
194,458	-37,2
194,678	-20,82
194,897	24,23
195,116	18,09
195,335	-6,49
195,555	20,14
195,774	-18,77
195,993	9,9
196,212	-24,92
196,432	-4,44
196,651	-41,3
196,87	7,85
197,089	24,23
197,308	36,52
197,528	83,63
197,747	69,29
197,966	-18,77
198,185	5,8
198,404	-37,2
198,623	-4,44
198,842	48,81
199,062	-12,63
199,281	26,28
199,5	3,75
199,719	-20,82
199,938	52,91
200,157	132,78
200,376	52,91
200,595	28,33
200,814	30,38
201,033	38,57
201,252	57
201,471	52,91
201,69	81,58
201,909	28,33
202,128	38,57
202,347	-0,34
202,566	-37,2
202,785	-12,63
203,004	11,95
203,223	-22,87
203,442	-20,82
203,661	-26,96
203,879	13,99
204,098	9,9
204,317	36,52
204,536	-76,12
204,755	52,91
204,974	79,53
205,193	-4,44
205,411	-16,73
205,63	95,91
205,849	18,09
206,068	7,85
206,287	42,67
206,505	34,47
206,724	61,1
206,943	11,95
207,162	16,04
207,381	20,14
207,599	22,19
207,818	67,24
208,037	69,29
208,255	65,19
208,474	-4,44
208,693	16,04
208,911	9,9
209,13	54,95
209,349	-20,82
209,567	9,9
209,786	-41,3
210,005	61,1
210,223	30,38
210,442	59,05
210,661	-94,55
210,879	3,75
211,098	24,23
211,316	-35,16
211,535	67,24
211,753	-24,92
211,972	-31,06
212,191	79,53
212,409	-20,82
212,628	36,52
212,846	-10,58
213,065	44,71
213,283	38,57
213,502	-29,01
213,72	-2,39
213,938	42,67
214,157	-49,49
214,375	57
214,594	-53,59
214,812	20,14
215,031	3,75
215,249	-35,16
215,467	93,87
215,686	13,99
215,904	11,95
216,122	40,62
216,341	26,28
216,559	42,67
216,778	11,95
216,996	16,04
217,214	28,33
217,432	5,8
217,651	46,76
217,869	59,05
218,087	-8,53
218,306	-0,34
218,524	63,15
218,742	-61,78
218,96	-12,63
219,179	5,8
219,397	-20,82
219,615	54,95
219,833	28,33
220,051	9,9
220,27	3,75
220,488	-49,49
220,706	-6,49
220,924	24,23
221,142	-14,68
221,36	13,99
221,578	9,9
221,796	54,95
222,015	75,43
222,233	-0,34
222,451	65,19
222,669	-4,44
222,887	38,57
223,105	13,99
223,323	20,14
223,541	79,53
223,759	130,73
223,977	-10,58
224,195	52,91
224,413	-26,96
224,631	57
224,849	-12,63
225,067	7,85
225,285	-2,39
225,503	-59,73
225,721	20,14
225,939	28,33
226,157	-57,68
226,375	-51,54
226,592	-20,82
226,81	24,23
227,028	-14,68
227,246	46,76
227,464	-94,55
227,682	77,48
227,9	11,95
228,117	48,81
228,335	54,95
228,553	-0,34
228,771	-65,88
228,989	83,63
229,206	-2,39
229,424	-8,53
229,642	-53,59
229,86	5,8
230,077	77,48
230,295	24,23
230,513	36,52
230,731	65,19
230,948	44,71
231,166	3,75
231,384	34,47
231,601	30,38
231,819	-4,44
232,037	-10,58
232,254	-16,73
232,472	-0,34
232,689	-47,44
232,907	-8,53
233,125	22,19
233,342	26,28
233,56	16,04
233,777	1,71
233,995	-8,53
234,213	22,19
234,43	13,99
234,648	36,52
234,865	-26,96
235,083	89,77
235,3	20,14
235,518	54,95
235,735	-33,11
235,953	5,8
236,17	52,91
236,388	22,19
236,605	28,33
236,822	3,75
237,04	-0,34
237,257	54,95
237,475	24,23
237,692	11,95
237,909	-69,97
238,127	-4,44
238,344	59,05
238,562	11,95
238,779	-8,53
238,996	40,62
239,214	20,14
239,431	38,57
239,648	20,14
239,865	-76,12
240,083	-14,68
240,3	28,33
240,517	13,99
240,735	-33,11
240,952	-45,4
241,169	-59,73
241,386	-8,53
241,603	59,05
241,821	24,23
242,038	65,19
242,255	-117,08
242,472	16,04
242,689	48,81
242,907	-78,16
243,124	3,75
243,341	11,95
243,558	5,8
243,775	59,05
243,992	3,75
244,209	50,86
244,426	-45,4
244,643	-37,2
244,86	46,76
245,078	28,33
245,295	-43,35
245,512	-12,63
245,729	11,95
245,946	28,33
246,163	-0,34
246,38	-22,87
246,597	18,09
246,814	32,43
247,031	-29,01
247,248	-26,96
247,464	-2,39
247,681	22,19
247,898	7,85
248,115	40,62
248,332	11,95
248,549	28,33
248,766	20,14
248,983	87,72
249,2	-24,92
249,417	11,95
249,633	46,76
249,85	-37,2
250,067	20,14
250,284	52,91
250,501	57
250,717	16,04
250,934	69,29
251,151	69,29
251,368	28,33
251,585	30,38
251,801	-31,06
252,018	40,62
252,235	50,86
252,451	59,05
252,668	42,67
252,885	9,9
253,102	77,48
253,318	128,68
253,535	57
253,752	-35,16
253,968	42,67
254,185	28,33
254,401	26,28
254,618	11,95
254,835	100,01
255,051	-45,4
255,268	-14,68
255,484	11,95
255,701	28,33
255,917	1,71
256,134	3,75
256,351	83,63
256,567	-12,63
256,784	87,72
257	32,43
257,217	48,81
257,433	50,86
257,65	-4,44
257,866	30,38
258,082	7,85
258,299	11,95
258,515	38,57
258,732	-37,2
258,948	34,47
259,165	-37,2
259,381	28,33
259,597	11,95
259,814	-10,58
260,03	20,14
260,246	-24,92
260,463	104,11
260,679	50,86
260,895	36,52
261,112	30,38
261,328	-35,16
261,544	46,76
261,761	-29,01
261,977	-43,35
262,193	-53,59
262,409	16,04
262,626	28,33
262,842	1,71
263,058	-37,2
263,274	77,48
263,49	61,1
263,707	63,15
263,923	83,63
264,139	24,23
264,355	57
264,571	46,76
264,787	9,9
265,004	-18,77
265,22	-24,92
265,436	54,95
265,652	7,85
265,868	77,48
266,084	16,04
266,3	-12,63
266,516	22,19
266,732	32,43
266,948	-53,59
267,164	69,29
267,38	-10,58
267,596	-26,96
267,812	1,71
268,028	1,71
268,244	13,99
268,46	44,71
268,676	-6,49
268,892	-0,34
269,108	-53,59
269,324	-20,82
269,54	28,33
269,756	36,52
269,972	36,52
270,188	-29,01
270,403	11,95
270,619	-45,4
270,835	-8,53
271,051	-59,73
271,267	-49,49
271,483	-8,53
271,698	-24,92
271,914	36,52
272,13	-0,34
272,346	95,91
272,562	-37,2
272,777	77,48
272,993	-16,73
273,209	38,57
273,425	-24,92
273,64	50,86
273,856	-12,63
274,072	22,19
274,287	5,8
274,503	54,95
274,719	36,52
274,934	42,67
275,15	40,62
275,366	40,62
275,581	-61,78
275,797	-22,87
276,012	32,43
276,228	46,76
276,444	-47,44
276,659	30,38
276,875	-2,39
277,09	30,38
277,306	9,9
277,521	102,06
277,737	42,67
277,952	32,43
278,168	42,67
278,383	-12,63
278,599	44,71
278,814	-43,35
279,03	-43,35
279,245	44,71
279,461	20,14
279,676	-26,96
279,892	11,95
280,107	5,8
280,322	-94,55
280,538	48,81
280,753	-20,82
280,969	83,63
281,184	7,85
281,399	61,1
281,615	-24,92
281,83	-20,82
282,045	40,62
282,26	5,8
282,476	-18,77
282,691	-20,82
282,906	-0,34
283,122	-2,39
283,337	9,9
283,552	87,72
283,767	28,33
283,983	11,95
284,198	-26,96
284,413	22,19
284,628	54,95
284,843	28,33
285,058	106,15
285,274	-67,92
285,489	52,91
285,704	-2,39
285,919	100,01
286,134	-10,58
286,349	1,71
286,564	9,9
286,779	-6,49
286,995	-14,68
287,21	-12,63
287,425	28,33
287,64	-2,39
287,855	67,24
288,07	54,95
288,285	-49,49
288,5	-24,92
288,715	3,75
288,93	11,95
289,145	-29,01
289,36	36,52
289,575	-22,87
289,79	-22,87
290,004	59,05
290,219	-6,49
290,434	11,95
290,649	3,75
290,864	20,14
291,079	-88,4
291,294	16,04
291,509	16,04
291,724	1,71
291,938	3,75
292,153	63,15
292,368	36,52
292,583	38,57
292,798	59,05
293,012	-4,44
293,227	13,99
293,442	-22,87
293,657	20,14
293,871	50,86
294,086	-45,4
294,301	34,47
294,516	13,99
294,73	-18,77
294,945	50,86
295,16	-18,77
295,374	-53,59
295,589	28,33
295,804	1,71
296,018	34,47
296,233	-45,4
296,447	-10,58
296,662	-45,4
296,877	-6,49
297,091	13,99
297,306	42,67
297,52	28,33
297,735	-61,78
297,949	-33,11
298,164	7,85
298,378	3,75
298,593	3,75
298,807	5,8
299,022	32,43
299,236	-6,49
299,451	-20,82
299,665	-4,44
299,88	3,75
300,094	22,19
300,309	1,71
300,523	-49,49
300,737	52,91
300,952	-12,63
301,166	-37,2
301,381	-24,92
301,595	11,95
301,809	-12,63
302,024	22,19
302,238	48,81
302,452	5,8
302,667	-57,68
302,881	-4,44
303,095	-0,34
303,309	48,81
303,524	71,34
303,738	30,38
303,952	26,28
304,166	32,43
304,381	5,8
304,595	61,1
304,809	-2,39
305,023	40,62
305,237	20,14
305,452	7,85
305,666	30,38
305,88	-29,01
306,094	87,72
306,308	77,48
306,522	16,04
306,736	32,43
306,95	-18,77
307,164	-2,39
307,379	-65,88
307,593	36,52
307,807	24,23
308,021	36,52
308,235	5,8
308,449	-78,16
308,663	65,19
308,877	32,43
309,091	59,05
309,305	20,14
309,519	-47,44
309,733	-6,49
309,947	-8,53
310,161	67,24
310,374	-29,01
310,588	30,38
310,802	-47,44
311,016	126,63
311,23	-35,16
311,444	34,47
311,658	95,91
311,872	52,91
312,085	54,95
312,299	36,52
312,513	-2,39
312,727	77,48
312,941	-12,63
313,154	11,95
313,368	-20,82
313,582	63,15
313,796	13,99
314,009	30,38
314,223	-24,92
314,437	30,38
314,651	5,8
314,864	-59,73
315,078	38,57
315,292	38,57
315,505	-78,16
315,719	3,75
315,933	-26,96
316,146	34,47
316,36	28,33
316,573	44,71
316,787	57
317,001	-8,53
317,214	-29,01
317,428	-4,44
317,641	-14,68
317,855	-0,34
318,068	11,95
318,282	-16,73
318,495	59,05
318,709	26,28
318,922	50,86
319,136	-8,53
319,349	24,23
319,563	13,99
319,776	13,99
319,99	7,85
320,203	-16,73
320,417	-6,49
320,63	-10,58
320,843	38,57
321,057	-26,96
321,27	40,62
321,483	63,15
321,697	-0,34
321,91	-47,44
322,124	87,72
322,337	-18,77
322,55	36,52
322,763	65,19
322,977	-22,87
323,19	20,14
323,403	20,14
323,617	5,8
323,83	-4,44
324,043	18,09
324,256	3,75
324,469	26,28
324,683	-12,63
324,896	-2,39
325,109	-10,58
325,322	-18,77
325,535	-10,58
325,748	5,8
325,962	11,95
326,175	30,38
326,388	11,95
326,601	-35,16
326,814	-10,58
327,027	46,76
327,24	67,24
327,453	-4,44
327,666	71,34
327,879	24,23
328,092	44,71
328,305	1,71
328,518	40,62
328,731	16,04
328,944	61,1
329,157	54,95
329,37	-24,92
329,583	-22,87
329,796	-8,53
330,009	3,75
330,222	-49,49
330,435	28,33
330,648	30,38
330,861	40,62
331,073	5,8
331,286	3,75
331,499	32,43
331,712	13,99
331,925	38,57
332,138	-33,11
332,35	9,9
332,563	20,14
332,776	-12,63
332,989	-4,44
333,202	28,33
333,414	26,28
333,627	-2,39
333,84	-10,58
334,053	-29,01
334,265	11,95
334,478	5,8
334,691	7,85
334,903	-43,35
335,116	24,23
335,329	-6,49
335,541	13,99
335,754	18,09
335,966	77,48
336,179	83,63
336,392	-2,39
336,604	-4,44
336,817	-49,49
337,029	44,71
337,242	-35,16
337,454	28,33
337,667	79,53
337,88	-2,39
338,092	102,06
338,305	52,91
338,517	38,57
338,729	26,28
338,942	13,99
339,154	75,43
339,367	28,33
339,579	-12,63
339,792	11,95
340,004	3,75
340,217	77,48
340,429	16,04
340,641	-12,63
340,854	-12,63
341,066	-29,01
341,278	3,75
341,491	40,62
341,703	5,8
341,915	30,38
342,128	-45,4
342,34	24,23
342,552	5,8
342,764	11,95
342,977	44,71
343,189	-41,3
343,401	-4,44
343,613	-45,4
343,826	65,19
344,038	-33,11
344,25	-33,11
344,462	-22,87
344,674	-18,77
344,886	5,8
345,099	46,76
345,311	52,91
345,523	-12,63
345,735	11,95
345,947	24,23
346,159	36,52
346,371	3,75
346,583	-14,68
346,795	20,14
347,007	22,19
347,219	-29,01
347,431	-45,4
347,643	-6,49
347,855	16,04
348,067	3,75
348,279	30,38
348,491	30,38
348,703	28,33
348,915	-53,59
349,127	5,8
349,339	-31,06
349,551	83,63
349,763	28,33
349,975	16,04
350,187	26,28
350,399	-18,77
350,61	-37,2
350,822	22,19
351,034	28,33
351,246	69,29
351,458	28,33
351,669	-51,54
351,881	42,67
352,093	-4,44
352,305	20,14
352,517	59,05
352,728	16,04
352,94	-59,73
353,152	5,8
353,363	110,25
353,575	11,95
353,787	7,85
353,999	13,99
354,21	16,04
354,422	-20,82
354,633	44,71
354,845	36,52
355,057	16,04
355,268	-18,77
355,48	52,91
355,692	48,81
355,903	-8,53
356,115	38,57
356,326	-8,53
356,538	-18,77
356,749	7,85
356,961	-31,06
357,172	-4,44
357,384	20,14
357,595	13,99
357,807	11,95
358,018	11,95
358,23	30,38
358,441	69,29
358,653	-2,39
358,864	5,8
359,075	-53,59
359,287	5,8
359,498	-12,63
359,709	32,43
359,921	44,71
360,132	16,04
360,344	71,34
360,555	-57,68
360,766	18,09
360,977	32,43
361,189	77,48
361,4	20,14
361,611	34,47
361,823	1,71
362,034	24,23
362,245	-6,49
362,456	18,09
362,667	44,71
362,879	54,95
363,09	36,52
363,301	116,39
363,512	9,9
363,723	-16,73
363,935	18,09
364,146	63,15
364,357	-33,11
364,568	38,57
364,779	-26,96
364,99	42,67
365,201	-29,01
365,412	9,9
365,623	3,75
365,834	13,99
366,045	-12,63
366,256	42,67
366,467	-4,44
366,678	20,14
366,889	24,23
367,1	63,15
367,311	24,23
367,522	16,04
367,733	-45,4
367,944	73,39
368,155	36,52
368,366	26,28
368,577	100,01
368,788	44,71
368,999	-0,34
369,209	-18,77
369,42	54,95
369,631	26,28
369,842	-20,82
370,053	-6,49
370,264	7,85
370,474	26,28
370,685	44,71
370,896	-39,25
371,107	52,91
371,317	9,9
371,528	-2,39
371,739	-31,06
371,95	9,9
372,16	38,57
372,371	52,91
372,582	48,81
372,792	-74,07
373,003	40,62
373,214	22,19
373,424	71,34
373,635	30,38
373,846	61,1
374,056	16,04
374,267	44,71
374,477	-2,39
374,688	30,38
374,898	-8,53
375,109	26,28
375,319	13,99
375,53	11,95
375,74	22,19
375,951	11,95
376,161	57
376,372	30,38
376,582	-8,53
376,793	20,14
377,003	-18,77
377,214	5,8
377,424	-16,73
377,635	-0,34
377,845	-20,82
378,055	-4,44
378,266	-8,53
378,476	46,76
378,686	16,04
378,897	44,71
379,107	52,91
379,317	85,67
379,528	126,63
379,738	40,62
379,948	-2,39
380,158	77,48
380,369	18,09
380,579	81,58
380,789	46,76
380,999	-20,82
381,21	40,62
381,42	-4,44
381,63	-20,82
381,84	79,53
382,05	28,33
382,261	63,15
382,471	-51,54
382,681	75,43
382,891	13,99
383,101	28,33
383,311	44,71
383,521	38,57
383,731	-20,82
383,941	46,76
384,151	22,19
384,361	-12,63
384,571	-0,34
384,781	18,09
384,991	75,43
385,201	48,81
385,411	-22,87
385,621	5,8
385,831	-29,01
386,041	30,38
386,251	-53,59
386,461	13,99
386,671	102,06
386,881	46,76
387,091	34,47
387,301	77,48
387,511	-43,35
387,72	-4,44
387,93	16,04
388,14	-0,34
388,35	24,23
388,56	57
388,769	-10,58
388,979	-10,58
389,189	59,05
389,399	-29,01
389,609	46,76
389,818	81,58
390,028	-37,2
390,238	-26,96
390,447	32,43
390,657	30,38
390,867	-43,35
391,076	69,29
391,286	44,71
391,496	52,91
391,705	40,62
391,915	-29,01
392,125	-8,53
392,334	54,95
392,544	-18,77
392,753	-8,53
392,963	13,99
393,172	63,15
393,382	32,43
393,591	61,1
393,801	-4,44
394,01	11,95
394,22	69,29
394,429	-6,49
394,639	-41,3
394,848	52,91
395,058	48,81
395,267	46,76
395,477	18,09
395,686	-31,06
395,895	-31,06
396,105	13,99
396,314	-26,96
396,524	26,28
396,733	40,62
396,942	-14,68
397,152	-22,87
397,361	-47,44
397,57	-0,34
397,78	77,48
397,989	-26,96
398,198	-12,63
398,407	-4,44
398,617	-69,97
398,826	-16,73
399,035	22,19
399,244	-4,44
399,453	-4,44
399,663	20,14
399,872	61,1
400,081	-59,73
400,29	85,67
400,499	24,23
400,708	-6,49
400,917	-33,11
401,127	50,86
401,336	5,8
401,545	44,71
401,754	-22,87
401,963	57
402,172	-24,92
402,381	42,67
402,59	3,75
402,799	9,9
403,008	-45,4
403,217	48,81
403,426	57
403,635	71,34
403,844	-4,44
404,053	16,04
404,262	38,57
404,471	110,25
404,68	-2,39
404,888	54,95
405,097	11,95
405,306	-12,63
405,515	42,67
405,724	11,95
405,933	-31,06
406,142	46,76
406,35	-0,34
406,559	11,95
406,768	-14,68
406,977	30,38
407,185	-43,35
407,394	52,91
407,603	-31,06
407,812	46,76
408,02	-49,49
408,229	-20,82
408,438	16,04
408,646	46,76
408,855	-45,4
409,064	63,15
409,272	18,09
409,481	18,09
409,69	-14,68
409,898	24,23
410,107	-8,53
410,315	-39,25
410,524	-26,96
410,733	-16,73
410,941	7,85
411,15	95,91
411,358	-35,16
411,567	-37,2
411,775	-12,63
411,984	36,52
412,192	-49,49
412,401	20,14
412,609	-0,34
412,818	11,95
413,026	16,04
413,234	16,04
413,443	26,28
413,651	-4,44
413,86	32,43
414,068	57
414,276	-16,73
414,485	18,09
414,693	9,9
414,901	40,62
415,11	-43,35
415,318	18,09
415,526	52,91
415,734	30,38
415,943	48,81
416,151	20,14
416,359	-24,92
416,567	26,28
416,776	1,71
416,984	50,86
417,192	28,33
417,4	3,75
417,608	-29,01
417,817	-0,34
418,025	-43,35
418,233	71,34
418,441	3,75
418,649	-18,77
418,857	59,05
419,065	-12,63
419,273	52,91
419,481	30,38
419,689	-69,97
419,897	26,28
420,105	44,71
420,313	40,62
420,521	-4,44
420,729	44,71
420,937	20,14
421,145	13,99
421,353	36,52
421,561	34,47
421,769	-29,01
421,977	32,43
422,185	18,09
422,393	57
422,601	36,52
422,809	-31,06
423,017	1,71
423,224	13,99
423,432	-37,2
423,64	61,1
423,848	7,85
424,056	32,43
424,263	5,8
424,471	-37,2
424,679	-12,63
424,887	63,15
425,094	9,9
425,302	71,34
425,51	7,85
425,718	30,38
425,925	11,95
426,133	34,47
426,341	108,2
426,548	67,24
426,756	-29,01
426,964	5,8
427,171	-37,2
427,379	73,39
427,586	-24,92
427,794	36,52
428,001	-12,63
428,209	-20,82
428,417	-14,68
428,624	-0,34
428,832	-24,92
429,039	-41,3
429,247	-31,06
429,454	13,99
429,662	-10,58
429,869	-22,87
430,076	69,29
430,284	22,19
430,491	-0,34
430,699	48,81
430,906	-6,49
431,114	-53,59
431,321	5,8
431,528	-63,83
431,736	67,24
431,943	-16,73
432,15	11,95
432,358	34,47
432,565	30,38
432,772	28,33
432,979	5,8
433,187	18,09
433,394	30,38
433,601	38,57
433,808	36,52
434,016	-0,34
434,223	22,19
434,43	38,57
434,637	-22,87
434,844	54,95
435,052	-10,58
435,259	26,28
435,466	-20,82
435,673	61,1
435,88	22,19
436,087	22,19
436,294	28,33
436,501	30,38
436,708	69,29
436,915	34,47
437,122	38,57
437,329	22,19
437,537	-2,39
437,743	50,86
437,95	38,57
438,157	-0,34
438,364	-8,53
438,571	-12,63
438,778	9,9
438,985	28,33
439,192	7,85
439,399	-0,34
439,606	30,38
439,813	112,3
440,02	-53,59
440,227	77,48
440,433	-10,58
440,64	-12,63
440,847	44,71
441,054	36,52
441,261	104,11
441,467	32,43
441,674	54,95
441,881	61,1
442,088	-12,63
442,294	-26,96
442,501	3,75
442,708	5,8
442,914	59,05
443,121	87,72
443,328	-47,44
443,534	-31,06
443,741	-22,87
443,948	28,33
444,154	11,95
444,361	87,72
444,568	-20,82
444,774	24,23
444,981	-8,53
445,187	24,23
445,394	50,86
445,6	71,34
445,807	-20,82
446,013	-10,58
446,22	46,76
446,426	-0,34
446,633	26,28
446,839	28,33
447,046	-18,77
447,252	42,67
447,459	30,38
447,665	61,1
447,871	13,99
448,078	52,91
448,284	-57,68
448,491	-86,36
448,697	85,67
448,903	-10,58
449,11	22,19
449,316	-6,49
449,522	102,06
449,728	63,15
449,935	3,75
450,141	1,71
450,347	13,99
450,553	-2,39
450,76	54,95
450,966	42,67
451,172	-4,44
451,378	16,04
451,584	-102,74
451,791	-10,58
451,997	-18,77
452,203	-20,82
452,409	-26,96
452,615	110,25
452,821	32,43
453,027	-16,73
453,233	73,39
453,44	-6,49
453,646	-4,44
453,852	54,95
454,058	-45,4
454,264	28,33
454,47	-29,01
454,676	-16,73
454,882	13,99
455,088	46,76
455,294	36,52
455,5	44,71
455,705	-39,25
455,911	46,76
456,117	-24,92
456,323	-47,44
456,529	32,43
456,735	20,14
456,941	11,95
457,147	44,71
457,352	-8,53
457,558	-20,82
457,764	-37,2
457,97	61,1
458,176	-49,49
458,381	-45,4
458,587	-8,53
458,793	48,81
458,999	20,14
459,204	9,9
459,41	32,43
459,616	-47,44
459,821	-4,44
460,027	-18,77
460,233	-14,68
460,438	-12,63
460,644	-10,58
460,85	75,43
461,055	-0,34
461,261	95,91
461,466	65,19
461,672	73,39
461,878	-33,11
462,083	57
462,289	7,85
462,494	11,95
462,7	1,71
462,905	42,67
463,111	52,91
463,316	9,9
463,522	-14,68
463,727	32,43
463,932	-18,77
464,138	-37,2
464,343	-26,96
464,549	42,67
464,754	-41,3
464,959	-16,73
465,165	-10,58
465,37	85,67
465,575	30,38
465,781	18,09
465,986	20,14
466,191	5,8
466,397	-2,39
466,602	-4,44
466,807	-10,58
467,012	24,23
467,218	9,9
467,423	-33,11
467,628	9,9
467,833	77,48
468,038	3,75
468,244	32,43
468,449	1,71
468,654	-8,53
468,859	-26,96
469,064	-24,92
469,269	32,43
469,474	-10,58
469,679	-20,82
469,885	69,29
470,09	-31,06
470,295	106,15
470,5	-41,3
470,705	3,75
470,91	24,23
471,115	36,52
471,32	79,53
471,525	20,14
471,73	-26,96
471,935	-20,82
472,139	36,52
472,344	22,19
472,549	22,19
472,754	-29,01
472,959	52,91
473,164	11,95
473,369	7,85
473,574	5,8
473,778	38,57
473,983	-24,92
474,188	16,04
474,393	7,85
474,598	-8,53
474,802	13,99
475,007	-26,96
475,212	38,57
475,417	-18,77
475,621	61,1
475,826	-43,35
476,031	-37,2
476,235	-57,68
476,44	22,19
476,645	36,52
476,849	77,48
477,054	-10,58
477,259	-6,49
477,463	38,57
477,668	11,95
477,872	52,91
478,077	54,95
478,282	44,71
478,486	61,1
478,691	46,76
478,895	-37,2
479,1	11,95
479,304	-37,2
479,509	-26,96
479,713	34,47
479,918	22,19
480,122	-10,58
480,326	-2,39
480,531	16,04
480,735	-41,3
480,94	81,58
481,144	-0,34
481,348	1,71
481,553	20,14
481,757	1,71
481,961	-41,3
482,166	40,62
482,37	-22,87
482,574	11,95
482,778	65,19
482,983	52,91
483,187	-14,68
483,391	-29,01
483,595	9,9
483,8	52,91
484,004	52,91
484,208	36,52
484,412	54,95
484,616	26,28
484,821	11,95
485,025	11,95
485,229	52,91
485,433	-59,73
485,637	-57,68
485,841	54,95
486,045	-29,01
486,249	28,33
486,453	24,23
486,657	54,95
486,861	38,57
487,065	-37,2
487,269	24,23
487,473	28,33
487,677	57
487,881	67,24
488,085	18,09
488,289	46,76
488,493	32,43
488,697	61,1
488,901	-10,58
489,105	-24,92
489,309	11,95
489,512	57
489,716	7,85
489,92	24,23
490,124	87,72
490,328	-2,39
490,531	26,28
490,735	34,47
490,939	26,28
491,143	-51,54
491,346	-0,34
491,55	16,04
491,754	-4,44
491,958	24,23
492,161	-14,68
492,365	16,04
492,569	13,99
492,772	11,95
492,976	-37,2
493,18	-4,44
493,383	44,71
493,587	-20,82
493,79	32,43
493,994	13,99
494,197	-8,53
494,401	71,34
494,605	1,71
494,808	22,19
495,012	-0,34
495,215	42,67
495,419	9,9
495,622	20,14
495,825	38,57
496,029	20,14
496,232	63,15
496,436	24,23
496,639	-10,58
496,843	28,33
497,046	-0,34
497,249	-12,63
497,453	-24,92
497,656	65,19
497,859	-18,77
498,063	40,62
498,266	-45,4
498,469	-8,53
498,673	36,52
498,876	28,33
499,079	5,8
499,282	18,09
499,485	44,71
499,689	61,1
499,892	73,39
500,095	52,91
500,298	-6,49
500,501	5,8
500,705	3,75
500,908	52,91
501,111	-12,63
501,314	61,1
501,517	34,47
501,72	69,29
501,923	44,71
502,126	26,28
502,329	3,75
502,532	44,71
502,735	73,39
502,938	67,24
503,141	11,95
503,344	-33,11
503,547	40,62
503,75	50,86
503,953	32,43
504,156	16,04
504,359	52,91
504,562	34,47
504,765	-26,96
504,968	-49,49
505,17	20,14
505,373	42,67
505,576	-0,34
505,779	20,14
505,982	34,47
506,185	24,23
506,387	52,91
506,59	54,95
506,793	24,23
506,996	57
507,198	81,58
507,401	-24,92
507,604	-18,77
507,807	32,43
508,009	32,43
508,212	46,76
508,415	-26,96
508,617	16,04
508,82	65,19
509,022	63,15
509,225	-10,58
509,428	28,33
509,63	87,72
509,833	32,43
510,035	11,95
510,238	-6,49
510,44	-24,92
510,643	61,1
510,845	-4,44
511,048	-4,44
511,25	13,99
511,453	28,33
511,655	3,75
511,858	16,04
512,06	-47,44
512,262	11,95
512,465	-84,31
512,667	26,28
512,87	3,75
513,072	-12,63
513,274	28,33
513,477	97,96
513,679	-10,58
513,881	46,76
514,084	18,09
514,286	-8,53
514,488	59,05
514,69	18,09
514,893	-12,63
515,095	79,53
515,297	71,34
515,499	9,9
515,701	48,81
515,904	-16,73
516,106	-14,68
516,308	32,43
516,51	30,38
516,712	16,04
516,914	22,19
517,116	46,76
517,318	-16,73
517,52	71,34
517,722	28,33
517,925	13,99
518,127	102,06
518,329	-59,73
518,531	9,9
518,733	46,76
518,935	32,43
519,136	63,15
519,338	46,76
519,54	-20,82
519,742	120,49
519,944	28,33
520,146	11,95
520,348	-12,63
520,55	54,95
520,752	1,71
520,954	20,14
521,155	28,33
521,357	63,15
521,559	48,81
521,761	-6,49
521,963	7,85
522,164	-94,55
522,366	67,24
522,568	44,71
522,77	102,06
522,971	11,95
523,173	-16,73
523,375	-4,44
523,576	114,34
523,778	-8,53
523,98	16,04
524,181	13,99
524,383	79,53
524,584	-18,77
524,786	20,14
524,988	-0,34
525,189	143,02
525,391	48,81
525,592	36,52
525,794	-26,96
525,995	-0,34
526,197	36,52
526,398	69,29
526,6	7,85
526,801	42,67
527,003	11,95
527,204	59,05
527,406	38,57
527,607	-10,58
527,808	11,95
528,01	57
528,211	1,71
528,412	-29,01
528,614	16,04
528,815	16,04
529,016	16,04
529,218	67,24
529,419	24,23
529,62	57
529,822	28,33
530,023	3,75
530,224	-31,06
530,425	-2,39
530,626	26,28
530,828	110,25
531,029	-4,44
531,23	44,71
531,431	16,04
531,632	69,29
531,833	18,09
532,035	97,96
532,236	-43,35
532,437	67,24
532,638	-31,06
532,839	1,71
533,04	-72,02
533,241	52,91
533,442	7,85
533,643	-18,77
533,844	52,91
534,045	-8,53
534,246	-0,34
534,447	44,71
534,648	1,71
534,849	44,71
535,05	22,19
535,251	104,11
535,451	42,67
535,652	-6,49
535,853	-43,35
536,054	46,76
536,255	11,95
536,456	-8,53
536,657	38,57
536,857	-8,53
537,058	38,57
537,259	32,43
537,46	-10,58
537,66	36,52
537,861	-49,49
538,062	28,33
538,263	-49,49
538,463	-8,53
538,664	34,47
538,865	-10,58
539,065	-45,4
539,266	36,52
539,466	44,71
539,667	85,67
539,868	-12,63
540,068	-24,92
540,269	89,77
540,469	30,38
540,67	36,52
540,87	97,96
541,071	38,57
541,271	46,76
541,472	40,62
541,672	63,15
541,873	5,8
542,073	7,85
542,274	71,34
542,474	87,72
542,675	3,75
542,875	30,38
543,075	-14,68
543,276	57
543,476	38,57
543,676	20,14
543,877	40,62
544,077	36,52
544,277	13,99
544,478	48,81
544,678	-24,92
544,878	-4,44
545,078	13,99
545,279	5,8
545,479	104,11
545,679	-20,82
545,879	-92,5
546,079	-35,16
546,28	38,57
546,48	40,62
546,68	28,33
546,88	3,75
547,08	30,38
547,28	44,71
547,48	-31,06
547,68	32,43
547,88	-0,34
548,081	71,34
548,281	28,33
548,481	-29,01
548,681	-18,77
548,881	-20,82
549,081	-0,34
549,28	24,23
549,48	54,95
549,68	30,38
549,88	30,38
550,08	7,85
550,28	-33,11
550,48	1,71
550,68	5,8
550,88	46,76
551,08	36,52
551,279	63,15
551,479	-51,54
551,679	77,48
551,879	20,14
552,079	5,8
552,278	9,9
552,478	95,91
552,678	59,05
552,878	122,54
553,077	11,95
553,277	-10,58
553,477	122,54
553,676	38,57
553,876	-18,77
554,076	54,95
554,275	46,76
554,475	34,47
554,674	1,71
554,874	22,19
555,074	54,95
555,273	26,28
555,473	46,76
555,672	40,62
555,872	13,99
556,071	59,05
556,271	13,99
556,47	73,39
556,67	79,53
556,869	26,28
557,068	73,39
557,268	93,87
557,467	11,95
557,667	32,43
557,866	73,39
558,065	1,71
558,265	-0,34
558,464	50,86
558,663	48,81
558,863	20,14
559,062	59,05
559,261	69,29
559,461	-6,49
559,66	7,85
559,859	-26,96
560,058	93,87
560,258	67,24
560,457	77,48
560,656	79,53
560,855	44,71
561,054	5,8
561,253	1,71
561,453	20,14
561,652	22,19
561,851	22,19
562,05	42,67
562,249	79,53
562,448	71,34
562,647	106,15
562,846	59,05
563,045	-10,58
563,244	130,73
563,443	48,81
563,642	93,87
563,841	34,47
564,04	75,43
564,239	38,57
564,438	54,95
564,637	69,29
564,836	67,24
565,035	77,48
565,234	-0,34
565,432	77,48
565,631	71,34
565,83	112,3
566,029	87,72
566,228	46,76
566,427	169,64
566,625	104,11
566,824	112,3
567,023	110,25
567,222	102,06
567,42	50,86
567,619	151,21
567,818	81,58
568,016	173,74
568,215	77,48
568,414	143,02
568,612	153,26
568,811	222,89
569,01	212,65
569,208	196,26
569,407	149,16
569,605	235,18
569,804	257,7
570,002	308,9
570,201	304,81
570,4	313
570,598	446,12
570,797	431,78
570,995	419,49
571,193	462,5
571,392	603,81
571,59	579,23
571,789	716,45
571,987	716,45
572,186	882,33
572,384	1048,22
572,582	1218,2
572,781	1302,17
572,979	1584,79
573,177	1795,73
573,376	2178,7
573,574	2533
573,772	3079,8
573,971	3452,53
574,169	4257,39
574,367	4959,84
574,565	6166,09
574,763	7591,48
574,962	9379,36
575,16	11306,49
575,358	13532,64
575,556	15750,59
575,754	19191,17
575,952	22230,36
576,151	26000,67
576,349	29598,95
576,547	33252,53
576,745	36752,51
576,943	40385,6
577,141	43271,19
577,339	45800,43
577,537	48391,11
577,735	50088,88
577,933	51309,47
578,131	52691,85
578,329	53549,95
578,527	54215,54
578,725	54811,49
578,923	55741,27
579,121	56206,16
579,319	56759,11
579,516	57514,81
579,714	57674,55
579,912	57703,23
580,11	57723,71
580,308	58733,35
580,506	59259,68
580,704	58639,15
580,901	59675,42
581,099	60320,53
581,297	60144,4
581,495	59906,84
581,692	60580,62
581,89	60117,78
582,088	61207,3
582,285	60711,69
582,483	61518,59
582,681	60760,84
582,878	60580,62
583,076	59859,74
583,274	60293,91
583,471	58700,59
583,669	58235,7
583,866	56515,4
584,064	54557,55
584,262	51329,95
584,459	49503,16
584,657	46054,38
584,854	43086,87
585,052	38286,43
585,249	35140,75
585,447	31132,88
585,644	27327,75
585,841	24024,38
586,039	20716,91
586,236	18101,65
586,434	15334,85
586,631	13262,3
586,828	11253,25
587,026	9661,98
587,223	8142,38
587,42	6968,9
587,618	5926,48
587,815	4963,93
588,012	4173,42
588,21	3657,33
588,407	3094,14
588,604	2684,55
588,801	2201,23
588,999	1902,22
589,196	1689,23
589,393	1463,96
589,59	1210,01
589,787	1042,07
589,984	884,38
590,182	880,29
590,379	708,26
590,576	634,53
590,773	628,39
590,97	550,56
591,167	521,89
591,364	452,26
591,561	362,15
591,758	298,66
591,955	331,43
592,152	269,99
592,349	310,95
592,546	306,85
592,743	124,58
592,94	136,87
593,137	202,41
593,334	183,98
593,531	145,06
593,727	224,94
593,924	183,98
594,121	136,87
594,318	122,54
594,515	183,98
594,712	163,5
594,908	159,4
595,105	93,87
595,302	132,78
595,499	179,88
595,696	85,67
595,892	114,34
596,089	112,3
596,286	100,01
596,482	71,34
596,679	124,58
596,876	75,43
597,072	71,34
597,269	22,19
597,466	38,57
597,662	71,34
597,859	57
598,055	61,1
598,252	155,3
598,448	5,8
598,645	-8,53
598,841	153,26
599,038	75,43
599,234	50,86
599,431	65,19
599,627	63,15
599,824	91,82
600,02	38,57
600,217	71,34
600,413	85,67
600,609	7,85
600,806	134,82
601,002	114,34
601,198	30,38
601,395	93,87
601,591	30,38
601,787	63,15
601,984	73,39
602,18	42,67
602,376	-12,63
602,572	34,47
602,769	93,87
602,965	30,38
603,161	54,95
603,357	3,75
603,553	-18,77
603,75	5,8
603,946	61,1
604,142	11,95
604,338	110,25
604,534	-0,34
604,73	36,52
604,926	112,3
605,122	65,19
605,318	67,24
605,514	79,53
605,71	42,67
605,906	145,06
606,102	-39,25
606,298	36,52
606,494	-10,58
606,69	93,87
606,886	26,28
607,082	44,71
607,278	11,95
607,474	32,43
607,67	16,04
607,866	-2,39
608,062	77,48
608,257	38,57
608,453	28,33
608,649	52,91
608,845	44,71
609,041	-6,49
609,236	11,95
609,432	61,1
609,628	48,81
609,824	24,23
610,019	59,05
610,215	20,14
610,411	44,71
610,606	-33,11
610,802	-35,16
610,998	57
611,193	61,1
611,389	-53,59
611,584	20,14
611,78	-16,73
611,976	30,38
612,171	38,57
612,367	38,57
612,562	3,75
612,758	9,9
612,953	22,19
613,149	-2,39
613,344	48,81
613,539	85,67
613,735	16,04
613,93	52,91
614,126	28,33
614,321	71,34
614,517	61,1
614,712	34,47
614,907	5,8
615,103	54,95
615,298	40,62
615,493	5,8
615,688	16,04
615,884	67,24
616,079	28,33
616,274	-29,01
616,47	-29,01
616,665	5,8
616,86	13,99
617,055	-10,58
617,25	-2,39
617,445	69,29
617,641	73,39
617,836	89,77
618,031	-41,3
618,226	61,1
618,421	108,2
618,616	-24,92
618,811	28,33
619,006	-31,06
619,201	11,95
619,396	93,87
619,591	54,95
619,786	22,19
619,981	40,62
620,176	20,14
620,371	3,75
620,566	30,38
620,761	22,19
620,956	26,28
621,151	-35,16
621,346	46,76
621,541	-8,53
621,735	20,14
621,93	69,29
622,125	52,91
622,32	-29,01
622,515	102,06
622,709	-0,34
622,904	34,47
623,099	-37,2
623,294	77,48
623,488	-35,16
623,683	18,09
623,878	85,67
624,072	-18,77
624,267	40,62
624,462	-41,3
624,656	67,24
624,851	-4,44
625,046	54,95
625,24	54,95
625,435	134,82
625,629	-82,26
625,824	63,15
626,018	-20,82
626,213	42,67
626,407	-4,44
626,602	-24,92
626,796	5,8
626,991	-4,44
627,185	52,91
627,38	100,01
627,574	18,09
627,768	40,62
627,963	20,14
628,157	-10,58
628,352	59,05
628,546	-26,96
628,74	102,06
628,935	1,71
629,129	-4,44
629,323	22,19
629,517	22,19
629,712	54,95
629,906	36,52
630,1	1,71
630,294	-63,83
630,489	104,11
630,683	42,67
630,877	-4,44
631,071	-35,16
631,265	97,96
631,459	38,57
631,653	7,85
631,848	5,8
632,042	20,14
632,236	-16,73
632,43	18,09
632,624	24,23
632,818	36,52
633,012	20,14
633,206	36,52
633,4	77,48
633,594	54,95
633,788	24,23
633,982	-6,49
634,176	20,14
634,369	3,75
634,563	3,75
634,757	-2,39
634,951	-22,87
635,145	42,67
635,339	11,95
635,533	69,29
635,726	-100,69
635,92	44,71
636,114	-29,01
636,308	16,04
636,501	13,99
636,695	-10,58
636,889	32,43
637,083	16,04
637,276	22,19
637,47	-10,58
637,664	65,19
637,857	-45,4
638,051	36,52
638,244	36,52
638,438	7,85
638,632	54,95
638,825	24,23
639,019	-20,82
639,212	-6,49
639,406	48,81
639,599	22,19
639,793	-37,2
639,986	9,9
640,18	97,96
640,373	-14,68
640,567	69,29
640,76	-4,44
640,954	71,34
641,147	-41,3
641,34	110,25
641,534	54,95
641,727	44,71
641,92	30,38
642,114	22,19
642,307	38,57
642,5	13,99
642,694	-37,2
642,887	3,75
643,08	-47,44
643,273	22,19
643,467	-2,39
643,66	-51,54
643,853	-33,11
644,046	71,34
644,239	3,75
644,432	44,71
644,626	-6,49
644,819	9,9
645,012	22,19
645,205	65,19
645,398	36,52
645,591	11,95
645,784	-8,53
645,977	32,43
646,17	40,62
646,363	11,95
646,556	18,09
646,749	-37,2
646,942	-22,87
647,135	5,8
647,328	18,09
647,521	44,71
647,714	-35,16
647,907	-37,2
648,099	9,9
648,292	-12,63
648,485	38,57
648,678	54,95
648,871	13,99
649,064	69,29
649,256	44,71
649,449	30,38
649,642	-31,06
649,835	89,77
650,027	-4,44
650,22	-20,82
650,413	1,71
650,605	-10,58
650,798	-69,97
650,991	-0,34
651,183	11,95
651,376	-29,01
651,568	91,82
651,761	61,1
651,954	11,95
652,146	-2,39
652,339	36,52
652,531	30,38
652,724	-29,01
652,916	-0,34
653,109	11,95
653,301	-14,68
653,494	-2,39
653,686	95,91
653,879	61,1
654,071	81,58
654,263	-14,68
654,456	11,95
654,648	61,1
654,84	67,24
655,033	54,95
655,225	36,52
655,417	-10,58
655,61	20,14
655,802	38,57
655,994	-0,34
656,186	30,38
656,379	-22,87
656,571	-37,2
656,763	22,19
656,955	18,09
657,148	18,09
657,34	-20,82
657,532	34,47
657,724	-0,34
657,916	18,09
658,108	22,19
658,3	9,9
658,492	20,14
658,684	38,57
658,876	-29,01
659,068	13,99
659,26	-4,44
659,452	44,71
659,644	13,99
659,836	30,38
660,028	-0,34
660,22	40,62
660,412	46,76
660,604	57
660,796	18,09
660,988	24,23
661,18	32,43
661,372	46,76
661,563	1,71
661,755	5,8
661,947	-10,58
662,139	1,71
662,331	87,72
662,522	52,91
662,714	-12,63
662,906	48,81
663,097	-26,96
663,289	7,85
663,481	-43,35
663,673	-0,34
663,864	50,86
664,056	24,23
664,247	-12,63
664,439	71,34
664,631	16,04
664,822	-45,4
665,014	24,23
665,205	-26,96
665,397	1,71
665,588	3,75
665,78	52,91
665,971	77,48
666,163	34,47
666,354	-12,63
666,546	44,71
666,737	57
666,929	-4,44
667,12	-6,49
667,311	1,71
667,503	50,86
667,694	-8,53
667,885	24,23
668,077	-8,53
668,268	30,38
668,459	57
668,651	65,19
668,842	-8,53
669,033	-37,2
669,224	36,52
669,416	-4,44
669,607	16,04
669,798	-26,96
669,989	-47,44
670,18	-41,3
670,371	-18,77
670,563	-39,25
670,754	-41,3
670,945	40,62
671,136	7,85
671,327	-14,68
671,518	-86,36
671,709	20,14
671,9	67,24
672,091	-4,44
672,282	52,91
672,473	-53,59
672,664	-0,34
672,855	-16,73
673,046	-4,44
673,237	28,33
673,428	1,71
673,619	9,9
673,809	46,76
674	46,76
674,191	46,76
674,382	36,52
674,573	-12,63
674,764	32,43
674,954	16,04
675,145	71,34
675,336	-41,3
675,527	13,99
675,717	-12,63
675,908	30,38
676,099	28,33
676,289	85,67
676,48	-20,82
676,671	-12,63
676,861	36,52
677,052	59,05
677,243	22,19
677,433	34,47
677,624	-33,11
677,814	30,38
678,005	85,67
678,195	-0,34
678,386	1,71
678,576	69,29
678,767	77,48
678,957	3,75
679,148	22,19
679,338	-12,63
679,529	30,38
679,719	-20,82
679,909	57
680,1	-39,25
680,29	-37,2
680,481	38,57
680,671	61,1
680,861	-53,59
681,052	-2,39
681,242	57
681,432	57
681,622	3,75
681,813	11,95
682,003	-20,82
682,193	30,38
682,383	24,23
682,573	-22,87
682,764	5,8
682,954	-33,11
683,144	79,53
683,334	9,9
683,524	-55,64
683,714	1,71
683,904	24,23
684,094	63,15
684,284	36,52
684,474	3,75
684,664	28,33
684,854	28,33
685,044	26,28
685,234	20,14
685,424	16,04
685,614	11,95
685,804	36,52
685,994	-4,44
686,184	36,52
686,374	20,14
686,564	-33,11
686,753	-0,34
686,943	7,85
687,133	-12,63
687,323	11,95
687,513	50,86
687,702	-2,39
687,892	-24,92
688,082	83,63
688,272	3,75
688,461	40,62
688,651	38,57
688,841	-16,73
689,03	-24,92
689,22	-14,68
689,41	5,8
689,599	44,71
689,789	40,62
689,979	-4,44
690,168	-22,87
690,358	11,95
690,547	30,38
690,737	32,43
690,926	22,19
691,116	16,04
691,305	32,43
691,495	69,29
691,684	36,52
691,874	28,33
692,063	-12,63
692,252	18,09
692,442	-31,06
692,631	7,85
692,82	30,38
693,01	-18,77
693,199	-16,73
693,388	-12,63
693,578	-29,01
693,767	30,38
693,956	16,04
694,146	75,43
694,335	1,71
694,524	18,09
694,713	75,43
694,902	30,38
695,092	5,8
695,281	42,67
695,47	73,39
695,659	81,58
695,848	36,52
696,037	30,38
696,226	-22,87
696,415	54,95
696,604	7,85
696,793	46,76
696,982	44,71
697,171	44,71
697,36	-26,96
697,549	61,1
697,738	11,95
697,927	-12,63
698,116	28,33
698,305	3,75
698,494	69,29
698,683	-2,39
698,872	44,71
699,061	3,75
699,25	40,62
699,438	-18,77
699,627	-37,2
699,816	65,19
700,005	46,76
700,193	48,81
700,382	36,52
700,571	11,95
700,76	-12,63
700,948	11,95
701,137	-102,74
701,326	-2,39
701,514	-51,54
701,703	-24,92
701,892	-108,88
702,08	38,57
702,269	48,81
702,457	-6,49
702,646	5,8
702,834	46,76
703,023	-8,53
703,212	16,04
703,4	24,23
703,589	18,09
703,777	-20,82
703,965	-20,82
704,154	34,47
704,342	9,9
704,531	20,14
704,719	18,09
704,907	-8,53
705,096	11,95
705,284	11,95
705,472	32,43
705,661	-31,06
705,849	20,14
706,037	91,82
706,226	-2,39
706,414	3,75
706,602	-4,44
706,79	22,19
706,979	22,19
707,167	9,9
707,355	-16,73
707,543	52,91
707,731	11,95
707,919	-4,44
708,107	44,71
708,296	7,85
708,484	-0,34
708,672	40,62
708,86	73,39
709,048	22,19
709,236	24,23
709,424	42,67
709,612	-39,25
709,8	-8,53
709,988	9,9
710,176	-0,34
710,364	48,81
710,551	5,8
710,739	38,57
710,927	11,95
711,115	-0,34
711,303	-35,16
711,491	-26,96
711,679	-43,35
711,866	-20,82
712,054	11,95
712,242	38,57
712,43	40,62
712,617	38,57
712,805	-53,59
712,993	52,91
713,181	77,48
713,368	52,91
713,556	-43,35
713,744	54,95
713,931	46,76
714,119	38,57
714,306	50,86
714,494	102,06
714,682	-12,63
714,869	-24,92
715,057	34,47
715,244	1,71
715,432	-29,01
715,619	5,8
715,807	-10,58
715,994	44,71
716,182	48,81
716,369	65,19
716,556	48,81
716,744	-31,06
716,931	20,14
717,119	22,19
717,306	-4,44
717,493	44,71
717,681	-16,73
717,868	-0,34
718,055	-51,54
718,242	61,1
718,43	30,38
718,617	54,95
718,804	48,81
718,991	-6,49
719,179	-10,58
719,366	-57,68
719,553	9,9
719,74	3,75
719,927	32,43
720,114	44,71
720,301	46,76
720,488	-8,53
720,676	-12,63
720,863	100,01
721,05	67,24
721,237	85,67
721,424	-16,73
721,611	-26,96
721,798	36,52
721,985	54,95
722,172	-37,2
722,358	-29,01
722,545	11,95
722,732	20,14
722,919	83,63
723,106	20,14
723,293	-41,3
723,48	-0,34
723,667	-2,39
723,853	16,04
724,04	79,53
724,227	34,47
724,414	-20,82
724,6	38,57
724,787	-10,58
724,974	71,34
725,161	20,14
725,347	-0,34
725,534	97,96
725,72	77,48
725,907	71,34
726,094	-12,63
726,28	48,81
726,467	48,81
726,653	-8,53
726,84	52,91
727,027	13,99
727,213	-12,63
727,4	20,14
727,586	38,57
727,773	-4,44
727,959	-45,4
728,145	54,95
728,332	-29,01
728,518	-37,2
728,705	59,05
728,891	7,85
729,077	-65,88
729,264	-59,73
729,45	28,33
729,636	95,91
729,823	57
730,009	-26,96
730,195	20,14
730,382	28,33
730,568	1,71
730,754	5,8
730,94	13,99
731,126	30,38
731,313	24,23
731,499	24,23
731,685	44,71
731,871	24,23
732,057	40,62
732,243	50,86
732,429	40,62
732,615	40,62
732,801	20,14
732,987	87,72
733,173	57
733,359	-14,68
733,545	-16,73
733,731	7,85
733,917	28,33
734,103	-10,58
734,289	22,19
734,475	34,47
734,661	7,85
734,847	13,99
735,033	5,8
735,219	52,91
735,404	22,19
735,59	22,19
735,776	-14,68
735,962	-8,53
736,148	13,99
736,333	54,95
736,519	3,75
736,705	-18,77
736,89	44,71
737,076	44,71
737,262	28,33
737,447	-8,53
737,633	38,57
737,819	11,95
738,004	40,62
738,19	13,99
738,375	46,76
738,561	20,14
738,747	-2,39
738,932	-53,59
739,118	71,34
739,303	-37,2
739,489	34,47
739,674	-4,44
739,859	-39,25
740,045	32,43
740,23	-47,44
740,416	5,8
740,601	-29,01
740,786	34,47
740,972	48,81
741,157	65,19
741,342	81,58
741,528	1,71
741,713	97,96
741,898	7,85
742,084	5,8
742,269	50,86
742,454	11,95
742,639	11,95
742,824	7,85
743,01	-24,92
743,195	85,67
743,38	3,75
743,565	42,67
743,75	36,52
743,935	13,99
744,12	38,57
744,305	-0,34
744,49	34,47
744,675	22,19
744,86	24,23
745,045	97,96
745,23	-29,01
745,415	30,38
745,6	46,76
745,785	61,1
745,97	61,1
746,155	-8,53
746,34	50,86
746,525	73,39
746,71	24,23
746,895	-35,16
747,079	-4,44
747,264	59,05
747,449	-20,82
747,634	-43,35
747,819	22,19
748,003	13,99
748,188	9,9
748,373	30,38
748,557	-18,77
748,742	16,04
748,927	-37,2
749,111	-12,63
749,296	-37,2
749,481	7,85
749,665	38,57
749,85	28,33
750,034	54,95
750,219	11,95
750,404	-20,82
750,588	-12,63
750,773	42,67
750,957	-39,25
751,141	-8,53
751,326	54,95
751,51	-4,44
751,695	65,19
751,879	32,43
752,064	16,04
752,248	-8,53
752,432	114,34
752,617	-18,77
752,801	57
752,985	11,95
753,17	81,58
753,354	11,95
753,538	-8,53
753,722	63,15
753,907	5,8
754,091	16,04
754,275	20,14
754,459	11,95
754,643	81,58
754,828	28,33
755,012	20,14
755,196	-2,39
755,38	71,34
755,564	48,81
755,748	75,43
755,932	77,48
756,116	-4,44
756,3	-31,06
756,484	24,23
756,668	-31,06
756,852	-69,97
757,036	61,1
757,22	-4,44
757,404	-26,96
757,588	-0,34
757,772	32,43
757,956	38,57
758,14	26,28
758,323	1,71
758,507	-0,34
758,691	38,57
758,875	36,52
759,059	13,99
759,242	-4,44
759,426	85,67
759,61	-51,54
759,794	22,19
759,977	-18,77
760,161	1,71
760,345	30,38
760,528	-6,49
760,712	24,23
760,895	-29,01
761,079	-20,82
761,263	-37,2
761,446	-10,58
761,63	44,71
761,813	-45,4
761,997	1,71
762,18	16,04
762,364	20,14
762,547	81,58
762,731	77,48
762,914	-2,39
763,098	22,19
763,281	9,9
763,464	30,38
763,648	48,81
763,831	30,38
764,015	-16,73
764,198	-16,73
764,381	-2,39
764,564	5,8
764,748	-4,44
764,931	-10,58
765,114	-55,64
765,297	28,33
765,481	30,38
765,664	30,38
765,847	9,9
766,03	-0,34
766,213	-37,2
766,397	52,91
766,58	22,19
766,763	20,14
766,946	-90,45
767,129	20,14
767,312	38,57
767,495	-12,63
767,678	-14,68
767,861	22,19
768,044	-16,73
768,227	24,23
768,41	-4,44
768,593	54,95
768,776	24,23
768,959	-78,16
769,142	20,14
769,324	24,23
769,507	77,48
769,69	38,57
769,873	-0,34
770,056	36,52
770,239	-12,63
770,421	28,33
770,604	-29,01
770,787	36,52
770,97	26,28
771,152	-33,11
771,335	22,19
771,518	16,04
771,7	67,24
771,883	52,91
772,066	-74,07
772,248	36,52
772,431	36,52
772,613	-12,63
772,796	-16,73
772,978	20,14
773,161	-24,92
773,343	61,1
773,526	65,19
773,708	69,29
773,891	-16,73
774,073	67,24
774,256	-0,34
774,438	-20,82
774,621	-6,49
774,803	9,9
774,985	36,52
775,168	38,57
775,35	-16,73
775,532	32,43
775,715	77,48
775,897	-14,68
776,079	3,75
776,261	-12,63
776,444	54,95
776,626	5,8
776,808	-24,92
776,99	-10,58
777,173	-18,77
777,355	-26,96
777,537	-20,82
777,719	-12,63
777,901	24,23
778,083	-4,44
778,265	18,09
778,447	52,91
778,629	7,85
778,811	20,14
778,993	-14,68
779,175	63,15
779,357	40,62
779,539	-26,96
779,721	-24,92
779,903	11,95
780,085	-59,73
780,267	50,86
780,449	-6,49
780,631	61,1
780,812	59,05
780,994	77,48
781,176	32,43
781,358	57
781,54	-35,16
781,721	-26,96
781,903	65,19
782,085	28,33
782,267	7,85
782,448	11,95
782,63	26,28
782,812	-14,68
782,993	28,33
783,175	36,52
783,357	-8,53
783,538	13,99
783,72	44,71
783,901	-41,3
784,083	-26,96
784,264	-31,06
784,446	48,81
784,627	20,14
784,809	-26,96
784,99	22,19
785,172	-22,87
785,353	42,67
785,535	3,75
785,716	22,19
785,897	18,09
786,079	52,91
786,26	18,09
786,441	-2,39
786,623	38,57
786,804	-12,63
786,985	36,52
787,167	73,39
787,348	30,38
787,529	-18,77
787,71	32,43
787,891	3,75
788,073	16,04
788,254	44,71
788,435	13,99
788,616	30,38
788,797	-29,01
788,978	18,09
789,159	40,62
789,34	50,86
789,522	-51,54
789,703	85,67
789,884	-8,53
790,065	-26,96
790,246	26,28
790,427	50,86
790,607	-4,44
790,788	65,19
790,969	34,47
791,15	-12,63
791,331	20,14
791,512	-14,68
791,693	26,28
791,874	5,8
792,054	-10,58
792,235	36,52
792,416	7,85
792,597	32,43
792,778	11,95
792,958	-14,68
793,139	1,71
793,32	-33,11
793,5	1,71
793,681	16,04
793,862	11,95
794,042	11,95
794,223	-63,83
794,404	-29,01
794,584	-37,2
794,765	38,57
794,945	11,95
795,126	-18,77
795,306	-12,63
795,487	-67,92
795,667	-14,68
795,848	16,04
796,028	38,57
796,209	3,75
796,389	16,04
796,57	24,23
796,75	-39,25
796,93	-0,34
797,111	-39,25
797,291	69,29
797,471	-26,96
797,652	-59,73
797,832	5,8
798,012	52,91
798,192	26,28
798,373	5,8
798,553	-10,58
798,733	28,33
798,913	-4,44
799,093	40,62
799,274	34,47
799,454	71,34
799,634	79,53
799,814	61,1
799,994	-76,12
800,174	-49,49
800,354	-8,53
800,534	38,57
800,714	44,71
800,894	77,48
801,074	-14,68
801,254	34,47
801,434	-4,44
801,614	3,75
801,794	81,58
801,974	102,06
802,154	-8,53
802,334	-4,44
802,514	1,71
802,693	-29,01
802,873	-76,12
803,053	46,76
803,233	-43,35
803,413	24,23
803,592	32,43
803,772	24,23
803,952	40,62
804,131	5,8
804,311	-29,01
804,491	34,47
804,67	11,95
804,85	20,14
805,03	24,23
805,209	65,19
805,389	-49,49
805,568	79,53
805,748	-12,63
805,928	5,8
806,107	-14,68
806,287	1,71
806,466	-8,53
806,646	18,09
806,825	28,33
807,004	52,91
807,184	-51,54
807,363	7,85
807,543	30,38
807,722	-0,34
807,901	18,09
808,081	28,33
808,26	1,71
808,439	5,8
808,619	24,23
808,798	61,1
808,977	22,19
809,156	13,99
809,336	7,85
809,515	22,19
809,694	38,57
809,873	-6,49
810,052	-63,83
810,231	9,9
810,411	-74,07
810,59	22,19
810,769	-69,97
810,948	71,34
811,127	-35,16
811,306	32,43
811,485	-53,59
811,664	57
811,843	-24,92
812,022	30,38
812,201	5,8
812,38	16,04
812,559	-4,44
812,737	28,33
812,916	22,19
813,095	61,1
813,274	-14,68
813,453	-18,77
813,632	71,34
813,811	9,9
813,989	77,48
814,168	22,19
814,347	40,62
814,526	16,04
814,704	28,33
814,883	59,05
815,062	52,91
815,24	38,57
815,419	22,19
815,598	36,52
815,776	36,52
815,955	36,52
816,133	11,95
816,312	-26,96
816,49	30,38
816,669	91,82
816,847	1,71
817,026	20,14
817,204	-0,34
817,383	24,23
817,561	40,62
817,74	-0,34
817,918	-47,44
818,097	-24,92
818,275	65,19
818,453	30,38
818,632	3,75
818,81	-20,82
818,988	-29,01
819,167	-45,4
819,345	26,28
819,523	36,52
819,701	3,75
819,879	36,52
820,058	26,28
820,236	18,09
820,414	-41,3
820,592	3,75
820,77	-12,63
820,948	69,29
821,127	87,72
821,305	9,9
821,483	-4,44
821,661	71,34
821,839	-8,53
822,017	-29,01
822,195	-18,77
822,373	22,19
822,551	-8,53
822,729	13,99
822,907	-16,73
823,085	-12,63
823,262	-2,39
823,44	-72,02
823,618	3,75
823,796	1,71
823,974	3,75
824,152	52,91
824,329	24,23
824,507	65,19
824,685	-12,63
824,863	38,57
825,04	7,85
825,218	52,91
825,396	3,75
825,574	-18,77
825,751	52,91
825,929	69,29
826,107	-20,82
826,284	18,09
826,462	61,1
826,639	-31,06
826,817	-6,49
826,994	36,52
827,172	-43,35
827,349	52,91
827,527	75,43
827,704	5,8
827,882	-20,82
828,059	48,81
828,237	22,19
828,414	-37,2
828,591	38,57
828,769	5,8
828,946	42,67
829,124	-49,49
829,301	28,33
829,478	5,8
829,655	28,33
829,833	5,8
830,01	-61,78
830,187	22,19
830,364	-51,54
830,542	-4,44
830,719	-0,34
830,896	24,23
831,073	-4,44
831,25	-14,68
831,427	24,23
831,604	50,86
831,782	-59,73
831,959	52,91
832,136	30,38
832,313	75,43
832,49	57
832,667	61,1
832,844	-39,25
833,021	-16,73
833,198	-14,68
833,374	-37,2
833,551	16,04
833,728	20,14
833,905	9,9
834,082	-24,92
834,259	59,05
834,436	13,99
834,612	-61,78
834,789	42,67
834,966	63,15
835,143	46,76
835,319	-39,25
835,496	-31,06
835,673	-4,44
835,85	38,57
836,026	-20,82
836,203	-4,44
836,38	-6,49
836,556	36,52
836,733	-35,16
836,909	40,62
837,086	-35,16
837,262	36,52
837,439	30,38
837,616	-45,4
837,792	30,38
837,968	71,34
838,145	1,71
838,321	-8,53
838,498	-10,58
838,674	61,1
838,851	3,75
839,027	52,91
839,203	-59,73
839,38	-35,16
839,556	-43,35
839,732	77,48
839,909	-20,82
840,085	24,23
840,261	52,91
840,437	48,81
840,614	-31,06
840,79	11,95
840,966	44,71
841,142	22,19
841,318	-33,11
841,494	20,14
841,671	-33,11
841,847	16,04
842,023	-2,39
842,199	-22,87
842,375	46,76
842,551	-18,77
842,727	-26,96
842,903	-26,96
843,079	5,8
843,255	5,8
843,431	61,1
843,607	5,8
843,783	32,43
843,959	-31,06
844,134	48,81
844,31	-12,63
844,486	22,19
844,662	-45,4
844,838	36,52
845,013	46,76
845,189	3,75
845,365	-18,77
845,541	-26,96
845,716	-55,64
845,892	-39,25
846,068	-8,53
846,244	3,75
846,419	5,8
846,595	20,14
846,77	-59,73
846,946	-43,35
847,122	-0,34
847,297	38,57
847,473	-47,44
847,648	-2,39
847,824	16,04
847,999	-4,44
848,175	13,99
848,35	-10,58
848,526	46,76
848,701	32,43
848,876	-14,68
849,052	-29,01
849,227	-14,68
849,403	-6,49
849,578	-4,44
849,753	3,75
849,929	36,52
850,104	-61,78
850,279	5,8
850,454	-115,03
850,63	-8,53
850,805	5,8
850,98	38,57
851,155	-12,63
851,33	-26,96
851,505	16,04
851,681	11,95
851,856	-18,77
852,031	11,95
852,206	22,19
852,381	38,57
852,556	-4,44
852,731	-10,58
852,906	83,63
853,081	7,85
853,256	-39,25
853,431	38,57
853,606	3,75
853,781	24,23
853,956	44,71
854,131	18,09
854,305	13,99
854,48	5,8
854,655	-67,92
854,83	3,75
855,005	11,95
855,18	71,34
855,354	-2,39
855,529	26,28
855,704	20,14
855,879	30,38
856,053	-8,53
856,228	11,95
856,403	-10,58
856,577	71,34
856,752	-22,87
856,926	-16,73
857,101	13,99
857,276	36,52
857,45	36,52
857,625	69,29
857,799	22,19
857,974	9,9
858,148	42,67
858,323	28,33
858,497	5,8
858,672	67,24
858,846	81,58
859,02	48,81
859,195	22,19
859,369	61,1
859,543	7,85
859,718	-12,63
859,892	38,57
860,066	11,95
860,241	16,04
860,415	16,04
860,589	-33,11
860,763	-12,63
860,938	-29,01
861,112	85,67
861,286	11,95
861,46	-0,34
861,634	54,95
861,808	13,99
861,982	-18,77
862,157	28,33
862,331	-20,82
862,505	-14,68
862,679	-29,01
862,853	-12,63
863,027	50,86
863,201	63,15
863,375	-35,16
863,549	36,52
863,722	52,91
863,896	-4,44
864,07	100,01
864,244	65,19
864,418	54,95
864,592	36,52
864,766	7,85
864,939	44,71
865,113	1,71
865,287	24,23
865,461	-8,53
865,634	38,57
865,808	3,75
865,982	-12,63
866,156	1,71
866,329	50,86
866,503	16,04
866,676	20,14
866,85	9,9
867,024	-41,3
867,197	24,23
867,371	46,76
867,544	-18,77
867,718	-45,4
867,891	-72,02
868,065	44,71
868,238	-76,12
868,412	42,67
868,585	77,48
868,759	-12,63
868,932	30,38
869,105	3,75
869,279	40,62
869,452	-37,2
869,625	5,8
869,799	34,47
869,972	-20,82
870,145	3,75
870,319	20,14
870,492	38,57
870,665	-12,63
870,838	-20,82
871,011	59,05
871,185	46,76
871,358	22,19
871,531	-12,63
871,704	77,48
871,877	-0,34
872,05	-26,96
872,223	-35,16
872,396	5,8
872,569	-63,83
872,742	28,33
872,915	-78,16
873,088	85,67
873,261	-0,34
873,434	-20,82
873,607	-12,63
873,78	85,67
873,953	48,81
874,126	-35,16
874,299	-0,34
874,471	44,71
874,644	20,14
874,817	-33,11
874,99	77,48
875,163	13,99
875,335	22,19
875,508	-59,73
875,681	24,23
875,853	9,9
876,026	-4,44
876,199	-31,06
876,371	5,8
876,544	-12,63
876,717	-18,77
876,889	-43,35
877,062	-12,63
877,234	28,33
877,407	22,19
877,579	7,85
877,752	-22,87
877,924	13,99
878,097	73,39
878,269	-4,44
878,442	9,9
878,614	13,99
878,786	48,81
878,959	18,09
879,131	22,19
879,303	59,05
879,476	42,67
879,648	-26,96
879,82	9,9
879,993	24,23
880,165	40,62
880,337	-12,63
880,509	22,19
880,681	-2,39
880,854	16,04
881,026	-0,34
881,198	-12,63
881,37	-6,49
881,542	61,1
881,714	-26,96
881,886	-18,77
882,058	-45,4
882,23	11,95
882,402	22,19
882,574	3,75
882,746	-98,64
882,918	81,58
883,09	61,1
883,262	44,71
883,434	-24,92
883,606	-33,11
883,778	38,57
883,95	28,33
884,122	52,91
884,293	-2,39
884,465	-24,92
884,637	36,52
884,809	9,9
884,98	-16,73
885,152	1,71
885,324	36,52
885,496	13,99
885,667	3,75
885,839	3,75
886,011	11,95
886,182	77,48
886,354	-10,58
886,525	38,57
886,697	110,25
886,869	-61,78
887,04	5,8
887,212	20,14
887,383	3,75
887,555	26,28
887,726	20,14
887,897	-29,01
888,069	-37,2
888,24	-6,49
888,412	28,33
888,583	52,91
888,754	13,99
888,926	7,85
889,097	-37,2
889,268	-4,44
889,44	20,14
889,611	-24,92
889,782	-33,11
889,953	-6,49
890,125	44,71
890,296	3,75
890,467	-29,01
890,638	-10,58
890,809	-41,3
890,98	38,57
891,151	13,99
891,323	59,05
891,494	26,28
891,665	20,14
891,836	11,95
892,007	-2,39
892,178	73,39
892,349	-74,07
892,52	-35,16
892,691	-6,49
892,862	81,58
893,032	-18,77
893,203	102,06
893,374	13,99
893,545	-4,44
893,716	-18,77
893,887	16,04
894,057	-61,78
894,228	52,91
894,399	20,14
894,57	40,62
894,74	-4,44
894,911	24,23
895,082	3,75
895,253	48,81
895,423	-37,2
895,594	-26,96
895,764	-20,82
895,935	-74,07
896,106	5,8
896,276	-0,34
896,447	-86,36
896,617	3,75
896,788	-35,16
896,958	48,81
897,129	-2,39
897,299	44,71
897,47	71,34
897,64	-22,87
897,81	9,9
897,981	-10,58
898,151	-24,92
898,322	9,9
898,492	44,71
898,662	63,15
898,832	-61,78
899,003	22,19
899,173	9,9
899,343	-41,3
899,513	42,67
