Data from filtre580_USB4F104151__9__11-53-55-561.txt Node

Date: Wed Apr 15 11:53:55 EDT 2026
User: LaboPhy
Spectrometer: USB4F10415
Trigger mode: 4
Integration Time (sec): 5,000000E-3
Scans to average: 1
Electric dark correction enabled: true
Nonlinearity correction enabled: false
Boxcar width: 0
XAxis mode: Wavelengths
Number of Pixels in Spectrum: 3648
>>>>>Begin Spectral Data<<<<<
178,204	15,02
178,424	15,02
178,644	15,02
178,864	-77,14
179,084	-27,99
179,304	-5,46
179,524	-7,51
179,744	23,21
179,964	-62,8
180,184	-15,7
180,404	15,02
180,624	-54,61
180,844	41,64
181,064	2,73
181,283	60,07
181,503	-21,85
181,723	25,26
181,943	62,12
182,163	103,08
182,383	2,73
182,602	74,41
182,822	15,02
183,042	-1,37
183,262	27,31
183,482	-5,46
183,701	43,69
183,921	84,65
184,141	-1,37
184,361	17,07
184,58	33,45
184,8	12,97
185,02	25,26
185,239	31,4
185,459	10,92
185,679	-7,51
185,898	37,55
186,118	-30,04
186,338	-7,51
186,557	35,5
186,777	17,07
186,997	33,45
187,216	6,83
187,436	12,97
187,655	-48,47
187,875	-17,75
188,095	17,07
188,314	35,5
188,534	27,31
188,753	62,12
188,973	-1,37
189,192	0,68
189,412	2,73
189,631	-25,94
189,851	-32,08
190,07	25,26
190,29	-38,23
190,509	29,35
190,729	8,87
190,948	6,83
191,168	-5,46
191,387	-7,51
191,607	4,78
191,826	60,07
192,045	80,55
192,265	6,83
192,484	0,68
192,704	12,97
192,923	-40,28
193,142	-7,51
193,362	6,83
193,581	-40,28
193,8	19,11
194,02	0,68
194,239	-54,61
194,458	17,07
194,678	58,03
194,897	-7,51
195,116	-5,46
195,335	27,31
195,555	19,11
195,774	0,68
195,993	35,5
196,212	-32,08
196,432	-11,61
196,651	-11,61
196,87	6,83
197,089	43,69
197,308	47,79
197,528	19,11
197,747	10,92
197,966	49,83
198,185	49,83
198,404	25,26
198,623	25,26
198,842	35,5
199,062	15,02
199,281	6,83
199,5	35,5
199,719	-5,46
199,938	60,07
200,157	-40,28
200,376	53,93
200,595	23,21
200,814	90,79
201,033	-3,41
201,252	12,97
201,471	-30,04
201,69	66,22
201,909	25,26
202,128	-3,41
202,347	23,21
202,566	-13,65
202,785	33,45
203,004	21,16
203,223	-27,99
203,442	113,32
203,661	68,27
203,879	64,17
204,098	17,07
204,317	25,26
204,536	-32,08
204,755	33,45
204,974	-1,37
205,193	10,92
205,411	76,46
205,63	45,74
205,849	-19,8
206,068	51,88
206,287	33,45
206,505	-17,75
206,724	-68,95
206,943	-32,08
207,162	39,59
207,381	98,99
207,599	-32,08
207,818	21,16
208,037	0,68
208,255	29,35
208,474	58,03
208,693	98,99
208,911	4,78
209,13	68,27
209,349	17,07
209,567	119,46
209,786	33,45
210,005	98,99
210,223	21,16
210,442	-34,13
210,661	84,65
210,879	21,16
211,098	62,12
211,316	66,22
211,535	35,5
211,753	27,31
211,972	2,73
212,191	41,64
212,409	25,26
212,628	-32,08
212,846	15,02
213,065	49,83
213,283	-34,13
213,502	51,88
213,72	12,97
213,938	31,4
214,157	84,65
214,375	12,97
214,594	-1,37
214,812	-50,52
215,031	41,64
215,249	35,5
215,467	66,22
215,686	58,03
215,904	51,88
216,122	31,4
216,341	-15,7
216,559	-21,85
216,778	53,93
216,996	19,11
217,214	51,88
217,432	62,12
217,651	-32,08
217,869	15,02
218,087	33,45
218,306	15,02
218,524	62,12
218,742	-23,89
218,96	-11,61
219,179	21,16
219,397	35,5
219,615	0,68
219,833	37,55
220,051	0,68
220,27	41,64
220,488	12,97
220,706	27,31
220,924	41,64
221,142	10,92
221,36	-52,56
221,578	45,74
221,796	49,83
222,015	35,5
222,233	4,78
222,451	-79,19
222,669	4,78
222,887	66,22
223,105	21,16
223,323	53,93
223,541	-11,61
223,759	17,07
223,977	-5,46
224,195	-13,65
224,413	31,4
224,631	68,27
224,849	41,64
225,067	10,92
225,285	27,31
225,503	8,87
225,721	49,83
225,939	4,78
226,157	33,45
226,375	49,83
226,592	35,5
226,81	51,88
227,028	27,31
227,246	25,26
227,464	-15,7
227,682	-30,04
227,9	43,69
228,117	49,83
228,335	19,11
228,553	37,55
228,771	37,55
228,989	-97,62
229,206	10,92
229,424	43,69
229,642	43,69
229,86	39,59
230,077	74,41
230,295	35,5
230,513	-91,48
230,731	43,69
230,948	49,83
231,166	-27,99
231,384	-7,51
231,601	-3,41
231,819	39,59
232,037	55,98
232,254	-3,41
232,472	51,88
232,689	8,87
232,907	-3,41
233,125	17,07
233,342	15,02
233,56	45,74
233,777	84,65
233,995	49,83
234,213	78,51
234,43	-34,13
234,648	-32,08
234,865	-3,41
235,083	25,26
235,3	49,83
235,518	-21,85
235,735	-73,04
235,953	17,07
236,17	39,59
236,388	15,02
236,605	-5,46
236,822	0,68
237,04	23,21
237,257	-7,51
237,475	74,41
237,692	21,16
237,909	-15,7
238,127	-32,08
238,344	-32,08
238,562	-21,85
238,779	17,07
238,996	23,21
239,214	2,73
239,431	76,46
239,648	-13,65
239,865	37,55
240,083	41,64
240,3	35,5
240,517	-64,85
240,735	-3,41
240,952	43,69
241,169	-15,7
241,386	23,21
241,603	2,73
241,821	-15,7
242,038	-3,41
242,255	10,92
242,472	51,88
242,689	-25,94
242,907	-21,85
243,124	-15,7
243,341	53,93
243,558	35,5
243,775	6,83
243,992	66,22
244,209	17,07
244,426	27,31
244,643	-7,51
244,86	58,03
245,078	-3,41
245,295	8,87
245,512	-3,41
245,729	-19,8
245,946	-25,94
246,163	90,79
246,38	33,45
246,597	15,02
246,814	-40,28
247,031	35,5
247,248	45,74
247,464	-5,46
247,681	60,07
247,898	43,69
248,115	37,55
248,332	25,26
248,549	4,78
248,766	-13,65
248,983	70,31
249,2	-42,32
249,417	-42,32
249,633	17,07
249,85	72,36
250,067	45,74
250,284	25,26
250,501	8,87
250,717	-17,75
250,934	-40,28
251,151	15,02
251,368	27,31
251,585	80,55
251,801	-9,56
252,018	49,83
252,235	-21,85
252,451	68,27
252,668	27,31
252,885	41,64
253,102	29,35
253,318	29,35
253,535	41,64
253,752	109,23
253,968	23,21
254,185	23,21
254,401	15,02
254,618	82,6
254,835	43,69
255,051	27,31
255,268	-48,47
255,484	43,69
255,701	27,31
255,917	27,31
256,134	35,5
256,351	-23,89
256,567	58,03
256,784	70,31
257	-1,37
257,217	35,5
257,433	27,31
257,65	23,21
257,866	94,89
258,082	94,89
258,299	47,79
258,515	29,35
258,732	39,59
258,948	66,22
259,165	86,7
259,381	98,99
259,597	51,88
259,814	23,21
260,03	6,83
260,246	49,83
260,463	98,99
260,679	-32,08
260,895	-9,56
261,112	6,83
261,328	76,46
261,544	37,55
261,761	35,5
261,977	-13,65
262,193	41,64
262,409	-11,61
262,626	-15,7
262,842	47,79
263,058	-19,8
263,274	27,31
263,49	12,97
263,707	72,36
263,923	66,22
264,139	76,46
264,355	19,11
264,571	19,11
264,787	-30,04
265,004	90,79
265,22	47,79
265,436	115,37
265,652	6,83
265,868	58,03
266,084	25,26
266,3	19,11
266,516	-15,7
266,732	4,78
266,948	-7,51
267,164	-15,7
267,38	-15,7
267,596	96,94
267,812	-32,08
268,028	-19,8
268,244	21,16
268,46	-13,65
268,676	62,12
268,892	35,5
269,108	41,64
269,324	4,78
269,54	-3,41
269,756	10,92
269,972	33,45
270,188	0,68
270,403	-13,65
270,619	27,31
270,835	17,07
271,051	-7,51
271,267	15,02
271,483	17,07
271,698	49,83
271,914	-15,7
272,13	17,07
272,346	0,68
272,562	0,68
272,777	58,03
272,993	-7,51
273,209	62,12
273,425	4,78
273,64	-23,89
273,856	45,74
274,072	8,87
274,287	-17,75
274,503	21,16
274,719	25,26
274,934	27,31
275,15	-32,08
275,366	25,26
275,581	33,45
275,797	6,83
276,012	-7,51
276,228	-19,8
276,444	-34,13
276,659	74,41
276,875	4,78
277,09	25,26
277,306	8,87
277,521	0,68
277,737	8,87
277,952	33,45
278,168	29,35
278,383	33,45
278,599	-11,61
278,814	29,35
279,03	0,68
279,245	43,69
279,461	60,07
279,676	15,02
279,892	23,21
280,107	35,5
280,322	19,11
280,538	17,07
280,753	2,73
280,969	27,31
281,184	10,92
281,399	43,69
281,615	-27,99
281,83	10,92
282,045	4,78
282,26	15,02
282,476	-7,51
282,691	29,35
282,906	-44,37
283,122	-1,37
283,337	4,78
283,552	35,5
283,767	-5,46
283,983	-25,94
284,198	51,88
284,413	0,68
284,628	-19,8
284,843	-60,76
285,058	-7,51
285,274	62,12
285,489	21,16
285,704	17,07
285,919	21,16
286,134	72,36
286,349	53,93
286,564	55,98
286,779	25,26
286,995	41,64
287,21	-23,89
287,425	10,92
287,64	43,69
287,855	-9,56
288,07	-5,46
288,285	-11,61
288,5	62,12
288,715	49,83
288,93	27,31
289,145	31,4
289,36	10,92
289,575	60,07
289,79	27,31
290,004	51,88
290,219	27,31
290,434	78,51
290,649	-42,32
290,864	15,02
291,079	-46,42
291,294	74,41
291,509	72,36
291,724	-11,61
291,938	15,02
292,153	10,92
292,368	-27,99
292,583	43,69
292,798	0,68
293,012	12,97
293,227	-5,46
293,442	49,83
293,657	21,16
293,871	10,92
294,086	39,59
294,301	-25,94
294,516	76,46
294,73	37,55
294,945	17,07
295,16	37,55
295,374	19,11
295,589	-73,04
295,804	0,68
296,018	45,74
296,233	-64,85
296,447	68,27
296,662	23,21
296,877	25,26
297,091	31,4
297,306	-23,89
297,52	72,36
297,735	49,83
297,949	8,87
298,164	27,31
298,378	66,22
298,593	33,45
298,807	-19,8
299,022	29,35
299,236	76,46
299,451	25,26
299,665	19,11
299,88	53,93
300,094	33,45
300,309	60,07
300,523	66,22
300,737	-3,41
300,952	-32,08
301,166	-30,04
301,381	31,4
301,595	0,68
301,809	45,74
302,024	25,26
302,238	-3,41
302,452	43,69
302,667	-19,8
302,881	17,07
303,095	17,07
303,309	33,45
303,524	-19,8
303,738	25,26
303,952	51,88
304,166	-13,65
304,381	4,78
304,595	-17,75
304,809	33,45
305,023	98,99
305,237	-9,56
305,452	2,73
305,666	41,64
305,88	25,26
306,094	-48,47
306,308	76,46
306,522	0,68
306,736	10,92
306,95	4,78
307,164	45,74
307,379	43,69
307,593	2,73
307,807	10,92
308,021	-5,46
308,235	6,83
308,449	-40,28
308,663	60,07
308,877	8,87
309,091	86,7
309,305	98,99
309,519	-54,61
309,733	62,12
309,947	23,21
310,161	49,83
310,374	21,16
310,588	-38,23
310,802	-30,04
311,016	68,27
311,23	8,87
311,444	-40,28
311,658	45,74
311,872	-54,61
312,085	-19,8
312,299	-27,99
312,513	51,88
312,727	51,88
312,941	62,12
313,154	12,97
313,368	58,03
313,582	-36,18
313,796	-62,8
314,009	-3,41
314,223	60,07
314,437	-23,89
314,651	55,98
314,864	37,55
315,078	2,73
315,292	49,83
315,505	-71
315,719	66,22
315,933	62,12
316,146	60,07
316,36	-1,37
316,573	41,64
316,787	39,59
317,001	55,98
317,214	-46,42
317,428	-9,56
317,641	17,07
317,855	-3,41
318,068	31,4
318,282	0,68
318,495	68,27
318,709	53,93
318,922	62,12
319,136	31,4
319,349	-21,85
319,563	72,36
319,776	21,16
319,99	25,26
320,203	82,6
320,417	-27,99
320,63	25,26
320,843	15,02
321,057	-64,85
321,27	68,27
321,483	-73,04
321,697	27,31
321,91	37,55
322,124	-30,04
322,337	23,21
322,55	-7,51
322,763	53,93
322,977	23,21
323,19	70,31
323,403	-21,85
323,617	-9,56
323,83	-3,41
324,043	-17,75
324,256	62,12
324,469	-3,41
324,683	70,31
324,896	41,64
325,109	-5,46
325,322	45,74
325,535	43,69
325,748	2,73
325,962	35,5
326,175	-11,61
326,388	53,93
326,601	23,21
326,814	8,87
327,027	10,92
327,24	84,65
327,453	-27,99
327,666	0,68
327,879	0,68
328,092	-68,95
328,305	66,22
328,518	-52,56
328,731	-9,56
328,944	80,55
329,157	-17,75
329,37	39,59
329,583	-7,51
329,796	60,07
330,009	-34,13
330,222	43,69
330,435	-21,85
330,648	76,46
330,861	-27,99
331,073	55,98
331,286	25,26
331,499	-54,61
331,712	-1,37
331,925	19,11
332,138	37,55
332,35	23,21
332,563	31,4
332,776	25,26
332,989	0,68
333,202	17,07
333,414	35,5
333,627	0,68
333,84	4,78
334,053	-11,61
334,265	27,31
334,478	58,03
334,691	37,55
334,903	25,26
335,116	10,92
335,329	2,73
335,541	-54,61
335,754	-15,7
335,966	-11,61
336,179	19,11
336,392	8,87
336,604	51,88
336,817	-13,65
337,029	33,45
337,242	35,5
337,454	-9,56
337,667	-48,47
337,88	43,69
338,092	-23,89
338,305	8,87
338,517	37,55
338,729	25,26
338,942	-25,94
339,154	43,69
339,367	37,55
339,579	-15,7
339,792	-64,85
340,004	27,31
340,217	-30,04
340,429	84,65
340,641	33,45
340,854	53,93
341,066	-15,7
341,278	60,07
341,491	12,97
341,703	33,45
341,915	29,35
342,128	-54,61
342,34	49,83
342,552	4,78
342,764	53,93
342,977	23,21
343,189	17,07
343,401	-13,65
343,613	-23,89
343,826	19,11
344,038	76,46
344,25	0,68
344,462	-60,76
344,674	-19,8
344,886	-17,75
345,099	92,84
345,311	21,16
345,523	31,4
345,735	17,07
345,947	41,64
346,159	80,55
346,371	31,4
346,583	47,79
346,795	33,45
347,007	33,45
347,219	45,74
347,431	25,26
347,643	0,68
347,855	-17,75
348,067	25,26
348,279	-19,8
348,491	58,03
348,703	72,36
348,915	-21,85
349,127	-11,61
349,339	-3,41
349,551	-13,65
349,763	82,6
349,975	49,83
350,187	12,97
350,399	45,74
350,61	29,35
350,822	-13,65
351,034	111,27
351,246	21,16
351,458	-66,9
351,669	35,5
351,881	-3,41
352,093	8,87
352,305	37,55
352,517	-5,46
352,728	2,73
352,94	-23,89
353,152	21,16
353,363	2,73
353,575	12,97
353,787	92,84
353,999	2,73
354,21	45,74
354,422	41,64
354,633	-15,7
354,845	-40,28
355,057	-7,51
355,268	-15,7
355,48	0,68
355,692	27,31
355,903	-19,8
356,115	33,45
356,326	29,35
356,538	62,12
356,749	43,69
356,961	51,88
357,172	45,74
357,384	4,78
357,595	115,37
357,807	-27,99
358,018	-34,13
358,23	-62,8
358,441	27,31
358,653	-9,56
358,864	-17,75
359,075	-50,52
359,287	51,88
359,498	49,83
359,709	-36,18
359,921	41,64
360,132	29,35
360,344	25,26
360,555	-7,51
360,766	66,22
360,977	4,78
361,189	-7,51
361,4	76,46
361,611	2,73
361,823	62,12
362,034	51,88
362,245	-15,7
362,456	8,87
362,667	-19,8
362,879	39,59
363,09	29,35
363,301	29,35
363,512	37,55
363,723	90,79
363,935	17,07
364,146	-7,51
364,357	33,45
364,568	35,5
364,779	-11,61
364,99	49,83
365,201	-30,04
365,412	86,7
365,623	-21,85
365,834	-52,56
366,045	12,97
366,256	51,88
366,467	2,73
366,678	47,79
366,889	15,02
367,1	-64,85
367,311	25,26
367,522	-19,8
367,733	64,17
367,944	21,16
368,155	6,83
368,366	-1,37
368,577	-1,37
368,788	49,83
368,999	21,16
369,209	64,17
369,42	8,87
369,631	25,26
369,842	-30,04
370,053	92,84
370,264	-15,7
370,474	53,93
370,685	74,41
370,896	49,83
371,107	-40,28
371,317	-15,7
371,528	2,73
371,739	10,92
371,95	27,31
372,16	29,35
372,371	25,26
372,582	21,16
372,792	-34,13
373,003	0,68
373,214	98,99
373,424	76,46
373,635	4,78
373,846	-7,51
374,056	-23,89
374,267	84,65
374,477	-42,32
374,688	-15,7
374,898	33,45
375,109	17,07
375,319	25,26
375,53	45,74
375,74	51,88
375,951	0,68
376,161	70,31
376,372	-7,51
376,582	-34,13
376,793	-7,51
377,003	4,78
377,214	66,22
377,424	-23,89
377,635	12,97
377,845	39,59
378,055	76,46
378,266	-46,42
378,476	64,17
378,686	33,45
378,897	33,45
379,107	66,22
379,317	21,16
379,528	6,83
379,738	45,74
379,948	25,26
380,158	29,35
380,369	-13,65
380,579	-5,46
380,789	-15,7
380,999	35,5
381,21	-13,65
381,42	27,31
381,63	45,74
381,84	45,74
382,05	2,73
382,261	43,69
382,471	-38,23
382,681	-3,41
382,891	4,78
383,101	27,31
383,311	31,4
383,521	49,83
383,731	53,93
383,941	0,68
384,151	12,97
384,361	33,45
384,571	39,59
384,781	70,31
384,991	-73,04
385,201	47,79
385,411	49,83
385,621	33,45
385,831	15,02
386,041	-30,04
386,251	-13,65
386,461	-15,7
386,671	29,35
386,881	2,73
387,091	25,26
387,301	96,94
387,511	62,12
387,72	17,07
387,93	21,16
388,14	19,11
388,35	41,64
388,56	64,17
388,769	-13,65
388,979	39,59
389,189	-13,65
389,399	39,59
389,609	37,55
389,818	-27,99
390,028	10,92
390,238	76,46
390,447	-42,32
390,657	60,07
390,867	58,03
391,076	23,21
391,286	25,26
391,496	62,12
391,705	6,83
391,915	-13,65
392,125	10,92
392,334	27,31
392,544	19,11
392,753	-25,94
392,963	55,98
393,172	49,83
393,382	25,26
393,591	19,11
393,801	-5,46
394,01	25,26
394,22	51,88
394,429	47,79
394,639	19,11
394,848	19,11
395,058	43,69
395,267	35,5
395,477	49,83
395,686	27,31
395,895	60,07
396,105	33,45
396,314	41,64
396,524	31,4
396,733	-11,61
396,942	90,79
397,152	47,79
397,361	82,6
397,57	23,21
397,78	-68,95
397,989	2,73
398,198	60,07
398,407	-9,56
398,617	-64,85
398,826	-1,37
399,035	51,88
399,244	21,16
399,453	4,78
399,663	-27,99
399,872	-13,65
400,081	12,97
400,29	19,11
400,499	19,11
400,708	4,78
400,917	21,16
401,127	41,64
401,336	58,03
401,545	8,87
401,754	6,83
401,963	29,35
402,172	-3,41
402,381	37,55
402,59	-5,46
402,799	92,84
403,008	49,83
403,217	-60,76
403,426	66,22
403,635	66,22
403,844	49,83
404,053	6,83
404,262	27,31
404,471	35,5
404,68	-3,41
404,888	25,26
405,097	-11,61
405,306	-19,8
405,515	4,78
405,724	35,5
405,933	51,88
406,142	105,13
406,35	8,87
406,559	4,78
406,768	51,88
406,977	21,16
407,185	37,55
407,394	84,65
407,603	-30,04
407,812	-19,8
408,02	62,12
408,229	12,97
408,438	27,31
408,646	-44,37
408,855	-21,85
409,064	66,22
409,272	25,26
409,481	45,74
409,69	-9,56
409,898	29,35
410,107	8,87
410,315	76,46
410,524	0,68
410,733	-30,04
410,941	-21,85
411,15	33,45
411,358	-15,7
411,567	43,69
411,775	-34,13
411,984	-19,8
412,192	2,73
412,401	-11,61
412,609	-50,52
412,818	35,5
413,026	12,97
413,234	-48,47
413,443	-23,89
413,651	21,16
413,86	-25,94
414,068	35,5
414,276	31,4
414,485	17,07
414,693	47,79
414,901	8,87
415,11	8,87
415,318	33,45
415,526	2,73
415,734	41,64
415,943	15,02
416,151	4,78
416,359	12,97
416,567	17,07
416,776	4,78
416,984	10,92
417,192	-60,76
417,4	55,98
417,608	47,79
417,817	-11,61
418,025	-7,51
418,233	-23,89
418,441	-60,76
418,649	45,74
418,857	60,07
419,065	60,07
419,273	78,51
419,481	41,64
419,689	-5,46
419,897	41,64
420,105	-9,56
420,313	35,5
420,521	-9,56
420,729	51,88
420,937	-93,52
421,145	10,92
421,353	-23,89
421,561	-50,52
421,769	29,35
421,977	43,69
422,185	25,26
422,393	-38,23
422,601	-64,85
422,809	66,22
423,017	37,55
423,224	25,26
423,432	15,02
423,64	23,21
423,848	-44,37
424,056	-15,7
424,263	55,98
424,471	49,83
424,679	12,97
424,887	-38,23
425,094	-36,18
425,302	41,64
425,51	-19,8
425,718	92,84
425,925	35,5
426,133	41,64
426,341	-54,61
426,548	-25,94
426,756	12,97
426,964	-3,41
427,171	37,55
427,379	-42,32
427,586	-54,61
427,794	0,68
428,001	70,31
428,209	29,35
428,417	58,03
428,624	-32,08
428,832	4,78
429,039	37,55
429,247	-83,28
429,454	66,22
429,662	29,35
429,869	0,68
430,076	-23,89
430,284	-5,46
430,491	82,6
430,699	25,26
430,906	6,83
431,114	-48,47
431,321	29,35
431,528	64,17
431,736	-11,61
431,943	55,98
432,15	45,74
432,358	37,55
432,565	41,64
432,772	29,35
432,979	51,88
433,187	17,07
433,394	-32,08
433,601	-25,94
433,808	49,83
434,016	-21,85
434,223	-9,56
434,43	10,92
434,637	2,73
434,844	0,68
435,052	70,31
435,259	60,07
435,466	8,87
435,673	90,79
435,88	51,88
436,087	74,41
436,294	68,27
436,501	51,88
436,708	51,88
436,915	62,12
437,122	8,87
437,329	35,5
437,537	2,73
437,743	45,74
437,95	-32,08
438,157	49,83
438,364	47,79
438,571	4,78
438,778	64,17
438,985	117,42
439,192	60,07
439,399	-9,56
439,606	41,64
439,813	-46,42
440,02	-32,08
440,227	29,35
440,433	-25,94
440,64	29,35
440,847	58,03
441,054	45,74
441,261	76,46
441,467	-9,56
441,674	37,55
441,881	8,87
442,088	-5,46
442,294	49,83
442,501	25,26
442,708	66,22
442,914	-3,41
443,121	41,64
443,328	49,83
443,534	62,12
443,741	-23,89
443,948	-13,65
444,154	15,02
444,361	60,07
444,568	33,45
444,774	15,02
444,981	35,5
445,187	62,12
445,394	-23,89
445,6	41,64
445,807	-7,51
446,013	29,35
446,22	-13,65
446,426	-5,46
446,633	0,68
446,839	27,31
447,046	-23,89
447,252	19,11
447,459	51,88
447,665	51,88
447,871	12,97
448,078	8,87
448,284	21,16
448,491	72,36
448,697	0,68
448,903	-40,28
449,11	84,65
449,316	33,45
449,522	41,64
449,728	60,07
449,935	6,83
450,141	-11,61
450,347	17,07
450,553	17,07
450,76	2,73
450,966	6,83
451,172	-11,61
451,378	29,35
451,584	-1,37
451,791	111,27
451,997	84,65
452,203	41,64
452,409	45,74
452,615	94,89
452,821	60,07
453,027	88,75
453,233	45,74
453,44	47,79
453,646	39,59
453,852	12,97
454,058	74,41
454,264	8,87
454,47	64,17
454,676	2,73
454,882	4,78
455,088	31,4
455,294	8,87
455,5	90,79
455,705	-71
455,911	0,68
456,117	10,92
456,323	47,79
456,529	-17,75
456,735	41,64
456,941	35,5
457,147	-1,37
457,352	49,83
457,558	43,69
457,764	-7,51
457,97	37,55
458,176	-42,32
458,381	33,45
458,587	31,4
458,793	-5,46
458,999	-36,18
459,204	0,68
459,41	-38,23
459,616	127,66
459,821	-15,7
460,027	37,55
460,233	-11,61
460,438	0,68
460,644	-15,7
460,85	43,69
461,055	-21,85
461,261	-91,48
461,466	51,88
461,672	19,11
461,878	29,35
462,083	98,99
462,289	37,55
462,494	6,83
462,7	23,21
462,905	8,87
463,111	0,68
463,316	-7,51
463,522	29,35
463,727	-46,42
463,932	-19,8
464,138	17,07
464,343	-73,04
464,549	-15,7
464,754	-25,94
464,959	49,83
465,165	-23,89
465,37	25,26
465,575	23,21
465,781	-1,37
465,986	-52,56
466,191	74,41
466,397	-7,51
466,602	-3,41
466,807	-23,89
467,012	33,45
467,218	19,11
467,423	15,02
467,628	86,7
467,833	-5,46
468,038	37,55
468,244	-48,47
468,449	25,26
468,654	58,03
468,859	-64,85
469,064	21,16
469,269	58,03
469,474	10,92
469,679	4,78
469,885	33,45
470,09	72,36
470,295	82,6
470,5	19,11
470,705	-42,32
470,91	47,79
471,115	41,64
471,32	27,31
471,525	76,46
471,73	17,07
471,935	37,55
472,139	51,88
472,344	53,93
472,549	-3,41
472,754	39,59
472,959	-32,08
473,164	17,07
473,369	-19,8
473,574	12,97
473,778	4,78
473,983	19,11
474,188	70,31
474,393	55,98
474,598	41,64
474,802	19,11
475,007	45,74
475,212	-30,04
475,417	-42,32
475,621	29,35
475,826	39,59
476,031	66,22
476,235	12,97
476,44	66,22
476,645	-3,41
476,849	-13,65
477,054	-13,65
477,259	70,31
477,463	2,73
477,668	37,55
477,872	72,36
478,077	88,75
478,282	21,16
478,486	41,64
478,691	-5,46
478,895	-5,46
479,1	0,68
479,304	51,88
479,509	-23,89
479,713	43,69
479,918	29,35
480,122	45,74
480,326	70,31
480,531	-23,89
480,735	-36,18
480,94	-46,42
481,144	53,93
481,348	8,87
481,553	25,26
481,757	4,78
481,961	31,4
482,166	55,98
482,37	19,11
482,574	39,59
482,778	25,26
482,983	39,59
483,187	27,31
483,391	8,87
483,595	25,26
483,8	62,12
484,004	-21,85
484,208	49,83
484,412	15,02
484,616	-48,47
484,821	-17,75
485,025	35,5
485,229	2,73
485,433	33,45
485,637	8,87
485,841	37,55
486,045	31,4
486,249	37,55
486,453	35,5
486,657	19,11
486,861	19,11
487,065	12,97
487,269	17,07
487,473	37,55
487,677	29,35
487,881	41,64
488,085	10,92
488,289	41,64
488,493	-15,7
488,697	129,7
488,901	8,87
489,105	-62,8
489,309	41,64
489,512	84,65
489,716	66,22
489,92	25,26
490,124	-91,48
490,328	92,84
490,531	33,45
490,735	68,27
490,939	80,55
491,143	47,79
491,346	70,31
491,55	101,03
491,754	66,22
491,958	17,07
492,161	37,55
492,365	101,03
492,569	49,83
492,772	66,22
492,976	33,45
493,18	15,02
493,383	0,68
493,587	31,4
493,79	-62,8
493,994	33,45
494,197	-17,75
494,401	39,59
494,605	-11,61
494,808	66,22
495,012	47,79
495,215	58,03
495,419	12,97
495,622	-42,32
495,825	-27,99
496,029	17,07
496,232	45,74
496,436	111,27
496,639	21,16
496,843	41,64
497,046	31,4
497,249	107,18
497,453	49,83
497,656	-23,89
497,859	6,83
498,063	88,75
498,266	49,83
498,469	49,83
498,673	29,35
498,876	-5,46
499,079	-54,61
499,282	21,16
499,485	60,07
499,689	23,21
499,892	27,31
500,095	4,78
500,298	74,41
500,501	29,35
500,705	62,12
500,908	33,45
501,111	-7,51
501,314	6,83
501,517	8,87
501,72	58,03
501,923	51,88
502,126	39,59
502,329	64,17
502,532	58,03
502,735	51,88
502,938	17,07
503,141	2,73
503,344	-32,08
503,547	2,73
503,75	0,68
503,953	-38,23
504,156	45,74
504,359	-21,85
504,562	-32,08
504,765	74,41
504,968	19,11
505,17	-17,75
505,373	74,41
505,576	17,07
505,779	25,26
505,982	-21,85
506,185	6,83
506,387	17,07
506,59	92,84
506,793	60,07
506,996	27,31
507,198	-5,46
507,401	39,59
507,604	-5,46
507,807	21,16
508,009	60,07
508,212	-7,51
508,415	45,74
508,617	-7,51
508,82	-13,65
509,022	17,07
509,225	-11,61
509,428	43,69
509,63	17,07
509,833	0,68
510,035	45,74
510,238	78,51
510,44	62,12
510,643	39,59
510,845	72,36
511,048	60,07
511,25	41,64
511,453	17,07
511,655	60,07
511,858	4,78
512,06	17,07
512,262	90,79
512,465	8,87
512,667	49,83
512,87	68,27
513,072	8,87
513,274	41,64
513,477	33,45
513,679	-7,51
513,881	23,21
514,084	-32,08
514,286	-32,08
514,488	0,68
514,69	66,22
514,893	-1,37
515,095	-1,37
515,297	86,7
515,499	21,16
515,701	62,12
515,904	15,02
516,106	27,31
516,308	-27,99
516,51	21,16
516,712	41,64
516,914	-25,94
517,116	76,46
517,318	45,74
517,52	82,6
517,722	33,45
517,925	-19,8
518,127	27,31
518,329	-7,51
518,531	37,55
518,733	-17,75
518,935	31,4
519,136	51,88
519,338	29,35
519,54	70,31
519,742	90,79
519,944	23,21
520,146	-15,7
520,348	51,88
520,55	23,21
520,752	-11,61
520,954	64,17
521,155	35,5
521,357	31,4
521,559	-3,41
521,761	27,31
521,963	-15,7
522,164	33,45
522,366	4,78
522,568	84,65
522,77	25,26
522,971	66,22
523,173	15,02
523,375	-32,08
523,576	39,59
523,778	0,68
523,98	64,17
524,181	-5,46
524,383	-13,65
524,584	-7,51
524,786	19,11
524,988	29,35
525,189	78,51
525,391	68,27
525,592	23,21
525,794	-30,04
525,995	66,22
526,197	41,64
526,398	-15,7
526,6	41,64
526,801	27,31
527,003	-36,18
527,204	49,83
527,406	41,64
527,607	-32,08
527,808	-19,8
528,01	51,88
528,211	27,31
528,412	33,45
528,614	8,87
528,815	51,88
529,016	10,92
529,218	60,07
529,419	53,93
529,62	41,64
529,822	19,11
530,023	80,55
530,224	8,87
530,425	25,26
530,626	78,51
530,828	76,46
531,029	-7,51
531,23	45,74
531,431	76,46
531,632	66,22
531,833	88,75
532,035	25,26
532,236	19,11
532,437	74,41
532,638	-15,7
532,839	98,99
533,04	23,21
533,241	33,45
533,442	86,7
533,643	-9,56
533,844	45,74
534,045	58,03
534,246	45,74
534,447	0,68
534,648	21,16
534,849	-34,13
535,05	0,68
535,251	31,4
535,451	68,27
535,652	37,55
535,853	25,26
536,054	64,17
536,255	62,12
536,456	127,66
536,657	6,83
536,857	49,83
537,058	60,07
537,259	6,83
537,46	-11,61
537,66	70,31
537,861	6,83
538,062	25,26
538,263	-7,51
538,463	37,55
538,664	29,35
538,865	82,6
539,065	107,18
539,266	-11,61
539,466	35,5
539,667	60,07
539,868	0,68
540,068	53,93
540,269	-5,46
540,469	-1,37
540,67	4,78
540,87	92,84
541,071	-13,65
541,271	45,74
541,472	101,03
541,672	17,07
541,873	25,26
542,073	23,21
542,274	-23,89
542,474	74,41
542,675	94,89
542,875	103,08
543,075	37,55
543,276	64,17
543,476	-44,37
543,676	43,69
543,877	0,68
544,077	-5,46
544,277	-11,61
544,478	17,07
544,678	53,93
544,878	101,03
545,078	10,92
545,279	60,07
545,479	70,31
545,679	39,59
545,879	76,46
546,079	68,27
546,28	4,78
546,48	41,64
546,68	0,68
546,88	49,83
547,08	-32,08
547,28	70,31
547,48	27,31
547,68	-40,28
547,88	10,92
548,081	33,45
548,281	39,59
548,481	-38,23
548,681	-81,24
548,881	23,21
549,081	-11,61
549,28	-15,7
549,48	-30,04
549,68	25,26
549,88	70,31
550,08	23,21
550,28	-11,61
550,48	72,36
550,68	62,12
550,88	76,46
551,08	60,07
551,279	51,88
551,479	25,26
551,679	35,5
551,879	70,31
552,079	92,84
552,278	62,12
552,478	115,37
552,678	37,55
552,878	82,6
553,077	37,55
553,277	-21,85
553,477	-46,42
553,676	29,35
553,876	86,7
554,076	76,46
554,275	-3,41
554,475	33,45
554,674	70,31
554,874	10,92
555,074	64,17
555,273	39,59
555,473	15,02
555,672	33,45
555,872	17,07
556,071	129,7
556,271	0,68
556,47	27,31
556,67	-42,32
556,869	0,68
557,068	25,26
557,268	-23,89
557,467	19,11
557,667	78,51
557,866	58,03
558,065	25,26
558,265	45,74
558,464	62,12
558,663	82,6
558,863	60,07
559,062	0,68
559,261	107,18
559,461	35,5
559,66	21,16
559,859	127,66
560,058	62,12
560,258	47,79
560,457	84,65
560,656	82,6
560,855	74,41
561,054	70,31
561,253	115,37
561,453	-17,75
561,652	82,6
561,851	-23,89
562,05	90,79
562,249	55,98
562,448	62,12
562,647	58,03
562,846	49,83
563,045	74,41
563,244	29,35
563,443	72,36
563,642	43,69
563,841	41,64
564,04	135,85
564,239	33,45
564,438	141,99
564,637	33,45
564,836	60,07
565,035	47,79
565,234	70,31
565,432	35,5
565,631	47,79
565,83	88,75
566,029	137,9
566,228	150,18
566,427	160,42
566,625	144,04
566,824	127,66
567,023	10,92
567,222	160,42
567,42	119,46
567,619	88,75
567,818	70,31
568,016	148,14
568,215	123,56
568,414	119,46
568,612	238,25
568,811	199,34
569,01	246,44
569,208	223,91
569,407	252,58
569,605	273,06
569,804	223,91
570,002	264,87
570,201	277,16
570,4	299,69
570,598	316,07
570,797	379,56
570,995	490,15
571,193	500,39
571,392	565,92
571,59	643,74
571,789	729,76
571,987	709,28
572,186	783,01
572,384	1086,11
572,582	1180,31
572,781	1323,67
572,979	1643,15
573,177	1827,47
573,376	2146,95
573,574	2548,36
573,772	3220,09
573,971	3515
574,169	4229,74
574,367	5173,85
574,565	6468,17
574,763	7565,88
574,962	9464,35
575,16	11141,63
575,358	13529,56
575,556	15905,21
575,754	19161,48
575,952	22376,79
576,151	26089,76
576,349	29919,46
576,547	33437,87
576,745	37030,01
576,943	39856,2
577,141	43395,09
577,339	45729,78
577,537	47738,83
577,735	50425,77
577,933	51427,23
578,131	53272,45
578,329	53780,34
578,527	54382,44
578,725	54939,49
578,923	56078,16
579,121	56334,16
579,319	56788,81
579,516	57325,38
579,714	57392,96
579,912	57730,87
580,11	58234,67
580,308	58734,38
580,506	59191,08
580,704	58560,3
580,901	60018,45
581,099	59850,52
581,297	59782,94
581,495	60172,05
581,692	61171,46
581,89	60227,35
582,088	60911,37
582,285	60651,28
582,483	61361,92
582,681	61355,78
582,878	60577,55
583,076	60167,96
583,274	60407,57
583,471	58701,61
583,669	58027,83
583,866	56274,77
584,064	54810,47
584,262	51638,17
584,459	49389,5
584,657	45924,33
584,854	42868,76
585,052	38285,41
585,249	35068,05
585,447	31303,88
585,644	27623,69
585,841	24211,77
586,039	21178,73
586,236	18014,62
586,434	15579,58
586,631	13312,48
586,828	11067,91
587,026	9853,46
587,223	8202,8
587,42	6902,34
587,618	5786,19
587,815	4797,03
588,012	4246,12
588,21	3713,65
588,407	3021,44
588,604	2644,61
588,801	2157,19
588,999	1909,39
589,196	1706,64
589,393	1440,4
589,59	1245,85
589,787	1118,87
589,984	1057,43
590,182	871,07
590,379	731,81
590,576	633,5
590,773	520,87
590,97	529,06
591,167	455,33
591,364	391,84
591,561	436,9
591,758	375,46
591,955	371,37
592,152	328,36
592,349	328,36
592,546	230,06
592,743	232,1
592,94	230,06
593,137	193,19
593,334	127,66
593,531	162,47
593,727	207,53
593,924	219,82
594,121	166,57
594,318	150,18
594,515	217,77
594,712	76,46
594,908	185
595,105	72,36
595,302	90,79
595,499	115,37
595,696	115,37
595,892	53,93
596,089	51,88
596,286	123,56
596,482	10,92
596,679	101,03
596,876	98,99
597,072	90,79
597,269	58,03
597,466	133,8
597,662	88,75
597,859	139,94
598,055	109,23
598,252	53,93
598,448	-11,61
598,645	107,18
598,841	47,79
599,038	72,36
599,234	62,12
599,431	-9,56
599,627	84,65
599,824	53,93
600,02	158,38
600,217	27,31
600,413	15,02
600,609	98,99
600,806	107,18
601,002	-7,51
601,198	27,31
601,395	51,88
601,591	72,36
601,787	31,4
601,984	82,6
602,18	-30,04
602,376	72,36
602,572	88,75
602,769	66,22
602,965	-3,41
603,161	80,55
603,357	66,22
603,553	-15,7
603,75	10,92
603,946	76,46
604,142	62,12
604,338	74,41
604,534	109,23
604,73	70,31
604,926	-3,41
605,122	41,64
605,318	49,83
605,514	66,22
605,71	-27,99
605,906	-13,65
606,102	49,83
606,298	37,55
606,494	33,45
606,69	53,93
606,886	43,69
607,082	121,51
607,278	19,11
607,474	4,78
607,67	70,31
607,866	45,74
608,062	55,98
608,257	2,73
608,453	0,68
608,649	49,83
608,845	2,73
609,041	55,98
609,236	27,31
609,432	90,79
609,628	86,7
609,824	10,92
610,019	-27,99
610,215	58,03
610,411	17,07
610,606	33,45
610,802	23,21
610,998	78,51
611,193	17,07
611,389	76,46
611,584	10,92
611,78	68,27
611,976	8,87
612,171	27,31
612,367	43,69
612,562	21,16
612,758	27,31
612,953	23,21
613,149	74,41
613,344	10,92
613,539	-11,61
613,735	62,12
613,93	51,88
614,126	19,11
614,321	66,22
614,517	53,93
614,712	37,55
614,907	0,68
615,103	29,35
615,298	-38,23
615,493	21,16
615,688	103,08
615,884	4,78
616,079	43,69
616,274	39,59
616,47	51,88
616,665	58,03
616,86	70,31
617,055	68,27
617,25	53,93
617,445	43,69
617,641	129,7
617,836	27,31
618,031	53,93
618,226	45,74
618,421	98,99
618,616	4,78
618,811	55,98
619,006	15,02
619,201	21,16
619,396	94,89
619,591	35,5
619,786	-3,41
619,981	-9,56
620,176	-11,61
620,371	23,21
620,566	51,88
620,761	74,41
620,956	43,69
621,151	8,87
621,346	2,73
621,541	27,31
621,735	-40,28
621,93	53,93
622,125	2,73
622,32	82,6
622,515	-7,51
622,709	29,35
622,904	-1,37
623,099	39,59
623,294	47,79
623,488	-3,41
623,683	-27,99
623,878	60,07
624,072	17,07
624,267	-38,23
624,462	33,45
624,656	17,07
624,851	4,78
625,046	78,51
625,24	45,74
625,435	62,12
625,629	8,87
625,824	8,87
626,018	-13,65
626,213	66,22
626,407	17,07
626,602	27,31
626,796	35,5
626,991	68,27
627,185	78,51
627,38	60,07
627,574	33,45
627,768	45,74
627,963	-7,51
628,157	45,74
628,352	12,97
628,546	88,75
628,74	-13,65
628,935	-32,08
629,129	-36,18
629,323	6,83
629,517	10,92
629,712	12,97
629,906	10,92
630,1	45,74
630,294	2,73
630,489	58,03
630,683	-15,7
630,877	90,79
631,071	-52,56
631,265	25,26
631,459	-40,28
631,653	53,93
631,848	-1,37
632,042	74,41
632,236	27,31
632,43	43,69
632,624	-60,76
632,818	90,79
633,012	25,26
633,206	35,5
633,4	-23,89
633,594	66,22
633,788	68,27
633,982	-17,75
634,176	-3,41
634,369	25,26
634,563	10,92
634,757	-32,08
634,951	31,4
635,145	33,45
635,339	49,83
635,533	2,73
635,726	-25,94
635,92	17,07
636,114	33,45
636,308	27,31
636,501	82,6
636,695	-5,46
636,889	17,07
637,083	49,83
637,276	37,55
637,47	0,68
637,664	0,68
637,857	39,59
638,051	39,59
638,244	43,69
638,438	-40,28
638,632	0,68
638,825	51,88
639,019	-21,85
639,212	-71
639,406	4,78
639,599	2,73
639,793	82,6
639,986	10,92
640,18	2,73
640,373	66,22
640,567	-7,51
640,76	-17,75
640,954	84,65
641,147	12,97
641,34	62,12
641,534	47,79
641,727	-44,37
641,92	51,88
642,114	0,68
642,307	41,64
642,5	72,36
642,694	-17,75
642,887	6,83
643,08	21,16
643,273	64,17
643,467	12,97
643,66	49,83
643,853	-19,8
644,046	17,07
644,239	0,68
644,432	64,17
644,626	-7,51
644,819	41,64
645,012	-3,41
645,205	10,92
645,398	10,92
645,591	43,69
645,784	-19,8
645,977	-13,65
646,17	-34,13
646,363	62,12
646,556	51,88
646,749	49,83
646,942	8,87
647,135	41,64
647,328	19,11
647,521	-7,51
647,714	6,83
647,907	47,79
648,099	41,64
648,292	29,35
648,485	-48,47
648,678	78,51
648,871	-11,61
649,064	17,07
649,256	-13,65
649,449	12,97
649,642	17,07
649,835	8,87
650,027	0,68
650,22	58,03
650,413	8,87
650,605	29,35
650,798	66,22
650,991	90,79
651,183	-21,85
651,376	94,89
651,568	17,07
651,761	19,11
651,954	-52,56
652,146	41,64
652,339	58,03
652,531	4,78
652,724	19,11
652,916	96,94
653,109	23,21
653,301	-11,61
653,494	76,46
653,686	-11,61
653,879	-46,42
654,071	60,07
654,263	33,45
654,456	-17,75
654,648	35,5
654,84	12,97
655,033	37,55
655,225	31,4
655,417	39,59
655,61	21,16
655,802	35,5
655,994	-7,51
656,186	-5,46
656,379	35,5
656,571	-21,85
656,763	-21,85
656,955	37,55
657,148	0,68
657,34	31,4
657,532	21,16
657,724	4,78
657,916	-46,42
658,108	27,31
658,3	49,83
658,492	43,69
658,684	74,41
658,876	21,16
659,068	0,68
659,26	74,41
659,452	-13,65
659,644	10,92
659,836	29,35
660,028	17,07
660,22	-15,7
660,412	-36,18
660,604	58,03
660,796	70,31
660,988	41,64
661,18	29,35
661,372	-58,71
661,563	29,35
661,755	-66,9
661,947	33,45
662,139	4,78
662,331	8,87
662,522	-3,41
662,714	47,79
662,906	-13,65
663,097	4,78
663,289	127,66
663,481	-23,89
663,673	49,83
663,864	-34,13
664,056	17,07
664,247	-17,75
664,439	35,5
664,631	-54,61
664,822	12,97
665,014	-15,7
665,205	51,88
665,397	-32,08
665,588	31,4
665,78	-11,61
665,971	10,92
666,163	-27,99
666,354	-3,41
666,546	25,26
666,737	-19,8
666,929	12,97
667,12	31,4
667,311	6,83
667,503	84,65
667,694	8,87
667,885	-23,89
668,077	2,73
668,268	33,45
668,459	80,55
668,651	4,78
668,842	0,68
669,033	82,6
669,224	-19,8
669,416	-11,61
669,607	-15,7
669,798	41,64
669,989	17,07
670,18	51,88
670,371	12,97
670,563	21,16
670,754	17,07
670,945	35,5
671,136	35,5
671,327	19,11
671,518	58,03
671,709	8,87
671,9	-40,28
672,091	12,97
672,282	6,83
672,473	4,78
672,664	-32,08
672,855	37,55
673,046	-21,85
673,237	8,87
673,428	25,26
673,619	41,64
673,809	-1,37
674	96,94
674,191	-3,41
674,382	25,26
674,573	-79,19
674,764	29,35
674,954	-15,7
675,145	49,83
675,336	27,31
675,527	8,87
675,717	8,87
675,908	25,26
676,099	-13,65
676,289	62,12
676,48	33,45
676,671	64,17
676,861	49,83
677,052	10,92
677,243	35,5
677,433	-44,37
677,624	12,97
677,814	17,07
678,005	-17,75
678,195	41,64
678,386	-40,28
678,576	-7,51
678,767	49,83
678,957	33,45
679,148	17,07
679,338	105,13
679,529	-7,51
679,719	58,03
679,909	19,11
680,1	47,79
680,29	-21,85
680,481	8,87
680,671	80,55
680,861	29,35
681,052	72,36
681,242	29,35
681,432	41,64
681,622	-7,51
681,813	25,26
682,003	33,45
682,193	47,79
682,383	0,68
682,573	21,16
682,764	17,07
682,954	92,84
683,144	-32,08
683,334	-1,37
683,524	6,83
683,714	8,87
683,904	-30,04
684,094	-1,37
684,284	10,92
684,474	47,79
684,664	33,45
684,854	41,64
685,044	27,31
685,234	-3,41
685,424	78,51
685,614	-1,37
685,804	27,31
685,994	-46,42
686,184	19,11
686,374	27,31
686,564	35,5
686,753	25,26
686,943	58,03
687,133	51,88
687,323	-15,7
687,513	-27,99
687,702	-7,51
687,892	-52,56
688,082	29,35
688,272	-23,89
688,461	35,5
688,651	66,22
688,841	131,75
689,03	37,55
689,22	33,45
689,41	58,03
689,599	51,88
689,789	-3,41
689,979	25,26
690,168	27,31
690,358	12,97
690,547	-15,7
690,737	17,07
690,926	35,5
691,116	4,78
691,305	43,69
691,495	45,74
691,684	33,45
691,874	8,87
692,063	25,26
692,252	82,6
692,442	8,87
692,631	58,03
692,82	6,83
693,01	45,74
693,199	25,26
693,388	17,07
693,578	88,75
693,767	33,45
693,956	60,07
694,146	35,5
694,335	-56,66
694,524	-7,51
694,713	49,83
694,902	45,74
695,092	10,92
695,281	-56,66
695,47	27,31
695,659	-11,61
695,848	39,59
696,037	-50,52
696,226	82,6
696,415	74,41
696,604	21,16
696,793	-19,8
696,982	-1,37
697,171	25,26
697,36	49,83
697,549	31,4
697,738	90,79
697,927	-7,51
698,116	-3,41
698,305	60,07
698,494	-30,04
698,683	49,83
698,872	6,83
699,061	37,55
699,25	-5,46
699,438	17,07
699,627	37,55
699,816	37,55
700,005	55,98
700,193	51,88
700,382	25,26
700,571	23,21
700,76	-1,37
700,948	45,74
701,137	10,92
701,326	-44,37
701,514	-17,75
701,703	49,83
701,892	78,51
702,08	12,97
702,269	-48,47
702,457	12,97
702,646	-32,08
702,834	8,87
703,023	21,16
703,212	84,65
703,4	72,36
703,589	-15,7
703,777	-5,46
703,965	86,7
704,154	17,07
704,342	35,5
704,531	33,45
704,719	2,73
704,907	8,87
705,096	0,68
705,284	6,83
705,472	47,79
705,661	41,64
705,849	27,31
706,037	41,64
706,226	43,69
706,414	0,68
706,602	35,5
706,79	-1,37
706,979	0,68
707,167	58,03
707,355	49,83
707,543	-25,94
707,731	-25,94
707,919	53,93
708,107	19,11
708,296	10,92
708,484	17,07
708,672	41,64
708,86	0,68
709,048	-48,47
709,236	19,11
709,424	51,88
709,612	19,11
709,8	-1,37
709,988	25,26
710,176	45,74
710,364	41,64
710,551	23,21
710,739	21,16
710,927	15,02
711,115	-17,75
711,303	92,84
711,491	-27,99
711,679	107,18
711,866	10,92
712,054	17,07
712,242	41,64
712,43	8,87
712,617	45,74
712,805	27,31
712,993	12,97
713,181	29,35
713,368	129,7
713,556	-17,75
713,744	27,31
713,931	49,83
714,119	70,31
714,306	-9,56
714,494	-9,56
714,682	-46,42
714,869	-52,56
715,057	8,87
715,244	0,68
715,432	-7,51
715,619	43,69
715,807	37,55
715,994	17,07
716,182	31,4
716,369	88,75
716,556	21,16
716,744	17,07
716,931	-27,99
717,119	41,64
717,306	0,68
717,493	49,83
717,681	10,92
717,868	-27,99
718,055	-7,51
718,242	41,64
718,43	66,22
718,617	58,03
718,804	29,35
718,991	19,11
719,179	29,35
719,366	8,87
719,553	-17,75
719,74	21,16
719,927	58,03
720,114	51,88
720,301	-3,41
720,488	6,83
720,676	-60,76
720,863	41,64
721,05	19,11
721,237	55,98
721,424	27,31
721,611	25,26
721,798	17,07
721,985	8,87
722,172	-19,8
722,358	33,45
722,545	-11,61
722,732	17,07
722,919	17,07
723,106	-5,46
723,293	17,07
723,48	6,83
723,667	43,69
723,853	35,5
724,04	43,69
724,227	29,35
724,414	8,87
724,6	62,12
724,787	74,41
724,974	-40,28
725,161	-71
725,347	-15,7
725,534	25,26
725,72	6,83
725,907	-21,85
726,094	51,88
726,28	25,26
726,467	51,88
726,653	-40,28
726,84	19,11
727,027	47,79
727,213	0,68
727,4	-52,56
727,586	31,4
727,773	21,16
727,959	23,21
728,145	55,98
728,332	74,41
728,518	0,68
728,705	17,07
728,891	37,55
729,077	-27,99
729,264	25,26
729,45	29,35
729,636	17,07
729,823	39,59
730,009	31,4
730,195	-23,89
730,382	62,12
730,568	66,22
730,754	0,68
730,94	-52,56
731,126	35,5
731,313	66,22
731,499	-3,41
731,685	68,27
731,871	58,03
732,057	-3,41
732,243	-64,85
732,429	25,26
732,615	33,45
732,801	17,07
732,987	25,26
733,173	-15,7
733,359	-38,23
733,545	68,27
733,731	33,45
733,917	23,21
734,103	21,16
734,289	55,98
734,475	33,45
734,661	72,36
734,847	74,41
735,033	17,07
735,219	25,26
735,404	-11,61
735,59	2,73
735,776	94,89
735,962	62,12
736,148	17,07
736,333	35,5
736,519	90,79
736,705	-15,7
736,89	-40,28
737,076	66,22
737,262	39,59
737,447	45,74
737,633	-11,61
737,819	55,98
738,004	33,45
738,19	78,51
738,375	15,02
738,561	2,73
738,747	31,4
738,932	25,26
739,118	117,42
739,303	23,21
739,489	29,35
739,674	-21,85
739,859	4,78
740,045	23,21
740,23	88,75
740,416	53,93
740,601	-7,51
740,786	-30,04
740,972	66,22
741,157	-40,28
741,342	-15,7
741,528	-40,28
741,713	10,92
741,898	4,78
742,084	82,6
742,269	-19,8
742,454	51,88
742,639	27,31
742,824	21,16
743,01	86,7
743,195	4,78
743,38	-44,37
743,565	2,73
743,75	-13,65
743,935	-19,8
744,12	53,93
744,305	-58,71
744,49	49,83
744,675	-23,89
744,86	25,26
745,045	58,03
745,23	66,22
745,415	-13,65
745,6	98,99
745,785	-15,7
745,97	45,74
746,155	-50,52
746,34	33,45
746,525	-48,47
746,71	41,64
746,895	62,12
747,079	-9,56
747,264	-44,37
747,449	23,21
747,634	-13,65
747,819	41,64
748,003	74,41
748,188	21,16
748,373	33,45
748,557	51,88
748,742	35,5
748,927	-50,52
749,111	15,02
749,296	0,68
749,481	119,46
749,665	-11,61
749,85	25,26
750,034	-13,65
750,219	41,64
750,404	19,11
750,588	-21,85
750,773	19,11
750,957	12,97
751,141	43,69
751,326	37,55
751,51	-32,08
751,695	72,36
751,879	-3,41
752,064	37,55
752,248	103,08
752,432	45,74
752,617	23,21
752,801	53,93
752,985	-27,99
753,17	-25,94
753,354	47,79
753,538	84,65
753,722	29,35
753,907	-73,04
754,091	-46,42
754,275	35,5
754,459	-7,51
754,643	10,92
754,828	33,45
755,012	47,79
755,196	19,11
755,38	23,21
755,564	-40,28
755,748	-3,41
755,932	-11,61
756,116	-7,51
756,3	6,83
756,484	-52,56
756,668	47,79
756,852	0,68
757,036	12,97
757,22	33,45
757,404	-62,8
757,588	31,4
757,772	23,21
757,956	17,07
758,14	37,55
758,323	103,08
758,507	12,97
758,691	33,45
758,875	-9,56
759,059	98,99
759,242	31,4
759,426	53,93
759,61	8,87
759,794	33,45
759,977	60,07
760,161	47,79
760,345	25,26
760,528	55,98
760,712	21,16
760,895	19,11
761,079	4,78
761,263	-13,65
761,446	-19,8
761,63	-1,37
761,813	25,26
761,997	66,22
762,18	-44,37
762,364	10,92
762,547	4,78
762,731	86,7
762,914	39,59
763,098	27,31
763,281	-23,89
763,464	33,45
763,648	21,16
763,831	60,07
764,015	27,31
764,198	119,46
764,381	43,69
764,564	-48,47
764,748	27,31
764,931	2,73
765,114	-71
765,297	33,45
765,481	19,11
765,664	-7,51
765,847	15,02
766,03	43,69
766,213	-38,23
766,397	-15,7
766,58	-40,28
766,763	27,31
766,946	39,59
767,129	-27,99
767,312	-11,61
767,495	8,87
767,678	-46,42
767,861	10,92
768,044	-19,8
768,227	19,11
768,41	-9,56
768,593	-52,56
768,776	58,03
768,959	84,65
769,142	-9,56
769,324	43,69
769,507	51,88
769,69	-48,47
769,873	33,45
770,056	33,45
770,239	-50,52
770,421	29,35
770,604	-17,75
770,787	58,03
770,97	51,88
771,152	49,83
771,335	31,4
771,518	0,68
771,7	82,6
771,883	43,69
772,066	15,02
772,248	8,87
772,431	21,16
772,613	37,55
772,796	-21,85
772,978	19,11
773,161	-3,41
773,343	23,21
773,526	-30,04
773,708	12,97
773,891	101,03
774,073	17,07
774,256	-38,23
774,438	55,98
774,621	-52,56
774,803	58,03
774,985	27,31
775,168	39,59
775,35	19,11
775,532	45,74
775,715	8,87
775,897	10,92
776,079	39,59
776,261	43,69
776,444	-19,8
776,626	60,07
776,808	53,93
776,99	12,97
777,173	8,87
777,355	27,31
777,537	-5,46
777,719	68,27
777,901	66,22
778,083	6,83
778,265	4,78
778,447	-11,61
778,629	-32,08
778,811	-17,75
778,993	51,88
779,175	-46,42
779,357	-25,94
779,539	8,87
779,721	39,59
779,903	-30,04
780,085	-42,32
780,267	31,4
780,449	51,88
780,631	76,46
780,812	41,64
780,994	49,83
781,176	39,59
781,358	12,97
781,54	-7,51
781,721	49,83
781,903	-7,51
782,085	43,69
782,267	12,97
782,448	8,87
782,63	-54,61
782,812	41,64
782,993	80,55
783,175	35,5
783,357	-5,46
783,538	8,87
783,72	64,17
783,901	-40,28
784,083	-3,41
784,264	64,17
784,446	-9,56
784,627	-48,47
784,809	25,26
784,99	-21,85
785,172	-17,75
785,353	-27,99
785,535	-3,41
785,716	2,73
785,897	58,03
786,079	4,78
786,26	-1,37
786,441	139,94
786,623	58,03
786,804	10,92
786,985	51,88
787,167	60,07
787,348	45,74
787,529	-27,99
787,71	37,55
787,891	62,12
788,073	17,07
788,254	-19,8
788,435	35,5
788,616	88,75
788,797	15,02
788,978	92,84
789,159	-7,51
789,34	84,65
789,522	15,02
789,703	49,83
789,884	8,87
790,065	60,07
790,246	17,07
790,427	45,74
790,607	-7,51
790,788	6,83
790,969	-19,8
791,15	-54,61
791,331	-60,76
791,512	47,79
791,693	-3,41
791,874	4,78
792,054	60,07
792,235	-21,85
792,416	33,45
792,597	45,74
792,778	-7,51
792,958	-21,85
793,139	12,97
793,32	101,03
793,5	23,21
793,681	-83,28
793,862	68,27
794,042	49,83
794,223	-40,28
794,404	35,5
794,584	17,07
794,765	33,45
794,945	31,4
795,126	21,16
795,306	92,84
795,487	25,26
795,667	-23,89
795,848	-27,99
796,028	12,97
796,209	49,83
796,389	17,07
796,57	45,74
796,75	0,68
796,93	70,31
797,111	25,26
797,291	27,31
797,471	10,92
797,652	10,92
797,832	4,78
798,012	12,97
798,192	0,68
798,373	-7,51
798,553	17,07
798,733	29,35
798,913	62,12
799,093	-46,42
799,274	2,73
799,454	-38,23
799,634	70,31
799,814	6,83
799,994	58,03
800,174	107,18
800,354	4,78
800,534	43,69
800,714	35,5
800,894	33,45
801,074	-25,94
801,254	60,07
801,434	-54,61
801,614	66,22
801,794	23,21
801,974	62,12
802,154	78,51
802,334	8,87
802,514	53,93
802,693	10,92
802,873	0,68
803,053	-3,41
803,233	8,87
803,413	68,27
803,592	58,03
803,772	31,4
803,952	21,16
804,131	53,93
804,311	35,5
804,491	27,31
804,67	6,83
804,85	-25,94
805,03	-1,37
805,209	-3,41
805,389	41,64
805,568	8,87
805,748	-3,41
805,928	37,55
806,107	17,07
806,287	66,22
806,466	29,35
806,646	-13,65
806,825	-56,66
807,004	-11,61
807,184	6,83
807,363	8,87
807,543	0,68
807,722	-38,23
807,901	35,5
808,081	0,68
808,26	-48,47
808,439	29,35
808,619	-27,99
808,798	74,41
808,977	-13,65
809,156	19,11
809,336	27,31
809,515	21,16
809,694	2,73
809,873	8,87
810,052	-1,37
810,231	17,07
810,411	43,69
810,59	8,87
810,769	62,12
810,948	62,12
811,127	-25,94
811,306	68,27
811,485	-56,66
811,664	8,87
811,843	-56,66
812,022	107,18
812,201	12,97
812,38	6,83
812,559	0,68
812,737	37,55
812,916	-21,85
813,095	17,07
813,274	10,92
813,453	58,03
813,632	-7,51
813,811	72,36
813,989	66,22
814,168	35,5
814,347	-7,51
814,526	-87,38
814,704	-7,51
814,883	15,02
815,062	-27,99
815,24	90,79
815,419	41,64
815,598	-23,89
815,776	25,26
815,955	-32,08
816,133	27,31
816,312	-15,7
816,49	-34,13
816,669	35,5
816,847	-15,7
817,026	-5,46
817,204	4,78
817,383	21,16
817,561	-30,04
817,74	4,78
817,918	43,69
818,097	-23,89
818,275	12,97
818,453	51,88
818,632	0,68
818,81	-5,46
818,988	-21,85
819,167	-46,42
819,345	15,02
819,523	49,83
819,701	78,51
819,879	-48,47
820,058	35,5
820,236	58,03
820,414	-71
820,592	43,69
820,77	-5,46
820,948	41,64
821,127	47,79
821,305	-5,46
821,483	-40,28
821,661	0,68
821,839	-40,28
822,017	31,4
822,195	-36,18
822,373	51,88
822,551	70,31
822,729	43,69
822,907	31,4
823,085	-1,37
823,262	8,87
823,44	37,55
823,618	41,64
823,796	64,17
823,974	-19,8
824,152	49,83
824,329	29,35
824,507	10,92
824,685	-7,51
824,863	66,22
825,04	-62,8
825,218	41,64
825,396	21,16
825,574	39,59
825,751	35,5
825,929	-40,28
826,107	8,87
826,284	29,35
826,462	17,07
826,639	-9,56
826,817	27,31
826,994	33,45
827,172	-52,56
827,349	55,98
827,527	15,02
827,704	23,21
827,882	39,59
828,059	2,73
828,237	58,03
828,414	45,74
828,591	-27,99
828,769	-30,04
828,946	19,11
829,124	35,5
829,301	45,74
829,478	-27,99
829,655	-42,32
829,833	0,68
830,01	-56,66
830,187	37,55
830,364	60,07
830,542	29,35
830,719	-52,56
830,896	8,87
831,073	-7,51
831,25	8,87
831,427	-21,85
831,604	25,26
831,782	-7,51
831,959	-15,7
832,136	80,55
832,313	-3,41
832,49	64,17
832,667	0,68
832,844	19,11
833,021	96,94
833,198	21,16
833,374	-60,76
833,551	-32,08
833,728	-107,86
833,905	31,4
834,082	-73,04
834,259	33,45
834,436	-27,99
834,612	-68,95
834,789	-9,56
834,966	-19,8
835,143	31,4
835,319	19,11
835,496	8,87
835,673	64,17
835,85	27,31
836,026	2,73
836,203	-11,61
836,38	55,98
836,556	62,12
836,733	70,31
836,909	27,31
837,086	58,03
837,262	-27,99
837,439	0,68
837,616	0,68
837,792	-15,7
837,968	31,4
838,145	-17,75
838,321	29,35
838,498	8,87
838,674	45,74
838,851	25,26
839,027	15,02
839,203	4,78
839,38	8,87
839,556	15,02
839,732	62,12
839,909	-23,89
840,085	31,4
840,261	8,87
840,437	-13,65
840,614	17,07
840,79	17,07
840,966	-56,66
841,142	23,21
841,318	-23,89
841,494	90,79
841,671	-15,7
841,847	-38,23
842,023	-42,32
842,199	68,27
842,375	27,31
842,551	60,07
842,727	25,26
842,903	15,02
843,079	12,97
843,255	-13,65
843,431	-5,46
843,607	37,55
843,783	6,83
843,959	15,02
844,134	19,11
844,31	-23,89
844,486	27,31
844,662	19,11
844,838	-13,65
845,013	-23,89
845,189	-27,99
845,365	51,88
845,541	35,5
845,716	37,55
845,892	76,46
846,068	62,12
846,244	31,4
846,419	33,45
846,595	25,26
846,77	8,87
846,946	-19,8
847,122	41,64
847,297	17,07
847,473	66,22
847,648	21,16
847,824	-7,51
847,999	2,73
848,175	25,26
848,35	23,21
848,526	94,89
848,701	-1,37
848,876	-7,51
849,052	25,26
849,227	51,88
849,403	-25,94
849,578	33,45
849,753	-15,7
849,929	-40,28
850,104	-42,32
850,279	17,07
850,454	27,31
850,63	49,83
850,805	-3,41
850,98	0,68
851,155	-7,51
851,33	33,45
851,505	27,31
851,681	80,55
851,856	8,87
852,031	19,11
852,206	53,93
852,381	-48,47
852,556	21,16
852,731	47,79
852,906	-56,66
853,081	-40,28
853,256	-17,75
853,431	49,83
853,606	4,78
853,781	49,83
853,956	25,26
854,131	33,45
854,305	74,41
854,48	0,68
854,655	64,17
854,83	25,26
855,005	10,92
855,18	70,31
855,354	-32,08
855,529	-3,41
855,704	66,22
855,879	72,36
856,053	-13,65
856,228	43,69
856,403	70,31
856,577	49,83
856,752	17,07
856,926	-7,51
857,101	-15,7
857,276	29,35
857,45	12,97
857,625	31,4
857,799	23,21
857,974	-44,37
858,148	10,92
858,323	41,64
858,497	-85,33
858,672	29,35
858,846	66,22
859,02	43,69
859,195	66,22
859,369	68,27
859,543	64,17
859,718	27,31
859,892	49,83
860,066	4,78
860,241	64,17
860,415	10,92
860,589	-42,32
860,763	8,87
860,938	-1,37
861,112	35,5
861,286	-13,65
861,46	41,64
861,634	117,42
861,808	68,27
861,982	-11,61
862,157	15,02
862,331	0,68
862,505	-23,89
862,679	29,35
862,853	35,5
863,027	-15,7
863,201	68,27
863,375	-7,51
863,549	84,65
863,722	41,64
863,896	-25,94
864,07	78,51
864,244	-66,9
864,418	10,92
864,592	-5,46
864,766	-5,46
864,939	-44,37
865,113	-66,9
865,287	25,26
865,461	-21,85
865,634	19,11
865,808	8,87
865,982	98,99
866,156	-3,41
866,329	-13,65
866,503	27,31
866,676	-7,51
866,85	-3,41
867,024	45,74
867,197	0,68
867,371	92,84
867,544	-40,28
867,718	113,32
867,891	31,4
868,065	4,78
868,238	-66,9
868,412	49,83
868,585	49,83
868,759	-34,13
868,932	68,27
869,105	-3,41
869,279	-58,71
869,452	25,26
869,625	4,78
869,799	58,03
869,972	-19,8
870,145	72,36
870,319	45,74
870,492	12,97
870,665	-68,95
870,838	66,22
871,011	12,97
871,185	10,92
871,358	-5,46
871,531	-15,7
871,704	-5,46
871,877	8,87
872,05	-13,65
872,223	-1,37
872,396	37,55
872,569	43,69
872,742	-46,42
872,915	82,6
873,088	0,68
873,261	37,55
873,434	35,5
873,607	64,17
873,78	23,21
873,953	-19,8
874,126	-58,71
874,299	45,74
874,471	6,83
874,644	60,07
874,817	-44,37
874,99	25,26
875,163	-40,28
875,335	8,87
875,508	-50,52
875,681	51,88
875,853	41,64
876,026	39,59
876,199	-7,51
876,371	31,4
876,544	19,11
876,717	78,51
876,889	0,68
877,062	27,31
877,234	90,79
877,407	70,31
877,579	-36,18
877,752	-21,85
877,924	-19,8
878,097	74,41
878,269	-3,41
878,442	35,5
878,614	53,93
878,786	2,73
878,959	-42,32
879,131	92,84
879,303	-23,89
879,476	-19,8
879,648	-56,66
879,82	4,78
879,993	64,17
880,165	15,02
880,337	-3,41
880,509	29,35
880,681	25,26
880,854	-3,41
881,026	35,5
881,198	49,83
881,37	8,87
881,542	-48,47
881,714	-1,37
881,886	23,21
882,058	64,17
882,23	90,79
882,402	17,07
882,574	0,68
882,746	66,22
882,918	17,07
883,09	10,92
883,262	-23,89
883,434	41,64
883,606	17,07
883,778	17,07
883,95	51,88
884,122	-13,65
884,293	2,73
884,465	53,93
884,637	6,83
884,809	-15,7
884,98	0,68
885,152	78,51
885,324	45,74
885,496	-11,61
885,667	43,69
885,839	29,35
886,011	70,31
886,182	-19,8
886,354	90,79
886,525	43,69
886,697	41,64
886,869	23,21
887,04	-48,47
887,212	31,4
887,383	4,78
887,555	66,22
887,726	-7,51
887,897	33,45
888,069	-3,41
888,24	4,78
888,412	33,45
888,583	-23,89
888,754	-19,8
888,926	-56,66
889,097	78,51
889,268	25,26
889,44	27,31
889,611	6,83
889,782	33,45
889,953	98,99
890,125	17,07
890,296	37,55
890,467	-11,61
890,638	15,02
890,809	-13,65
890,98	49,83
891,151	10,92
891,323	0,68
891,494	-1,37
891,665	-5,46
891,836	23,21
892,007	8,87
892,178	-40,28
892,349	-27,99
892,52	25,26
892,691	-11,61
892,862	-21,85
893,032	-42,32
893,203	-5,46
893,374	29,35
893,545	41,64
893,716	12,97
893,887	33,45
894,057	-32,08
894,228	-5,46
894,399	25,26
894,57	74,41
894,74	33,45
894,911	-7,51
895,082	43,69
895,253	6,83
895,423	6,83
895,594	37,55
895,764	53,93
895,935	-21,85
896,106	-11,61
896,276	8,87
896,447	10,92
896,617	-3,41
896,788	45,74
896,958	98,99
897,129	15,02
897,299	23,21
897,47	72,36
897,64	-5,46
897,81	4,78
897,981	21,16
898,151	-54,61
898,322	49,83
898,492	25,26
898,662	60,07
898,832	-25,94
899,003	51,88
899,173	17,07
899,343	17,07
899,513	-27,99
