Data from filtre580_USB4F104151__1__11-53-55-466.txt Node

Date: Wed Apr 15 11:53:55 EDT 2026
User: LaboPhy
Spectrometer: USB4F10415
Trigger mode: 4
Integration Time (sec): 5,000000E-3
Scans to average: 1
Electric dark correction enabled: true
Nonlinearity correction enabled: false
Boxcar width: 0
XAxis mode: Wavelengths
Number of Pixels in Spectrum: 3648
>>>>>Begin Spectral Data<<<<<
178,204	21,33
178,424	21,33
178,644	21,33
178,864	2,9
179,084	7
179,304	29,52
179,524	2,9
179,744	27,48
179,964	-19,63
180,184	-11,43
180,404	19,29
180,624	-36,01
180,844	23,38
181,064	-31,91
181,283	19,29
181,503	-48,3
181,723	25,43
181,943	9,05
182,163	-5,29
182,383	-1,19
182,602	35,67
182,822	2,9
183,042	-9,39
183,262	23,38
183,482	-13,48
183,701	-15,53
183,921	13,14
184,141	2,9
184,361	-23,72
184,58	-15,53
184,8	-1,19
185,02	23,38
185,239	58,2
185,459	90,96
185,679	-25,77
185,898	-27,82
186,118	-3,24
186,338	39,76
186,557	60,24
186,777	-13,48
186,997	-31,91
187,216	-64,68
187,436	0,85
187,655	9,05
187,875	-7,34
188,095	64,34
188,314	-70,83
188,534	45,91
188,753	0,85
188,973	0,85
189,192	0,85
189,412	60,24
189,631	-9,39
189,851	4,95
190,07	-7,34
190,29	68,44
190,509	-17,58
190,729	-7,34
190,948	60,24
191,168	-21,67
191,387	29,52
191,607	-13,48
191,826	-27,82
192,045	-19,63
192,265	-40,11
192,484	13,14
192,704	23,38
192,923	-15,53
193,142	60,24
193,362	-7,34
193,581	37,72
193,8	-44,2
194,02	-23,72
194,239	0,85
194,458	-64,68
194,678	-21,67
194,897	-19,63
195,116	2,9
195,335	0,85
195,555	37,72
195,774	-3,24
195,993	-52,39
196,212	-68,78
196,432	-7,34
196,651	60,24
196,87	84,82
197,089	27,48
197,308	50
197,528	7
197,747	-46,25
197,966	64,34
198,185	-72,87
198,404	-38,06
198,623	37,72
198,842	-11,43
199,062	-38,06
199,281	27,48
199,5	74,58
199,719	33,62
199,938	-23,72
200,157	17,24
200,376	-25,77
200,595	58,2
200,814	-5,29
201,033	-56,49
201,252	-3,24
201,471	9,05
201,69	-38,06
201,909	-5,29
202,128	-23,72
202,347	0,85
202,566	-15,53
202,785	-31,91
203,004	-31,91
203,223	23,38
203,442	-25,77
203,661	-3,24
203,879	43,86
204,098	-3,24
204,317	-21,67
204,536	78,68
204,755	-9,39
204,974	-15,53
205,193	-48,3
205,411	25,43
205,63	-27,82
205,849	27,48
206,068	9,05
206,287	27,48
206,505	-40,11
206,724	17,24
206,943	17,24
207,162	2,9
207,381	-15,53
207,599	-31,91
207,818	-7,34
208,037	-17,58
208,255	-66,73
208,474	29,52
208,693	35,67
208,911	43,86
209,13	25,43
209,349	-29,87
209,567	64,34
209,786	2,9
210,005	15,19
210,223	-1,19
210,442	-3,24
210,661	21,33
210,879	-1,19
211,098	7
211,316	-17,58
211,535	97,11
211,753	19,29
211,972	52,05
212,191	-7,34
212,409	41,81
212,628	-36,01
212,846	2,9
213,065	-7,34
213,283	25,43
213,502	-13,48
213,72	9,05
213,938	-19,63
214,157	-1,19
214,375	31,57
214,594	-5,29
214,812	-21,67
215,031	-48,3
215,249	13,14
215,467	41,81
215,686	-21,67
215,904	31,57
216,122	74,58
216,341	35,67
216,559	33,62
216,778	25,43
216,996	31,57
217,214	-46,25
217,432	39,76
217,651	-19,63
217,869	17,24
218,087	25,43
218,306	-15,53
218,524	115,54
218,742	-33,96
218,96	11,09
219,179	-9,39
219,397	-11,43
219,615	-7,34
219,833	68,44
220,051	-48,3
220,27	27,48
220,488	39,76
220,706	7
220,924	17,24
221,142	27,48
221,36	-11,43
221,578	41,81
221,796	45,91
222,015	54,1
222,233	35,67
222,451	9,05
222,669	4,95
222,887	-13,48
223,105	-13,48
223,323	-48,3
223,541	37,72
223,759	13,14
223,977	4,95
224,195	0,85
224,413	37,72
224,631	9,05
224,849	-48,3
225,067	52,05
225,285	0,85
225,503	33,62
225,721	-31,91
225,939	17,24
226,157	43,86
226,375	4,95
226,592	9,05
226,81	-21,67
227,028	88,92
227,246	-19,63
227,464	-15,53
227,682	19,29
227,9	-21,67
228,117	33,62
228,335	74,58
228,553	9,05
228,771	74,58
228,989	35,67
229,206	-58,54
229,424	58,2
229,642	-21,67
229,86	0,85
230,077	0,85
230,295	21,33
230,513	-23,72
230,731	45,91
230,948	-62,63
231,166	33,62
231,384	45,91
231,601	9,05
231,819	25,43
232,037	-17,58
232,254	9,05
232,472	80,72
232,689	47,96
232,907	-5,29
233,125	29,52
233,342	58,2
233,56	90,96
233,777	-27,82
233,995	19,29
234,213	25,43
234,43	-27,82
234,648	-3,24
234,865	-23,72
235,083	27,48
235,3	-3,24
235,518	68,44
235,735	45,91
235,953	17,24
236,17	35,67
236,388	-15,53
236,605	52,05
236,822	2,9
237,04	74,58
237,257	25,43
237,475	15,19
237,692	11,09
237,909	19,29
238,127	19,29
238,344	-3,24
238,562	13,14
238,779	45,91
238,996	-1,19
239,214	58,2
239,431	17,24
239,648	-11,43
239,865	11,09
240,083	4,95
240,3	-9,39
240,517	-9,39
240,735	-27,82
240,952	-5,29
241,169	27,48
241,386	-19,63
241,603	-40,11
241,821	-5,29
242,038	29,52
242,255	35,67
242,472	45,91
242,689	11,09
242,907	-11,43
243,124	21,33
243,341	64,34
243,558	-29,87
243,775	-9,39
243,992	0,85
244,209	52,05
244,426	-17,58
244,643	45,91
244,86	-85,16
245,078	47,96
245,295	-48,3
245,512	35,67
245,729	41,81
245,946	2,9
246,163	13,14
246,38	9,05
246,597	25,43
246,814	35,67
247,031	43,86
247,248	33,62
247,464	-21,67
247,681	37,72
247,898	0,85
248,115	37,72
248,332	45,91
248,549	-1,19
248,766	111,44
248,983	-3,24
249,2	-1,19
249,417	4,95
249,633	-9,39
249,85	50
250,067	23,38
250,284	35,67
250,501	-50,35
250,717	9,05
250,934	37,72
251,151	-7,34
251,368	29,52
251,585	29,52
251,801	-93,35
252,018	4,95
252,235	78,68
252,451	2,9
252,668	-95,4
252,885	66,39
253,102	-1,19
253,318	-46,25
253,535	27,48
253,752	-19,63
253,968	-19,63
254,185	9,05
254,401	58,2
254,618	-15,53
254,835	-56,49
255,051	9,05
255,268	4,95
255,484	-56,49
255,701	-9,39
255,917	52,05
256,134	21,33
256,351	-15,53
256,567	-48,3
256,784	35,67
257	-27,82
257,217	-36,01
257,433	33,62
257,65	103,25
257,866	45,91
258,082	33,62
258,299	41,81
258,515	0,85
258,732	52,05
258,948	-17,58
259,165	31,57
259,381	-36,01
259,597	-68,78
259,814	56,15
260,03	11,09
260,246	29,52
260,463	15,19
260,679	9,05
260,895	13,14
261,112	29,52
261,328	11,09
261,544	0,85
261,761	15,19
261,977	23,38
262,193	31,57
262,409	33,62
262,626	-52,39
262,842	-68,78
263,058	-70,83
263,274	0,85
263,49	-23,72
263,707	68,44
263,923	47,96
264,139	25,43
264,355	25,43
264,571	-54,44
264,787	-23,72
265,004	13,14
265,22	13,14
265,436	43,86
265,652	-36,01
265,868	-33,96
266,084	27,48
266,3	9,05
266,516	50
266,732	2,9
266,948	9,05
267,164	0,85
267,38	-40,11
267,596	-17,58
267,812	107,35
268,028	-29,87
268,244	33,62
268,46	58,2
268,676	-27,82
268,892	58,2
269,108	-25,77
269,324	-64,68
269,54	-62,63
269,756	29,52
269,972	35,67
270,188	-27,82
270,403	15,19
270,619	27,48
270,835	15,19
271,051	4,95
271,267	-5,29
271,483	29,52
271,698	-15,53
271,914	29,52
272,13	11,09
272,346	9,05
272,562	-15,53
272,777	45,91
272,993	86,87
273,209	29,52
273,425	21,33
273,64	27,48
273,856	-40,11
274,072	25,43
274,287	-83,11
274,503	41,81
274,719	-5,29
274,934	43,86
275,15	-50,35
275,366	33,62
275,581	41,81
275,797	4,95
276,012	-17,58
276,228	-27,82
276,444	-3,24
276,659	27,48
276,875	-46,25
277,09	-15,53
277,306	19,29
277,521	-11,43
277,737	-5,29
277,952	9,05
278,168	-3,24
278,383	74,58
278,599	11,09
278,814	17,24
279,03	64,34
279,245	72,53
279,461	54,1
279,676	-19,63
279,892	-40,11
280,107	-13,48
280,322	11,09
280,538	21,33
280,753	-21,67
280,969	-31,91
281,184	2,9
281,399	76,63
281,615	-40,11
281,83	64,34
282,045	35,67
282,26	0,85
282,476	31,57
282,691	56,15
282,906	-21,67
283,122	62,29
283,337	33,62
283,552	-33,96
283,767	-13,48
283,983	-13,48
284,198	43,86
284,413	27,48
284,628	-27,82
284,843	9,05
285,058	-66,73
285,274	52,05
285,489	-23,72
285,704	-23,72
285,919	23,38
286,134	-9,39
286,349	70,48
286,564	-7,34
286,779	33,62
286,995	43,86
287,21	-1,19
287,425	-13,48
287,64	17,24
287,855	-13,48
288,07	-50,35
288,285	-21,67
288,5	15,19
288,715	25,43
288,93	52,05
289,145	13,14
289,36	13,14
289,575	0,85
289,79	-60,59
290,004	39,76
290,219	17,24
290,434	-11,43
290,649	-48,3
290,864	-15,53
291,079	-11,43
291,294	-40,11
291,509	-70,83
291,724	-3,24
291,938	-13,48
292,153	9,05
292,368	-50,35
292,583	56,15
292,798	45,91
293,012	0,85
293,227	-46,25
293,442	21,33
293,657	2,9
293,871	19,29
294,086	-44,2
294,301	-7,34
294,516	66,39
294,73	-5,29
294,945	23,38
295,16	29,52
295,374	-23,72
295,589	37,72
295,804	-31,91
296,018	4,95
296,233	-19,63
296,447	103,25
296,662	13,14
296,877	54,1
297,091	9,05
297,306	68,44
297,52	52,05
297,735	29,52
297,949	35,67
298,164	54,1
298,378	86,87
298,593	23,38
298,807	-15,53
299,022	-21,67
299,236	-38,06
299,451	-7,34
299,665	-38,06
299,88	17,24
300,094	-38,06
300,309	-42,15
300,523	2,9
300,737	-19,63
300,952	29,52
301,166	29,52
301,381	-70,83
301,595	9,05
301,809	4,95
302,024	31,57
302,238	-40,11
302,452	27,48
302,667	27,48
302,881	52,05
303,095	29,52
303,309	2,9
303,524	4,95
303,738	-3,24
303,952	19,29
304,166	9,05
304,381	29,52
304,595	-5,29
304,809	2,9
305,023	19,29
305,237	-27,82
305,452	29,52
305,666	-38,06
305,88	-19,63
306,094	13,14
306,308	0,85
306,522	23,38
306,736	39,76
306,95	62,29
307,164	72,53
307,379	-13,48
307,593	-5,29
307,807	-7,34
308,021	-97,45
308,235	45,91
308,449	56,15
308,663	11,09
308,877	43,86
309,091	-40,11
309,305	82,77
309,519	-5,29
309,733	4,95
309,947	-58,54
310,161	-19,63
310,374	9,05
310,588	21,33
310,802	-29,87
311,016	-11,43
311,23	17,24
311,444	0,85
311,658	37,72
311,872	33,62
312,085	35,67
312,299	-42,15
312,513	25,43
312,727	-25,77
312,941	-13,48
313,154	23,38
313,368	-38,06
313,582	52,05
313,796	0,85
314,009	15,19
314,223	2,9
314,437	33,62
314,651	66,39
314,864	17,24
315,078	131,92
315,292	39,76
315,505	19,29
315,719	54,1
315,933	-13,48
316,146	17,24
316,36	31,57
316,573	-15,53
316,787	13,14
317,001	11,09
317,214	11,09
317,428	33,62
317,641	-33,96
317,855	0,85
318,068	-50,35
318,282	-13,48
318,495	-62,63
318,709	-76,97
318,922	66,39
319,136	52,05
319,349	-7,34
319,563	-19,63
319,776	47,96
319,99	29,52
320,203	-11,43
320,417	-13,48
320,63	-48,3
320,843	-36,01
321,057	0,85
321,27	-33,96
321,483	4,95
321,697	37,72
321,91	66,39
322,124	-13,48
322,337	78,68
322,55	-66,73
322,763	23,38
322,977	-9,39
323,19	-31,91
323,403	-3,24
323,617	13,14
323,83	27,48
324,043	2,9
324,256	43,86
324,469	-7,34
324,683	-19,63
324,896	21,33
325,109	-42,15
325,322	17,24
325,535	9,05
325,748	21,33
325,962	-31,91
326,175	23,38
326,388	27,48
326,601	33,62
326,814	31,57
327,027	19,29
327,24	4,95
327,453	15,19
327,666	-13,48
327,879	-52,39
328,092	-15,53
328,305	-3,24
328,518	21,33
328,731	52,05
328,944	-29,87
329,157	23,38
329,37	-21,67
329,583	-1,19
329,796	-23,72
330,009	4,95
330,222	9,05
330,435	-29,87
330,648	58,2
330,861	-19,63
331,073	-15,53
331,286	-25,77
331,499	-1,19
331,712	-5,29
331,925	-87,21
332,138	0,85
332,35	-27,82
332,563	15,19
332,776	0,85
332,989	-21,67
333,202	7
333,414	-42,15
333,627	-62,63
333,84	39,76
334,053	-40,11
334,265	52,05
334,478	29,52
334,691	-13,48
334,903	-38,06
335,116	11,09
335,329	17,24
335,541	15,19
335,754	-1,19
335,966	35,67
336,179	25,43
336,392	-29,87
336,604	2,9
336,817	64,34
337,029	21,33
337,242	-68,78
337,454	39,76
337,667	-48,3
337,88	7
338,092	9,05
338,305	84,82
338,517	50
338,729	-15,53
338,942	7
339,154	-25,77
339,367	0,85
339,579	50
339,792	-7,34
340,004	11,09
340,217	-7,34
340,429	66,39
340,641	-27,82
340,854	43,86
341,066	-31,91
341,278	9,05
341,491	-46,25
341,703	-89,26
341,915	7
342,128	17,24
342,34	21,33
342,552	-52,39
342,764	-1,19
342,977	17,24
343,189	-21,67
343,401	33,62
343,613	-46,25
343,826	-7,34
344,038	37,72
344,25	-31,91
344,462	-3,24
344,674	-31,91
344,886	43,86
345,099	76,63
345,311	-13,48
345,523	-1,19
345,735	-62,63
345,947	-15,53
346,159	4,95
346,371	29,52
346,583	-5,29
346,795	19,29
347,007	29,52
347,219	9,05
347,431	11,09
347,643	37,72
347,855	-7,34
348,067	45,91
348,279	50
348,491	33,62
348,703	-13,48
348,915	-40,11
349,127	54,1
349,339	-9,39
349,551	-48,3
349,763	84,82
349,975	37,72
350,187	37,72
350,399	35,67
350,61	2,9
350,822	33,62
351,034	68,44
351,246	-38,06
351,458	-5,29
351,669	-3,24
351,881	0,85
352,093	-62,63
352,305	50
352,517	-40,11
352,728	47,96
352,94	2,9
353,152	9,05
353,363	43,86
353,575	-15,53
353,787	-62,63
353,999	70,48
354,21	-13,48
354,422	-5,29
354,633	13,14
354,845	-17,58
355,057	-11,43
355,268	41,81
355,48	41,81
355,692	9,05
355,903	45,91
356,115	27,48
356,326	33,62
356,538	41,81
356,749	-7,34
356,961	39,76
357,172	35,67
357,384	4,95
357,595	25,43
357,807	-21,67
358,018	-29,87
358,23	-1,19
358,441	88,92
358,653	-60,59
358,864	-21,67
359,075	41,81
359,287	-40,11
359,498	17,24
359,709	-29,87
359,921	66,39
360,132	-50,35
360,344	25,43
360,555	9,05
360,766	-17,58
360,977	41,81
361,189	-29,87
361,4	23,38
361,611	78,68
361,823	31,57
362,034	52,05
362,245	17,24
362,456	33,62
362,667	-46,25
362,879	2,9
363,09	0,85
363,301	33,62
363,512	-52,39
363,723	90,96
363,935	0,85
364,146	27,48
364,357	-9,39
364,568	-7,34
364,779	-9,39
364,99	50
365,201	4,95
365,412	33,62
365,623	-15,53
365,834	17,24
366,045	-44,2
366,256	54,1
366,467	74,58
366,678	-66,73
366,889	29,52
367,1	41,81
367,311	103,25
367,522	17,24
367,733	68,44
367,944	-27,82
368,155	33,62
368,366	-62,63
368,577	-5,29
368,788	66,39
368,999	-7,34
369,209	23,38
369,42	-13,48
369,631	17,24
369,842	4,95
370,053	-38,06
370,264	37,72
370,474	0,85
370,685	-54,44
370,896	50
371,107	4,95
371,317	-7,34
371,528	41,81
371,739	9,05
371,95	-5,29
372,16	11,09
372,371	4,95
372,582	25,43
372,792	-54,44
373,003	25,43
373,214	15,19
373,424	45,91
373,635	35,67
373,846	4,95
374,056	-33,96
374,267	88,92
374,477	45,91
374,688	21,33
374,898	9,05
375,109	-48,3
375,319	-23,72
375,53	-23,72
375,74	66,39
375,951	25,43
376,161	-19,63
376,372	2,9
376,582	-60,59
376,793	-3,24
377,003	82,77
377,214	33,62
377,424	0,85
377,635	15,19
377,845	41,81
378,055	0,85
378,266	23,38
378,476	-54,44
378,686	-9,39
378,897	113,49
379,107	-48,3
379,317	31,57
379,528	50
379,738	19,29
379,948	0,85
380,158	39,76
380,369	-13,48
380,579	-15,53
380,789	47,96
380,999	21,33
381,21	17,24
381,42	50
381,63	-97,45
381,84	58,2
382,05	-5,29
382,261	19,29
382,471	9,05
382,681	-1,19
382,891	11,09
383,101	66,39
383,311	25,43
383,521	-40,11
383,731	17,24
383,941	-15,53
384,151	56,15
384,361	23,38
384,571	43,86
384,781	-5,29
384,991	33,62
385,201	80,72
385,411	35,67
385,621	37,72
385,831	7
386,041	-40,11
386,251	15,19
386,461	64,34
386,671	-5,29
386,881	41,81
387,091	0,85
387,301	-13,48
387,511	9,05
387,72	17,24
387,93	41,81
388,14	-38,06
388,35	4,95
388,56	58,2
388,769	-25,77
388,979	9,05
389,189	23,38
389,399	17,24
389,609	15,19
389,818	23,38
390,028	27,48
390,238	-31,91
390,447	11,09
390,657	25,43
390,867	23,38
391,076	45,91
391,286	29,52
391,496	-36,01
391,705	33,62
391,915	19,29
392,125	-11,43
392,334	-48,3
392,544	25,43
392,753	-21,67
392,963	35,67
393,172	-33,96
393,382	-15,53
393,591	25,43
393,801	-15,53
394,01	23,38
394,22	-33,96
394,429	-31,91
394,639	35,67
394,848	62,29
395,058	33,62
395,267	129,88
395,477	54,1
395,686	64,34
395,895	4,95
396,105	-13,48
396,314	-64,68
396,524	9,05
396,733	-3,24
396,942	7
397,152	54,1
397,361	27,48
397,57	41,81
397,78	29,52
397,989	9,05
398,198	-19,63
398,407	-9,39
398,617	-29,87
398,826	0,85
399,035	29,52
399,244	-11,43
399,453	-40,11
399,663	-72,87
399,872	9,05
400,081	33,62
400,29	78,68
400,499	-15,53
400,708	41,81
400,917	66,39
401,127	58,2
401,336	-17,58
401,545	13,14
401,754	43,86
401,963	50
402,172	15,19
402,381	-29,87
402,59	-3,24
402,799	-17,58
403,008	-31,91
403,217	-25,77
403,426	-9,39
403,635	0,85
403,844	11,09
404,053	37,72
404,262	-19,63
404,471	58,2
404,68	9,05
404,888	27,48
405,097	21,33
405,306	47,96
405,515	-15,53
405,724	27,48
405,933	25,43
406,142	54,1
406,35	4,95
406,559	2,9
406,768	-13,48
406,977	41,81
407,185	41,81
407,394	25,43
407,603	11,09
407,812	19,29
408,02	21,33
408,229	78,68
408,438	29,52
408,646	-7,34
408,855	-21,67
409,064	-11,43
409,272	21,33
409,481	58,2
409,69	9,05
409,898	7
410,107	86,87
410,315	60,24
410,524	-27,82
410,733	2,9
410,941	60,24
411,15	4,95
411,358	74,58
411,567	25,43
411,775	66,39
411,984	25,43
412,192	-9,39
412,401	21,33
412,609	19,29
412,818	17,24
413,026	47,96
413,234	-31,91
413,443	47,96
413,651	0,85
413,86	-56,49
414,068	-11,43
414,276	-5,29
414,485	-46,25
414,693	-56,49
414,901	2,9
415,11	23,38
415,318	19,29
415,526	-21,67
415,734	-64,68
415,943	111,44
416,151	-54,44
416,359	-60,59
416,567	-23,72
416,776	78,68
416,984	68,44
417,192	4,95
417,4	2,9
417,608	25,43
417,817	31,57
418,025	35,67
418,233	11,09
418,441	19,29
418,649	31,57
418,857	15,19
419,065	-21,67
419,273	17,24
419,481	-17,58
419,689	-19,63
419,897	35,67
420,105	-31,91
420,313	21,33
420,521	21,33
420,729	-7,34
420,937	21,33
421,145	4,95
421,353	-72,87
421,561	52,05
421,769	62,29
421,977	21,33
422,185	4,95
422,393	-40,11
422,601	-15,53
422,809	58,2
423,017	33,62
423,224	-15,53
423,432	-23,72
423,64	-62,63
423,848	29,52
424,056	4,95
424,263	-7,34
424,471	-15,53
424,679	-7,34
424,887	21,33
425,094	29,52
425,302	21,33
425,51	23,38
425,718	-15,53
425,925	-33,96
426,133	-13,48
426,341	-3,24
426,548	-38,06
426,756	25,43
426,964	-7,34
427,171	0,85
427,379	-31,91
427,586	9,05
427,794	-66,73
428,001	-48,3
428,209	43,86
428,417	17,24
428,624	54,1
428,832	-21,67
429,039	66,39
429,247	9,05
429,454	0,85
429,662	31,57
429,869	66,39
430,076	17,24
430,284	35,67
430,491	0,85
430,699	109,4
430,906	41,81
431,114	76,63
431,321	-1,19
431,528	19,29
431,736	2,9
431,943	19,29
432,15	15,19
432,358	2,9
432,565	29,52
432,772	37,72
432,979	-56,49
433,187	43,86
433,394	25,43
433,601	25,43
433,808	33,62
434,016	-23,72
434,223	-29,87
434,43	43,86
434,637	-21,67
434,844	-36,01
435,052	17,24
435,259	60,24
435,466	-7,34
435,673	123,73
435,88	-1,19
436,087	33,62
436,294	-40,11
436,501	45,91
436,708	-7,34
436,915	66,39
437,122	70,48
437,329	29,52
437,537	90,96
437,743	-7,34
437,95	9,05
438,157	-19,63
438,364	21,33
438,571	-33,96
438,778	-13,48
438,985	19,29
439,192	9,05
439,399	-46,25
439,606	33,62
439,813	15,19
440,02	15,19
440,227	-33,96
440,433	29,52
440,64	-13,48
440,847	4,95
441,054	11,09
441,261	21,33
441,467	41,81
441,674	0,85
441,881	35,67
442,088	9,05
442,294	2,9
442,501	7
442,708	-7,34
442,914	-38,06
443,121	37,72
443,328	-58,54
443,534	60,24
443,741	-7,34
443,948	7
444,154	-5,29
444,361	-29,87
444,568	52,05
444,774	99,16
444,981	9,05
445,187	-42,15
445,394	-9,39
445,6	0,85
445,807	-19,63
446,013	41,81
446,22	11,09
446,426	27,48
446,633	-40,11
446,839	72,53
447,046	4,95
447,252	-3,24
447,459	-3,24
447,665	66,39
447,871	64,34
448,078	13,14
448,284	25,43
448,491	2,9
448,697	-27,82
448,903	60,24
449,11	-23,72
449,316	25,43
449,522	-48,3
449,728	-23,72
449,935	11,09
450,141	-7,34
450,347	19,29
450,553	0,85
450,76	7
450,966	41,81
451,172	45,91
451,378	50
451,584	60,24
451,791	45,91
451,997	58,2
452,203	9,05
452,409	29,52
452,615	-40,11
452,821	50
453,027	33,62
453,233	37,72
453,44	50
453,646	-33,96
453,852	4,95
454,058	25,43
454,264	4,95
454,47	-31,91
454,676	15,19
454,882	-1,19
455,088	21,33
455,294	-9,39
455,5	17,24
455,705	-23,72
455,911	39,76
456,117	37,72
456,323	27,48
456,529	-23,72
456,735	11,09
456,941	-40,11
457,147	2,9
457,352	-66,73
457,558	-9,39
457,764	62,29
457,97	58,2
458,176	-13,48
458,381	0,85
458,587	33,62
458,793	17,24
458,999	-36,01
459,204	-33,96
459,41	-3,24
459,616	-19,63
459,821	-3,24
460,027	68,44
460,233	11,09
460,438	39,76
460,644	-21,67
460,85	41,81
461,055	-19,63
461,261	39,76
461,466	60,24
461,672	37,72
461,878	-76,97
462,083	11,09
462,289	-1,19
462,494	64,34
462,7	-21,67
462,905	23,38
463,111	25,43
463,316	168,79
463,522	19,29
463,727	82,77
463,932	-13,48
464,138	33,62
464,343	27,48
464,549	37,72
464,754	9,05
464,959	-52,39
465,165	23,38
465,37	-21,67
465,575	-21,67
465,781	13,14
465,986	80,72
466,191	74,58
466,397	-11,43
466,602	52,05
466,807	13,14
467,012	52,05
467,218	0,85
467,423	29,52
467,628	56,15
467,833	23,38
468,038	7
468,244	33,62
468,449	-13,48
468,654	-5,29
468,859	-21,67
469,064	-7,34
469,269	23,38
469,474	-29,87
469,679	-42,15
469,885	43,86
470,09	-7,34
470,295	115,54
470,5	-44,2
470,705	2,9
470,91	-23,72
471,115	50
471,32	66,39
471,525	39,76
471,73	86,87
471,935	-23,72
472,139	17,24
472,344	0,85
472,549	84,82
472,754	35,67
472,959	-66,73
473,164	-19,63
473,369	52,05
473,574	9,05
473,778	56,15
473,983	4,95
474,188	-9,39
474,393	15,19
474,598	-11,43
474,802	21,33
475,007	-3,24
475,212	33,62
475,417	-1,19
475,621	15,19
475,826	-23,72
476,031	109,4
476,235	39,76
476,44	-5,29
476,645	62,29
476,849	-15,53
477,054	-3,24
477,259	-7,34
477,463	-17,58
477,668	33,62
477,872	33,62
478,077	121,68
478,282	17,24
478,486	37,72
478,691	58,2
478,895	17,24
479,1	19,29
479,304	68,44
479,509	-25,77
479,713	2,9
479,918	33,62
480,122	-62,63
480,326	50
480,531	0,85
480,735	17,24
480,94	50
481,144	43,86
481,348	-5,29
481,553	95,06
481,757	45,91
481,961	21,33
482,166	-38,06
482,37	11,09
482,574	0,85
482,778	9,05
482,983	9,05
483,187	4,95
483,391	33,62
483,595	-15,53
483,8	35,67
484,004	74,58
484,208	-17,58
484,412	-60,59
484,616	31,57
484,821	-27,82
485,025	-56,49
485,229	2,9
485,433	7
485,637	9,05
485,841	52,05
486,045	33,62
486,249	37,72
486,453	21,33
486,657	-29,87
486,861	37,72
487,065	0,85
487,269	-21,67
487,473	17,24
487,677	-29,87
487,881	21,33
488,085	33,62
488,289	11,09
488,493	33,62
488,697	56,15
488,901	25,43
489,105	25,43
489,309	-27,82
489,512	-48,3
489,716	25,43
489,92	-23,72
490,124	45,91
490,328	-1,19
490,531	9,05
490,735	39,76
490,939	27,48
491,143	-11,43
491,346	21,33
491,55	-58,54
491,754	-19,63
491,958	7
492,161	29,52
492,365	39,76
492,569	-70,83
492,772	17,24
492,976	-7,34
493,18	-11,43
493,383	25,43
493,587	54,1
493,79	-11,43
493,994	45,91
494,197	29,52
494,401	105,3
494,605	-15,53
494,808	45,91
495,012	97,11
495,215	37,72
495,419	-3,24
495,622	-42,15
495,825	37,72
496,029	-38,06
496,232	27,48
496,436	-23,72
496,639	37,72
496,843	0,85
497,046	27,48
497,249	0,85
497,453	0,85
497,656	54,1
497,859	-1,19
498,063	19,29
498,266	68,44
498,469	41,81
498,673	37,72
498,876	-31,91
499,079	23,38
499,282	21,33
499,485	43,86
499,689	23,38
499,892	60,24
500,095	0,85
500,298	-48,3
500,501	-23,72
500,705	31,57
500,908	-29,87
501,111	0,85
501,314	-3,24
501,517	13,14
501,72	33,62
501,923	-11,43
502,126	-3,24
502,329	-7,34
502,532	33,62
502,735	-56,49
502,938	-15,53
503,141	-1,19
503,344	33,62
503,547	23,38
503,75	66,39
503,953	31,57
504,156	9,05
504,359	4,95
504,562	15,19
504,765	2,9
504,968	-40,11
505,17	17,24
505,373	-25,77
505,576	82,77
505,779	-11,43
505,982	-40,11
506,185	-13,48
506,387	-40,11
506,59	-46,25
506,793	-13,48
506,996	-46,25
507,198	56,15
507,401	25,43
507,604	41,81
507,807	-7,34
508,009	-52,39
508,212	88,92
508,415	60,24
508,617	2,9
508,82	35,67
509,022	93,01
509,225	-29,87
509,428	58,2
509,63	35,67
509,833	33,62
510,035	-9,39
510,238	9,05
510,44	9,05
510,643	-44,2
510,845	58,2
511,048	-21,67
511,25	25,43
511,453	-7,34
511,655	-25,77
511,858	54,1
512,06	33,62
512,262	13,14
512,465	7
512,667	43,86
512,87	-36,01
513,072	13,14
513,274	21,33
513,477	-27,82
513,679	-48,3
513,881	-13,48
514,084	70,48
514,286	-17,58
514,488	82,77
514,69	-42,15
514,893	-3,24
515,095	54,1
515,297	-33,96
515,499	50
515,701	7
515,904	27,48
516,106	15,19
516,308	82,77
516,51	19,29
516,712	-1,19
516,914	-31,91
517,116	4,95
517,318	33,62
517,52	-7,34
517,722	58,2
517,925	93,01
518,127	21,33
518,329	-7,34
518,531	-3,24
518,733	52,05
518,935	52,05
519,136	2,9
519,338	9,05
519,54	66,39
519,742	25,43
519,944	11,09
520,146	58,2
520,348	-15,53
520,55	21,33
520,752	19,29
520,954	31,57
521,155	41,81
521,357	11,09
521,559	99,16
521,761	41,81
521,963	17,24
522,164	68,44
522,366	47,96
522,568	11,09
522,77	33,62
522,971	-13,48
523,173	-38,06
523,375	27,48
523,576	17,24
523,778	54,1
523,98	25,43
524,181	-5,29
524,383	41,81
524,584	17,24
524,786	-36,01
524,988	-31,91
525,189	54,1
525,391	17,24
525,592	25,43
525,794	-21,67
525,995	-17,58
526,197	31,57
526,398	54,1
526,6	-64,68
526,801	-9,39
527,003	-44,2
527,204	74,58
527,406	-40,11
527,607	11,09
527,808	-50,35
528,01	-21,67
528,211	72,53
528,412	109,4
528,614	-17,58
528,815	90,96
529,016	13,14
529,218	25,43
529,419	-31,91
529,62	19,29
529,822	-19,63
530,023	31,57
530,224	27,48
530,425	25,43
530,626	0,85
530,828	25,43
531,029	0,85
531,23	15,19
531,431	-11,43
531,632	52,05
531,833	70,48
532,035	11,09
532,236	35,67
532,437	17,24
532,638	9,05
532,839	35,67
533,04	52,05
533,241	-72,87
533,442	2,9
533,643	9,05
533,844	-23,72
534,045	80,72
534,246	-25,77
534,447	11,09
534,648	17,24
534,849	-15,53
535,05	-21,67
535,251	23,38
535,451	-15,53
535,652	2,9
535,853	-5,29
536,054	19,29
536,255	113,49
536,456	35,67
536,657	62,29
536,857	9,05
537,058	43,86
537,259	11,09
537,46	-11,43
537,66	-29,87
537,861	-19,63
538,062	17,24
538,263	17,24
538,463	-27,82
538,664	19,29
538,865	37,72
539,065	-46,25
539,266	35,67
539,466	-48,3
539,667	2,9
539,868	76,63
540,068	25,43
540,269	95,06
540,469	7
540,67	62,29
540,87	35,67
541,071	86,87
541,271	66,39
541,472	80,72
541,672	0,85
541,873	-3,24
542,073	9,05
542,274	0,85
542,474	25,43
542,675	-38,06
542,875	25,43
543,075	60,24
543,276	62,29
543,476	62,29
543,676	50
543,877	0,85
544,077	62,29
544,277	-19,63
544,478	-38,06
544,678	17,24
544,878	17,24
545,078	-15,53
545,279	58,2
545,479	27,48
545,679	19,29
545,879	23,38
546,079	15,19
546,28	27,48
546,48	64,34
546,68	-11,43
546,88	-95,4
547,08	-21,67
547,28	60,24
547,48	2,9
547,68	-42,15
547,88	-36,01
548,081	35,67
548,281	25,43
548,481	62,29
548,681	7
548,881	70,48
549,081	2,9
549,28	86,87
549,48	21,33
549,68	21,33
549,88	-23,72
550,08	43,86
550,28	52,05
550,48	13,14
550,68	13,14
550,88	11,09
551,08	-1,19
551,279	-17,58
551,479	-40,11
551,679	70,48
551,879	80,72
552,079	86,87
552,278	17,24
552,478	41,81
552,678	2,9
552,878	9,05
553,077	-48,3
553,277	0,85
553,477	0,85
553,676	68,44
553,876	43,86
554,076	50
554,275	11,09
554,475	35,67
554,674	-5,29
554,874	78,68
555,074	50
555,273	-42,15
555,473	23,38
555,672	-27,82
555,872	17,24
556,071	33,62
556,271	37,72
556,47	0,85
556,67	66,39
556,869	41,81
557,068	66,39
557,268	-21,67
557,467	17,24
557,667	41,81
557,866	43,86
558,065	74,58
558,265	93,01
558,464	27,48
558,663	9,05
558,863	93,01
559,062	56,15
559,261	70,48
559,461	56,15
559,66	90,96
559,859	-3,24
560,058	-11,43
560,258	33,62
560,457	99,16
560,656	45,91
560,855	39,76
561,054	66,39
561,253	82,77
561,453	56,15
561,652	33,62
561,851	78,68
562,05	82,77
562,249	107,35
562,448	60,24
562,647	127,83
562,846	60,24
563,045	78,68
563,244	52,05
563,443	52,05
563,642	23,38
563,841	101,2
564,04	47,96
564,239	-21,67
564,438	4,95
564,637	115,54
564,836	19,29
565,035	52,05
565,234	84,82
565,432	86,87
565,631	101,2
565,83	31,57
566,029	19,29
566,228	66,39
566,427	80,72
566,625	140,12
566,824	72,53
567,023	127,83
567,222	86,87
567,42	133,97
567,619	82,77
567,818	172,88
568,016	119,64
568,215	99,16
568,414	121,68
568,612	207,7
568,811	138,07
569,01	107,35
569,208	156,5
569,407	152,4
569,605	338,77
569,804	193,36
570,002	213,84
570,201	295,76
570,4	324,43
570,598	281,43
570,797	418,64
570,995	394,06
571,193	510,8
571,392	648,01
571,59	525,13
571,789	611,15
571,987	736,07
572,186	846,66
572,384	983,88
572,582	1213,25
572,781	1350,46
572,979	1567,55
573,177	1807,16
573,376	2126,64
573,574	2517,81
573,772	3099,43
573,971	3654,43
574,169	4277,01
574,367	5088,01
574,565	6322,93
574,763	7742,18
574,962	9358,02
575,16	11078,32
575,358	13400,71
575,556	15606,38
575,754	18846,26
575,952	22145,54
576,151	26173,89
576,349	29610,39
576,547	33423,7
576,745	37003,55
576,943	40288,49
577,141	43258,05
577,339	46002,33
577,537	48328,82
577,735	50245,72
577,933	51761,22
578,131	52772,91
578,329	53475,37
578,527	54073,37
578,725	54759,44
578,923	55613,44
579,121	55932,93
579,319	56174,59
579,516	57110,51
579,714	57569,25
579,912	57778,15
580,11	58023,9
580,308	58484,7
580,506	59140,05
580,704	58277,85
580,901	59674,57
581,099	60213,18
581,297	60350,4
581,495	60133,31
581,692	60956,6
581,89	60248
582,088	60708,79
582,285	60610,49
582,483	61513,64
582,681	60846
582,878	60618,68
583,076	59944,9
583,274	60086,21
583,471	58732,5
583,669	58134,49
583,866	56344,57
584,064	54734,87
584,262	51771,46
584,459	49371,24
584,657	45727,9
584,854	42924,23
585,052	38256,91
585,249	35154,24
585,447	31097,21
585,644	27566,51
585,841	24054,25
586,039	20775,45
586,236	18016,83
586,434	15405,67
586,631	13224,59
586,828	11336,36
587,026	9652,93
587,223	8182,49
587,42	6978,28
587,618	5950,2
587,815	4952,84
588,012	4199,19
588,21	3642,14
588,407	3033,9
588,604	2646,83
588,801	2241,33
588,999	1909,56
589,196	1717,05
589,393	1532,73
589,59	1329,99
589,787	1127,24
589,984	1024,84
590,182	953,16
590,379	672,59
590,576	691,02
590,773	596,81
590,97	549,71
591,167	488,27
591,364	461,65
591,561	457,55
591,758	414,54
591,955	383,82
592,152	367,44
592,349	234,32
592,546	279,38
592,743	166,74
592,94	250,71
593,137	219,99
593,334	131,92
593,531	217,94
593,727	156,5
593,924	152,4
594,121	176,98
594,318	146,26
594,515	213,84
594,712	90,96
594,908	215,89
595,105	115,54
595,302	99,16
595,499	64,34
595,696	168,79
595,892	86,87
596,089	172,88
596,286	103,25
596,482	74,58
596,679	131,92
596,876	72,53
597,072	117,59
597,269	99,16
597,466	76,63
597,662	64,34
597,859	123,73
598,055	47,96
598,252	119,64
598,448	93,01
598,645	111,44
598,841	-31,91
599,038	33,62
599,234	50
599,431	15,19
599,627	84,82
599,824	72,53
600,02	0,85
600,217	43,86
600,413	23,38
600,609	41,81
600,806	19,29
601,002	72,53
601,198	-5,29
601,395	29,52
601,591	66,39
601,787	11,09
601,984	95,06
602,18	-50,35
602,376	58,2
602,572	82,77
602,769	109,4
602,965	76,63
603,161	-25,77
603,357	66,39
603,553	84,82
603,75	19,29
603,946	103,25
604,142	25,43
604,338	95,06
604,534	-56,49
604,73	105,3
604,926	-27,82
605,122	-40,11
605,318	9,05
605,514	-52,39
605,71	-1,19
605,906	35,67
606,102	21,33
606,298	39,76
606,494	0,85
606,69	43,86
606,886	78,68
607,082	56,15
607,278	41,81
607,474	45,91
607,67	21,33
607,866	58,2
608,062	-1,19
608,257	52,05
608,453	-31,91
608,649	7
608,845	58,2
609,041	7
609,236	-13,48
609,432	29,52
609,628	52,05
609,824	35,67
610,019	52,05
610,215	80,72
610,411	17,24
610,606	17,24
610,802	-5,29
610,998	58,2
611,193	-27,82
611,389	17,24
611,584	11,09
611,78	-19,63
611,976	35,67
612,171	0,85
612,367	52,05
612,562	21,33
612,758	-1,19
612,953	-11,43
613,149	-7,34
613,344	15,19
613,539	-1,19
613,735	31,57
613,93	103,25
614,126	66,39
614,321	-19,63
614,517	-1,19
614,712	39,76
614,907	37,72
615,103	64,34
615,298	9,05
615,493	27,48
615,688	19,29
615,884	39,76
616,079	54,1
616,274	-21,67
616,47	70,48
616,665	2,9
616,86	58,2
617,055	2,9
617,25	37,72
617,445	17,24
617,641	58,2
617,836	66,39
618,031	93,01
618,226	37,72
618,421	-40,11
618,616	41,81
618,811	74,58
619,006	-17,58
619,201	-23,72
619,396	2,9
619,591	15,19
619,786	-3,24
619,981	107,35
620,176	9,05
620,371	31,57
620,566	-56,49
620,761	23,38
620,956	-3,24
621,151	76,63
621,346	19,29
621,541	-54,44
621,735	45,91
621,93	-5,29
622,125	56,15
622,32	19,29
622,515	-15,53
622,709	-31,91
622,904	45,91
623,099	-25,77
623,294	72,53
623,488	56,15
623,683	-11,43
623,878	76,63
624,072	-46,25
624,267	74,58
624,462	-36,01
624,656	9,05
624,851	-5,29
625,046	78,68
625,24	0,85
625,435	29,52
625,629	-56,49
625,824	60,24
626,018	7
626,213	15,19
626,407	9,05
626,602	35,67
626,796	90,96
626,991	62,29
627,185	9,05
627,38	37,72
627,574	54,1
627,768	43,86
627,963	-19,63
628,157	-27,82
628,352	17,24
628,546	13,14
628,74	-48,3
628,935	11,09
629,129	68,44
629,323	37,72
629,517	-79,02
629,712	74,58
629,906	33,62
630,1	56,15
630,294	23,38
630,489	0,85
630,683	-68,78
630,877	-11,43
631,071	-48,3
631,265	13,14
631,459	23,38
631,653	56,15
631,848	0,85
632,042	19,29
632,236	-5,29
632,43	13,14
632,624	-87,21
632,818	-7,34
633,012	19,29
633,206	62,29
633,4	-19,63
633,594	-38,06
633,788	66,39
633,982	41,81
634,176	27,48
634,369	56,15
634,563	-19,63
634,757	13,14
634,951	50
635,145	35,67
635,339	17,24
635,533	-7,34
635,726	-46,25
635,92	62,29
636,114	54,1
636,308	66,39
636,501	13,14
636,695	-74,92
636,889	-31,91
637,083	9,05
637,276	-36,01
637,47	60,24
637,664	2,9
637,857	62,29
638,051	70,48
638,244	78,68
638,438	-25,77
638,632	66,39
638,825	17,24
639,019	74,58
639,212	-97,45
639,406	45,91
639,599	52,05
639,793	-15,53
639,986	-15,53
640,18	66,39
640,373	17,24
640,567	33,62
640,76	-13,48
640,954	9,05
641,147	-15,53
641,34	41,81
641,534	84,82
641,727	21,33
641,92	-23,72
642,114	-19,63
642,307	25,43
642,5	19,29
642,694	84,82
642,887	-21,67
643,08	33,62
643,273	-15,53
643,467	15,19
643,66	17,24
643,853	-19,63
644,046	23,38
644,239	43,86
644,432	43,86
644,626	9,05
644,819	-62,63
645,012	-46,25
645,205	41,81
645,398	41,81
645,591	13,14
645,784	62,29
645,977	64,34
646,17	52,05
646,363	31,57
646,556	52,05
646,749	21,33
646,942	60,24
647,135	2,9
647,328	-52,39
647,521	31,57
647,714	11,09
647,907	21,33
648,099	-9,39
648,292	2,9
648,485	11,09
648,678	-7,34
648,871	-25,77
649,064	25,43
649,256	-46,25
649,449	31,57
649,642	13,14
649,835	11,09
650,027	-48,3
650,22	74,58
650,413	-13,48
650,605	76,63
650,798	-5,29
650,991	33,62
651,183	66,39
651,376	0,85
651,568	-21,67
651,761	-48,3
651,954	21,33
652,146	-21,67
652,339	-23,72
652,531	-17,58
652,724	33,62
652,916	58,2
653,109	-54,44
653,301	29,52
653,494	45,91
653,686	23,38
653,879	72,53
654,071	17,24
654,263	74,58
654,456	-31,91
654,648	54,1
654,84	58,2
655,033	-13,48
655,225	-3,24
655,417	9,05
655,61	-40,11
655,802	37,72
655,994	66,39
656,186	0,85
656,379	25,43
656,571	99,16
656,763	-9,39
656,955	-3,24
657,148	45,91
657,34	17,24
657,532	-54,44
657,724	41,81
657,916	97,11
658,108	21,33
658,3	-7,34
658,492	62,29
658,684	19,29
658,876	66,39
659,068	27,48
659,26	13,14
659,452	50
659,644	27,48
659,836	23,38
660,028	11,09
660,22	2,9
660,412	52,05
660,604	25,43
660,796	29,52
660,988	19,29
661,18	-25,77
661,372	43,86
661,563	-15,53
661,755	62,29
661,947	47,96
662,139	50
662,331	-27,82
662,522	11,09
662,714	11,09
662,906	17,24
663,097	-5,29
663,289	0,85
663,481	60,24
663,673	-48,3
663,864	-3,24
664,056	41,81
664,247	80,72
664,439	7
664,631	11,09
664,822	-54,44
665,014	45,91
665,205	-3,24
665,397	-11,43
665,588	25,43
665,78	-36,01
665,971	-17,58
666,163	27,48
666,354	17,24
666,546	74,58
666,737	9,05
666,929	88,92
667,12	17,24
667,311	-19,63
667,503	-3,24
667,694	60,24
667,885	-11,43
668,077	4,95
668,268	-33,96
668,459	13,14
668,651	-11,43
668,842	-64,68
669,033	-27,82
669,224	0,85
669,416	56,15
669,607	-19,63
669,798	-48,3
669,989	68,44
670,18	66,39
670,371	-1,19
670,563	76,63
670,754	0,85
670,945	-76,97
671,136	43,86
671,327	-48,3
671,518	-15,53
671,709	-27,82
671,9	-21,67
672,091	39,76
672,282	-3,24
672,473	-44,2
672,664	-1,19
672,855	-38,06
673,046	103,25
673,237	35,67
673,428	-29,87
673,619	-23,72
673,809	33,62
674	50
674,191	29,52
674,382	27,48
674,573	70,48
674,764	0,85
674,954	52,05
675,145	45,91
675,336	29,52
675,527	52,05
675,717	35,67
675,908	62,29
676,099	0,85
676,289	21,33
676,48	-3,24
676,671	33,62
676,861	37,72
677,052	60,24
677,243	52,05
677,433	23,38
677,624	13,14
677,814	13,14
678,005	-58,54
678,195	2,9
678,386	-31,91
678,576	-64,68
678,767	-11,43
678,957	21,33
679,148	-70,83
679,338	0,85
679,529	31,57
679,719	11,09
679,909	47,96
680,1	37,72
680,29	-31,91
680,481	21,33
680,671	35,67
680,861	52,05
681,052	23,38
681,242	-31,91
681,432	11,09
681,622	86,87
681,813	13,14
682,003	-7,34
682,193	41,81
682,383	19,29
682,573	4,95
682,764	-25,77
682,954	-7,34
683,144	-11,43
683,334	29,52
683,524	33,62
683,714	25,43
683,904	82,77
684,094	-42,15
684,284	-13,48
684,474	4,95
684,664	25,43
684,854	45,91
685,044	-15,53
685,234	-9,39
685,424	25,43
685,614	17,24
685,804	13,14
685,994	-19,63
686,184	17,24
686,374	-5,29
686,564	27,48
686,753	-48,3
686,943	-11,43
687,133	43,86
687,323	-52,39
687,513	0,85
687,702	-7,34
687,892	13,14
688,082	43,86
688,272	-7,34
688,461	27,48
688,651	58,2
688,841	-29,87
689,03	50
689,22	25,43
689,41	4,95
689,599	0,85
689,789	9,05
689,979	58,2
690,168	9,05
690,358	17,24
690,547	-54,44
690,737	9,05
690,926	4,95
691,116	72,53
691,305	-93,35
691,495	25,43
691,684	25,43
691,874	58,2
692,063	-1,19
692,252	-13,48
692,442	-48,3
692,631	-1,19
692,82	66,39
693,01	41,81
693,199	35,67
693,388	-13,48
693,578	29,52
693,767	-29,87
693,956	0,85
694,146	13,14
694,335	-1,19
694,524	88,92
694,713	78,68
694,902	11,09
695,092	-13,48
695,281	47,96
695,47	-33,96
695,659	23,38
695,848	-31,91
696,037	0,85
696,226	21,33
696,415	41,81
696,604	9,05
696,793	50
696,982	-31,91
697,171	99,16
697,36	-33,96
697,549	-21,67
697,738	4,95
697,927	41,81
698,116	19,29
698,305	-19,63
698,494	-13,48
698,683	70,48
698,872	0,85
699,061	15,19
699,25	29,52
699,438	-15,53
699,627	-29,87
699,816	50
700,005	-23,72
700,193	80,72
700,382	21,33
700,571	-23,72
700,76	-3,24
700,948	17,24
701,137	15,19
701,326	39,76
701,514	11,09
701,703	93,01
701,892	-29,87
702,08	0,85
702,269	7
702,457	68,44
702,646	41,81
702,834	-5,29
703,023	-64,68
703,212	-3,24
703,4	33,62
703,589	17,24
703,777	19,29
703,965	-17,58
704,154	-3,24
704,342	54,1
704,531	-68,78
704,719	-3,24
704,907	11,09
705,096	-50,35
705,284	19,29
705,472	56,15
705,661	-11,43
705,849	-44,2
706,037	7
706,226	41,81
706,414	35,67
706,602	64,34
706,79	9,05
706,979	64,34
707,167	21,33
707,355	54,1
707,543	-40,11
707,731	9,05
707,919	-50,35
708,107	-13,48
708,296	-5,29
708,484	2,9
708,672	21,33
708,86	-31,91
709,048	29,52
709,236	-54,44
709,424	41,81
709,612	-19,63
709,8	80,72
709,988	33,62
710,176	15,19
710,364	-40,11
710,551	33,62
710,739	60,24
710,927	-29,87
711,115	72,53
711,303	-31,91
711,491	-5,29
711,679	17,24
711,866	-27,82
712,054	-9,39
712,242	-23,72
712,43	4,95
712,617	-13,48
712,805	19,29
712,993	-60,59
713,181	33,62
713,368	33,62
713,556	17,24
713,744	2,9
713,931	-52,39
714,119	43,86
714,306	-5,29
714,494	76,63
714,682	21,33
714,869	-15,53
715,057	41,81
715,244	4,95
715,432	0,85
715,619	17,24
715,807	-1,19
715,994	-38,06
716,182	-1,19
716,369	41,81
716,556	0,85
716,744	33,62
716,931	-3,24
717,119	35,67
717,306	-54,44
717,493	-1,19
717,681	-11,43
717,868	60,24
718,055	37,72
718,242	23,38
718,43	-36,01
718,617	60,24
718,804	11,09
718,991	-44,2
719,179	17,24
719,366	-36,01
719,553	2,9
719,74	-9,39
719,927	-15,53
720,114	-1,19
720,301	21,33
720,488	62,29
720,676	-5,29
720,863	84,82
721,05	33,62
721,237	7
721,424	17,24
721,611	66,39
721,798	17,24
721,985	21,33
722,172	2,9
722,358	17,24
722,545	21,33
722,732	-46,25
722,919	68,44
723,106	25,43
723,293	17,24
723,48	41,81
723,667	-1,19
723,853	-52,39
724,04	58,2
724,227	-1,19
724,414	-27,82
724,6	84,82
724,787	-31,91
724,974	-21,67
725,161	29,52
725,347	-9,39
725,534	-5,29
725,72	41,81
725,907	-13,48
726,094	64,34
726,28	-23,72
726,467	-70,83
726,653	-31,91
726,84	60,24
727,027	4,95
727,213	47,96
727,4	-15,53
727,586	-3,24
727,773	19,29
727,959	33,62
728,145	-48,3
728,332	31,57
728,518	-27,82
728,705	0,85
728,891	21,33
729,077	-15,53
729,264	33,62
729,45	17,24
729,636	-60,59
729,823	29,52
730,009	25,43
730,195	27,48
730,382	0,85
730,568	50
730,754	29,52
730,94	-81,07
731,126	-62,63
731,313	-19,63
731,499	25,43
731,685	-42,15
731,871	-27,82
732,057	43,86
732,243	-29,87
732,429	4,95
732,615	31,57
732,801	90,96
732,987	35,67
733,173	78,68
733,359	11,09
733,545	-40,11
733,731	-54,44
733,917	7
734,103	4,95
734,289	45,91
734,475	-27,82
734,661	7
734,847	-33,96
735,033	-23,72
735,219	27,48
735,404	9,05
735,59	93,01
735,776	-29,87
735,962	-52,39
736,148	43,86
736,333	33,62
736,519	21,33
736,705	-13,48
736,89	35,67
737,076	-21,67
737,262	35,67
737,447	-11,43
737,633	-29,87
737,819	11,09
738,004	-21,67
738,19	19,29
738,375	17,24
738,561	-7,34
738,747	-72,87
738,932	-25,77
739,118	25,43
739,303	-64,68
739,489	43,86
739,674	0,85
739,859	-1,19
740,045	31,57
740,23	13,14
740,416	-3,24
740,601	52,05
740,786	17,24
740,972	-23,72
741,157	11,09
741,342	45,91
741,528	31,57
741,713	25,43
741,898	19,29
742,084	0,85
742,269	-38,06
742,454	-38,06
742,639	62,29
742,824	35,67
743,01	-25,77
743,195	-31,91
743,38	58,2
743,565	-11,43
743,75	-36,01
743,935	-44,2
744,12	68,44
744,305	11,09
744,49	47,96
744,675	7
744,86	13,14
745,045	-7,34
745,23	-11,43
745,415	4,95
745,6	-42,15
745,785	-9,39
745,97	17,24
746,155	-15,53
746,34	-54,44
746,525	93,01
746,71	11,09
746,895	17,24
747,079	-105,64
747,264	9,05
747,449	9,05
747,634	50
747,819	31,57
748,003	23,38
748,188	68,44
748,373	37,72
748,557	58,2
748,742	41,81
748,927	-38,06
749,111	-13,48
749,296	-70,83
749,481	11,09
749,665	-19,63
749,85	-23,72
750,034	60,24
750,219	41,81
750,404	-64,68
750,588	47,96
750,773	43,86
750,957	9,05
751,141	47,96
751,326	21,33
751,51	27,48
751,695	17,24
751,879	17,24
752,064	25,43
752,248	47,96
752,432	-40,11
752,617	17,24
752,801	-29,87
752,985	0,85
753,17	43,86
753,354	54,1
753,538	-29,87
753,722	-19,63
753,907	25,43
754,091	13,14
754,275	27,48
754,459	-3,24
754,643	41,81
754,828	0,85
755,012	111,44
755,196	21,33
755,38	43,86
755,564	-1,19
755,748	-3,24
755,932	-1,19
756,116	58,2
756,3	13,14
756,484	97,11
756,668	-52,39
756,852	0,85
757,036	-46,25
757,22	-36,01
757,404	2,9
757,588	9,05
757,772	-1,19
757,956	-31,91
758,14	-9,39
758,323	35,67
758,507	-40,11
758,691	-33,96
758,875	25,43
759,059	21,33
759,242	17,24
759,426	0,85
759,61	-7,34
759,794	11,09
759,977	33,62
760,161	17,24
760,345	27,48
760,528	-21,67
760,712	43,86
760,895	9,05
761,079	-17,58
761,263	17,24
761,446	17,24
761,63	0,85
761,813	43,86
761,997	25,43
762,18	27,48
762,364	9,05
762,547	-46,25
762,731	0,85
762,914	23,38
763,098	76,63
763,281	15,19
763,464	9,05
763,648	-11,43
763,831	13,14
764,015	33,62
764,198	37,72
764,381	-15,53
764,564	-27,82
764,748	-3,24
764,931	11,09
765,114	60,24
765,297	17,24
765,481	50
765,664	27,48
765,847	35,67
766,03	-17,58
766,213	15,19
766,397	13,14
766,58	-15,53
766,763	2,9
766,946	60,24
767,129	45,91
767,312	13,14
767,495	-38,06
767,678	0,85
767,861	60,24
768,044	17,24
768,227	39,76
768,41	-68,78
768,593	17,24
768,776	-7,34
768,959	-5,29
769,142	27,48
769,324	7
769,507	-48,3
769,69	45,91
769,873	90,96
770,056	-15,53
770,239	2,9
770,421	0,85
770,604	15,19
770,787	58,2
770,97	21,33
771,152	-3,24
771,335	-5,29
771,518	-7,34
771,7	-36,01
771,883	9,05
772,066	11,09
772,248	58,2
772,431	-7,34
772,613	17,24
772,796	47,96
772,978	-79,02
773,161	35,67
773,343	33,62
773,526	-27,82
773,708	25,43
773,891	-1,19
774,073	25,43
774,256	-1,19
774,438	0,85
774,621	-5,29
774,803	-11,43
774,985	-42,15
775,168	-50,35
775,35	-3,24
775,532	60,24
775,715	-21,67
775,897	60,24
776,079	17,24
776,261	-46,25
776,444	21,33
776,626	13,14
776,808	56,15
776,99	-62,63
777,173	-40,11
777,355	52,05
777,537	-11,43
777,719	45,91
777,901	-5,29
778,083	21,33
778,265	-1,19
778,447	-40,11
778,629	-3,24
778,811	76,63
778,993	-44,2
779,175	2,9
779,357	9,05
779,539	-60,59
779,721	13,14
779,903	19,29
780,085	-17,58
780,267	37,72
780,449	-9,39
780,631	35,67
780,812	27,48
780,994	2,9
781,176	27,48
781,358	52,05
781,54	15,19
781,721	13,14
781,903	7
782,085	-7,34
782,267	127,83
782,448	-27,82
782,63	58,2
782,812	-1,19
782,993	50
783,175	43,86
783,357	-29,87
783,538	-56,49
783,72	21,33
783,901	19,29
784,083	19,29
784,264	-40,11
784,446	41,81
784,627	-3,24
784,809	52,05
784,99	9,05
785,172	-3,24
785,353	21,33
785,535	23,38
785,716	2,9
785,897	0,85
786,079	-5,29
786,26	-7,34
786,441	27,48
786,623	-19,63
786,804	27,48
786,985	21,33
787,167	-13,48
787,348	-11,43
787,529	-25,77
787,71	19,29
787,891	35,67
788,073	-11,43
788,254	60,24
788,435	25,43
788,616	25,43
788,797	7
788,978	-29,87
789,159	41,81
789,34	13,14
789,522	-13,48
789,703	21,33
789,884	-5,29
790,065	82,77
790,246	0,85
790,427	11,09
790,607	41,81
790,788	50
790,969	-15,53
791,15	19,29
791,331	29,52
791,512	43,86
791,693	-23,72
791,874	15,19
792,054	41,81
792,235	35,67
792,416	17,24
792,597	25,43
792,778	33,62
792,958	70,48
793,139	-21,67
793,32	9,05
793,5	27,48
793,681	-11,43
793,862	-31,91
794,042	62,29
794,223	-17,58
794,404	-48,3
794,584	37,72
794,765	54,1
794,945	7
795,126	-46,25
795,306	-29,87
795,487	-33,96
795,667	4,95
795,848	-7,34
796,028	41,81
796,209	19,29
796,389	47,96
796,57	74,58
796,75	21,33
796,93	27,48
797,111	31,57
797,291	-5,29
797,471	-60,59
797,652	21,33
797,832	-48,3
798,012	58,2
798,192	-13,48
798,373	-36,01
798,553	-9,39
798,733	2,9
798,913	56,15
799,093	9,05
799,274	27,48
799,454	41,81
799,634	-5,29
799,814	7
799,994	39,76
800,174	62,29
800,354	82,77
800,534	27,48
800,714	-68,78
800,894	19,29
801,074	-44,2
801,254	2,9
801,434	19,29
801,614	70,48
801,794	-9,39
801,974	140,12
802,154	-1,19
802,334	7
802,514	11,09
802,693	-42,15
802,873	29,52
803,053	-5,29
803,233	-9,39
803,413	2,9
803,592	19,29
803,772	-5,29
803,952	-19,63
804,131	7
804,311	41,81
804,491	9,05
804,67	74,58
804,85	66,39
805,03	-13,48
805,209	0,85
805,389	-1,19
805,568	50
805,748	-52,39
805,928	-13,48
806,107	-68,78
806,287	17,24
806,466	-29,87
806,646	0,85
806,825	-21,67
807,004	-1,19
807,184	17,24
807,363	97,11
807,543	-5,29
807,722	45,91
807,901	74,58
808,081	29,52
808,26	-46,25
808,439	45,91
808,619	-31,91
808,798	4,95
808,977	13,14
809,156	-23,72
809,336	25,43
809,515	-1,19
809,694	11,09
809,873	11,09
810,052	9,05
810,231	78,68
810,411	-58,54
810,59	37,72
810,769	2,9
810,948	-5,29
811,127	2,9
811,306	9,05
811,485	-5,29
811,664	33,62
811,843	-7,34
812,022	19,29
812,201	-15,53
812,38	27,48
812,559	37,72
812,737	-3,24
812,916	-56,49
813,095	-81,07
813,274	27,48
813,453	7
813,632	0,85
813,811	68,44
813,989	58,2
814,168	19,29
814,347	27,48
814,526	-15,53
814,704	4,95
814,883	-44,2
815,062	62,29
815,24	-25,77
815,419	0,85
815,598	25,43
815,776	-27,82
815,955	70,48
816,133	17,24
816,312	17,24
816,49	74,58
816,669	-15,53
816,847	0,85
817,026	-7,34
817,204	-7,34
817,383	78,68
817,561	-70,83
817,74	-7,34
817,918	54,1
818,097	21,33
818,275	-5,29
818,453	-111,78
818,632	-15,53
818,81	-31,91
818,988	-7,34
819,167	-48,3
819,345	-7,34
819,523	-33,96
819,701	7
819,879	58,2
820,058	-60,59
820,236	-9,39
820,414	4,95
820,592	25,43
820,77	-11,43
820,948	35,67
821,127	-68,78
821,305	78,68
821,483	11,09
821,661	43,86
821,839	-23,72
822,017	58,2
822,195	37,72
822,373	17,24
822,551	-48,3
822,729	19,29
822,907	-7,34
823,085	-56,49
823,262	-27,82
823,44	-3,24
823,618	54,1
823,796	43,86
823,974	-17,58
824,152	41,81
824,329	-27,82
824,507	58,2
824,685	-36,01
824,863	86,87
825,04	-3,24
825,218	43,86
825,396	-23,72
825,574	-7,34
825,751	-31,91
825,929	101,2
826,107	-52,39
826,284	-3,24
826,462	0,85
826,639	35,67
826,817	-11,43
826,994	-46,25
827,172	47,96
827,349	64,34
827,527	33,62
827,704	50
827,882	-7,34
828,059	25,43
828,237	17,24
828,414	17,24
828,591	2,9
828,769	0,85
828,946	43,86
829,124	9,05
829,301	-5,29
829,478	4,95
829,655	58,2
829,833	-21,67
830,01	-31,91
830,187	-25,77
830,364	21,33
830,542	13,14
830,719	-13,48
830,896	-27,82
831,073	-11,43
831,25	33,62
831,427	-33,96
831,604	37,72
831,782	-38,06
831,959	17,24
832,136	9,05
832,313	-56,49
832,49	13,14
832,667	41,81
832,844	-72,87
833,021	-3,24
833,198	45,91
833,374	-60,59
833,551	-40,11
833,728	-44,2
833,905	-5,29
834,082	58,2
834,259	25,43
834,436	29,52
834,612	13,14
834,789	37,72
834,966	19,29
835,143	19,29
835,319	-40,11
835,496	0,85
835,673	-38,06
835,85	60,24
836,026	4,95
836,203	33,62
836,38	-33,96
836,556	50
836,733	-40,11
836,909	86,87
837,086	70,48
837,262	11,09
837,439	-31,91
837,616	43,86
837,792	-5,29
837,968	29,52
838,145	-19,63
838,321	-72,87
838,498	-11,43
838,674	29,52
838,851	-17,58
839,027	35,67
839,203	-7,34
839,38	-101,55
839,556	-1,19
839,732	7
839,909	-1,19
840,085	43,86
840,261	58,2
840,437	41,81
840,614	-5,29
840,79	29,52
840,966	31,57
841,142	60,24
841,318	66,39
841,494	60,24
841,671	17,24
841,847	17,24
842,023	-11,43
842,199	84,82
842,375	-3,24
842,551	9,05
842,727	-19,63
842,903	-9,39
843,079	2,9
843,255	13,14
843,431	13,14
843,607	17,24
843,783	50
843,959	0,85
844,134	-25,77
844,31	117,59
844,486	43,86
844,662	-3,24
844,838	-7,34
845,013	2,9
845,189	-21,67
845,365	11,09
845,541	-52,39
845,716	17,24
845,892	-11,43
846,068	-7,34
846,244	-29,87
846,419	0,85
846,595	-5,29
846,77	-31,91
846,946	29,52
847,122	11,09
847,297	-11,43
847,473	50
847,648	29,52
847,824	66,39
847,999	-50,35
848,175	72,53
848,35	41,81
848,526	41,81
848,701	-60,59
848,876	66,39
849,052	0,85
849,227	-13,48
849,403	19,29
849,578	-19,63
849,753	62,29
849,929	45,91
850,104	-50,35
850,279	-29,87
850,454	17,24
850,63	45,91
850,805	11,09
850,98	47,96
851,155	-42,15
851,33	84,82
851,505	-13,48
851,681	64,34
851,856	-33,96
852,031	-25,77
852,206	41,81
852,381	-7,34
852,556	-50,35
852,731	17,24
852,906	-15,53
853,081	21,33
853,256	-23,72
853,431	19,29
853,606	25,43
853,781	58,2
853,956	33,62
854,131	-23,72
854,305	-9,39
854,48	37,72
854,655	-5,29
854,83	-17,58
855,005	33,62
855,18	41,81
855,354	33,62
855,529	35,67
855,704	17,24
855,879	-7,34
856,053	-31,91
856,228	-1,19
856,403	-52,39
856,577	-11,43
856,752	-23,72
856,926	86,87
857,101	-15,53
857,276	-15,53
857,45	62,29
857,625	-33,96
857,799	66,39
857,974	-36,01
858,148	-5,29
858,323	-13,48
858,497	4,95
858,672	-7,34
858,846	66,39
859,02	56,15
859,195	-38,06
859,369	39,76
859,543	9,05
859,718	-5,29
859,892	17,24
860,066	9,05
860,241	-81,07
860,415	82,77
860,589	2,9
860,763	-7,34
860,938	-40,11
861,112	-40,11
861,286	-9,39
861,46	-42,15
861,634	15,19
861,808	-19,63
861,982	-19,63
862,157	31,57
862,331	-11,43
862,505	33,62
862,679	17,24
862,853	-36,01
863,027	-13,48
863,201	-5,29
863,375	-15,53
863,549	9,05
863,722	-17,58
863,896	70,48
864,07	-13,48
864,244	-15,53
864,418	4,95
864,592	17,24
864,766	21,33
864,939	-5,29
865,113	35,67
865,287	27,48
865,461	-81,07
865,634	27,48
865,808	-25,77
865,982	31,57
866,156	17,24
866,329	25,43
866,503	-64,68
866,676	25,43
866,85	7
867,024	39,76
867,197	62,29
867,371	52,05
867,544	33,62
867,718	-27,82
867,891	33,62
868,065	-5,29
868,238	37,72
868,412	19,29
868,585	-81,07
868,759	-38,06
868,932	2,9
869,105	-93,35
869,279	33,62
869,452	41,81
869,625	-29,87
869,799	7
869,972	21,33
870,145	82,77
870,319	-60,59
870,492	17,24
870,665	19,29
870,838	39,76
871,011	-9,39
871,185	11,09
871,358	-1,19
871,531	-29,87
871,704	-13,48
871,877	-21,67
872,05	-70,83
872,223	31,57
872,396	4,95
872,569	21,33
872,742	25,43
872,915	25,43
873,088	9,05
873,261	45,91
873,434	70,48
873,607	37,72
873,78	74,58
873,953	17,24
874,126	-23,72
874,299	0,85
874,471	-19,63
874,644	62,29
874,817	-1,19
874,99	13,14
875,163	33,62
875,335	-19,63
875,508	47,96
875,681	2,9
875,853	-23,72
876,026	0,85
876,199	37,72
876,371	-23,72
876,544	-25,77
876,717	-21,67
876,889	-13,48
877,062	-7,34
877,234	-25,77
877,407	25,43
877,579	-25,77
877,752	-25,77
877,924	-58,54
878,097	25,43
878,269	0,85
878,442	84,82
878,614	50
878,786	27,48
878,959	-23,72
879,131	-21,67
879,303	11,09
879,476	33,62
879,648	76,63
879,82	-38,06
879,993	47,96
880,165	-38,06
880,337	60,24
880,509	78,68
880,681	19,29
880,854	43,86
881,026	35,67
881,198	27,48
881,37	0,85
881,542	33,62
881,714	52,05
881,886	-64,68
882,058	13,14
882,23	95,06
882,402	-15,53
882,574	25,43
882,746	23,38
882,918	0,85
883,09	-23,72
883,262	60,24
883,434	29,52
883,606	31,57
883,778	-15,53
883,95	17,24
884,122	-11,43
884,293	-5,29
884,465	-3,24
884,637	70,48
884,809	-72,87
884,98	68,44
885,152	-56,49
885,324	-13,48
885,496	9,05
885,667	11,09
885,839	25,43
886,011	27,48
886,182	39,76
886,354	2,9
886,525	19,29
886,697	19,29
886,869	9,05
887,04	-13,48
887,212	-52,39
887,383	4,95
887,555	43,86
887,726	41,81
887,897	-13,48
888,069	50
888,24	23,38
888,412	-13,48
888,583	17,24
888,754	29,52
888,926	-60,59
889,097	9,05
889,268	-40,11
889,44	-62,63
889,611	-19,63
889,782	-72,87
889,953	90,96
890,125	21,33
890,296	-74,92
890,467	52,05
890,638	-5,29
890,809	41,81
890,98	9,05
891,151	13,14
891,323	-25,77
891,494	9,05
891,665	-5,29
891,836	25,43
892,007	-9,39
892,178	-23,72
892,349	41,81
892,52	0,85
892,691	4,95
892,862	-44,2
893,032	9,05
893,203	27,48
893,374	50
893,545	33,62
893,716	9,05
893,887	11,09
894,057	-3,24
894,228	19,29
894,399	-13,48
894,57	19,29
894,74	41,81
894,911	-13,48
895,082	-105,64
895,253	-38,06
895,423	25,43
895,594	78,68
895,764	-5,29
895,935	23,38
896,106	19,29
896,276	9,05
896,447	39,76
896,617	19,29
896,788	4,95
896,958	31,57
897,129	-1,19
897,299	50
897,47	-52,39
897,64	52,05
897,81	-9,39
897,981	25,43
898,151	-17,58
898,322	-3,24
898,492	-38,06
898,662	-23,72
898,832	13,14
899,003	-19,63
899,173	33,62
899,343	39,76
899,513	-19,63
