Data from filtre580_USB4F104151__5__11-53-55-501.txt Node

Date: Wed Apr 15 11:53:55 EDT 2026
User: LaboPhy
Spectrometer: USB4F10415
Trigger mode: 4
Integration Time (sec): 5,000000E-3
Scans to average: 1
Electric dark correction enabled: true
Nonlinearity correction enabled: false
Boxcar width: 0
XAxis mode: Wavelengths
Number of Pixels in Spectrum: 3648
>>>>>Begin Spectral Data<<<<<
178,204	8,19
178,424	8,19
178,644	8,19
178,864	-71,68
179,084	-26,62
179,304	-65,54
179,524	30,72
179,744	0
179,964	0
180,184	-26,62
180,404	24,58
180,624	28,67
180,844	-43,01
181,064	16,38
181,283	55,3
181,503	-24,58
181,723	4,1
181,943	67,58
182,163	65,53
182,383	8,19
182,602	43,01
182,822	-16,38
183,042	-30,72
183,262	-16,38
183,482	12,29
183,701	2,05
183,921	59,39
184,141	-16,38
184,361	-26,62
184,58	14,34
184,8	6,14
185,02	-20,48
185,239	81,92
185,459	26,62
185,679	38,91
185,898	40,96
186,118	38,91
186,338	-26,62
186,557	-2,05
186,777	-28,67
186,997	-12,29
187,216	-100,35
187,436	69,63
187,655	-20,48
187,875	-10,24
188,095	-18,43
188,314	30,72
188,534	63,49
188,753	14,34
188,973	34,82
189,192	36,86
189,412	43,01
189,631	55,3
189,851	24,58
190,07	51,2
190,29	-16,38
190,509	-34,82
190,729	-18,43
190,948	-18,43
191,168	45,06
191,387	20,48
191,607	38,91
191,826	22,53
192,045	-26,62
192,265	43,01
192,484	47,1
192,704	51,2
192,923	28,67
193,142	-2,05
193,362	18,43
193,581	6,14
193,8	57,34
194,02	77,82
194,239	-6,14
194,458	-40,96
194,678	6,14
194,897	-47,1
195,116	18,43
195,335	-2,05
195,555	83,97
195,774	16,38
195,993	-51,2
196,212	14,34
196,432	-43,01
196,651	-28,67
196,87	57,34
197,089	24,58
197,308	30,72
197,528	-55,3
197,747	-14,34
197,966	2,05
198,185	92,16
198,404	-49,15
198,623	14,34
198,842	-8,19
199,062	24,58
199,281	40,96
199,5	-6,14
199,719	-8,19
199,938	2,05
200,157	6,14
200,376	47,1
200,595	-8,19
200,814	59,39
201,033	26,62
201,252	38,91
201,471	8,19
201,69	-40,96
201,909	-18,43
202,128	38,91
202,347	81,92
202,566	-8,19
202,785	4,1
203,004	61,44
203,223	63,49
203,442	38,91
203,661	10,24
203,879	-12,29
204,098	36,86
204,317	-98,3
204,536	24,58
204,755	-43,01
204,974	-22,53
205,193	-51,2
205,411	-18,43
205,63	49,15
205,849	-10,24
206,068	-12,29
206,287	-22,53
206,505	69,63
206,724	-6,14
206,943	67,58
207,162	30,72
207,381	28,67
207,599	-14,34
207,818	-43,01
208,037	4,1
208,255	8,19
208,474	-32,77
208,693	6,14
208,911	-22,53
209,13	-63,49
209,349	-53,25
209,567	26,62
209,786	10,24
210,005	24,58
210,223	14,34
210,442	-2,05
210,661	4,1
210,879	61,44
211,098	-18,43
211,316	30,72
211,535	-10,24
211,753	30,72
211,972	-51,2
212,191	10,24
212,409	-18,43
212,628	51,2
212,846	36,86
213,065	-12,29
213,283	26,62
213,502	-38,91
213,72	22,53
213,938	-38,91
214,157	36,86
214,375	-67,58
214,594	24,58
214,812	8,19
215,031	-8,19
215,249	-18,43
215,467	4,1
215,686	10,24
215,904	-43,01
216,122	2,05
216,341	14,34
216,559	24,58
216,778	-34,82
216,996	51,2
217,214	24,58
217,432	6,14
217,651	-96,25
217,869	26,62
218,087	-2,05
218,306	6,14
218,524	-10,24
218,742	4,1
218,96	34,82
219,179	-51,2
219,397	34,82
219,615	-34,82
219,833	-43,01
220,051	18,43
220,27	-4,1
220,488	-26,62
220,706	79,87
220,924	6,14
221,142	-8,19
221,36	6,14
221,578	34,82
221,796	30,72
222,015	-34,82
222,233	-38,91
222,451	-6,14
222,669	-26,62
222,887	12,29
223,105	-18,43
223,323	43,01
223,541	-24,58
223,759	-38,91
223,977	-2,05
224,195	14,34
224,413	-4,1
224,631	2,05
224,849	28,67
225,067	63,49
225,285	47,1
225,503	-18,43
225,721	-45,06
225,939	18,43
226,157	-10,24
226,375	18,43
226,592	-47,1
226,81	-32,77
227,028	43,01
227,246	-26,62
227,464	30,72
227,682	-32,77
227,9	-38,91
228,117	-8,19
228,335	-6,14
228,553	-2,05
228,771	-34,82
228,989	-28,67
229,206	2,05
229,424	-16,38
229,642	-2,05
229,86	-43,01
230,077	-38,91
230,295	8,19
230,513	22,53
230,731	-10,24
230,948	-6,14
231,166	-6,14
231,384	2,05
231,601	-75,77
231,819	63,49
232,037	-2,05
232,254	-18,43
232,472	-49,15
232,689	53,25
232,907	38,91
233,125	8,19
233,342	-34,82
233,56	49,15
233,777	-12,29
233,995	81,92
234,213	6,14
234,43	14,34
234,648	-32,77
234,865	-14,34
235,083	18,43
235,3	36,86
235,518	75,77
235,735	-6,14
235,953	24,58
236,17	-24,58
236,388	79,87
236,605	2,05
236,822	79,87
237,04	28,67
237,257	-16,38
237,475	-51,2
237,692	22,53
237,909	-24,58
238,127	34,82
238,344	-24,58
238,562	24,58
238,779	8,19
238,996	43,01
239,214	-12,29
239,431	63,49
239,648	-45,06
239,865	53,25
240,083	0
240,3	49,15
240,517	-14,34
240,735	92,16
240,952	18,43
241,169	-36,86
241,386	28,67
241,603	-8,19
241,821	16,38
242,038	-30,72
242,255	-2,05
242,472	-28,67
242,689	-36,86
242,907	16,38
243,124	-2,05
243,341	10,24
243,558	8,19
243,775	22,53
243,992	-26,62
244,209	38,91
244,426	8,19
244,643	14,34
244,86	6,14
245,078	63,49
245,295	20,48
245,512	-28,67
245,729	-26,62
245,946	26,62
246,163	14,34
246,38	14,34
246,597	-6,14
246,814	49,15
247,031	12,29
247,248	2,05
247,464	14,34
247,681	20,48
247,898	-14,34
248,115	-28,67
248,332	10,24
248,549	26,62
248,766	28,67
248,983	2,05
249,2	-8,19
249,417	-59,39
249,633	53,25
249,85	28,67
250,067	32,77
250,284	6,14
250,501	92,16
250,717	40,96
250,934	-102,4
251,151	14,34
251,368	43,01
251,585	100,35
251,801	10,24
252,018	-10,24
252,235	-65,54
252,451	-34,82
252,668	59,39
252,885	0
253,102	-10,24
253,318	-30,72
253,535	-47,1
253,752	2,05
253,968	-40,96
254,185	-57,34
254,401	-6,14
254,618	34,82
254,835	-36,86
255,051	-6,14
255,268	61,44
255,484	22,53
255,701	47,1
255,917	-34,82
256,134	-88,06
256,351	-2,05
256,567	-20,48
256,784	63,49
257	-53,25
257,217	16,38
257,433	10,24
257,65	-79,87
257,866	16,38
258,082	2,05
258,299	22,53
258,515	47,1
258,732	-2,05
258,948	-12,29
259,165	-51,2
259,381	32,77
259,597	-26,62
259,814	20,48
260,03	40,96
260,246	12,29
260,463	10,24
260,679	16,38
260,895	-12,29
261,112	18,43
261,328	6,14
261,544	-22,53
261,761	30,72
261,977	24,58
262,193	24,58
262,409	22,53
262,626	47,1
262,842	47,1
263,058	12,29
263,274	18,43
263,49	8,19
263,707	-6,14
263,923	40,96
264,139	10,24
264,355	30,72
264,571	40,96
264,787	32,77
265,004	57,34
265,22	-73,73
265,436	53,25
265,652	-18,43
265,868	-34,82
266,084	18,43
266,3	40,96
266,516	-77,82
266,732	-57,34
266,948	22,53
267,164	-24,58
267,38	40,96
267,596	32,77
267,812	34,82
268,028	8,19
268,244	-30,72
268,46	-47,1
268,676	79,87
268,892	24,58
269,108	-45,06
269,324	8,19
269,54	-8,19
269,756	20,48
269,972	-51,2
270,188	6,14
270,403	32,77
270,619	-18,43
270,835	24,58
271,051	38,91
271,267	26,62
271,483	38,91
271,698	-38,91
271,914	79,87
272,13	22,53
272,346	-24,58
272,562	-2,05
272,777	75,77
272,993	-8,19
273,209	-4,1
273,425	34,82
273,64	-10,24
273,856	40,96
274,072	-14,34
274,287	-16,38
274,503	-81,92
274,719	30,72
274,934	28,67
275,15	43,01
275,366	4,1
275,581	26,62
275,797	-34,82
276,012	-24,58
276,228	116,73
276,444	63,49
276,659	-69,63
276,875	-63,49
277,09	22,53
277,306	26,62
277,521	45,06
277,737	-40,96
277,952	10,24
278,168	59,39
278,383	100,35
278,599	-18,43
278,814	32,77
279,03	-34,82
279,245	55,3
279,461	-36,86
279,676	49,15
279,892	16,38
280,107	-43,01
280,322	-43,01
280,538	14,34
280,753	-30,72
280,969	2,05
281,184	-57,34
281,399	-43,01
281,615	-24,58
281,83	71,68
282,045	0
282,26	49,15
282,476	-32,77
282,691	20,48
282,906	30,72
283,122	38,91
283,337	-18,43
283,552	38,91
283,767	-14,34
283,983	38,91
284,198	-26,62
284,413	22,53
284,628	65,53
284,843	-30,72
285,058	20,48
285,274	16,38
285,489	77,82
285,704	65,53
285,919	-26,62
286,134	18,43
286,349	-10,24
286,564	40,96
286,779	-22,53
286,995	34,82
287,21	-10,24
287,425	22,53
287,64	20,48
287,855	-28,67
288,07	28,67
288,285	-16,38
288,5	4,1
288,715	63,49
288,93	30,72
289,145	45,06
289,36	-8,19
289,575	2,05
289,79	-51,2
290,004	26,62
290,219	40,96
290,434	4,1
290,649	47,1
290,864	59,39
291,079	30,72
291,294	6,14
291,509	-34,82
291,724	26,62
291,938	-51,2
292,153	-10,24
292,368	-40,96
292,583	47,1
292,798	71,68
293,012	53,25
293,227	40,96
293,442	6,14
293,657	22,53
293,871	34,82
294,086	-43,01
294,301	-2,05
294,516	-43,01
294,73	43,01
294,945	-18,43
295,16	38,91
295,374	-16,38
295,589	-14,34
295,804	-28,67
296,018	-16,38
296,233	38,91
296,447	43,01
296,662	0
296,877	12,29
297,091	-26,62
297,306	34,82
297,52	2,05
297,735	-16,38
297,949	43,01
298,164	-8,19
298,378	24,58
298,593	-18,43
298,807	-51,2
299,022	-34,82
299,236	-81,92
299,451	-18,43
299,665	-65,54
299,88	-55,3
300,094	22,53
300,309	-2,05
300,523	24,58
300,737	38,91
300,952	55,3
301,166	36,86
301,381	-14,34
301,595	28,67
301,809	34,82
302,024	6,14
302,238	26,62
302,452	6,14
302,667	6,14
302,881	16,38
303,095	-59,39
303,309	6,14
303,524	32,77
303,738	-20,48
303,952	26,62
304,166	30,72
304,381	59,39
304,595	43,01
304,809	32,77
305,023	-2,05
305,237	12,29
305,452	-12,29
305,666	-16,38
305,88	-10,24
306,094	-30,72
306,308	-18,43
306,522	-26,62
306,736	6,14
306,95	34,82
307,164	73,73
307,379	-16,38
307,593	24,58
307,807	14,34
308,021	10,24
308,235	6,14
308,449	30,72
308,663	-49,15
308,877	2,05
309,091	-77,82
309,305	-40,96
309,519	18,43
309,733	6,14
309,947	34,82
310,161	16,38
310,374	-6,14
310,588	-32,77
310,802	-45,06
311,016	-32,77
311,23	-16,38
311,444	51,2
311,658	57,34
311,872	-22,53
312,085	0
312,299	20,48
312,513	-26,62
312,727	24,58
312,941	-18,43
313,154	51,2
313,368	-34,82
313,582	38,91
313,796	-16,38
314,009	-14,34
314,223	2,05
314,437	4,1
314,651	-38,91
314,864	47,1
315,078	6,14
315,292	-4,1
315,505	-24,58
315,719	90,11
315,933	-34,82
316,146	77,82
316,36	-22,53
316,573	10,24
316,787	0
317,001	40,96
317,214	-26,62
317,428	10,24
317,641	38,91
317,855	-4,1
318,068	-14,34
318,282	10,24
318,495	22,53
318,709	43,01
318,922	36,86
319,136	-12,29
319,349	81,92
319,563	-51,2
319,776	47,1
319,99	6,14
320,203	26,62
320,417	81,92
320,63	-8,19
320,843	-45,06
321,057	75,77
321,27	16,38
321,483	-2,05
321,697	28,67
321,91	-2,05
322,124	43,01
322,337	8,19
322,55	-2,05
322,763	24,58
322,977	40,96
323,19	24,58
323,403	6,14
323,617	28,67
323,83	14,34
324,043	4,1
324,256	-26,62
324,469	47,1
324,683	16,38
324,896	-32,77
325,109	-26,62
325,322	-26,62
325,535	38,91
325,748	-8,19
325,962	-24,58
326,175	-10,24
326,388	47,1
326,601	-18,43
326,814	26,62
327,027	-6,14
327,24	-16,38
327,453	-40,96
327,666	-53,25
327,879	-40,96
328,092	49,15
328,305	-43,01
328,518	-6,14
328,731	2,05
328,944	16,38
329,157	36,86
329,37	4,1
329,583	71,68
329,796	-4,1
330,009	2,05
330,222	26,62
330,435	100,35
330,648	-53,25
330,861	-67,58
331,073	-59,39
331,286	-43,01
331,499	6,14
331,712	4,1
331,925	-12,29
332,138	36,86
332,35	0
332,563	0
332,776	-51,2
332,989	28,67
333,202	22,53
333,414	-59,39
333,627	18,43
333,84	4,1
334,053	94,21
334,265	10,24
334,478	-38,91
334,691	32,77
334,903	-12,29
335,116	-16,38
335,329	51,2
335,541	47,1
335,754	77,82
335,966	-36,86
336,179	-22,53
336,392	-40,96
336,604	-36,86
336,817	45,06
337,029	-26,62
337,242	-10,24
337,454	57,34
337,667	6,14
337,88	-59,39
338,092	38,91
338,305	-12,29
338,517	38,91
338,729	47,1
338,942	16,38
339,154	16,38
339,367	-55,3
339,579	0
339,792	-22,53
340,004	0
340,217	-59,39
340,429	4,1
340,641	-20,48
340,854	-6,14
341,066	-8,19
341,278	-75,77
341,491	-55,3
341,703	22,53
341,915	16,38
342,128	8,19
342,34	-36,86
342,552	8,19
342,764	-8,19
342,977	-2,05
343,189	38,91
343,401	-28,67
343,613	-8,19
343,826	40,96
344,038	-38,91
344,25	32,77
344,462	-24,58
344,674	-12,29
344,886	-34,82
345,099	40,96
345,311	53,25
345,523	2,05
345,735	77,82
345,947	18,43
346,159	-116,73
346,371	-20,48
346,583	38,91
346,795	16,38
347,007	-16,38
347,219	-18,43
347,431	32,77
347,643	40,96
347,855	18,43
348,067	6,14
348,279	-65,54
348,491	22,53
348,703	30,72
348,915	-24,58
349,127	-8,19
349,339	-22,53
349,551	2,05
349,763	-18,43
349,975	-4,1
350,187	6,14
350,399	14,34
350,61	0
350,822	10,24
351,034	6,14
351,246	14,34
351,458	-12,29
351,669	34,82
351,881	-8,19
352,093	-4,1
352,305	79,87
352,517	-36,86
352,728	34,82
352,94	-4,1
353,152	30,72
353,363	45,06
353,575	6,14
353,787	61,44
353,999	22,53
354,21	38,91
354,422	0
354,633	-73,73
354,845	-53,25
355,057	-12,29
355,268	22,53
355,48	-53,25
355,692	-22,53
355,903	-40,96
356,115	-47,1
356,326	-28,67
356,538	26,62
356,749	36,86
356,961	-14,34
357,172	2,05
357,384	0
357,595	12,29
357,807	-67,58
358,018	10,24
358,23	32,77
358,441	-2,05
358,653	-8,19
358,864	32,77
359,075	45,06
359,287	-65,54
359,498	-30,72
359,709	47,1
359,921	18,43
360,132	-4,1
360,344	12,29
360,555	-6,14
360,766	22,53
360,977	-59,39
361,189	67,58
361,4	-18,43
361,611	-14,34
361,823	10,24
362,034	20,48
362,245	63,49
362,456	77,82
362,667	6,14
362,879	57,34
363,09	4,1
363,301	26,62
363,512	86,01
363,723	49,15
363,935	30,72
364,146	55,3
364,357	-32,77
364,568	-20,48
364,779	81,92
364,99	63,49
365,201	-10,24
365,412	38,91
365,623	16,38
365,834	-43,01
366,045	-8,19
366,256	38,91
366,467	-28,67
366,678	40,96
366,889	26,62
367,1	30,72
367,311	30,72
367,522	-63,49
367,733	47,1
367,944	4,1
368,155	0
368,366	10,24
368,577	34,82
368,788	34,82
368,999	36,86
369,209	28,67
369,42	83,97
369,631	-12,29
369,842	-16,38
370,053	30,72
370,264	38,91
370,474	36,86
370,685	-18,43
370,896	-32,77
371,107	34,82
371,317	12,29
371,528	-36,86
371,739	32,77
371,95	24,58
372,16	63,49
372,371	30,72
372,582	14,34
372,792	-34,82
373,003	26,62
373,214	47,1
373,424	73,73
373,635	-40,96
373,846	55,3
374,056	18,43
374,267	-16,38
374,477	0
374,688	40,96
374,898	-6,14
375,109	-4,1
375,319	8,19
375,53	18,43
375,74	-18,43
375,951	47,1
376,161	0
376,372	10,24
376,582	-34,82
376,793	10,24
377,003	63,49
377,214	47,1
377,424	45,06
377,635	-22,53
377,845	34,82
378,055	71,68
378,266	2,05
378,476	55,3
378,686	30,72
378,897	-14,34
379,107	-32,77
379,317	-49,15
379,528	49,15
379,738	10,24
379,948	38,91
380,158	71,68
380,369	24,58
380,579	16,38
380,789	0
380,999	88,06
381,21	0
381,42	-14,34
381,63	38,91
381,84	-6,14
382,05	98,3
382,261	88,06
382,471	22,53
382,681	-20,48
382,891	16,38
383,101	16,38
383,311	-28,67
383,521	-65,54
383,731	53,25
383,941	-30,72
384,151	-28,67
384,361	-10,24
384,571	24,58
384,781	-22,53
384,991	53,25
385,201	18,43
385,411	69,63
385,621	-45,06
385,831	57,34
386,041	-40,96
386,251	-28,67
386,461	16,38
386,671	51,2
386,881	40,96
387,091	-18,43
387,301	55,3
387,511	-16,38
387,72	-34,82
387,93	47,1
388,14	-40,96
388,35	51,2
388,56	8,19
388,769	-55,3
388,979	12,29
389,189	-10,24
389,399	34,82
389,609	36,86
389,818	-14,34
390,028	6,14
390,238	98,3
390,447	30,72
390,657	30,72
390,867	71,68
391,076	-14,34
391,286	47,1
391,496	-40,96
391,705	8,19
391,915	14,34
392,125	28,67
392,334	51,2
392,544	-2,05
392,753	-30,72
392,963	65,53
393,172	26,62
393,382	32,77
393,591	6,14
393,801	16,38
394,01	36,86
394,22	30,72
394,429	-22,53
394,639	32,77
394,848	51,2
395,058	2,05
395,267	122,88
395,477	14,34
395,686	51,2
395,895	59,39
396,105	18,43
396,314	18,43
396,524	79,87
396,733	18,43
396,942	38,91
397,152	-8,19
397,361	63,49
397,57	-4,1
397,78	-18,43
397,989	59,39
398,198	57,34
398,407	-22,53
398,617	0
398,826	-16,38
399,035	-18,43
399,244	24,58
399,453	-20,48
399,663	63,49
399,872	18,43
400,081	12,29
400,29	-20,48
400,499	-8,19
400,708	-14,34
400,917	122,88
401,127	59,39
401,336	49,15
401,545	0
401,754	12,29
401,963	36,86
402,172	20,48
402,381	26,62
402,59	75,77
402,799	-40,96
403,008	55,3
403,217	47,1
403,426	26,62
403,635	63,49
403,844	4,1
404,053	14,34
404,262	30,72
404,471	-14,34
404,68	-10,24
404,888	34,82
405,097	51,2
405,306	28,67
405,515	16,38
405,724	-16,38
405,933	-18,43
406,142	34,82
406,35	-6,14
406,559	30,72
406,768	26,62
406,977	108,54
407,185	14,34
407,394	-43,01
407,603	-49,15
407,812	-51,2
408,02	-55,3
408,229	-77,82
408,438	6,14
408,646	-22,53
408,855	0
409,064	-6,14
409,272	8,19
409,481	2,05
409,69	16,38
409,898	49,15
410,107	-32,77
410,315	2,05
410,524	16,38
410,733	-32,77
410,941	-6,14
411,15	34,82
411,358	-40,96
411,567	28,67
411,775	59,39
411,984	2,05
412,192	-32,77
412,401	0
412,609	-32,77
412,818	-10,24
413,026	22,53
413,234	-10,24
413,443	14,34
413,651	36,86
413,86	-2,05
414,068	6,14
414,276	12,29
414,485	26,62
414,693	47,1
414,901	81,92
415,11	-8,19
415,318	-10,24
415,526	40,96
415,734	49,15
415,943	-38,91
416,151	61,44
416,359	28,67
416,567	51,2
416,776	-43,01
416,984	14,34
417,192	24,58
417,4	40,96
417,608	-94,21
417,817	34,82
418,025	26,62
418,233	-24,58
418,441	-20,48
418,649	6,14
418,857	-18,43
419,065	4,1
419,273	4,1
419,481	18,43
419,689	-18,43
419,897	34,82
420,105	-10,24
420,313	43,01
420,521	0
420,729	63,49
420,937	53,25
421,145	-2,05
421,353	63,49
421,561	-2,05
421,769	14,34
421,977	55,3
422,185	-14,34
422,393	30,72
422,601	18,43
422,809	-10,24
423,017	-32,77
423,224	-12,29
423,432	-8,19
423,64	2,05
423,848	-51,2
424,056	10,24
424,263	-57,34
424,471	24,58
424,679	-43,01
424,887	8,19
425,094	-40,96
425,302	-16,38
425,51	-26,62
425,718	10,24
425,925	-34,82
426,133	-51,2
426,341	-22,53
426,548	-2,05
426,756	-2,05
426,964	-65,54
427,171	-10,24
427,379	26,62
427,586	51,2
427,794	8,19
428,001	16,38
428,209	-14,34
428,417	-30,72
428,624	28,67
428,832	83,97
429,039	16,38
429,247	43,01
429,454	38,91
429,662	12,29
429,869	26,62
430,076	12,29
430,284	-63,49
430,491	4,1
430,699	-2,05
430,906	14,34
431,114	8,19
431,321	28,67
431,528	-10,24
431,736	8,19
431,943	71,68
432,15	14,34
432,358	57,34
432,565	4,1
432,772	18,43
432,979	-77,82
433,187	-32,77
433,394	-4,1
433,601	34,82
433,808	63,49
434,016	2,05
434,223	6,14
434,43	14,34
434,637	47,1
434,844	-6,14
435,052	-32,77
435,259	30,72
435,466	-26,62
435,673	10,24
435,88	-24,58
436,087	-38,91
436,294	-6,14
436,501	-16,38
436,708	-26,62
436,915	51,2
437,122	-51,2
437,329	-30,72
437,537	-14,34
437,743	-2,05
437,95	-8,19
438,157	22,53
438,364	-26,62
438,571	10,24
438,778	6,14
438,985	83,97
439,192	-14,34
439,399	55,3
439,606	-36,86
439,813	-8,19
440,02	38,91
440,227	-2,05
440,433	12,29
440,64	-8,19
440,847	-16,38
441,054	81,92
441,261	22,53
441,467	-18,43
441,674	-24,58
441,881	-20,48
442,088	-18,43
442,294	65,53
442,501	36,86
442,708	-6,14
442,914	65,53
443,121	38,91
443,328	-32,77
443,534	20,48
443,741	28,67
443,948	30,72
444,154	-47,1
444,361	0
444,568	-63,49
444,774	26,62
444,981	18,43
445,187	-49,15
445,394	-43,01
445,6	32,77
445,807	-55,3
446,013	30,72
446,22	0
446,426	-2,05
446,633	24,58
446,839	47,1
447,046	79,87
447,252	10,24
447,459	38,91
447,665	2,05
447,871	30,72
448,078	51,2
448,284	-4,1
448,491	20,48
448,697	20,48
448,903	26,62
449,11	45,06
449,316	8,19
449,522	-16,38
449,728	63,49
449,935	18,43
450,141	6,14
450,347	0
450,553	-30,72
450,76	8,19
450,966	6,14
451,172	30,72
451,378	47,1
451,584	16,38
451,791	18,43
451,997	49,15
452,203	-16,38
452,409	8,19
452,615	98,3
452,821	47,1
453,027	-59,39
453,233	-79,87
453,44	10,24
453,646	-43,01
453,852	-22,53
454,058	0
454,264	30,72
454,47	-18,43
454,676	-51,2
454,882	-6,14
455,088	-40,96
455,294	-8,19
455,5	26,62
455,705	-10,24
455,911	-34,82
456,117	-10,24
456,323	-2,05
456,529	-10,24
456,735	0
456,941	22,53
457,147	-12,29
457,352	34,82
457,558	10,24
457,764	55,3
457,97	40,96
458,176	-6,14
458,381	-36,86
458,587	14,34
458,793	-8,19
458,999	-2,05
459,204	-2,05
459,41	-45,06
459,616	38,91
459,821	-61,44
460,027	43,01
460,233	-36,86
460,438	-4,1
460,644	-6,14
460,85	-8,19
461,055	-24,58
461,261	-10,24
461,466	20,48
461,672	-81,92
461,878	4,1
462,083	-43,01
462,289	-67,58
462,494	6,14
462,7	67,58
462,905	32,77
463,111	-100,35
463,316	47,1
463,522	14,34
463,727	55,3
463,932	30,72
464,138	6,14
464,343	-26,62
464,549	55,3
464,754	8,19
464,959	-10,24
465,165	-10,24
465,37	36,86
465,575	-51,2
465,781	4,1
465,986	28,67
466,191	2,05
466,397	14,34
466,602	49,15
466,807	-18,43
467,012	65,53
467,218	-2,05
467,423	55,3
467,628	14,34
467,833	10,24
468,038	-34,82
468,244	-18,43
468,449	-38,91
468,654	-34,82
468,859	59,39
469,064	-34,82
469,269	-18,43
469,474	43,01
469,679	32,77
469,885	-30,72
470,09	-36,86
470,295	2,05
470,5	10,24
470,705	-28,67
470,91	-40,96
471,115	-43,01
471,32	73,73
471,525	36,86
471,73	32,77
471,935	-22,53
472,139	32,77
472,344	-59,39
472,549	-30,72
472,754	47,1
472,959	0
473,164	6,14
473,369	0
473,574	0
473,778	-57,34
473,983	49,15
474,188	-49,15
474,393	22,53
474,598	53,25
474,802	10,24
475,007	-8,19
475,212	14,34
475,417	16,38
475,621	10,24
475,826	20,48
476,031	40,96
476,235	16,38
476,44	-63,49
476,645	40,96
476,849	20,48
477,054	16,38
477,259	16,38
477,463	43,01
477,668	26,62
477,872	-12,29
478,077	6,14
478,282	55,3
478,486	14,34
478,691	34,82
478,895	47,1
479,1	-14,34
479,304	10,24
479,509	-38,91
479,713	0
479,918	43,01
480,122	18,43
480,326	24,58
480,531	-10,24
480,735	10,24
480,94	6,14
481,144	-32,77
481,348	-16,38
481,553	0
481,757	30,72
481,961	0
482,166	47,1
482,37	22,53
482,574	24,58
482,778	-34,82
482,983	73,73
483,187	12,29
483,391	81,92
483,595	-6,14
483,8	-30,72
484,004	10,24
484,208	-2,05
484,412	-2,05
484,616	65,53
484,821	32,77
485,025	6,14
485,229	6,14
485,433	-2,05
485,637	73,73
485,841	16,38
486,045	26,62
486,249	26,62
486,453	-38,91
486,657	26,62
486,861	79,87
487,065	-55,3
487,269	0
487,473	-16,38
487,677	16,38
487,881	0
488,085	-30,72
488,289	30,72
488,493	-34,82
488,697	20,48
488,901	2,05
489,105	8,19
489,309	-24,58
489,512	-40,96
489,716	20,48
489,92	32,77
490,124	-14,34
490,328	-10,24
490,531	-43,01
490,735	26,62
490,939	-2,05
491,143	-18,43
491,346	6,14
491,55	73,73
491,754	-34,82
491,958	-26,62
492,161	-2,05
492,365	18,43
492,569	34,82
492,772	49,15
492,976	34,82
493,18	55,3
493,383	-59,39
493,587	-20,48
493,79	-10,24
493,994	16,38
494,197	18,43
494,401	-30,72
494,605	16,38
494,808	65,53
495,012	2,05
495,215	24,58
495,419	26,62
495,622	22,53
495,825	-4,1
496,029	34,82
496,232	32,77
496,436	32,77
496,639	-22,53
496,843	-12,29
497,046	-38,91
497,249	-16,38
497,453	-18,43
497,656	79,87
497,859	10,24
498,063	28,67
498,266	14,34
498,469	30,72
498,673	-40,96
498,876	-8,19
499,079	10,24
499,282	14,34
499,485	43,01
499,689	43,01
499,892	30,72
500,095	8,19
500,298	55,3
500,501	147,45
500,705	6,14
500,908	45,06
501,111	8,19
501,314	20,48
501,517	6,14
501,72	61,44
501,923	26,62
502,126	26,62
502,329	-40,96
502,532	30,72
502,735	59,39
502,938	6,14
503,141	34,82
503,344	-8,19
503,547	47,1
503,75	-34,82
503,953	-36,86
504,156	79,87
504,359	-30,72
504,562	-22,53
504,765	36,86
504,968	-10,24
505,17	-24,58
505,373	-26,62
505,576	-71,68
505,779	6,14
505,982	14,34
506,185	79,87
506,387	18,43
506,59	-10,24
506,793	-59,39
506,996	61,44
507,198	6,14
507,401	30,72
507,604	2,05
507,807	36,86
508,009	30,72
508,212	96,25
508,415	16,38
508,617	0
508,82	16,38
509,022	18,43
509,225	61,44
509,428	30,72
509,63	4,1
509,833	-6,14
510,035	-10,24
510,238	-12,29
510,44	14,34
510,643	10,24
510,845	-22,53
511,048	61,44
511,25	-16,38
511,453	96,25
511,655	-8,19
511,858	30,72
512,06	12,29
512,262	63,49
512,465	-10,24
512,667	69,63
512,87	0
513,072	6,14
513,274	38,91
513,477	114,69
513,679	-6,14
513,881	32,77
514,084	-2,05
514,286	20,48
514,488	43,01
514,69	-43,01
514,893	-32,77
515,095	32,77
515,297	-38,91
515,499	-18,43
515,701	4,1
515,904	32,77
516,106	-55,3
516,308	73,73
516,51	36,86
516,712	14,34
516,914	40,96
517,116	-10,24
517,318	30,72
517,52	-4,1
517,722	6,14
517,925	96,25
518,127	63,49
518,329	12,29
518,531	20,48
518,733	43,01
518,935	28,67
519,136	-22,53
519,338	-16,38
519,54	40,96
519,742	10,24
519,944	83,97
520,146	-18,43
520,348	30,72
520,55	-14,34
520,752	14,34
520,954	14,34
521,155	47,1
521,357	-2,05
521,559	-59,39
521,761	10,24
521,963	-38,91
522,164	51,2
522,366	57,34
522,568	47,1
522,77	2,05
522,971	36,86
523,173	-88,06
523,375	14,34
523,576	69,63
523,778	-55,3
523,98	26,62
524,181	6,14
524,383	24,58
524,584	-4,1
524,786	49,15
524,988	73,73
525,189	14,34
525,391	8,19
525,592	-34,82
525,794	-24,58
525,995	10,24
526,197	-30,72
526,398	47,1
526,6	-43,01
526,801	32,77
527,003	75,77
527,204	-6,14
527,406	8,19
527,607	-34,82
527,808	40,96
528,01	2,05
528,211	-53,25
528,412	49,15
528,614	-34,82
528,815	73,73
529,016	-43,01
529,218	26,62
529,419	38,91
529,62	53,25
529,822	-18,43
530,023	-8,19
530,224	-14,34
530,425	-8,19
530,626	-49,15
530,828	30,72
531,029	12,29
531,23	55,3
531,431	-12,29
531,632	51,2
531,833	-12,29
532,035	-6,14
532,236	51,2
532,437	14,34
532,638	12,29
532,839	-22,53
533,04	-59,39
533,241	-8,19
533,442	38,91
533,643	16,38
533,844	67,58
534,045	-10,24
534,246	8,19
534,447	59,39
534,648	-12,29
534,849	-24,58
535,05	-2,05
535,251	-32,77
535,451	28,67
535,652	10,24
535,853	-32,77
536,054	36,86
536,255	36,86
536,456	36,86
536,657	14,34
536,857	4,1
537,058	14,34
537,259	10,24
537,46	30,72
537,66	16,38
537,861	47,1
538,062	-10,24
538,263	8,19
538,463	79,87
538,664	32,77
538,865	51,2
539,065	-18,43
539,266	-2,05
539,466	-30,72
539,667	-6,14
539,868	30,72
540,068	-22,53
540,269	16,38
540,469	14,34
540,67	-16,38
540,87	18,43
541,071	45,06
541,271	4,1
541,472	-24,58
541,672	57,34
541,873	-32,77
542,073	-2,05
542,274	-6,14
542,474	-2,05
542,675	6,14
542,875	-30,72
543,075	38,91
543,276	2,05
543,476	-18,43
543,676	6,14
543,877	55,3
544,077	47,1
544,277	96,25
544,478	18,43
544,678	16,38
544,878	30,72
545,078	-36,86
545,279	-2,05
545,479	-49,15
545,679	0
545,879	18,43
546,079	67,58
546,28	10,24
546,48	0
546,68	47,1
546,88	-65,54
547,08	30,72
547,28	-6,14
547,48	24,58
547,68	43,01
547,88	45,06
548,081	14,34
548,281	28,67
548,481	100,35
548,681	-6,14
548,881	-6,14
549,081	-71,68
549,28	88,06
549,48	40,96
549,68	133,12
549,88	40,96
550,08	100,35
550,28	16,38
550,48	-30,72
550,68	32,77
550,88	18,43
551,08	71,68
551,279	86,01
551,479	-4,1
551,679	53,25
551,879	4,1
552,079	4,1
552,278	28,67
552,478	-36,86
552,678	79,87
552,878	40,96
553,077	40,96
553,277	34,82
553,477	-10,24
553,676	71,68
553,876	49,15
554,076	30,72
554,275	10,24
554,475	71,68
554,674	-14,34
554,874	0
555,074	32,77
555,273	-2,05
555,473	34,82
555,672	-26,62
555,872	18,43
556,071	32,77
556,271	30,72
556,47	51,2
556,67	-18,43
556,869	10,24
557,068	59,39
557,268	55,3
557,467	30,72
557,667	55,3
557,866	45,06
558,065	18,43
558,265	79,87
558,464	77,82
558,663	43,01
558,863	-34,82
559,062	79,87
559,261	57,34
559,461	51,2
559,66	49,15
559,859	22,53
560,058	10,24
560,258	49,15
560,457	30,72
560,656	10,24
560,855	131,07
561,054	24,58
561,253	79,87
561,453	-65,54
561,652	47,1
561,851	36,86
562,05	47,1
562,249	90,11
562,448	100,35
562,647	0
562,846	79,87
563,045	75,77
563,244	63,49
563,443	75,77
563,642	34,82
563,841	43,01
564,04	6,14
564,239	63,49
564,438	86,01
564,637	92,16
564,836	47,1
565,035	114,69
565,234	32,77
565,432	116,73
565,631	81,92
565,83	92,16
566,029	69,63
566,228	59,39
566,427	96,25
566,625	10,24
566,824	-24,58
567,023	65,53
567,222	133,12
567,42	108,54
567,619	92,16
567,818	96,25
568,016	118,78
568,215	92,16
568,414	129,02
568,612	133,12
568,811	145,41
569,01	122,88
569,208	116,73
569,407	186,37
569,605	221,18
569,804	215,04
570,002	233,47
570,201	286,72
570,4	278,52
570,598	274,43
570,797	342,01
570,995	362,49
571,193	507,9
571,392	540,66
571,59	628,73
571,789	630,77
571,987	720,88
572,186	892,91
572,384	1048,56
572,582	1095,66
572,781	1390,57
572,979	1427,43
573,177	1816,55
573,376	2080,74
573,574	2525,15
573,772	2965,46
573,971	3561,42
574,169	4130,75
574,367	5070,77
574,565	6307,74
574,763	7856,01
574,962	9451,38
575,16	11329,36
575,358	13336,37
575,556	15775,5
575,754	19183,32
575,952	22003,38
576,151	26068,59
576,349	29707,83
576,547	33660,41
576,745	36924,88
576,943	39996,83
577,141	43167,09
577,339	46046,53
577,537	48121,12
577,735	49845,51
577,933	51414,26
578,131	53036,25
578,329	53337,3
578,527	53939,4
578,725	55145,65
578,923	55610,54
579,121	55927,98
579,319	56540,32
579,516	57064,6
579,714	57910,41
579,912	57775,25
580,11	58274,95
580,308	58428,55
580,506	59364,47
580,704	58739,84
580,901	59810,93
581,099	59866,22
581,297	59579,51
581,495	59767,92
581,692	60546,15
581,89	60017,77
582,088	60898,4
582,285	60413,03
582,483	60982,37
582,681	60910,69
582,878	59919,47
583,076	60206,19
583,274	60367,97
583,471	58543,23
583,669	58068,11
583,866	56161,45
584,064	54559,94
584,262	51690,73
584,459	49503,5
584,657	45806,92
584,854	42689,91
585,052	38690,23
585,249	35200,49
585,447	31301,15
585,644	27307,62
585,841	24049,3
586,039	20905,67
586,236	18013,93
586,434	15376,15
586,631	13240,12
586,828	11272,02
587,026	9551,73
587,223	8091,52
587,42	6844,31
587,618	5834,66
587,815	4960,18
588,012	4198,34
588,21	3651,53
588,407	3078,1
588,604	2639,83
588,801	2181,09
588,999	2017,25
589,196	1589,22
589,393	1413,1
589,59	1269,74
589,787	1091,57
589,984	899,06
590,182	960,5
590,379	753,65
590,576	698,36
590,773	507,9
590,97	505,85
591,167	509,94
591,364	440,31
591,561	382,97
591,758	374,78
591,955	366,59
592,152	319,48
592,349	288,76
592,546	208,89
592,743	278,52
592,94	208,89
593,137	219,13
593,334	190,46
593,531	106,49
593,727	184,32
593,924	212,99
594,121	233,47
594,318	75,77
594,515	114,69
594,712	133,12
594,908	98,3
595,105	104,45
595,302	92,16
595,499	94,21
595,696	104,45
595,892	122,88
596,089	79,87
596,286	6,14
596,482	139,26
596,679	69,63
596,876	24,58
597,072	100,35
597,269	110,59
597,466	118,78
597,662	40,96
597,859	40,96
598,055	34,82
598,252	102,4
598,448	90,11
598,645	65,53
598,841	40,96
599,038	75,77
599,234	32,77
599,431	88,06
599,627	40,96
599,824	63,49
600,02	43,01
600,217	112,64
600,413	43,01
600,609	45,06
600,806	102,4
601,002	24,58
601,198	88,06
601,395	8,19
601,591	100,35
601,787	24,58
601,984	77,82
602,18	20,48
602,376	47,1
602,572	38,91
602,769	-14,34
602,965	-51,2
603,161	55,3
603,357	-6,14
603,553	59,39
603,75	71,68
603,946	22,53
604,142	14,34
604,338	12,29
604,534	8,19
604,73	45,06
604,926	40,96
605,122	-16,38
605,318	26,62
605,514	63,49
605,71	-22,53
605,906	-4,1
606,102	51,2
606,298	16,38
606,494	22,53
606,69	32,77
606,886	77,82
607,082	47,1
607,278	24,58
607,474	-16,38
607,67	-30,72
607,866	-4,1
608,062	6,14
608,257	-8,19
608,453	30,72
608,649	24,58
608,845	28,67
609,041	24,58
609,236	90,11
609,432	26,62
609,628	30,72
609,824	49,15
610,019	4,1
610,215	-10,24
610,411	12,29
610,606	53,25
610,802	53,25
610,998	-16,38
611,193	-24,58
611,389	71,68
611,584	59,39
611,78	0
611,976	55,3
612,171	-30,72
612,367	45,06
612,562	47,1
612,758	28,67
612,953	-12,29
613,149	8,19
613,344	-8,19
613,539	-8,19
613,735	0
613,93	-14,34
614,126	10,24
614,321	55,3
614,517	-2,05
614,712	45,06
614,907	12,29
615,103	63,49
615,298	8,19
615,493	2,05
615,688	49,15
615,884	2,05
616,079	55,3
616,274	38,91
616,47	-32,77
616,665	-18,43
616,86	45,06
617,055	20,48
617,25	-40,96
617,445	-47,1
617,641	-32,77
617,836	14,34
618,031	10,24
618,226	83,97
618,421	2,05
618,616	24,58
618,811	55,3
619,006	14,34
619,201	79,87
619,396	4,1
619,591	40,96
619,786	-16,38
619,981	53,25
620,176	20,48
620,371	71,68
620,566	40,96
620,761	-4,1
620,956	86,01
621,151	6,14
621,346	-49,15
621,541	16,38
621,735	-45,06
621,93	38,91
622,125	30,72
622,32	-32,77
622,515	14,34
622,709	38,91
622,904	6,14
623,099	59,39
623,294	67,58
623,488	63,49
623,683	40,96
623,878	24,58
624,072	-24,58
624,267	14,34
624,462	-51,2
624,656	30,72
624,851	-65,54
625,046	20,48
625,24	18,43
625,435	102,4
625,629	16,38
625,824	94,21
626,018	22,53
626,213	10,24
626,407	-2,05
626,602	-10,24
626,796	12,29
626,991	18,43
627,185	22,53
627,38	-8,19
627,574	14,34
627,768	32,77
627,963	0
628,157	2,05
628,352	-30,72
628,546	0
628,74	-8,19
628,935	12,29
629,129	10,24
629,323	6,14
629,517	-22,53
629,712	8,19
629,906	36,86
630,1	2,05
630,294	-81,92
630,489	-6,14
630,683	32,77
630,877	-14,34
631,071	26,62
631,265	36,86
631,459	61,44
631,653	-71,68
631,848	-10,24
632,042	63,49
632,236	53,25
632,43	57,34
632,624	32,77
632,818	-14,34
633,012	34,82
633,206	26,62
633,4	-57,34
633,594	65,53
633,788	67,58
633,982	-16,38
634,176	94,21
634,369	30,72
634,563	26,62
634,757	-8,19
634,951	28,67
635,145	-8,19
635,339	22,53
635,533	-18,43
635,726	-6,14
635,92	57,34
636,114	34,82
636,308	8,19
636,501	-22,53
636,695	51,2
636,889	12,29
637,083	16,38
637,276	-36,86
637,47	-18,43
637,664	-6,14
637,857	90,11
638,051	-34,82
638,244	-30,72
638,438	6,14
638,632	8,19
638,825	-16,38
639,019	71,68
639,212	18,43
639,406	-8,19
639,599	4,1
639,793	47,1
639,986	-26,62
640,18	10,24
640,373	30,72
640,567	-34,82
640,76	-38,91
640,954	14,34
641,147	14,34
641,34	43,01
641,534	0
641,727	40,96
641,92	18,43
642,114	14,34
642,307	49,15
642,5	75,77
642,694	45,06
642,887	-49,15
643,08	12,29
643,273	16,38
643,467	-32,77
643,66	47,1
643,853	-16,38
644,046	118,78
644,239	-6,14
644,432	47,1
644,626	-26,62
644,819	20,48
645,012	-40,96
645,205	-24,58
645,398	6,14
645,591	24,58
645,784	40,96
645,977	22,53
646,17	-16,38
646,363	-4,1
646,556	47,1
646,749	0
646,942	14,34
647,135	18,43
647,328	-34,82
647,521	53,25
647,714	0
647,907	38,91
648,099	-14,34
648,292	71,68
648,485	14,34
648,678	-32,77
648,871	38,91
649,064	0
649,256	36,86
649,449	-6,14
649,642	30,72
649,835	16,38
650,027	-57,34
650,22	65,53
650,413	-2,05
650,605	40,96
650,798	49,15
650,991	2,05
651,183	-65,54
651,376	20,48
651,568	49,15
651,761	51,2
651,954	18,43
652,146	-22,53
652,339	-14,34
652,531	-26,62
652,724	32,77
652,916	16,38
653,109	-100,35
653,301	30,72
653,494	-26,62
653,686	24,58
653,879	-20,48
654,071	28,67
654,263	8,19
654,456	-8,19
654,648	8,19
654,84	47,1
655,033	-4,1
655,225	30,72
655,417	-47,1
655,61	4,1
655,802	49,15
655,994	16,38
656,186	-26,62
656,379	73,73
656,571	-14,34
656,763	30,72
656,955	-8,19
657,148	14,34
657,34	-6,14
657,532	6,14
657,724	-22,53
657,916	30,72
658,108	63,49
658,3	6,14
658,492	26,62
658,684	-6,14
658,876	6,14
659,068	53,25
659,26	12,29
659,452	47,1
659,644	16,38
659,836	69,63
660,028	-34,82
660,22	-22,53
660,412	32,77
660,604	49,15
660,796	49,15
660,988	6,14
661,18	16,38
661,372	73,73
661,563	-47,1
661,755	16,38
661,947	45,06
662,139	47,1
662,331	-4,1
662,522	-2,05
662,714	-20,48
662,906	59,39
663,097	10,24
663,289	-12,29
663,481	14,34
663,673	6,14
663,864	16,38
664,056	12,29
664,247	30,72
664,439	-34,82
664,631	-26,62
664,822	120,83
665,014	-10,24
665,205	-16,38
665,397	6,14
665,588	38,91
665,78	-8,19
665,971	12,29
666,163	2,05
666,354	32,77
666,546	8,19
666,737	81,92
666,929	-14,34
667,12	-2,05
667,311	32,77
667,503	-4,1
667,694	47,1
667,885	47,1
668,077	2,05
668,268	4,1
668,459	-16,38
668,651	14,34
668,842	4,1
669,033	10,24
669,224	14,34
669,416	32,77
669,607	6,14
669,798	24,58
669,989	-43,01
670,18	-10,24
670,371	-14,34
670,563	30,72
670,754	10,24
670,945	40,96
671,136	71,68
671,327	0
671,518	100,35
671,709	73,73
671,9	-57,34
672,091	24,58
672,282	-16,38
672,473	12,29
672,664	-36,86
672,855	-18,43
673,046	34,82
673,237	0
673,428	-24,58
673,619	-6,14
673,809	-10,24
674	-2,05
674,191	-49,15
674,382	-6,14
674,573	81,92
674,764	0
674,954	49,15
675,145	30,72
675,336	-51,2
675,527	36,86
675,717	-26,62
675,908	34,82
676,099	26,62
676,289	67,58
676,48	10,24
676,671	43,01
676,861	-28,67
677,052	14,34
677,243	12,29
677,433	8,19
677,624	-34,82
677,814	45,06
678,005	-49,15
678,195	28,67
678,386	34,82
678,576	16,38
678,767	-4,1
678,957	-83,97
679,148	-73,73
679,338	79,87
679,529	10,24
679,719	-12,29
679,909	36,86
680,1	18,43
680,29	-38,91
680,481	2,05
680,671	55,3
680,861	-38,91
681,052	-10,24
681,242	-65,54
681,432	-6,14
681,622	20,48
681,813	12,29
682,003	-14,34
682,193	30,72
682,383	-18,43
682,573	22,53
682,764	-28,67
682,954	-22,53
683,144	2,05
683,334	24,58
683,524	12,29
683,714	-40,96
683,904	8,19
684,094	102,4
684,284	-49,15
684,474	55,3
684,664	14,34
684,854	-20,48
685,044	-34,82
685,234	30,72
685,424	104,45
685,614	20,48
685,804	-10,24
685,994	45,06
686,184	-75,77
686,374	6,14
686,564	-40,96
686,753	-2,05
686,943	-16,38
687,133	-12,29
687,323	71,68
687,513	51,2
687,702	24,58
687,892	59,39
688,082	63,49
688,272	16,38
688,461	-18,43
688,651	8,19
688,841	83,97
689,03	-69,63
689,22	8,19
689,41	26,62
689,599	16,38
689,789	34,82
689,979	45,06
690,168	-26,62
690,358	30,72
690,547	90,11
690,737	53,25
690,926	-10,24
691,116	6,14
691,305	-43,01
691,495	71,68
691,684	18,43
691,874	-6,14
692,063	75,77
692,252	20,48
692,442	14,34
692,631	30,72
692,82	55,3
693,01	-22,53
693,199	-22,53
693,388	75,77
693,578	-4,1
693,767	18,43
693,956	-10,24
694,146	86,01
694,335	-6,14
694,524	43,01
694,713	-69,63
694,902	-49,15
695,092	-22,53
695,281	40,96
695,47	14,34
695,659	-16,38
695,848	-6,14
696,037	40,96
696,226	-36,86
696,415	-24,58
696,604	-55,3
696,793	16,38
696,982	-22,53
697,171	36,86
697,36	-24,58
697,549	-36,86
697,738	32,77
697,927	-49,15
698,116	-67,58
698,305	6,14
698,494	18,43
698,683	-10,24
698,872	77,82
699,061	26,62
699,25	-59,39
699,438	30,72
699,627	-34,82
699,816	14,34
700,005	-6,14
700,193	-8,19
700,382	-34,82
700,571	28,67
700,76	-57,34
700,948	-6,14
701,137	32,77
701,326	38,91
701,514	65,53
701,703	51,2
701,892	6,14
702,08	-4,1
702,269	38,91
702,457	22,53
702,646	34,82
702,834	2,05
703,023	2,05
703,212	92,16
703,4	71,68
703,589	22,53
703,777	16,38
703,965	-47,1
704,154	-34,82
704,342	-73,73
704,531	-34,82
704,719	65,53
704,907	-34,82
705,096	-34,82
705,284	16,38
705,472	28,67
705,661	-2,05
705,849	-8,19
706,037	-75,77
706,226	0
706,414	36,86
706,602	-28,67
706,79	12,29
706,979	59,39
707,167	28,67
707,355	55,3
707,543	22,53
707,731	0
707,919	4,1
708,107	34,82
708,296	22,53
708,484	-10,24
708,672	-47,1
708,86	18,43
709,048	55,3
709,236	-43,01
709,424	16,38
709,612	38,91
709,8	-28,67
709,988	-16,38
710,176	16,38
710,364	0
710,551	24,58
710,739	-10,24
710,927	-59,39
711,115	-6,14
711,303	-14,34
711,491	40,96
711,679	-10,24
711,866	88,06
712,054	-34,82
712,242	2,05
712,43	4,1
712,617	30,72
712,805	-2,05
712,993	79,87
713,181	-36,86
713,368	22,53
713,556	-10,24
713,744	-65,54
713,931	30,72
714,119	45,06
714,306	30,72
714,494	22,53
714,682	-18,43
714,869	18,43
715,057	16,38
715,244	45,06
715,432	14,34
715,619	63,49
715,807	4,1
715,994	-26,62
716,182	104,45
716,369	38,91
716,556	-10,24
716,744	2,05
716,931	-65,54
717,119	22,53
717,306	22,53
717,493	-10,24
717,681	-26,62
717,868	75,77
718,055	30,72
718,242	-34,82
718,43	2,05
718,617	4,1
718,804	-43,01
718,991	12,29
719,179	-34,82
719,366	4,1
719,553	18,43
719,74	-26,62
719,927	-22,53
720,114	55,3
720,301	67,58
720,488	-10,24
720,676	-16,38
720,863	22,53
721,05	-30,72
721,237	32,77
721,424	-59,39
721,611	-92,16
721,798	-16,38
721,985	75,77
722,172	-2,05
722,358	71,68
722,545	-14,34
722,732	14,34
722,919	-10,24
723,106	-14,34
723,293	24,58
723,48	-51,2
723,667	-45,06
723,853	34,82
724,04	-2,05
724,227	34,82
724,414	20,48
724,6	10,24
724,787	-2,05
724,974	38,91
725,161	38,91
725,347	8,19
725,534	18,43
725,72	34,82
725,907	-16,38
726,094	43,01
726,28	26,62
726,467	6,14
726,653	16,38
726,84	-10,24
727,027	-4,1
727,213	-40,96
727,4	10,24
727,586	-4,1
727,773	-10,24
727,959	-57,34
728,145	-30,72
728,332	10,24
728,518	16,38
728,705	69,63
728,891	-24,58
729,077	65,53
729,264	59,39
729,45	51,2
729,636	-32,77
729,823	59,39
730,009	-2,05
730,195	2,05
730,382	-34,82
730,568	-16,38
730,754	-73,73
730,94	14,34
731,126	-16,38
731,313	65,53
731,499	-36,86
731,685	-47,1
731,871	-45,06
732,057	38,91
732,243	12,29
732,429	-8,19
732,615	63,49
732,801	6,14
732,987	-26,62
733,173	-4,1
733,359	-6,14
733,545	-16,38
733,731	16,38
733,917	53,25
734,103	63,49
734,289	-65,54
734,475	-8,19
734,661	36,86
734,847	59,39
735,033	-22,53
735,219	0
735,404	-55,3
735,59	47,1
735,776	-4,1
735,962	4,1
736,148	8,19
736,333	51,2
736,519	-16,38
736,705	6,14
736,89	28,67
737,076	8,19
737,262	-6,14
737,447	-26,62
737,633	32,77
737,819	26,62
738,004	55,3
738,19	4,1
738,375	49,15
738,561	-49,15
738,747	-18,43
738,932	-40,96
739,118	43,01
739,303	69,63
739,489	-2,05
739,674	24,58
739,859	4,1
740,045	-24,58
740,23	18,43
740,416	6,14
740,601	-30,72
740,786	2,05
740,972	8,19
741,157	-55,3
741,342	-10,24
741,528	-10,24
741,713	47,1
741,898	12,29
742,084	24,58
742,269	38,91
742,454	22,53
742,639	-14,34
742,824	49,15
743,01	-10,24
743,195	-26,62
743,38	-51,2
743,565	14,34
743,75	49,15
743,935	16,38
744,12	-16,38
744,305	28,67
744,49	47,1
744,675	10,24
744,86	120,83
745,045	4,1
745,23	40,96
745,415	-2,05
745,6	-55,3
745,785	6,14
745,97	-14,34
746,155	53,25
746,34	-30,72
746,525	-14,34
746,71	55,3
746,895	32,77
747,079	38,91
747,264	-30,72
747,449	-30,72
747,634	43,01
747,819	34,82
748,003	-8,19
748,188	-24,58
748,373	-38,91
748,557	18,43
748,742	67,58
748,927	36,86
749,111	49,15
749,296	12,29
749,481	20,48
749,665	2,05
749,85	38,91
750,034	40,96
750,219	10,24
750,404	30,72
750,588	6,14
750,773	-51,2
750,957	0
751,141	-2,05
751,326	43,01
751,51	16,38
751,695	106,49
751,879	12,29
752,064	81,92
752,248	-26,62
752,432	36,86
752,617	-59,39
752,801	16,38
752,985	-20,48
753,17	14,34
753,354	18,43
753,538	28,67
753,722	-43,01
753,907	-57,34
754,091	26,62
754,275	22,53
754,459	59,39
754,643	10,24
754,828	2,05
755,012	24,58
755,196	-2,05
755,38	6,14
755,564	-32,77
755,748	-30,72
755,932	-12,29
756,116	-2,05
756,3	-24,58
756,484	22,53
756,668	4,1
756,852	14,34
757,036	24,58
757,22	10,24
757,404	-71,68
757,588	83,97
757,772	14,34
757,956	10,24
758,14	16,38
758,323	43,01
758,507	22,53
758,691	22,53
758,875	6,14
759,059	-40,96
759,242	-16,38
759,426	30,72
759,61	47,1
759,794	-18,43
759,977	-16,38
760,161	51,2
760,345	22,53
760,528	16,38
760,712	30,72
760,895	-59,39
761,079	57,34
761,263	32,77
761,446	-18,43
761,63	-63,49
761,813	26,62
761,997	0
762,18	61,44
762,364	14,34
762,547	-14,34
762,731	14,34
762,914	12,29
763,098	38,91
763,281	0
763,464	2,05
763,648	-30,72
763,831	18,43
764,015	16,38
764,198	-43,01
764,381	-26,62
764,564	-22,53
764,748	-40,96
764,931	79,87
765,114	43,01
765,297	-34,82
765,481	18,43
765,664	26,62
765,847	0
766,03	6,14
766,213	22,53
766,397	47,1
766,58	-73,73
766,763	49,15
766,946	10,24
767,129	-16,38
767,312	-4,1
767,495	43,01
767,678	55,3
767,861	18,43
768,044	2,05
768,227	38,91
768,41	38,91
768,593	6,14
768,776	18,43
768,959	-36,86
769,142	-14,34
769,324	-26,62
769,507	-14,34
769,69	-69,63
769,873	4,1
770,056	6,14
770,239	43,01
770,421	-26,62
770,604	-18,43
770,787	22,53
770,97	51,2
771,152	34,82
771,335	14,34
771,518	-28,67
771,7	47,1
771,883	-2,05
772,066	81,92
772,248	57,34
772,431	16,38
772,613	63,49
772,796	47,1
772,978	22,53
773,161	-63,49
773,343	-45,06
773,526	30,72
773,708	-24,58
773,891	12,29
774,073	34,82
774,256	65,53
774,438	16,38
774,621	2,05
774,803	81,92
774,985	45,06
775,168	40,96
775,35	0
775,532	0
775,715	12,29
775,897	30,72
776,079	28,67
776,261	-53,25
776,444	22,53
776,626	38,91
776,808	-6,14
776,99	10,24
777,173	24,58
777,355	88,06
777,537	57,34
777,719	34,82
777,901	-61,44
778,083	-32,77
778,265	-32,77
778,447	-26,62
778,629	-10,24
778,811	108,54
778,993	-38,91
779,175	59,39
779,357	-2,05
779,539	88,06
779,721	24,58
779,903	6,14
780,085	10,24
780,267	-20,48
780,449	12,29
780,631	34,82
780,812	-10,24
780,994	-16,38
781,176	47,1
781,358	38,91
781,54	-53,25
781,721	22,53
781,903	32,77
782,085	-36,86
782,267	24,58
782,448	8,19
782,63	-16,38
782,812	-26,62
782,993	-4,1
783,175	16,38
783,357	6,14
783,538	8,19
783,72	-43,01
783,901	32,77
784,083	-45,06
784,264	-51,2
784,446	18,43
784,627	-22,53
784,809	10,24
784,99	53,25
785,172	12,29
785,353	-32,77
785,535	4,1
785,716	92,16
785,897	6,14
786,079	59,39
786,26	-36,86
786,441	-8,19
786,623	18,43
786,804	-67,58
786,985	4,1
787,167	-6,14
787,348	-26,62
787,529	-2,05
787,71	49,15
787,891	-14,34
788,073	36,86
788,254	-38,91
788,435	45,06
788,616	-22,53
788,797	22,53
788,978	-40,96
789,159	10,24
789,34	-26,62
789,522	38,91
789,703	24,58
789,884	45,06
790,065	-4,1
790,246	22,53
790,427	94,21
790,607	-57,34
790,788	14,34
790,969	2,05
791,15	-36,86
791,331	-28,67
791,512	22,53
791,693	-26,62
791,874	36,86
792,054	-10,24
792,235	-16,38
792,416	57,34
792,597	-8,19
792,778	63,49
792,958	57,34
793,139	-51,2
793,32	51,2
793,5	-51,2
793,681	2,05
793,862	-67,58
794,042	55,3
794,223	47,1
794,404	-32,77
794,584	2,05
794,765	-49,15
794,945	-43,01
795,126	71,68
795,306	14,34
795,487	34,82
795,667	-14,34
795,848	14,34
796,028	-40,96
796,209	8,19
796,389	45,06
796,57	59,39
796,75	10,24
796,93	77,82
797,111	-8,19
797,291	-4,1
797,471	-14,34
797,652	6,14
797,832	83,97
798,012	-36,86
798,192	16,38
798,373	-10,24
798,553	14,34
798,733	4,1
798,913	-18,43
799,093	4,1
799,274	-28,67
799,454	0
799,634	-43,01
799,814	-38,91
799,994	-47,1
800,174	12,29
800,354	32,77
800,534	-65,54
800,714	38,91
800,894	51,2
801,074	71,68
801,254	-18,43
801,434	30,72
801,614	-26,62
801,794	14,34
801,974	122,88
802,154	43,01
802,334	8,19
802,514	24,58
802,693	-45,06
802,873	26,62
803,053	18,43
803,233	20,48
803,413	30,72
803,592	32,77
803,772	-32,77
803,952	4,1
804,131	-40,96
804,311	88,06
804,491	30,72
804,67	-26,62
804,85	-59,39
805,03	-63,49
805,209	88,06
805,389	40,96
805,568	12,29
805,748	20,48
805,928	-2,05
806,107	49,15
806,287	38,91
806,466	36,86
806,646	16,38
806,825	-69,63
807,004	79,87
807,184	45,06
807,363	8,19
807,543	20,48
807,722	2,05
807,901	0
808,081	30,72
808,26	4,1
808,439	-34,82
808,619	-10,24
808,798	-63,49
808,977	-59,39
809,156	-63,49
809,336	-16,38
809,515	-16,38
809,694	-14,34
809,873	-32,77
810,052	26,62
810,231	45,06
810,411	28,67
810,59	30,72
810,769	-24,58
810,948	14,34
811,127	79,87
811,306	12,29
811,485	47,1
811,664	45,06
811,843	-55,3
812,022	8,19
812,201	8,19
812,38	-22,53
812,559	51,2
812,737	14,34
812,916	-55,3
813,095	-32,77
813,274	-16,38
813,453	-22,53
813,632	-2,05
813,811	40,96
813,989	14,34
814,168	-14,34
814,347	0
814,526	83,97
814,704	16,38
814,883	6,14
815,062	32,77
815,24	43,01
815,419	12,29
815,598	24,58
815,776	-16,38
815,955	-6,14
816,133	-10,24
816,312	2,05
816,49	8,19
816,669	-10,24
816,847	34,82
817,026	10,24
817,204	18,43
817,383	-65,54
817,561	-14,34
817,74	34,82
817,918	53,25
818,097	-26,62
818,275	-40,96
818,453	-10,24
818,632	0
818,81	36,86
818,988	-34,82
819,167	-8,19
819,345	-18,43
819,523	65,53
819,701	40,96
819,879	-57,34
820,058	30,72
820,236	10,24
820,414	38,91
820,592	-18,43
820,77	-2,05
820,948	16,38
821,127	-12,29
821,305	18,43
821,483	-8,19
821,661	71,68
821,839	-8,19
822,017	2,05
822,195	20,48
822,373	49,15
822,551	26,62
822,729	51,2
822,907	55,3
823,085	20,48
823,262	-61,44
823,44	10,24
823,618	-14,34
823,796	-32,77
823,974	61,44
824,152	38,91
824,329	-8,19
824,507	8,19
824,685	38,91
824,863	-22,53
825,04	16,38
825,218	67,58
825,396	49,15
825,574	65,53
825,751	49,15
825,929	69,63
826,107	-57,34
826,284	71,68
826,462	-6,14
826,639	-16,38
826,817	53,25
826,994	-59,39
827,172	-40,96
827,349	-47,1
827,527	-43,01
827,704	-10,24
827,882	-61,44
828,059	38,91
828,237	-10,24
828,414	63,49
828,591	34,82
828,769	59,39
828,946	14,34
829,124	57,34
829,301	22,53
829,478	6,14
829,655	-4,1
829,833	-18,43
830,01	-8,19
830,187	32,77
830,364	-65,54
830,542	65,53
830,719	-36,86
830,896	-6,14
831,073	-12,29
831,25	75,77
831,427	6,14
831,604	-10,24
831,782	-34,82
831,959	61,44
832,136	-12,29
832,313	-43,01
832,49	-40,96
832,667	-16,38
832,844	-83,97
833,021	-22,53
833,198	-24,58
833,374	65,53
833,551	28,67
833,728	-14,34
833,905	-4,1
834,082	30,72
834,259	-24,58
834,436	-26,62
834,612	28,67
834,789	20,48
834,966	8,19
835,143	40,96
835,319	-6,14
835,496	28,67
835,673	6,14
835,85	55,3
836,026	16,38
836,203	20,48
836,38	0
836,556	-8,19
836,733	-2,05
836,909	-8,19
837,086	20,48
837,262	-8,19
837,439	30,72
837,616	30,72
837,792	30,72
837,968	16,38
838,145	-2,05
838,321	34,82
838,498	86,01
838,674	14,34
838,851	32,77
839,027	-32,77
839,203	-10,24
839,38	40,96
839,556	14,34
839,732	4,1
839,909	-51,2
840,085	-38,91
840,261	-92,16
840,437	10,24
840,614	4,1
840,79	45,06
840,966	-16,38
841,142	-49,15
841,318	-40,96
841,494	49,15
841,671	38,91
841,847	34,82
842,023	-55,3
842,199	-26,62
842,375	16,38
842,551	-22,53
842,727	-32,77
842,903	45,06
843,079	14,34
843,255	65,53
843,431	-6,14
843,607	59,39
843,783	8,19
843,959	-24,58
844,134	-71,68
844,31	-69,63
844,486	26,62
844,662	-24,58
844,838	24,58
845,013	40,96
845,189	-2,05
845,365	2,05
845,541	16,38
845,716	-75,77
845,892	0
846,068	-75,77
846,244	28,67
846,419	24,58
846,595	6,14
846,77	-16,38
846,946	-14,34
847,122	8,19
847,297	14,34
847,473	49,15
847,648	-69,63
847,824	47,1
847,999	-34,82
848,175	6,14
848,35	28,67
848,526	67,58
848,701	55,3
848,876	55,3
849,052	4,1
849,227	43,01
849,403	57,34
849,578	18,43
849,753	49,15
849,929	22,53
850,104	2,05
850,279	-43,01
850,454	-14,34
850,63	-2,05
850,805	-8,19
850,98	-18,43
851,155	45,06
851,33	-16,38
851,505	4,1
851,681	71,68
851,856	-18,43
852,031	47,1
852,206	18,43
852,381	16,38
852,556	22,53
852,731	-16,38
852,906	14,34
853,081	65,53
853,256	47,1
853,431	88,06
853,606	24,58
853,781	67,58
853,956	-49,15
854,131	-26,62
854,305	-32,77
854,48	-43,01
854,655	57,34
854,83	30,72
855,005	6,14
855,18	-6,14
855,354	-65,54
855,529	-26,62
855,704	-2,05
855,879	55,3
856,053	38,91
856,228	-28,67
856,403	-6,14
856,577	32,77
856,752	28,67
856,926	-36,86
857,101	-65,54
857,276	16,38
857,45	-4,1
857,625	8,19
857,799	-49,15
857,974	55,3
858,148	12,29
858,323	22,53
858,497	53,25
858,672	88,06
858,846	49,15
859,02	-12,29
859,195	26,62
859,369	-10,24
859,543	10,24
859,718	-69,63
859,892	81,92
860,066	-55,3
860,241	-2,05
860,415	-106,49
860,589	-22,53
860,763	49,15
860,938	51,2
861,112	30,72
861,286	-53,25
861,46	-6,14
861,634	-14,34
861,808	51,2
861,982	-40,96
862,157	-24,58
862,331	10,24
862,505	-20,48
862,679	-49,15
862,853	22,53
863,027	-8,19
863,201	-34,82
863,375	-18,43
863,549	-10,24
863,722	-26,62
863,896	-2,05
864,07	-14,34
864,244	0
864,418	47,1
864,592	-2,05
864,766	0
864,939	-59,39
865,113	-38,91
865,287	71,68
865,461	71,68
865,634	30,72
865,808	-4,1
865,982	63,49
866,156	14,34
866,329	-43,01
866,503	8,19
866,676	-59,39
866,85	-38,91
867,024	69,63
867,197	38,91
867,371	49,15
867,544	28,67
867,718	10,24
867,891	47,1
868,065	20,48
868,238	-57,34
868,412	10,24
868,585	-92,16
868,759	49,15
868,932	-51,2
869,105	2,05
869,279	-12,29
869,452	30,72
869,625	0
869,799	-6,14
869,972	10,24
870,145	-12,29
870,319	30,72
870,492	8,19
870,665	32,77
870,838	-40,96
871,011	10,24
871,185	-2,05
871,358	-6,14
871,531	38,91
871,704	-75,77
871,877	-79,87
872,05	-14,34
872,223	-2,05
872,396	-51,2
872,569	6,14
872,742	-18,43
872,915	6,14
873,088	32,77
873,261	-26,62
873,434	-22,53
873,607	55,3
873,78	22,53
873,953	-40,96
874,126	-63,49
874,299	40,96
874,471	-49,15
874,644	22,53
874,817	-40,96
874,99	-32,77
875,163	-18,43
875,335	10,24
875,508	10,24
875,681	14,34
875,853	-30,72
876,026	-12,29
876,199	-65,54
876,371	24,58
876,544	-40,96
876,717	6,14
876,889	-83,97
877,062	49,15
877,234	4,1
877,407	-4,1
877,579	20,48
877,752	43,01
877,924	8,19
878,097	18,43
878,269	-4,1
878,442	67,58
878,614	-14,34
878,786	-14,34
878,959	6,14
879,131	38,91
879,303	-67,58
879,476	-65,54
879,648	-32,77
879,82	-59,39
879,993	-24,58
880,165	-32,77
880,337	-22,53
880,509	34,82
880,681	22,53
880,854	-55,3
881,026	-14,34
881,198	49,15
881,37	45,06
881,542	-2,05
881,714	30,72
881,886	-53,25
882,058	18,43
882,23	14,34
882,402	-34,82
882,574	77,82
882,746	16,38
882,918	14,34
883,09	-6,14
883,262	-2,05
883,434	22,53
883,606	34,82
883,778	2,05
883,95	2,05
884,122	6,14
884,293	40,96
884,465	-32,77
884,637	40,96
884,809	-4,1
884,98	12,29
885,152	-59,39
885,324	-73,73
885,496	-75,77
885,667	-32,77
885,839	49,15
886,011	30,72
886,182	-57,34
886,354	6,14
886,525	-28,67
886,697	16,38
886,869	-6,14
887,04	30,72
887,212	-28,67
887,383	-4,1
887,555	-4,1
887,726	0
887,897	45,06
888,069	10,24
888,24	-53,25
888,412	18,43
888,583	55,3
888,754	16,38
888,926	-38,91
889,097	-30,72
889,268	28,67
889,44	2,05
889,611	20,48
889,782	-8,19
889,953	-59,39
890,125	-2,05
890,296	22,53
890,467	2,05
890,638	30,72
890,809	-14,34
890,98	-36,86
891,151	49,15
891,323	-36,86
891,494	20,48
891,665	-18,43
891,836	12,29
892,007	-10,24
892,178	30,72
892,349	-32,77
892,52	26,62
892,691	-14,34
892,862	18,43
893,032	8,19
893,203	-32,77
893,374	47,1
893,545	30,72
893,716	-51,2
893,887	0
894,057	55,3
894,228	24,58
894,399	-32,77
894,57	47,1
894,74	6,14
894,911	-34,82
895,082	6,14
895,253	8,19
895,423	47,1
895,594	65,53
895,764	-2,05
895,935	49,15
896,106	6,14
896,276	-57,34
896,447	-61,44
896,617	8,19
896,788	-45,06
896,958	14,34
897,129	-34,82
897,299	30,72
897,47	-34,82
897,64	38,91
897,81	30,72
897,981	-24,58
898,151	-10,24
898,322	-45,06
898,492	-30,72
898,662	-14,34
898,832	-10,24
899,003	32,77
899,173	-59,39
899,343	0
899,513	12,29
