Data from filtre580_USB4F104151__7__11-53-55-531.txt Node

Date: Wed Apr 15 11:53:55 EDT 2026
User: LaboPhy
Spectrometer: USB4F10415
Trigger mode: 4
Integration Time (sec): 5,000000E-3
Scans to average: 1
Electric dark correction enabled: true
Nonlinearity correction enabled: false
Boxcar width: 0
XAxis mode: Wavelengths
Number of Pixels in Spectrum: 3648
>>>>>Begin Spectral Data<<<<<
178,204	11,09
178,424	11,09
178,644	11,09
178,864	-21,67
179,084	33,62
179,304	23,38
179,524	13,14
179,744	21,33
179,964	25,43
180,184	-25,77
180,404	29,52
180,624	-23,72
180,844	-25,77
181,064	-46,25
181,283	-11,43
181,503	-46,25
181,723	66,39
181,943	-13,48
182,163	-13,48
182,383	-25,77
182,602	-15,53
182,822	76,63
183,042	-3,24
183,262	27,48
183,482	2,9
183,701	-27,82
183,921	-13,48
184,141	-33,96
184,361	-1,19
184,58	31,57
184,8	68,44
185,02	-11,43
185,239	56,15
185,459	78,68
185,679	25,43
185,898	-48,3
186,118	-42,15
186,338	-38,06
186,557	35,67
186,777	52,05
186,997	4,95
187,216	60,24
187,436	76,63
187,655	19,29
187,875	19,29
188,095	19,29
188,314	54,1
188,534	27,48
188,753	25,43
188,973	15,19
189,192	21,33
189,412	-11,43
189,631	54,1
189,851	47,96
190,07	-3,24
190,29	-38,06
190,509	62,29
190,729	19,29
190,948	35,67
191,168	-25,77
191,387	35,67
191,607	37,72
191,826	11,09
192,045	-7,34
192,265	-38,06
192,484	-19,63
192,704	23,38
192,923	-13,48
193,142	56,15
193,362	-27,82
193,581	11,09
193,8	-15,53
194,02	-36,01
194,239	4,95
194,458	-5,29
194,678	-7,34
194,897	33,62
195,116	9,05
195,335	68,44
195,555	-42,15
195,774	-50,35
195,993	-5,29
196,212	-21,67
196,432	2,9
196,651	60,24
196,87	-64,68
197,089	43,86
197,308	2,9
197,528	29,52
197,747	68,44
197,966	-21,67
198,185	45,91
198,404	95,06
198,623	-42,15
198,842	31,57
199,062	39,76
199,281	-7,34
199,5	-48,3
199,719	84,82
199,938	13,14
200,157	37,72
200,376	11,09
200,595	-5,29
200,814	72,53
201,033	-13,48
201,252	-52,39
201,471	23,38
201,69	-33,96
201,909	-21,67
202,128	-1,19
202,347	-1,19
202,566	39,76
202,785	-13,48
203,004	27,48
203,223	88,92
203,442	-1,19
203,661	56,15
203,879	-74,92
204,098	-7,34
204,317	17,24
204,536	60,24
204,755	41,81
204,974	72,53
205,193	27,48
205,411	4,95
205,63	-50,35
205,849	-5,29
206,068	-36,01
206,287	13,14
206,505	2,9
206,724	-44,2
206,943	95,06
207,162	33,62
207,381	19,29
207,599	-11,43
207,818	-66,73
208,037	-3,24
208,255	15,19
208,474	-21,67
208,693	47,96
208,911	-27,82
209,13	-74,92
209,349	113,49
209,567	45,91
209,786	13,14
210,005	25,43
210,223	-42,15
210,442	13,14
210,661	7
210,879	-62,63
211,098	11,09
211,316	11,09
211,535	-13,48
211,753	-27,82
211,972	-25,77
212,191	68,44
212,409	-19,63
212,628	-5,29
212,846	-29,87
213,065	-42,15
213,283	74,58
213,502	27,48
213,72	37,72
213,938	15,19
214,157	4,95
214,375	-27,82
214,594	33,62
214,812	47,96
215,031	0,85
215,249	7
215,467	-11,43
215,686	31,57
215,904	0,85
216,122	-46,25
216,341	68,44
216,559	0,85
216,778	-9,39
216,996	-99,5
217,214	35,67
217,432	-5,29
217,651	27,48
217,869	60,24
218,087	-21,67
218,306	-74,92
218,524	50
218,742	-13,48
218,96	2,9
219,179	47,96
219,397	27,48
219,615	27,48
219,833	19,29
220,051	-3,24
220,27	-3,24
220,488	21,33
220,706	-52,39
220,924	-17,58
221,142	27,48
221,36	31,57
221,578	-19,63
221,796	13,14
222,015	9,05
222,233	-21,67
222,451	127,83
222,669	-13,48
222,887	-66,73
223,105	-1,19
223,323	-19,63
223,541	-9,39
223,759	58,2
223,977	-64,68
224,195	-38,06
224,413	-9,39
224,631	13,14
224,849	-56,49
225,067	35,67
225,285	-9,39
225,503	27,48
225,721	35,67
225,939	2,9
226,157	-9,39
226,375	45,91
226,592	60,24
226,81	35,67
227,028	-9,39
227,246	19,29
227,464	-3,24
227,682	-23,72
227,9	35,67
228,117	-27,82
228,335	-33,96
228,553	2,9
228,771	7
228,989	-1,19
229,206	47,96
229,424	66,39
229,642	-29,87
229,86	-23,72
230,077	-38,06
230,295	21,33
230,513	-23,72
230,731	-29,87
230,948	27,48
231,166	2,9
231,384	-38,06
231,601	15,19
231,819	47,96
232,037	-33,96
232,254	35,67
232,472	-17,58
232,689	-1,19
232,907	-21,67
233,125	45,91
233,342	-23,72
233,56	-31,91
233,777	52,05
233,995	-1,19
234,213	-42,15
234,43	0,85
234,648	-13,48
234,865	11,09
235,083	-17,58
235,3	47,96
235,518	27,48
235,735	-3,24
235,953	27,48
236,17	-11,43
236,388	78,68
236,605	-56,49
236,822	62,29
237,04	31,57
237,257	0,85
237,475	86,87
237,692	29,52
237,909	4,95
238,127	-1,19
238,344	7
238,562	37,72
238,779	-13,48
238,996	15,19
239,214	-21,67
239,431	52,05
239,648	9,05
239,865	4,95
240,083	64,34
240,3	-38,06
240,517	-27,82
240,735	-46,25
240,952	9,05
241,169	27,48
241,386	-31,91
241,603	-21,67
241,821	-38,06
242,038	2,9
242,255	19,29
242,472	0,85
242,689	47,96
242,907	-9,39
243,124	21,33
243,341	41,81
243,558	-15,53
243,775	-9,39
243,992	21,33
244,209	52,05
244,426	21,33
244,643	-5,29
244,86	17,24
245,078	-40,11
245,295	7
245,512	-5,29
245,729	23,38
245,946	19,29
246,163	39,76
246,38	-107,69
246,597	21,33
246,814	17,24
247,031	86,87
247,248	-3,24
247,464	-36,01
247,681	-13,48
247,898	-1,19
248,115	-27,82
248,332	52,05
248,549	-25,77
248,766	-1,19
248,983	45,91
249,2	4,95
249,417	19,29
249,633	35,67
249,85	27,48
250,067	2,9
250,284	2,9
250,501	39,76
250,717	39,76
250,934	47,96
251,151	-3,24
251,368	9,05
251,585	41,81
251,801	25,43
252,018	-38,06
252,235	-21,67
252,451	-11,43
252,668	17,24
252,885	37,72
253,102	0,85
253,318	88,92
253,535	-17,58
253,752	-1,19
253,968	-13,48
254,185	29,52
254,401	15,19
254,618	-52,39
254,835	35,67
255,051	64,34
255,268	27,48
255,484	27,48
255,701	-21,67
255,917	-27,82
256,134	-11,43
256,351	7
256,567	-19,63
256,784	47,96
257	-19,63
257,217	-9,39
257,433	-54,44
257,65	76,63
257,866	0,85
258,082	29,52
258,299	-13,48
258,515	-15,53
258,732	-56,49
258,948	56,15
259,165	23,38
259,381	97,11
259,597	-3,24
259,814	7
260,03	-15,53
260,246	29,52
260,463	-29,87
260,679	-9,39
260,895	74,58
261,112	23,38
261,328	-95,4
261,544	23,38
261,761	39,76
261,977	45,91
262,193	25,43
262,409	-15,53
262,626	-7,34
262,842	-3,24
263,058	-66,73
263,274	-1,19
263,49	-25,77
263,707	4,95
263,923	7
264,139	35,67
264,355	-33,96
264,571	-29,87
264,787	17,24
265,004	43,86
265,22	33,62
265,436	76,63
265,652	-5,29
265,868	35,67
266,084	-46,25
266,3	60,24
266,516	-27,82
266,732	11,09
266,948	-44,2
267,164	-13,48
267,38	13,14
267,596	-1,19
267,812	21,33
268,028	-38,06
268,244	15,19
268,46	2,9
268,676	-44,2
268,892	27,48
269,108	37,72
269,324	47,96
269,54	37,72
269,756	-19,63
269,972	-25,77
270,188	-11,43
270,403	27,48
270,619	62,29
270,835	15,19
271,051	27,48
271,267	13,14
271,483	31,57
271,698	-48,3
271,914	-15,53
272,13	9,05
272,346	29,52
272,562	-38,06
272,777	-17,58
272,993	43,86
273,209	2,9
273,425	31,57
273,64	15,19
273,856	23,38
274,072	19,29
274,287	-25,77
274,503	11,09
274,719	-17,58
274,934	23,38
275,15	58,2
275,366	41,81
275,581	-21,67
275,797	39,76
276,012	-25,77
276,228	2,9
276,444	-23,72
276,659	39,76
276,875	-68,78
277,09	41,81
277,306	47,96
277,521	35,67
277,737	-33,96
277,952	11,09
278,168	-1,19
278,383	-27,82
278,599	-33,96
278,814	43,86
279,03	-138,41
279,245	-21,67
279,461	-50,35
279,676	2,9
279,892	27,48
280,107	15,19
280,322	13,14
280,538	15,19
280,753	-50,35
280,969	60,24
281,184	21,33
281,399	54,1
281,615	52,05
281,83	-31,91
282,045	35,67
282,26	23,38
282,476	52,05
282,691	27,48
282,906	-17,58
283,122	21,33
283,337	95,06
283,552	-13,48
283,767	-27,82
283,983	2,9
284,198	47,96
284,413	0,85
284,628	-23,72
284,843	2,9
285,058	19,29
285,274	4,95
285,489	-21,67
285,704	-17,58
285,919	52,05
286,134	37,72
286,349	-11,43
286,564	50
286,779	11,09
286,995	47,96
287,21	50
287,425	50
287,64	35,67
287,855	37,72
288,07	9,05
288,285	-3,24
288,5	7
288,715	9,05
288,93	-29,87
289,145	31,57
289,36	27,48
289,575	37,72
289,79	11,09
290,004	33,62
290,219	11,09
290,434	-21,67
290,649	103,25
290,864	93,01
291,079	93,01
291,294	-19,63
291,509	64,34
291,724	-7,34
291,938	-17,58
292,153	19,29
292,368	7
292,583	29,52
292,798	9,05
293,012	21,33
293,227	27,48
293,442	-7,34
293,657	76,63
293,871	-46,25
294,086	-19,63
294,301	45,91
294,516	2,9
294,73	19,29
294,945	27,48
295,16	2,9
295,374	-42,15
295,589	2,9
295,804	47,96
296,018	52,05
296,233	-19,63
296,447	72,53
296,662	-19,63
296,877	-52,39
297,091	15,19
297,306	47,96
297,52	35,67
297,735	31,57
297,949	-46,25
298,164	19,29
298,378	60,24
298,593	43,86
298,807	-3,24
299,022	58,2
299,236	62,29
299,451	52,05
299,665	-56,49
299,88	19,29
300,094	15,19
300,309	23,38
300,523	33,62
300,737	-11,43
300,952	52,05
301,166	-1,19
301,381	2,9
301,595	23,38
301,809	4,95
302,024	-17,58
302,238	76,63
302,452	0,85
302,667	9,05
302,881	64,34
303,095	-9,39
303,309	70,48
303,524	13,14
303,738	27,48
303,952	11,09
304,166	47,96
304,381	19,29
304,595	11,09
304,809	62,29
305,023	-9,39
305,237	15,19
305,452	21,33
305,666	43,86
305,88	60,24
306,094	-27,82
306,308	64,34
306,522	-15,53
306,736	68,44
306,95	-5,29
307,164	-5,29
307,379	-27,82
307,593	47,96
307,807	29,52
308,021	11,09
308,235	-9,39
308,449	15,19
308,663	15,19
308,877	11,09
309,091	11,09
309,305	-21,67
309,519	-21,67
309,733	72,53
309,947	2,9
310,161	19,29
310,374	-54,44
310,588	62,29
310,802	-3,24
311,016	-15,53
311,23	-38,06
311,444	-74,92
311,658	-33,96
311,872	-1,19
312,085	37,72
312,299	43,86
312,513	4,95
312,727	31,57
312,941	-15,53
313,154	-5,29
313,368	15,19
313,582	54,1
313,796	-31,91
314,009	47,96
314,223	-21,67
314,437	29,52
314,651	-38,06
314,864	13,14
315,078	13,14
315,292	-17,58
315,505	-25,77
315,719	-5,29
315,933	41,81
316,146	19,29
316,36	-52,39
316,573	35,67
316,787	43,86
317,001	-5,29
317,214	-1,19
317,428	2,9
317,641	13,14
317,855	35,67
318,068	7
318,282	52,05
318,495	41,81
318,709	43,86
318,922	-52,39
319,136	-13,48
319,349	-27,82
319,563	-11,43
319,776	35,67
319,99	68,44
320,203	7
320,417	7
320,63	31,57
320,843	11,09
321,057	68,44
321,27	-13,48
321,483	43,86
321,697	15,19
321,91	23,38
322,124	2,9
322,337	-46,25
322,55	-29,87
322,763	-21,67
322,977	-7,34
323,19	2,9
323,403	19,29
323,617	39,76
323,83	37,72
324,043	52,05
324,256	21,33
324,469	-48,3
324,683	68,44
324,896	-21,67
325,109	2,9
325,322	-7,34
325,535	37,72
325,748	101,2
325,962	-5,29
326,175	15,19
326,388	-17,58
326,601	-25,77
326,814	21,33
327,027	17,24
327,24	31,57
327,453	-9,39
327,666	23,38
327,879	-54,44
328,092	-29,87
328,305	33,62
328,518	66,39
328,731	107,35
328,944	45,91
329,157	-42,15
329,37	37,72
329,583	86,87
329,796	45,91
330,009	-52,39
330,222	-3,24
330,435	-1,19
330,648	9,05
330,861	-62,63
331,073	4,95
331,286	84,82
331,499	-13,48
331,712	-25,77
331,925	47,96
332,138	27,48
332,35	-3,24
332,563	93,01
332,776	11,09
332,989	31,57
333,202	70,48
333,414	-33,96
333,627	95,06
333,84	27,48
334,053	-68,78
334,265	19,29
334,478	-13,48
334,691	15,19
334,903	-46,25
335,116	-60,59
335,329	4,95
335,541	72,53
335,754	-29,87
335,966	0,85
336,179	9,05
336,392	105,3
336,604	93,01
336,817	47,96
337,029	74,58
337,242	-9,39
337,454	35,67
337,667	23,38
337,88	11,09
338,092	35,67
338,305	23,38
338,517	-19,63
338,729	-5,29
338,942	62,29
339,154	-29,87
339,367	23,38
339,579	35,67
339,792	11,09
340,004	27,48
340,217	11,09
340,429	31,57
340,641	-29,87
340,854	9,05
341,066	-31,91
341,278	58,2
341,491	-64,68
341,703	54,1
341,915	-46,25
342,128	-13,48
342,34	17,24
342,552	-3,24
342,764	-27,82
342,977	-11,43
343,189	-103,59
343,401	35,67
343,613	-1,19
343,826	-33,96
344,038	39,76
344,25	21,33
344,462	-13,48
344,674	-1,19
344,886	41,81
345,099	43,86
345,311	-48,3
345,523	70,48
345,735	-36,01
345,947	-3,24
346,159	37,72
346,371	-19,63
346,583	23,38
346,795	43,86
347,007	-3,24
347,219	-1,19
347,431	27,48
347,643	-1,19
347,855	-5,29
348,067	80,72
348,279	23,38
348,491	60,24
348,703	-40,11
348,915	-42,15
349,127	43,86
349,339	-5,29
349,551	-68,78
349,763	-3,24
349,975	-29,87
350,187	39,76
350,399	64,34
350,61	21,33
350,822	-29,87
351,034	62,29
351,246	23,38
351,458	52,05
351,669	9,05
351,881	31,57
352,093	-15,53
352,305	35,67
352,517	-1,19
352,728	27,48
352,94	47,96
353,152	31,57
353,363	45,91
353,575	19,29
353,787	19,29
353,999	23,38
354,21	-62,63
354,422	54,1
354,633	39,76
354,845	-66,73
355,057	2,9
355,268	-11,43
355,48	-74,92
355,692	39,76
355,903	25,43
356,115	4,95
356,326	-46,25
356,538	15,19
356,749	11,09
356,961	-21,67
357,172	19,29
357,384	39,76
357,595	-29,87
357,807	86,87
358,018	-38,06
358,23	74,58
358,441	-29,87
358,653	-27,82
358,864	39,76
359,075	27,48
359,287	19,29
359,498	-13,48
359,709	23,38
359,921	27,48
360,132	-11,43
360,344	-9,39
360,555	-7,34
360,766	19,29
360,977	2,9
361,189	39,76
361,4	-33,96
361,611	-19,63
361,823	31,57
362,034	-21,67
362,245	37,72
362,456	37,72
362,667	54,1
362,879	-19,63
363,09	41,81
363,301	-27,82
363,512	47,96
363,723	7
363,935	-5,29
364,146	19,29
364,357	37,72
364,568	25,43
364,779	31,57
364,99	101,2
365,201	60,24
365,412	35,67
365,623	-13,48
365,834	-11,43
366,045	37,72
366,256	76,63
366,467	29,52
366,678	27,48
366,889	-38,06
367,1	-17,58
367,311	58,2
367,522	-38,06
367,733	60,24
367,944	23,38
368,155	33,62
368,366	-48,3
368,577	-31,91
368,788	-46,25
368,999	27,48
369,209	2,9
369,42	-13,48
369,631	90,96
369,842	37,72
370,053	-9,39
370,264	-54,44
370,474	-21,67
370,685	-1,19
370,896	11,09
371,107	-70,83
371,317	4,95
371,528	4,95
371,739	17,24
371,95	-17,58
372,16	93,01
372,371	15,19
372,582	41,81
372,792	-23,72
373,003	2,9
373,214	-17,58
373,424	-13,48
373,635	39,76
373,846	27,48
374,056	23,38
374,267	37,72
374,477	37,72
374,688	41,81
374,898	-3,24
375,109	9,05
375,319	-36,01
375,53	4,95
375,74	64,34
375,951	-3,24
376,161	11,09
376,372	15,19
376,582	27,48
376,793	45,91
377,003	52,05
377,214	35,67
377,424	-29,87
377,635	52,05
377,845	11,09
378,055	-52,39
378,266	-44,2
378,476	0,85
378,686	-1,19
378,897	-21,67
379,107	52,05
379,317	19,29
379,528	19,29
379,738	52,05
379,948	-11,43
380,158	45,91
380,369	-13,48
380,579	78,68
380,789	27,48
380,999	70,48
381,21	-52,39
381,42	72,53
381,63	37,72
381,84	52,05
382,05	-21,67
382,261	4,95
382,471	-19,63
382,681	15,19
382,891	-72,87
383,101	-9,39
383,311	37,72
383,521	-13,48
383,731	-13,48
383,941	-9,39
384,151	37,72
384,361	0,85
384,571	-31,91
384,781	-46,25
384,991	-29,87
385,201	-3,24
385,411	60,24
385,621	7
385,831	-58,54
386,041	-7,34
386,251	-52,39
386,461	21,33
386,671	-52,39
386,881	47,96
387,091	52,05
387,301	-13,48
387,511	11,09
387,72	-3,24
387,93	35,67
388,14	43,86
388,35	-68,78
388,56	105,3
388,769	50
388,979	17,24
389,189	2,9
389,399	50
389,609	-60,59
389,818	-58,54
390,028	11,09
390,238	54,1
390,447	19,29
390,657	7
390,867	23,38
391,076	-33,96
391,286	9,05
391,496	60,24
391,705	-13,48
391,915	35,67
392,125	2,9
392,334	4,95
392,544	-11,43
392,753	-74,92
392,963	35,67
393,172	-13,48
393,382	31,57
393,591	-1,19
393,801	39,76
394,01	31,57
394,22	97,11
394,429	-13,48
394,639	0,85
394,848	43,86
395,058	-13,48
395,267	15,19
395,477	21,33
395,686	27,48
395,895	2,9
396,105	39,76
396,314	-11,43
396,524	29,52
396,733	17,24
396,942	54,1
397,152	-27,82
397,361	-31,91
397,57	-5,29
397,78	11,09
397,989	54,1
398,198	45,91
398,407	11,09
398,617	-11,43
398,826	-29,87
399,035	35,67
399,244	-19,63
399,453	78,68
399,663	21,33
399,872	-38,06
400,081	-31,91
400,29	88,92
400,499	13,14
400,708	-11,43
400,917	-36,01
401,127	-21,67
401,336	13,14
401,545	60,24
401,754	66,39
401,963	-5,29
402,172	50
402,381	27,48
402,59	7
402,799	33,62
403,008	27,48
403,217	29,52
403,426	101,2
403,635	21,33
403,844	2,9
404,053	21,33
404,262	-19,63
404,471	35,67
404,68	29,52
404,888	-23,72
405,097	41,81
405,306	52,05
405,515	17,24
405,724	23,38
405,933	47,96
406,142	62,29
406,35	-36,01
406,559	37,72
406,768	23,38
406,977	2,9
407,185	21,33
407,394	35,67
407,603	0,85
407,812	-19,63
408,02	23,38
408,229	84,82
408,438	-74,92
408,646	2,9
408,855	-1,19
409,064	39,76
409,272	-15,53
409,481	-5,29
409,69	13,14
409,898	13,14
410,107	-50,35
410,315	11,09
410,524	-27,82
410,733	27,48
410,941	-15,53
411,15	23,38
411,358	7
411,567	60,24
411,775	21,33
411,984	43,86
412,192	-93,35
412,401	-21,67
412,609	4,95
412,818	103,25
413,026	-21,67
413,234	-29,87
413,443	2,9
413,651	-19,63
413,86	27,48
414,068	19,29
414,276	43,86
414,485	-17,58
414,693	35,67
414,901	60,24
415,11	29,52
415,318	15,19
415,526	-9,39
415,734	-1,19
415,943	-5,29
416,151	0,85
416,359	-25,77
416,567	37,72
416,776	9,05
416,984	2,9
417,192	45,91
417,4	37,72
417,608	43,86
417,817	-40,11
418,025	-52,39
418,233	52,05
418,441	11,09
418,649	37,72
418,857	35,67
419,065	11,09
419,273	21,33
419,481	-29,87
419,689	11,09
419,897	47,96
420,105	2,9
420,313	-46,25
420,521	-11,43
420,729	-25,77
420,937	62,29
421,145	74,58
421,353	37,72
421,561	43,86
421,769	19,29
421,977	52,05
422,185	0,85
422,393	2,9
422,601	-15,53
422,809	-66,73
423,017	-5,29
423,224	29,52
423,432	19,29
423,64	52,05
423,848	-46,25
424,056	21,33
424,263	-46,25
424,471	39,76
424,679	70,48
424,887	58,2
425,094	-9,39
425,302	-11,43
425,51	23,38
425,718	-15,53
425,925	4,95
426,133	31,57
426,341	-46,25
426,548	21,33
426,756	2,9
426,964	43,86
427,171	-3,24
427,379	-15,53
427,586	-17,58
427,794	-7,34
428,001	-21,67
428,209	19,29
428,417	7
428,624	25,43
428,832	-44,2
429,039	27,48
429,247	-19,63
429,454	35,67
429,662	-27,82
429,869	70,48
430,076	-46,25
430,284	-36,01
430,491	-23,72
430,699	43,86
430,906	-17,58
431,114	-11,43
431,321	19,29
431,528	0,85
431,736	4,95
431,943	-52,39
432,15	70,48
432,358	-17,58
432,565	29,52
432,772	39,76
432,979	-21,67
433,187	-44,2
433,394	-7,34
433,601	-54,44
433,808	97,11
434,016	29,52
434,223	-5,29
434,43	43,86
434,637	-60,59
434,844	37,72
435,052	54,1
435,259	33,62
435,466	0,85
435,673	2,9
435,88	62,29
436,087	84,82
436,294	29,52
436,501	31,57
436,708	72,53
436,915	9,05
437,122	-38,06
437,329	-15,53
437,537	68,44
437,743	-33,96
437,95	47,96
438,157	45,91
438,364	54,1
438,571	37,72
438,778	13,14
438,985	-17,58
439,192	50
439,399	19,29
439,606	15,19
439,813	7
440,02	47,96
440,227	41,81
440,433	-52,39
440,64	43,86
440,847	11,09
441,054	-60,59
441,261	56,15
441,467	0,85
441,674	-40,11
441,881	35,67
442,088	74,58
442,294	-13,48
442,501	33,62
442,708	17,24
442,914	47,96
443,121	-13,48
443,328	-38,06
443,534	60,24
443,741	-62,63
443,948	21,33
444,154	-5,29
444,361	64,34
444,568	25,43
444,774	23,38
444,981	43,86
445,187	43,86
445,394	43,86
445,6	-42,15
445,807	29,52
446,013	4,95
446,22	58,2
446,426	66,39
446,633	33,62
446,839	-29,87
447,046	84,82
447,252	47,96
447,459	2,9
447,665	43,86
447,871	58,2
448,078	39,76
448,284	-13,48
448,491	19,29
448,697	29,52
448,903	86,87
449,11	31,57
449,316	35,67
449,522	-5,29
449,728	15,19
449,935	4,95
450,141	23,38
450,347	68,44
450,553	31,57
450,76	13,14
450,966	-29,87
451,172	33,62
451,378	80,72
451,584	54,1
451,791	-1,19
451,997	7
452,203	-38,06
452,409	-23,72
452,615	52,05
452,821	4,95
453,027	-1,19
453,233	29,52
453,44	-36,01
453,646	43,86
453,852	35,67
454,058	23,38
454,264	-1,19
454,47	54,1
454,676	33,62
454,882	-3,24
455,088	15,19
455,294	33,62
455,5	19,29
455,705	11,09
455,911	31,57
456,117	37,72
456,323	64,34
456,529	35,67
456,735	-5,29
456,941	72,53
457,147	29,52
457,352	7
457,558	70,48
457,764	23,38
457,97	47,96
458,176	37,72
458,381	31,57
458,587	-1,19
458,793	-70,83
458,999	-48,3
459,204	31,57
459,41	27,48
459,616	-11,43
459,821	-27,82
460,027	25,43
460,233	9,05
460,438	101,2
460,644	4,95
460,85	29,52
461,055	-44,2
461,261	7
461,466	21,33
461,672	13,14
461,878	-11,43
462,083	52,05
462,289	-27,82
462,494	27,48
462,7	-58,54
462,905	-1,19
463,111	43,86
463,316	19,29
463,522	-29,87
463,727	62,29
463,932	7
464,138	-5,29
464,343	-31,91
464,549	76,63
464,754	47,96
464,959	11,09
465,165	37,72
465,37	33,62
465,575	-3,24
465,781	88,92
465,986	-7,34
466,191	52,05
466,397	-66,73
466,602	31,57
466,807	-13,48
467,012	-13,48
467,218	11,09
467,423	60,24
467,628	21,33
467,833	19,29
468,038	31,57
468,244	31,57
468,449	27,48
468,654	-13,48
468,859	35,67
469,064	31,57
469,269	-27,82
469,474	21,33
469,679	-29,87
469,885	21,33
470,09	2,9
470,295	-5,29
470,5	7
470,705	35,67
470,91	-52,39
471,115	4,95
471,32	50
471,525	-5,29
471,73	41,81
471,935	21,33
472,139	0,85
472,344	35,67
472,549	23,38
472,754	27,48
472,959	-74,92
473,164	62,29
473,369	33,62
473,574	4,95
473,778	-1,19
473,983	-7,34
474,188	-29,87
474,393	4,95
474,598	-46,25
474,802	47,96
475,007	41,81
475,212	47,96
475,417	9,05
475,621	64,34
475,826	-21,67
476,031	93,01
476,235	4,95
476,44	41,81
476,645	31,57
476,849	29,52
477,054	15,19
477,259	35,67
477,463	33,62
477,668	21,33
477,872	13,14
478,077	-70,83
478,282	37,72
478,486	-15,53
478,691	-21,67
478,895	45,91
479,1	-27,82
479,304	68,44
479,509	2,9
479,713	60,24
479,918	68,44
480,122	35,67
480,326	-48,3
480,531	56,15
480,735	13,14
480,94	45,91
481,144	43,86
481,348	-11,43
481,553	35,67
481,757	41,81
481,961	60,24
482,166	21,33
482,37	23,38
482,574	21,33
482,778	15,19
482,983	39,76
483,187	121,68
483,391	-13,48
483,595	0,85
483,8	-11,43
484,004	39,76
484,208	-1,19
484,412	-9,39
484,616	2,9
484,821	-52,39
485,025	7
485,229	31,57
485,433	-19,63
485,637	74,58
485,841	-3,24
486,045	19,29
486,249	88,92
486,453	23,38
486,657	33,62
486,861	56,15
487,065	15,19
487,269	-11,43
487,473	23,38
487,677	17,24
487,881	76,63
488,085	-11,43
488,289	27,48
488,493	43,86
488,697	-7,34
488,901	43,86
489,105	-66,73
489,309	-36,01
489,512	93,01
489,716	-23,72
489,92	-13,48
490,124	88,92
490,328	2,9
490,531	27,48
490,735	2,9
490,939	0,85
491,143	133,97
491,346	0,85
491,55	7
491,754	45,91
491,958	29,52
492,161	17,24
492,365	62,29
492,569	15,19
492,772	19,29
492,976	45,91
493,18	21,33
493,383	-44,2
493,587	56,15
493,79	35,67
493,994	52,05
494,197	-5,29
494,401	52,05
494,605	-21,67
494,808	37,72
495,012	15,19
495,215	-17,58
495,419	19,29
495,622	-48,3
495,825	64,34
496,029	56,15
496,232	-50,35
496,436	9,05
496,639	-17,58
496,843	13,14
497,046	-11,43
497,249	29,52
497,453	47,96
497,656	7
497,859	4,95
498,063	60,24
498,266	11,09
498,469	66,39
498,673	-40,11
498,876	62,29
499,079	37,72
499,282	-21,67
499,485	19,29
499,689	-11,43
499,892	-3,24
500,095	54,1
500,298	0,85
500,501	-1,19
500,705	-21,67
500,908	-1,19
501,111	43,86
501,314	52,05
501,517	-33,96
501,72	41,81
501,923	23,38
502,126	11,09
502,329	47,96
502,532	31,57
502,735	-17,58
502,938	97,11
503,141	37,72
503,344	13,14
503,547	-5,29
503,75	-36,01
503,953	13,14
504,156	-38,06
504,359	-19,63
504,562	-7,34
504,765	-31,91
504,968	13,14
505,17	-23,72
505,373	-5,29
505,576	-25,77
505,779	-91,31
505,982	60,24
506,185	19,29
506,387	39,76
506,59	27,48
506,793	15,19
506,996	-54,44
507,198	-19,63
507,401	-40,11
507,604	31,57
507,807	41,81
508,009	-21,67
508,212	88,92
508,415	29,52
508,617	2,9
508,82	58,2
509,022	0,85
509,225	23,38
509,428	-29,87
509,63	17,24
509,833	15,19
510,035	-62,63
510,238	-52,39
510,44	-13,48
510,643	-1,19
510,845	39,76
511,048	60,24
511,25	23,38
511,453	-11,43
511,655	-11,43
511,858	-1,19
512,06	17,24
512,262	66,39
512,465	43,86
512,667	11,09
512,87	19,29
513,072	35,67
513,274	11,09
513,477	-44,2
513,679	9,05
513,881	-5,29
514,084	15,19
514,286	-13,48
514,488	7
514,69	80,72
514,893	43,86
515,095	25,43
515,297	21,33
515,499	17,24
515,701	-5,29
515,904	31,57
516,106	13,14
516,308	33,62
516,51	-25,77
516,712	15,19
516,914	-79,02
517,116	66,39
517,318	52,05
517,52	0,85
517,722	-40,11
517,925	4,95
518,127	35,67
518,329	58,2
518,531	43,86
518,733	-40,11
518,935	-23,72
519,136	47,96
519,338	7
519,54	-13,48
519,742	60,24
519,944	7
520,146	-38,06
520,348	-3,24
520,55	-7,34
520,752	82,77
520,954	43,86
521,155	2,9
521,357	60,24
521,559	68,44
521,761	19,29
521,963	-3,24
522,164	-1,19
522,366	-29,87
522,568	0,85
522,77	60,24
522,971	-21,67
523,173	33,62
523,375	64,34
523,576	7
523,778	93,01
523,98	37,72
524,181	39,76
524,383	74,58
524,584	56,15
524,786	11,09
524,988	23,38
525,189	13,14
525,391	43,86
525,592	13,14
525,794	2,9
525,995	-1,19
526,197	0,85
526,398	-1,19
526,6	82,77
526,801	43,86
527,003	2,9
527,204	23,38
527,406	62,29
527,607	84,82
527,808	129,88
528,01	13,14
528,211	29,52
528,412	-40,11
528,614	-38,06
528,815	52,05
529,016	33,62
529,218	68,44
529,419	-25,77
529,62	37,72
529,822	31,57
530,023	-40,11
530,224	13,14
530,425	29,52
530,626	-7,34
530,828	35,67
531,029	-11,43
531,23	17,24
531,431	-23,72
531,632	21,33
531,833	2,9
532,035	27,48
532,236	19,29
532,437	45,91
532,638	39,76
532,839	-13,48
533,04	78,68
533,241	15,19
533,442	2,9
533,643	27,48
533,844	-17,58
534,045	-25,77
534,246	21,33
534,447	103,25
534,648	35,67
534,849	45,91
535,05	7
535,251	35,67
535,451	4,95
535,652	27,48
535,853	-11,43
536,054	-46,25
536,255	-21,67
536,456	-15,53
536,657	82,77
536,857	93,01
537,058	54,1
537,259	-23,72
537,46	-19,63
537,66	33,62
537,861	25,43
538,062	7
538,263	9,05
538,463	13,14
538,664	-62,63
538,865	17,24
539,065	19,29
539,266	58,2
539,466	15,19
539,667	2,9
539,868	39,76
540,068	93,01
540,269	29,52
540,469	7
540,67	9,05
540,87	-11,43
541,071	62,29
541,271	2,9
541,472	21,33
541,672	2,9
541,873	35,67
542,073	-17,58
542,274	27,48
542,474	4,95
542,675	4,95
542,875	-7,34
543,075	47,96
543,276	-13,48
543,476	-70,83
543,676	27,48
543,877	-9,39
544,077	76,63
544,277	37,72
544,478	-44,2
544,678	19,29
544,878	27,48
545,078	19,29
545,279	25,43
545,479	-7,34
545,679	45,91
545,879	-40,11
546,079	27,48
546,28	-17,58
546,48	7
546,68	25,43
546,88	-13,48
547,08	33,62
547,28	62,29
547,48	56,15
547,68	72,53
547,88	-13,48
548,081	-21,67
548,281	-38,06
548,481	27,48
548,681	62,29
548,881	33,62
549,081	11,09
549,28	2,9
549,48	76,63
549,68	-27,82
549,88	15,19
550,08	50
550,28	15,19
550,48	72,53
550,68	60,24
550,88	37,72
551,08	2,9
551,279	74,58
551,479	-31,91
551,679	41,81
551,879	13,14
552,079	111,44
552,278	15,19
552,478	64,34
552,678	-23,72
552,878	88,92
553,077	27,48
553,277	-15,53
553,477	-11,43
553,676	39,76
553,876	-5,29
554,076	43,86
554,275	52,05
554,475	82,77
554,674	19,29
554,874	76,63
555,074	101,2
555,273	74,58
555,473	-44,2
555,672	2,9
555,872	37,72
556,071	84,82
556,271	52,05
556,47	25,43
556,67	39,76
556,869	52,05
557,068	19,29
557,268	-13,48
557,467	31,57
557,667	146,26
557,866	56,15
558,065	80,72
558,265	21,33
558,464	72,53
558,663	-3,24
558,863	39,76
559,062	56,15
559,261	15,19
559,461	43,86
559,66	-27,82
559,859	56,15
560,058	43,86
560,258	-15,53
560,457	58,2
560,656	23,38
560,855	-36,01
561,054	35,67
561,253	41,81
561,453	97,11
561,652	43,86
561,851	70,48
562,05	88,92
562,249	47,96
562,448	21,33
562,647	43,86
562,846	93,01
563,045	72,53
563,244	68,44
563,443	64,34
563,642	4,95
563,841	74,58
564,04	25,43
564,239	-5,29
564,438	4,95
564,637	58,2
564,836	127,83
565,035	101,2
565,234	93,01
565,432	21,33
565,631	80,72
565,83	119,64
566,029	117,59
566,228	86,87
566,427	84,82
566,625	95,06
566,824	37,72
567,023	45,91
567,222	121,68
567,42	-1,19
567,619	140,12
567,818	138,07
568,016	129,88
568,215	78,68
568,414	170,83
568,612	176,98
568,811	209,75
569,01	158,55
569,208	162,64
569,407	150,36
569,605	209,75
569,804	170,83
570,002	244,56
570,201	262,99
570,4	318,29
570,598	396,11
570,797	387,92
570,995	437,07
571,193	502,61
571,392	555,85
571,59	572,24
571,789	691,02
571,987	633,68
572,186	846,66
572,384	1018,69
572,582	1125,19
572,781	1329,99
572,979	1583,93
573,177	1762,11
573,376	2280,24
573,574	2523,95
573,772	3164,97
573,971	3605,28
574,169	4217,62
574,367	4975,37
574,565	6359,8
574,763	7760,61
574,962	9646,79
575,16	11311,78
575,358	13451,91
575,556	15704,68
575,754	18944,56
575,952	22014,47
576,151	25780,68
576,349	29682,06
576,547	33548,63
576,745	37136,67
576,943	40646,89
577,141	42950,85
577,339	46125,21
577,537	48304,24
577,735	49668,19
577,933	51290,18
578,131	52740,14
578,329	53743,65
578,527	54396,95
578,725	54749,2
578,923	56131,58
579,121	55826,43
579,319	56532,98
579,516	57712,61
579,714	57260,01
579,912	57690,09
580,11	57653,22
580,308	58640,34
580,506	59185,1
580,704	58445,79
580,901	59815,88
581,099	60587,96
581,297	60553,15
581,495	60471,23
581,692	60792,76
581,89	59998,15
582,088	61093,81
582,285	60823,48
582,483	61106,1
582,681	60843,96
582,878	60200,89
583,076	59971,52
583,274	60051,39
583,471	58619,86
583,669	58347,48
583,866	56371,19
584,064	54958,09
584,262	51505,22
584,459	49418,34
584,657	45744,28
584,854	42698,95
585,052	38568,2
585,249	34941,25
585,447	30892,41
585,644	27187,64
585,841	24019,43
586,039	21125,65
586,236	18051,65
586,434	15501,93
586,631	13140,62
586,828	11453,09
587,026	9847,49
587,223	8209,11
587,42	6791,92
587,618	5720,83
587,815	4860,68
588,012	4234
588,21	3509,02
588,407	3126,05
588,604	2569,01
588,801	2282,29
588,999	2040,63
589,196	1708,86
589,393	1450,82
589,59	1248,07
589,787	1114,95
589,984	897,86
590,182	899,91
590,379	686,92
590,576	740,17
590,773	584,52
590,97	576,33
591,167	488,27
591,364	432,97
591,561	357,2
591,758	410,45
591,955	328,53
592,152	281,43
592,349	318,29
592,546	277,33
592,743	181,07
592,94	273,23
593,137	254,8
593,334	133,97
593,531	215,89
593,727	144,21
593,924	144,21
594,121	150,36
594,318	152,4
594,515	129,88
594,712	158,55
594,908	131,92
595,105	129,88
595,302	99,16
595,499	95,06
595,696	45,91
595,892	105,3
596,089	154,45
596,286	27,48
596,482	41,81
596,679	62,29
596,876	121,68
597,072	88,92
597,269	43,86
597,466	39,76
597,662	31,57
597,859	68,44
598,055	99,16
598,252	17,24
598,448	84,82
598,645	62,29
598,841	31,57
599,038	74,58
599,234	86,87
599,431	103,25
599,627	74,58
599,824	54,1
600,02	2,9
600,217	99,16
600,413	41,81
600,609	50
600,806	25,43
601,002	37,72
601,198	2,9
601,395	4,95
601,591	70,48
601,787	35,67
601,984	99,16
602,18	64,34
602,376	35,67
602,572	47,96
602,769	95,06
602,965	76,63
603,161	76,63
603,357	33,62
603,553	88,92
603,75	43,86
603,946	43,86
604,142	76,63
604,338	47,96
604,534	9,05
604,73	41,81
604,926	64,34
605,122	54,1
605,318	68,44
605,514	31,57
605,71	19,29
605,906	68,44
606,102	7
606,298	-5,29
606,494	37,72
606,69	103,25
606,886	101,2
607,082	37,72
607,278	19,29
607,474	45,91
607,67	60,24
607,866	84,82
608,062	119,64
608,257	45,91
608,453	21,33
608,649	52,05
608,845	93,01
609,041	33,62
609,236	-27,82
609,432	54,1
609,628	17,24
609,824	19,29
610,019	43,86
610,215	35,67
610,411	15,19
610,606	13,14
610,802	50
610,998	0,85
611,193	72,53
611,389	45,91
611,584	27,48
611,78	-3,24
611,976	13,14
612,171	52,05
612,367	-68,78
612,562	39,76
612,758	21,33
612,953	35,67
613,149	11,09
613,344	62,29
613,539	19,29
613,735	25,43
613,93	25,43
614,126	11,09
614,321	21,33
614,517	27,48
614,712	66,39
614,907	64,34
615,103	50
615,298	13,14
615,493	43,86
615,688	27,48
615,884	11,09
616,079	41,81
616,274	-44,2
616,47	-74,92
616,665	-15,53
616,86	-25,77
617,055	-21,67
617,25	35,67
617,445	39,76
617,641	-46,25
617,836	43,86
618,031	129,88
618,226	56,15
618,421	56,15
618,616	64,34
618,811	-13,48
619,006	-5,29
619,201	21,33
619,396	-44,2
619,591	-33,96
619,786	103,25
619,981	31,57
620,176	7
620,371	15,19
620,566	39,76
620,761	93,01
620,956	-27,82
621,151	31,57
621,346	-11,43
621,541	9,05
621,735	-3,24
621,93	52,05
622,125	23,38
622,32	-38,06
622,515	27,48
622,709	17,24
622,904	33,62
623,099	2,9
623,294	-29,87
623,488	66,39
623,683	-70,83
623,878	-23,72
624,072	-5,29
624,267	2,9
624,462	-15,53
624,656	70,48
624,851	35,67
625,046	93,01
625,24	45,91
625,435	2,9
625,629	-11,43
625,824	-13,48
626,018	11,09
626,213	47,96
626,407	2,9
626,602	-36,01
626,796	-66,73
626,991	35,67
627,185	-25,77
627,38	2,9
627,574	19,29
627,768	21,33
627,963	37,72
628,157	62,29
628,352	54,1
628,546	13,14
628,74	62,29
628,935	-29,87
629,129	-19,63
629,323	-27,82
629,517	-3,24
629,712	-60,59
629,906	64,34
630,1	45,91
630,294	-29,87
630,489	35,67
630,683	-5,29
630,877	78,68
631,071	84,82
631,265	-5,29
631,459	-52,39
631,653	-25,77
631,848	35,67
632,042	41,81
632,236	35,67
632,43	-23,72
632,624	93,01
632,818	29,52
633,012	45,91
633,206	-31,91
633,4	43,86
633,594	43,86
633,788	23,38
633,982	2,9
634,176	2,9
634,369	21,33
634,563	60,24
634,757	86,87
634,951	35,67
635,145	-19,63
635,339	-5,29
635,533	15,19
635,726	2,9
635,92	37,72
636,114	99,16
636,308	-50,35
636,501	-62,63
636,695	-40,11
636,889	-62,63
637,083	33,62
637,276	2,9
637,47	41,81
637,664	7
637,857	68,44
638,051	-25,77
638,244	27,48
638,438	27,48
638,632	4,95
638,825	-1,19
639,019	70,48
639,212	52,05
639,406	-27,82
639,599	-46,25
639,793	17,24
639,986	19,29
640,18	31,57
640,373	7
640,567	-9,39
640,76	2,9
640,954	11,09
641,147	-56,49
641,34	-19,63
641,534	41,81
641,727	-7,34
641,92	76,63
642,114	33,62
642,307	-50,35
642,5	37,72
642,694	29,52
642,887	25,43
643,08	-44,2
643,273	60,24
643,467	-19,63
643,66	-27,82
643,853	-70,83
644,046	19,29
644,239	74,58
644,432	47,96
644,626	39,76
644,819	-13,48
645,012	-25,77
645,205	56,15
645,398	80,72
645,591	-13,48
645,784	68,44
645,977	-11,43
646,17	-25,77
646,363	66,39
646,556	-46,25
646,749	-50,35
646,942	37,72
647,135	-46,25
647,328	33,62
647,521	15,19
647,714	-33,96
647,907	37,72
648,099	-7,34
648,292	-7,34
648,485	-50,35
648,678	-27,82
648,871	4,95
649,064	-5,29
649,256	45,91
649,449	21,33
649,642	93,01
649,835	39,76
650,027	-29,87
650,22	4,95
650,413	33,62
650,605	-7,34
650,798	-13,48
650,991	2,9
651,183	-3,24
651,376	21,33
651,568	15,19
651,761	29,52
651,954	33,62
652,146	37,72
652,339	58,2
652,531	-46,25
652,724	-25,77
652,916	-19,63
653,109	4,95
653,301	27,48
653,494	47,96
653,686	43,86
653,879	95,06
654,071	50
654,263	21,33
654,456	13,14
654,648	56,15
654,84	-27,82
655,033	-25,77
655,225	39,76
655,417	19,29
655,61	23,38
655,802	43,86
655,994	54,1
656,186	13,14
656,379	-62,63
656,571	35,67
656,763	11,09
656,955	-21,67
657,148	19,29
657,34	-33,96
657,532	43,86
657,724	45,91
657,916	-1,19
658,108	-15,53
658,3	9,05
658,492	47,96
658,684	-44,2
658,876	52,05
659,068	-3,24
659,26	78,68
659,452	7
659,644	2,9
659,836	-21,67
660,028	-11,43
660,22	-13,48
660,412	27,48
660,604	76,63
660,796	37,72
660,988	7
661,18	21,33
661,372	13,14
661,563	19,29
661,755	13,14
661,947	56,15
662,139	70,48
662,331	-81,07
662,522	27,48
662,714	-29,87
662,906	52,05
663,097	52,05
663,289	11,09
663,481	-1,19
663,673	19,29
663,864	35,67
664,056	54,1
664,247	-62,63
664,439	45,91
664,631	-17,58
664,822	84,82
665,014	4,95
665,205	56,15
665,397	54,1
665,588	76,63
665,78	19,29
665,971	13,14
666,163	11,09
666,354	93,01
666,546	7
666,737	56,15
666,929	45,91
667,12	2,9
667,311	7
667,503	80,72
667,694	-5,29
667,885	60,24
668,077	17,24
668,268	35,67
668,459	27,48
668,651	-33,96
668,842	-11,43
669,033	-13,48
669,224	17,24
669,416	39,76
669,607	21,33
669,798	45,91
669,989	-11,43
670,18	2,9
670,371	45,91
670,563	4,95
670,754	33,62
670,945	37,72
671,136	58,2
671,327	35,67
671,518	-17,58
671,709	72,53
671,9	-15,53
672,091	19,29
672,282	13,14
672,473	29,52
672,664	97,11
672,855	86,87
673,046	-5,29
673,237	39,76
673,428	21,33
673,619	11,09
673,809	-1,19
674	2,9
674,191	35,67
674,382	19,29
674,573	4,95
674,764	37,72
674,954	21,33
675,145	47,96
675,336	45,91
675,527	-5,29
675,717	35,67
675,908	60,24
676,099	-23,72
676,289	7
676,48	15,19
676,671	-1,19
676,861	-11,43
677,052	-19,63
677,243	-19,63
677,433	-38,06
677,624	97,11
677,814	0,85
678,005	2,9
678,195	62,29
678,386	-5,29
678,576	29,52
678,767	-3,24
678,957	23,38
679,148	29,52
679,338	-13,48
679,529	-15,53
679,719	-38,06
679,909	9,05
680,1	76,63
680,29	-13,48
680,481	33,62
680,671	27,48
680,861	11,09
681,052	29,52
681,242	7
681,432	-13,48
681,622	-27,82
681,813	54,1
682,003	31,57
682,193	-3,24
682,383	31,57
682,573	-33,96
682,764	19,29
682,954	-3,24
683,144	70,48
683,334	66,39
683,524	0,85
683,714	2,9
683,904	35,67
684,094	-17,58
684,284	-15,53
684,474	-91,31
684,664	-38,06
684,854	35,67
685,044	11,09
685,234	17,24
685,424	103,25
685,614	27,48
685,804	-19,63
685,994	23,38
686,184	11,09
686,374	-11,43
686,564	-19,63
686,753	-64,68
686,943	60,24
687,133	19,29
687,323	37,72
687,513	39,76
687,702	13,14
687,892	23,38
688,082	60,24
688,272	33,62
688,461	-13,48
688,651	27,48
688,841	45,91
689,03	54,1
689,22	-11,43
689,41	99,16
689,599	52,05
689,789	27,48
689,979	33,62
690,168	-1,19
690,358	-27,82
690,547	-13,48
690,737	25,43
690,926	15,19
691,116	-13,48
691,305	29,52
691,495	-13,48
691,684	25,43
691,874	-15,53
692,063	-29,87
692,252	64,34
692,442	41,81
692,631	13,14
692,82	-29,87
693,01	37,72
693,199	2,9
693,388	80,72
693,578	-46,25
693,767	33,62
693,956	-42,15
694,146	43,86
694,335	56,15
694,524	27,48
694,713	-5,29
694,902	76,63
695,092	-11,43
695,281	31,57
695,47	11,09
695,659	88,92
695,848	-11,43
696,037	68,44
696,226	-44,2
696,415	27,48
696,604	-36,01
696,793	50
696,982	35,67
697,171	78,68
697,36	25,43
697,549	95,06
697,738	-46,25
697,927	2,9
698,116	72,53
698,305	-54,44
698,494	-68,78
698,683	47,96
698,872	-48,3
699,061	80,72
699,25	-21,67
699,438	68,44
699,627	76,63
699,816	27,48
700,005	-1,19
700,193	11,09
700,382	-64,68
700,571	-17,58
700,76	60,24
700,948	11,09
701,137	-70,83
701,326	68,44
701,514	-44,2
701,703	17,24
701,892	45,91
702,08	50
702,269	45,91
702,457	-5,29
702,646	-1,19
702,834	17,24
703,023	68,44
703,212	64,34
703,4	-36,01
703,589	52,05
703,777	23,38
703,965	70,48
704,154	-9,39
704,342	-29,87
704,531	11,09
704,719	15,19
704,907	-29,87
705,096	11,09
705,284	-21,67
705,472	-23,72
705,661	29,52
705,849	-11,43
706,037	-1,19
706,226	62,29
706,414	25,43
706,602	-11,43
706,79	66,39
706,979	47,96
707,167	-3,24
707,355	-50,35
707,543	15,19
707,731	-5,29
707,919	64,34
708,107	19,29
708,296	-11,43
708,484	35,67
708,672	19,29
708,86	56,15
709,048	11,09
709,236	86,87
709,424	31,57
709,612	-9,39
709,8	-31,91
709,988	25,43
710,176	-1,19
710,364	29,52
710,551	-9,39
710,739	52,05
710,927	4,95
711,115	0,85
711,303	-27,82
711,491	43,86
711,679	-60,59
711,866	56,15
712,054	27,48
712,242	54,1
712,43	-11,43
712,617	76,63
712,805	-1,19
712,993	-36,01
713,181	-27,82
713,368	-21,67
713,556	95,06
713,744	13,14
713,931	119,64
714,119	-52,39
714,306	47,96
714,494	35,67
714,682	41,81
714,869	-56,49
715,057	11,09
715,244	-95,4
715,432	19,29
715,619	13,14
715,807	54,1
715,994	86,87
716,182	-29,87
716,369	13,14
716,556	4,95
716,744	-62,63
716,931	-17,58
717,119	-58,54
717,306	4,95
717,493	21,33
717,681	4,95
717,868	21,33
718,055	21,33
718,242	29,52
718,43	7
718,617	27,48
718,804	-21,67
718,991	15,19
719,179	64,34
719,366	54,1
719,553	-29,87
719,74	43,86
719,927	62,29
720,114	43,86
720,301	-11,43
720,488	-1,19
720,676	2,9
720,863	43,86
721,05	-9,39
721,237	72,53
721,424	-58,54
721,611	-15,53
721,798	35,67
721,985	2,9
722,172	-79,02
722,358	-29,87
722,545	21,33
722,732	19,29
722,919	0,85
723,106	9,05
723,293	-33,96
723,48	-1,19
723,667	2,9
723,853	27,48
724,04	-13,48
724,227	4,95
724,414	56,15
724,6	72,53
724,787	21,33
724,974	17,24
725,161	27,48
725,347	2,9
725,534	31,57
725,72	19,29
725,907	0,85
726,094	70,48
726,28	31,57
726,467	45,91
726,653	-60,59
726,84	15,19
727,027	23,38
727,213	0,85
727,4	27,48
727,586	19,29
727,773	39,76
727,959	47,96
728,145	2,9
728,332	-5,29
728,518	2,9
728,705	11,09
728,891	39,76
729,077	-70,83
729,264	-9,39
729,45	-3,24
729,636	-27,82
729,823	7
730,009	-56,49
730,195	21,33
730,382	54,1
730,568	-17,58
730,754	-50,35
730,94	-7,34
731,126	2,9
731,313	2,9
731,499	-29,87
731,685	35,67
731,871	17,24
732,057	47,96
732,243	31,57
732,429	19,29
732,615	-25,77
732,801	88,92
732,987	13,14
733,173	37,72
733,359	-64,68
733,545	-38,06
733,731	-17,58
733,917	9,05
734,103	21,33
734,289	80,72
734,475	-68,78
734,661	54,1
734,847	13,14
735,033	-38,06
735,219	-99,5
735,404	37,72
735,59	27,48
735,776	60,24
735,962	-27,82
736,148	74,58
736,333	68,44
736,519	-25,77
736,705	43,86
736,89	11,09
737,076	86,87
737,262	4,95
737,447	-50,35
737,633	-7,34
737,819	11,09
738,004	66,39
738,19	56,15
738,375	11,09
738,561	15,19
738,747	35,67
738,932	35,67
739,118	-15,53
739,303	11,09
739,489	19,29
739,674	11,09
739,859	4,95
740,045	-29,87
740,23	76,63
740,416	-68,78
740,601	64,34
740,786	9,05
740,972	19,29
741,157	37,72
741,342	27,48
741,528	11,09
741,713	31,57
741,898	-13,48
742,084	21,33
742,269	-1,19
742,454	37,72
742,639	86,87
742,824	9,05
743,01	-46,25
743,195	43,86
743,38	52,05
743,565	43,86
743,75	56,15
743,935	-11,43
744,12	19,29
744,305	-17,58
744,49	-1,19
744,675	17,24
744,86	11,09
745,045	-29,87
745,23	-19,63
745,415	7
745,6	78,68
745,785	41,81
745,97	-21,67
746,155	17,24
746,34	21,33
746,525	17,24
746,71	-21,67
746,895	86,87
747,079	-38,06
747,264	4,95
747,449	41,81
747,634	11,09
747,819	62,29
748,003	-11,43
748,188	4,95
748,373	11,09
748,557	23,38
748,742	-9,39
748,927	0,85
749,111	41,81
749,296	43,86
749,481	-9,39
749,665	9,05
749,85	-29,87
750,034	54,1
750,219	19,29
750,404	45,91
750,588	70,48
750,773	27,48
750,957	27,48
751,141	9,05
751,326	82,77
751,51	37,72
751,695	52,05
751,879	-38,06
752,064	-38,06
752,248	25,43
752,432	-44,2
752,617	72,53
752,801	-42,15
752,985	-1,19
753,17	25,43
753,354	50
753,538	23,38
753,722	-9,39
753,907	-29,87
754,091	-89,26
754,275	-17,58
754,459	7
754,643	29,52
754,828	-29,87
755,012	17,24
755,196	84,82
755,38	-19,63
755,564	70,48
755,748	27,48
755,932	19,29
756,116	-17,58
756,3	29,52
756,484	13,14
756,668	-29,87
756,852	60,24
757,036	11,09
757,22	-19,63
757,404	68,44
757,588	2,9
757,772	-21,67
757,956	76,63
758,14	29,52
758,323	-46,25
758,507	-70,83
758,691	-5,29
758,875	19,29
759,059	66,39
759,242	-54,44
759,426	37,72
759,61	84,82
759,794	27,48
759,977	-1,19
760,161	-44,2
760,345	-13,48
760,528	37,72
760,712	-48,3
760,895	-29,87
761,079	-23,72
761,263	-17,58
761,446	74,58
761,63	25,43
761,813	9,05
761,997	-62,63
762,18	-38,06
762,364	43,86
762,547	78,68
762,731	-5,29
762,914	39,76
763,098	54,1
763,281	-1,19
763,464	-42,15
763,648	-48,3
763,831	50
764,015	39,76
764,198	19,29
764,381	21,33
764,564	88,92
764,748	-33,96
764,931	-17,58
765,114	62,29
765,297	21,33
765,481	43,86
765,664	37,72
765,847	25,43
766,03	2,9
766,213	-11,43
766,397	41,81
766,58	52,05
766,763	-25,77
766,946	4,95
767,129	2,9
767,312	4,95
767,495	-25,77
767,678	56,15
767,861	-11,43
768,044	2,9
768,227	39,76
768,41	-44,2
768,593	-5,29
768,776	-21,67
768,959	35,67
769,142	43,86
769,324	-76,97
769,507	-11,43
769,69	41,81
769,873	41,81
770,056	78,68
770,239	4,95
770,421	27,48
770,604	58,2
770,787	-25,77
770,97	-64,68
771,152	-54,44
771,335	-19,63
771,518	54,1
771,7	52,05
771,883	35,67
772,066	4,95
772,248	13,14
772,431	-44,2
772,613	19,29
772,796	-42,15
772,978	90,96
773,161	-21,67
773,343	25,43
773,526	-23,72
773,708	-33,96
773,891	-31,91
774,073	54,1
774,256	-46,25
774,438	-11,43
774,621	-19,63
774,803	52,05
774,985	60,24
775,168	-27,82
775,35	33,62
775,532	-17,58
775,715	11,09
775,897	41,81
776,079	31,57
776,261	4,95
776,444	47,96
776,626	13,14
776,808	11,09
776,99	-29,87
777,173	-1,19
777,355	-1,19
777,537	50
777,719	35,67
777,901	-17,58
778,083	54,1
778,265	17,24
778,447	-9,39
778,629	35,67
778,811	0,85
778,993	82,77
779,175	-21,67
779,357	52,05
779,539	-52,39
779,721	17,24
779,903	-56,49
780,085	35,67
780,267	-11,43
780,449	9,05
780,631	70,48
780,812	-60,59
780,994	76,63
781,176	47,96
781,358	-44,2
781,54	-42,15
781,721	52,05
781,903	-1,19
782,085	2,9
782,267	-54,44
782,448	43,86
782,63	7
782,812	-5,29
782,993	7
783,175	-36,01
783,357	2,9
783,538	15,19
783,72	50
783,901	64,34
784,083	-1,19
784,264	-7,34
784,446	35,67
784,627	-93,35
784,809	-31,91
784,99	-54,44
785,172	-17,58
785,353	33,62
785,535	-21,67
785,716	13,14
785,897	-68,78
786,079	33,62
786,26	45,91
786,441	-31,91
786,623	35,67
786,804	23,38
786,985	7
787,167	54,1
787,348	-52,39
787,529	-27,82
787,71	-23,72
787,891	17,24
788,073	-5,29
788,254	35,67
788,435	21,33
788,616	-54,44
788,797	41,81
788,978	7
789,159	52,05
789,34	70,48
789,522	-5,29
789,703	-27,82
789,884	78,68
790,065	37,72
790,246	45,91
790,427	45,91
790,607	9,05
790,788	45,91
790,969	93,01
791,15	35,67
791,331	45,91
791,512	33,62
791,693	-1,19
791,874	-27,82
792,054	-21,67
792,235	-5,29
792,416	-21,67
792,597	50
792,778	62,29
792,958	66,39
793,139	-3,24
793,32	-19,63
793,5	9,05
793,681	11,09
793,862	43,86
794,042	-15,53
794,223	0,85
794,404	-3,24
794,584	-11,43
794,765	-3,24
794,945	-5,29
795,126	23,38
795,306	76,63
795,487	86,87
795,667	-62,63
795,848	-42,15
796,028	23,38
796,209	-79,02
796,389	-21,67
796,57	-27,82
796,75	0,85
796,93	68,44
797,111	52,05
797,291	105,3
797,471	-21,67
797,652	43,86
797,832	23,38
798,012	41,81
798,192	19,29
798,373	-9,39
798,553	-13,48
798,733	76,63
798,913	-68,78
799,093	-11,43
799,274	4,95
799,454	52,05
799,634	-3,24
799,814	25,43
799,994	-11,43
800,174	-7,34
800,354	-5,29
800,534	-13,48
800,714	15,19
800,894	7
801,074	11,09
801,254	60,24
801,434	-7,34
801,614	62,29
801,794	-17,58
801,974	176,98
802,154	-60,59
802,334	29,52
802,514	-21,67
802,693	-9,39
802,873	-62,63
803,053	74,58
803,233	13,14
803,413	29,52
803,592	-5,29
803,772	60,24
803,952	-48,3
804,131	15,19
804,311	37,72
804,491	23,38
804,67	-13,48
804,85	-1,19
805,03	-11,43
805,209	29,52
805,389	-13,48
805,568	2,9
805,748	-3,24
805,928	64,34
806,107	4,95
806,287	78,68
806,466	-21,67
806,646	-11,43
806,825	78,68
807,004	0,85
807,184	52,05
807,363	-44,2
807,543	7
807,722	72,53
807,901	27,48
808,081	-44,2
808,26	-33,96
808,439	58,2
808,619	0,85
808,798	21,33
808,977	-15,53
809,156	33,62
809,336	27,48
809,515	43,86
809,694	21,33
809,873	37,72
810,052	13,14
810,231	56,15
810,411	19,29
810,59	13,14
810,769	33,62
810,948	-7,34
811,127	27,48
811,306	45,91
811,485	41,81
811,664	41,81
811,843	-9,39
812,022	47,96
812,201	-64,68
812,38	68,44
812,559	-48,3
812,737	31,57
812,916	-33,96
813,095	54,1
813,274	-50,35
813,453	7
813,632	-21,67
813,811	68,44
813,989	90,96
814,168	27,48
814,347	74,58
814,526	19,29
814,704	7
814,883	17,24
815,062	17,24
815,24	50
815,419	-38,06
815,598	-7,34
815,776	29,52
815,955	76,63
816,133	-13,48
816,312	-21,67
816,49	-11,43
816,669	50
816,847	2,9
817,026	37,72
817,204	95,06
817,383	109,4
817,561	-31,91
817,74	43,86
817,918	13,14
818,097	29,52
818,275	4,95
818,453	52,05
818,632	-3,24
818,81	21,33
818,988	27,48
819,167	19,29
819,345	-31,91
819,523	29,52
819,701	0,85
819,879	25,43
820,058	33,62
820,236	54,1
820,414	25,43
820,592	70,48
820,77	-40,11
820,948	-48,3
821,127	-33,96
821,305	7
821,483	-15,53
821,661	4,95
821,839	45,91
822,017	45,91
822,195	-33,96
822,373	23,38
822,551	-1,19
822,729	-3,24
822,907	45,91
823,085	-3,24
823,262	-109,74
823,44	0,85
823,618	-5,29
823,796	-38,06
823,974	-5,29
824,152	11,09
824,329	78,68
824,507	-3,24
824,685	27,48
824,863	45,91
825,04	-5,29
825,218	-5,29
825,396	-3,24
825,574	-58,54
825,751	7
825,929	-13,48
826,107	-19,63
826,284	43,86
826,462	-38,06
826,639	58,2
826,817	43,86
826,994	-38,06
827,172	60,24
827,349	68,44
827,527	13,14
827,704	-7,34
827,882	35,67
828,059	19,29
828,237	-27,82
828,414	45,91
828,591	29,52
828,769	7
828,946	21,33
829,124	80,72
829,301	-68,78
829,478	7
829,655	31,57
829,833	35,67
830,01	-66,73
830,187	17,24
830,364	-27,82
830,542	-5,29
830,719	11,09
830,896	64,34
831,073	39,76
831,25	23,38
831,427	52,05
831,604	13,14
831,782	45,91
831,959	17,24
832,136	43,86
832,313	60,24
832,49	-25,77
832,667	41,81
832,844	2,9
833,021	19,29
833,198	7
833,374	23,38
833,551	45,91
833,728	-38,06
833,905	-7,34
834,082	11,09
834,259	29,52
834,436	-3,24
834,612	52,05
834,789	70,48
834,966	68,44
835,143	86,87
835,319	68,44
835,496	21,33
835,673	23,38
835,85	-58,54
836,026	-56,49
836,203	2,9
836,38	-15,53
836,556	23,38
836,733	27,48
836,909	-5,29
837,086	23,38
837,262	-70,83
837,439	19,29
837,616	-25,77
837,792	43,86
837,968	11,09
838,145	27,48
838,321	11,09
838,498	2,9
838,674	35,67
838,851	21,33
839,027	17,24
839,203	50
839,38	78,68
839,556	37,72
839,732	29,52
839,909	-27,82
840,085	66,39
840,261	45,91
840,437	31,57
840,614	-21,67
840,79	-9,39
840,966	-42,15
841,142	13,14
841,318	-3,24
841,494	-40,11
841,671	-85,16
841,847	-31,91
842,023	-9,39
842,199	9,05
842,375	17,24
842,551	-5,29
842,727	-66,73
842,903	19,29
843,079	35,67
843,255	86,87
843,431	-31,91
843,607	107,35
843,783	-31,91
843,959	33,62
844,134	-29,87
844,31	45,91
844,486	25,43
844,662	-15,53
844,838	52,05
845,013	37,72
845,189	-5,29
845,365	-13,48
845,541	64,34
845,716	52,05
845,892	70,48
846,068	64,34
846,244	-13,48
846,419	37,72
846,595	31,57
846,77	29,52
846,946	4,95
847,122	27,48
847,297	-42,15
847,473	-11,43
847,648	-62,63
847,824	-13,48
847,999	-50,35
848,175	-11,43
848,35	25,43
848,526	-15,53
848,701	-13,48
848,876	-17,58
849,052	4,95
849,227	-1,19
849,403	-7,34
849,578	-17,58
849,753	-33,96
849,929	-38,06
850,104	-36,01
850,279	37,72
850,454	-1,19
850,63	-1,19
850,805	2,9
850,98	19,29
851,155	64,34
851,33	-17,58
851,505	-29,87
851,681	-23,72
851,856	-36,01
852,031	15,19
852,206	54,1
852,381	11,09
852,556	-81,07
852,731	9,05
852,906	2,9
853,081	13,14
853,256	37,72
853,431	33,62
853,606	4,95
853,781	31,57
853,956	-25,77
854,131	41,81
854,305	43,86
854,48	-48,3
854,655	-50,35
854,83	-13,48
855,005	-21,67
855,18	47,96
855,354	35,67
855,529	-46,25
855,704	31,57
855,879	-1,19
856,053	29,52
856,228	31,57
856,403	-7,34
856,577	-76,97
856,752	-44,2
856,926	13,14
857,101	21,33
857,276	-21,67
857,45	50
857,625	-1,19
857,799	74,58
857,974	47,96
858,148	21,33
858,323	39,76
858,497	4,95
858,672	31,57
858,846	-33,96
859,02	-11,43
859,195	31,57
859,369	-15,53
859,543	35,67
859,718	-48,3
859,892	2,9
860,066	56,15
860,241	-5,29
860,415	-1,19
860,589	4,95
860,763	39,76
860,938	50
861,112	-5,29
861,286	37,72
861,46	21,33
861,634	27,48
861,808	15,19
861,982	62,29
862,157	52,05
862,331	19,29
862,505	7
862,679	-9,39
862,853	29,52
863,027	-11,43
863,201	121,68
863,375	-23,72
863,549	31,57
863,722	-21,67
863,896	52,05
864,07	-27,82
864,244	43,86
864,418	-3,24
864,592	103,25
864,766	27,48
864,939	27,48
865,113	27,48
865,287	13,14
865,461	-17,58
865,634	27,48
865,808	39,76
865,982	-31,91
866,156	29,52
866,329	66,39
866,503	29,52
866,676	60,24
866,85	-19,63
867,024	-11,43
867,197	68,44
867,371	-1,19
867,544	58,2
867,718	23,38
867,891	-1,19
868,065	43,86
868,238	-3,24
868,412	37,72
868,585	43,86
868,759	101,2
868,932	-13,48
869,105	9,05
869,279	58,2
869,452	-54,44
869,625	13,14
869,799	47,96
869,972	11,09
870,145	-29,87
870,319	50
870,492	-11,43
870,665	-9,39
870,838	0,85
871,011	-44,2
871,185	17,24
871,358	23,38
871,531	-42,15
871,704	60,24
871,877	35,67
872,05	97,11
872,223	103,25
872,396	39,76
872,569	-5,29
872,742	-62,63
872,915	52,05
873,088	17,24
873,261	9,05
873,434	35,67
873,607	-60,59
873,78	-11,43
873,953	25,43
874,126	-31,91
874,299	66,39
874,471	-31,91
874,644	7
874,817	29,52
874,99	-5,29
875,163	29,52
875,335	13,14
875,508	52,05
875,681	-5,29
875,853	-19,63
876,026	11,09
876,199	11,09
876,371	-70,83
876,544	4,95
876,717	-60,59
876,889	15,19
877,062	25,43
877,234	-36,01
877,407	-103,59
877,579	-5,29
877,752	-38,06
877,924	-40,11
878,097	58,2
878,269	19,29
878,442	-5,29
878,614	-3,24
878,786	-54,44
878,959	-3,24
879,131	2,9
879,303	-17,58
879,476	35,67
879,648	35,67
879,82	54,1
879,993	33,62
880,165	19,29
880,337	-19,63
880,509	56,15
880,681	-31,91
880,854	19,29
881,026	-54,44
881,198	45,91
881,37	-17,58
881,542	58,2
881,714	-21,67
881,886	50
882,058	-54,44
882,23	-19,63
882,402	-5,29
882,574	29,52
882,746	21,33
882,918	72,53
883,09	11,09
883,262	11,09
883,434	-15,53
883,606	45,91
883,778	9,05
883,95	-17,58
884,122	31,57
884,293	60,24
884,465	11,09
884,637	41,81
884,809	31,57
884,98	-19,63
885,152	-17,58
885,324	33,62
885,496	11,09
885,667	19,29
885,839	9,05
886,011	-5,29
886,182	56,15
886,354	93,01
886,525	-46,25
886,697	33,62
886,869	-1,19
887,04	52,05
887,212	31,57
887,383	19,29
887,555	27,48
887,726	41,81
887,897	-19,63
888,069	74,58
888,24	-11,43
888,412	2,9
888,583	37,72
888,754	19,29
888,926	4,95
889,097	-5,29
889,268	-25,77
889,44	-3,24
889,611	13,14
889,782	-7,34
889,953	23,38
890,125	86,87
890,296	-66,73
890,467	39,76
890,638	-46,25
890,809	-60,59
890,98	43,86
891,151	52,05
891,323	101,2
891,494	29,52
891,665	11,09
891,836	43,86
892,007	-36,01
892,178	21,33
892,349	-29,87
892,52	2,9
892,691	-9,39
892,862	58,2
893,032	-13,48
893,203	-13,48
893,374	-13,48
893,545	27,48
893,716	11,09
893,887	-5,29
894,057	-52,39
894,228	70,48
894,399	-83,11
894,57	11,09
894,74	-52,39
894,911	43,86
895,082	68,44
895,253	-3,24
895,423	-5,29
895,594	-9,39
895,764	29,52
895,935	-33,96
896,106	2,9
896,276	15,19
896,447	13,14
896,617	2,9
896,788	-1,19
896,958	117,59
897,129	-17,58
897,299	60,24
897,47	23,38
897,64	64,34
897,81	64,34
897,981	27,48
898,151	-11,43
898,322	-13,48
898,492	9,05
898,662	33,62
898,832	-5,29
899,003	95,06
899,173	9,05
899,343	-3,24
899,513	21,33
