Data from filtre580_USB4F104151__4__11-53-55-488.txt Node

Date: Wed Apr 15 11:53:55 EDT 2026
User: LaboPhy
Spectrometer: USB4F10415
Trigger mode: 4
Integration Time (sec): 5,000000E-3
Scans to average: 1
Electric dark correction enabled: true
Nonlinearity correction enabled: false
Boxcar width: 0
XAxis mode: Wavelengths
Number of Pixels in Spectrum: 3648
>>>>>Begin Spectral Data<<<<<
178,204	-58,54
178,424	-58,54
178,644	-58,54
178,864	37,72
179,084	-60,59
179,304	-40,11
179,524	19,29
179,744	9,05
179,964	-19,63
180,184	2,9
180,404	66,39
180,624	9,05
180,844	-7,34
181,064	4,95
181,283	9,05
181,503	-19,63
181,723	-33,96
181,943	2,9
182,163	23,38
182,383	15,19
182,602	80,72
182,822	-21,67
183,042	-136,36
183,262	39,76
183,482	17,24
183,701	35,67
183,921	-5,29
184,141	-3,24
184,361	33,62
184,58	60,24
184,8	62,29
185,02	11,09
185,239	103,25
185,459	-17,58
185,679	-21,67
185,898	-31,91
186,118	9,05
186,338	35,67
186,557	52,05
186,777	-33,96
186,997	50
187,216	-11,43
187,436	-1,19
187,655	-3,24
187,875	11,09
188,095	-13,48
188,314	95,06
188,534	23,38
188,753	50
188,973	19,29
189,192	50
189,412	-81,07
189,631	-23,72
189,851	-29,87
190,07	23,38
190,29	33,62
190,509	0,85
190,729	37,72
190,948	52,05
191,168	9,05
191,387	7
191,607	19,29
191,826	58,2
192,045	19,29
192,265	43,86
192,484	52,05
192,704	27,48
192,923	31,57
193,142	9,05
193,362	101,2
193,581	21,33
193,8	41,81
194,02	80,72
194,239	-7,34
194,458	43,86
194,678	11,09
194,897	13,14
195,116	0,85
195,335	-21,67
195,555	29,52
195,774	-7,34
195,993	2,9
196,212	19,29
196,432	25,43
196,651	-44,2
196,87	43,86
197,089	25,43
197,308	-56,49
197,528	9,05
197,747	9,05
197,966	29,52
198,185	19,29
198,404	-23,72
198,623	-58,54
198,842	52,05
199,062	-36,01
199,281	95,06
199,5	0,85
199,719	-11,43
199,938	52,05
200,157	11,09
200,376	0,85
200,595	17,24
200,814	29,52
201,033	60,24
201,252	-33,96
201,471	64,34
201,69	11,09
201,909	-3,24
202,128	-3,24
202,347	21,33
202,566	-64,68
202,785	-15,53
203,004	-7,34
203,223	23,38
203,442	-5,29
203,661	43,86
203,879	31,57
204,098	-33,96
204,317	27,48
204,536	74,58
204,755	4,95
204,974	-74,92
205,193	62,29
205,411	-40,11
205,63	27,48
205,849	68,44
206,068	-25,77
206,287	-1,19
206,505	29,52
206,724	84,82
206,943	13,14
207,162	4,95
207,381	78,68
207,599	17,24
207,818	50
208,037	33,62
208,255	-70,83
208,474	47,96
208,693	-48,3
208,911	21,33
209,13	-21,67
209,349	9,05
209,567	9,05
209,786	60,24
210,005	33,62
210,223	35,67
210,442	7
210,661	52,05
210,879	52,05
211,098	7
211,316	66,39
211,535	13,14
211,753	4,95
211,972	39,76
212,191	21,33
212,409	21,33
212,628	39,76
212,846	52,05
213,065	88,92
213,283	19,29
213,502	-44,2
213,72	60,24
213,938	-31,91
214,157	50
214,375	-23,72
214,594	-7,34
214,812	-29,87
215,031	76,63
215,249	39,76
215,467	-11,43
215,686	-11,43
215,904	0,85
216,122	21,33
216,341	52,05
216,559	54,1
216,778	25,43
216,996	-21,67
217,214	37,72
217,432	35,67
217,651	82,77
217,869	29,52
218,087	52,05
218,306	-56,49
218,524	-13,48
218,742	41,81
218,96	17,24
219,179	-3,24
219,397	-13,48
219,615	21,33
219,833	-1,19
220,051	31,57
220,27	101,2
220,488	-54,44
220,706	60,24
220,924	56,15
221,142	4,95
221,36	21,33
221,578	-23,72
221,796	-21,67
222,015	35,67
222,233	-21,67
222,451	7
222,669	-31,91
222,887	15,19
223,105	-17,58
223,323	17,24
223,541	17,24
223,759	-42,15
223,977	9,05
224,195	39,76
224,413	27,48
224,631	-27,82
224,849	-54,44
225,067	11,09
225,285	27,48
225,503	29,52
225,721	-44,2
225,939	90,96
226,157	-13,48
226,375	29,52
226,592	0,85
226,81	-36,01
227,028	27,48
227,246	-13,48
227,464	11,09
227,682	-17,58
227,9	11,09
228,117	50
228,335	4,95
228,553	-56,49
228,771	-13,48
228,989	17,24
229,206	-15,53
229,424	15,19
229,642	-70,83
229,86	17,24
230,077	-23,72
230,295	39,76
230,513	66,39
230,731	60,24
230,948	37,72
231,166	27,48
231,384	58,2
231,601	29,52
231,819	9,05
232,037	2,9
232,254	-52,39
232,472	11,09
232,689	-44,2
232,907	25,43
233,125	-56,49
233,342	68,44
233,56	-46,25
233,777	-17,58
233,995	4,95
234,213	17,24
234,43	-23,72
234,648	17,24
234,865	2,9
235,083	2,9
235,3	-58,54
235,518	-13,48
235,735	41,81
235,953	72,53
236,17	-64,68
236,388	-15,53
236,605	-13,48
236,822	2,9
237,04	39,76
237,257	27,48
237,475	-5,29
237,692	-3,24
237,909	-38,06
238,127	29,52
238,344	-40,11
238,562	-11,43
238,779	21,33
238,996	17,24
239,214	-3,24
239,431	33,62
239,648	-13,48
239,865	52,05
240,083	-11,43
240,3	17,24
240,517	86,87
240,735	25,43
240,952	-9,39
241,169	58,2
241,386	-48,3
241,603	43,86
241,821	41,81
242,038	-11,43
242,255	70,48
242,472	-29,87
242,689	-29,87
242,907	50
243,124	-31,91
243,341	11,09
243,558	-97,45
243,775	70,48
243,992	-44,2
244,209	-5,29
244,426	52,05
244,643	103,25
244,86	-17,58
245,078	-7,34
245,295	-33,96
245,512	29,52
245,729	7
245,946	-1,19
246,163	-31,91
246,38	2,9
246,597	-19,63
246,814	41,81
247,031	35,67
247,248	11,09
247,464	17,24
247,681	-27,82
247,898	2,9
248,115	56,15
248,332	-31,91
248,549	-13,48
248,766	19,29
248,983	15,19
249,2	-15,53
249,417	4,95
249,633	0,85
249,85	90,96
250,067	-58,54
250,284	52,05
250,501	9,05
250,717	-3,24
250,934	29,52
251,151	74,58
251,368	68,44
251,585	66,39
251,801	27,48
252,018	7
252,235	-5,29
252,451	41,81
252,668	9,05
252,885	25,43
253,102	-25,77
253,318	13,14
253,535	58,2
253,752	9,05
253,968	56,15
254,185	78,68
254,401	27,48
254,618	-17,58
254,835	-19,63
255,051	19,29
255,268	43,86
255,484	-15,53
255,701	105,3
255,917	60,24
256,134	9,05
256,351	17,24
256,567	19,29
256,784	13,14
257	-81,07
257,217	33,62
257,433	13,14
257,65	45,91
257,866	0,85
258,082	29,52
258,299	-40,11
258,515	9,05
258,732	7
258,948	-13,48
259,165	-64,68
259,381	37,72
259,597	19,29
259,814	-33,96
260,03	-17,58
260,246	45,91
260,463	-62,63
260,679	58,2
260,895	60,24
261,112	78,68
261,328	23,38
261,544	101,2
261,761	-15,53
261,977	-7,34
262,193	25,43
262,409	7
262,626	27,48
262,842	27,48
263,058	-19,63
263,274	74,58
263,49	-15,53
263,707	33,62
263,923	13,14
264,139	-23,72
264,355	21,33
264,571	31,57
264,787	0,85
265,004	50
265,22	-44,2
265,436	43,86
265,652	109,4
265,868	41,81
266,084	17,24
266,3	37,72
266,516	-52,39
266,732	33,62
266,948	37,72
267,164	-27,82
267,38	27,48
267,596	78,68
267,812	66,39
268,028	25,43
268,244	-81,07
268,46	31,57
268,676	23,38
268,892	56,15
269,108	-38,06
269,324	15,19
269,54	21,33
269,756	15,19
269,972	17,24
270,188	2,9
270,403	-1,19
270,619	9,05
270,835	-62,63
271,051	25,43
271,267	2,9
271,483	-68,78
271,698	25,43
271,914	84,82
272,13	-44,2
272,346	-52,39
272,562	72,53
272,777	52,05
272,993	-42,15
273,209	0,85
273,425	99,16
273,64	7
273,856	-23,72
274,072	-62,63
274,287	25,43
274,503	31,57
274,719	-19,63
274,934	25,43
275,15	-15,53
275,366	-29,87
275,581	-33,96
275,797	27,48
276,012	-13,48
276,228	2,9
276,444	76,63
276,659	11,09
276,875	25,43
277,09	68,44
277,306	-31,91
277,521	45,91
277,737	54,1
277,952	29,52
278,168	25,43
278,383	-62,63
278,599	15,19
278,814	90,96
279,03	29,52
279,245	-29,87
279,461	-62,63
279,676	52,05
279,892	11,09
280,107	9,05
280,322	-36,01
280,538	52,05
280,753	9,05
280,969	-46,25
281,184	35,67
281,399	-23,72
281,615	31,57
281,83	9,05
282,045	31,57
282,26	-66,73
282,476	7
282,691	17,24
282,906	-31,91
283,122	74,58
283,337	-11,43
283,552	-62,63
283,767	-60,59
283,983	33,62
284,198	-36,01
284,413	33,62
284,628	33,62
284,843	0,85
285,058	-36,01
285,274	27,48
285,489	45,91
285,704	68,44
285,919	37,72
286,134	-31,91
286,349	0,85
286,564	2,9
286,779	9,05
286,995	-81,07
287,21	-48,3
287,425	13,14
287,64	29,52
287,855	47,96
288,07	11,09
288,285	19,29
288,5	15,19
288,715	29,52
288,93	25,43
289,145	25,43
289,36	-38,06
289,575	39,76
289,79	21,33
290,004	54,1
290,219	-36,01
290,434	115,54
290,649	-17,58
290,864	25,43
291,079	33,62
291,294	76,63
291,509	27,48
291,724	27,48
291,938	-3,24
292,153	9,05
292,368	-29,87
292,583	-54,44
292,798	64,34
293,012	68,44
293,227	-46,25
293,442	-21,67
293,657	47,96
293,871	11,09
294,086	-21,67
294,301	0,85
294,516	29,52
294,73	-7,34
294,945	27,48
295,16	27,48
295,374	17,24
295,589	-38,06
295,804	33,62
296,018	95,06
296,233	-7,34
296,447	11,09
296,662	-5,29
296,877	31,57
297,091	0,85
297,306	25,43
297,52	31,57
297,735	21,33
297,949	-15,53
298,164	-9,39
298,378	33,62
298,593	9,05
298,807	29,52
299,022	-7,34
299,236	-3,24
299,451	-48,3
299,665	29,52
299,88	45,91
300,094	37,72
300,309	45,91
300,523	56,15
300,737	0,85
300,952	11,09
301,166	-23,72
301,381	27,48
301,595	35,67
301,809	-21,67
302,024	84,82
302,238	64,34
302,452	-31,91
302,667	50
302,881	82,77
303,095	58,2
303,309	41,81
303,524	-21,67
303,738	11,09
303,952	4,95
304,166	7
304,381	4,95
304,595	-46,25
304,809	50
305,023	47,96
305,237	-17,58
305,452	-72,87
305,666	27,48
305,88	84,82
306,094	25,43
306,308	-60,59
306,522	15,19
306,736	50
306,95	11,09
307,164	-15,53
307,379	17,24
307,593	33,62
307,807	-7,34
308,021	43,86
308,235	27,48
308,449	-7,34
308,663	11,09
308,877	25,43
309,091	4,95
309,305	-9,39
309,519	52,05
309,733	23,38
309,947	33,62
310,161	17,24
310,374	-11,43
310,588	17,24
310,802	-13,48
311,016	-15,53
311,23	-23,72
311,444	19,29
311,658	68,44
311,872	52,05
312,085	-3,24
312,299	47,96
312,513	19,29
312,727	35,67
312,941	-62,63
313,154	45,91
313,368	13,14
313,582	17,24
313,796	-29,87
314,009	-13,48
314,223	-38,06
314,437	41,81
314,651	27,48
314,864	39,76
315,078	21,33
315,292	-7,34
315,505	64,34
315,719	-46,25
315,933	35,67
316,146	-7,34
316,36	13,14
316,573	0,85
316,787	39,76
317,001	-7,34
317,214	-38,06
317,428	-3,24
317,641	7
317,855	-9,39
318,068	-87,21
318,282	19,29
318,495	52,05
318,709	-36,01
318,922	27,48
319,136	17,24
319,349	-25,77
319,563	19,29
319,776	11,09
319,99	17,24
320,203	-13,48
320,417	-19,63
320,63	21,33
320,843	-3,24
321,057	50
321,27	33,62
321,483	21,33
321,697	-1,19
321,91	39,76
322,124	13,14
322,337	-1,19
322,55	-23,72
322,763	4,95
322,977	74,58
323,19	-27,82
323,403	27,48
323,617	-3,24
323,83	37,72
324,043	-56,49
324,256	-11,43
324,469	31,57
324,683	-19,63
324,896	0,85
325,109	-17,58
325,322	54,1
325,535	-11,43
325,748	21,33
325,962	-91,31
326,175	25,43
326,388	-3,24
326,601	-15,53
326,814	0,85
327,027	-5,29
327,24	82,77
327,453	72,53
327,666	60,24
327,879	2,9
328,092	4,95
328,305	2,9
328,518	41,81
328,731	2,9
328,944	-15,53
329,157	11,09
329,37	11,09
329,583	37,72
329,796	88,92
330,009	-13,48
330,222	84,82
330,435	27,48
330,648	41,81
330,861	35,67
331,073	41,81
331,286	47,96
331,499	13,14
331,712	-9,39
331,925	0,85
332,138	-7,34
332,35	37,72
332,563	2,9
332,776	33,62
332,989	78,68
333,202	54,1
333,414	13,14
333,627	45,91
333,84	0,85
334,053	-17,58
334,265	-56,49
334,478	37,72
334,691	23,38
334,903	0,85
335,116	-31,91
335,329	41,81
335,541	13,14
335,754	33,62
335,966	41,81
336,179	78,68
336,392	25,43
336,604	7
336,817	-48,3
337,029	86,87
337,242	45,91
337,454	84,82
337,667	-5,29
337,88	25,43
338,092	37,72
338,305	-15,53
338,517	-85,16
338,729	19,29
338,942	13,14
339,154	-15,53
339,367	-40,11
339,579	60,24
339,792	45,91
340,004	-19,63
340,217	-7,34
340,429	54,1
340,641	-7,34
340,854	7
341,066	17,24
341,278	-76,97
341,491	-1,19
341,703	27,48
341,915	-29,87
342,128	33,62
342,34	-7,34
342,552	45,91
342,764	-52,39
342,977	41,81
343,189	-50,35
343,401	50
343,613	-13,48
343,826	19,29
344,038	-15,53
344,25	62,29
344,462	-62,63
344,674	25,43
344,886	41,81
345,099	-36,01
345,311	27,48
345,523	17,24
345,735	23,38
345,947	7
346,159	80,72
346,371	-64,68
346,583	17,24
346,795	2,9
347,007	52,05
347,219	23,38
347,431	-36,01
347,643	17,24
347,855	4,95
348,067	60,24
348,279	54,1
348,491	21,33
348,703	19,29
348,915	0,85
349,127	-79,02
349,339	27,48
349,551	4,95
349,763	74,58
349,975	23,38
350,187	33,62
350,399	0,85
350,61	39,76
350,822	33,62
351,034	-38,06
351,246	9,05
351,458	-15,53
351,669	111,44
351,881	45,91
352,093	0,85
352,305	-13,48
352,517	17,24
352,728	74,58
352,94	-9,39
353,152	-7,34
353,363	-36,01
353,575	17,24
353,787	47,96
353,999	41,81
354,21	33,62
354,422	-31,91
354,633	-5,29
354,845	2,9
355,057	11,09
355,268	66,39
355,48	-15,53
355,692	-56,49
355,903	-42,15
356,115	25,43
356,326	29,52
356,538	47,96
356,749	-7,34
356,961	-25,77
357,172	11,09
357,384	50
357,595	43,86
357,807	60,24
358,018	17,24
358,23	4,95
358,441	-33,96
358,653	17,24
358,864	23,38
359,075	4,95
359,287	-36,01
359,498	82,77
359,709	35,67
359,921	52,05
360,132	47,96
360,344	19,29
360,555	-9,39
360,766	4,95
360,977	21,33
361,189	-36,01
361,4	-7,34
361,611	-27,82
361,823	21,33
362,034	62,29
362,245	-27,82
362,456	15,19
362,667	-21,67
362,879	-33,96
363,09	-7,34
363,301	47,96
363,512	-3,24
363,723	33,62
363,935	-11,43
364,146	7
364,357	95,06
364,568	31,57
364,779	-36,01
364,99	80,72
365,201	45,91
365,412	35,67
365,623	4,95
365,834	-11,43
366,045	39,76
366,256	29,52
366,467	37,72
366,678	2,9
366,889	62,29
367,1	-1,19
367,311	95,06
367,522	-7,34
367,733	25,43
367,944	60,24
368,155	-7,34
368,366	45,91
368,577	-17,58
368,788	33,62
368,999	-64,68
369,209	0,85
369,42	-9,39
369,631	4,95
369,842	21,33
370,053	35,67
370,264	31,57
370,474	25,43
370,685	21,33
370,896	-1,19
371,107	-36,01
371,317	-27,82
371,528	-21,67
371,739	-3,24
371,95	-23,72
372,16	62,29
372,371	-27,82
372,582	-19,63
372,792	-3,24
373,003	25,43
373,214	-23,72
373,424	52,05
373,635	-46,25
373,846	33,62
374,056	0,85
374,267	74,58
374,477	0,85
374,688	27,48
374,898	-64,68
375,109	19,29
375,319	45,91
375,53	54,1
375,74	-15,53
375,951	-11,43
376,161	9,05
376,372	68,44
376,582	-7,34
376,793	29,52
377,003	-38,06
377,214	0,85
377,424	60,24
377,635	66,39
377,845	-27,82
378,055	-7,34
378,266	35,67
378,476	107,35
378,686	15,19
378,897	-27,82
379,107	84,82
379,317	-17,58
379,528	-19,63
379,738	-11,43
379,948	25,43
380,158	4,95
380,369	29,52
380,579	25,43
380,789	2,9
380,999	-21,67
381,21	-7,34
381,42	58,2
381,63	0,85
381,84	17,24
382,05	-25,77
382,261	37,72
382,471	-15,53
382,681	17,24
382,891	29,52
383,101	-56,49
383,311	-76,97
383,521	-1,19
383,731	27,48
383,941	-15,53
384,151	2,9
384,361	101,2
384,571	33,62
384,781	19,29
384,991	13,14
385,201	-31,91
385,411	41,81
385,621	101,2
385,831	37,72
386,041	9,05
386,251	78,68
386,461	25,43
386,671	-5,29
386,881	-27,82
387,091	17,24
387,301	15,19
387,511	4,95
387,72	50
387,93	-13,48
388,14	-54,44
388,35	11,09
388,56	-5,29
388,769	-36,01
388,979	29,52
389,189	-13,48
389,399	9,05
389,609	35,67
389,818	33,62
390,028	21,33
390,238	62,29
390,447	-17,58
390,657	29,52
390,867	-31,91
391,076	62,29
391,286	-15,53
391,496	-3,24
391,705	29,52
391,915	35,67
392,125	-19,63
392,334	50
392,544	21,33
392,753	-13,48
392,963	17,24
393,172	88,92
393,382	15,19
393,591	19,29
393,801	0,85
394,01	62,29
394,22	39,76
394,429	43,86
394,639	62,29
394,848	50
395,058	15,19
395,267	33,62
395,477	47,96
395,686	17,24
395,895	25,43
396,105	7
396,314	-23,72
396,524	31,57
396,733	-23,72
396,942	78,68
397,152	-36,01
397,361	-60,59
397,57	-5,29
397,78	-1,19
397,989	43,86
398,198	35,67
398,407	21,33
398,617	29,52
398,826	-1,19
399,035	27,48
399,244	-5,29
399,453	23,38
399,663	4,95
399,872	9,05
400,081	95,06
400,29	2,9
400,499	2,9
400,708	19,29
400,917	-5,29
401,127	33,62
401,336	35,67
401,545	50
401,754	33,62
401,963	35,67
402,172	52,05
402,381	0,85
402,59	54,1
402,799	-7,34
403,008	-13,48
403,217	66,39
403,426	25,43
403,635	41,81
403,844	29,52
404,053	43,86
404,262	-11,43
404,471	-21,67
404,68	-29,87
404,888	-21,67
405,097	31,57
405,306	-7,34
405,515	-21,67
405,724	41,81
405,933	127,83
406,142	-76,97
406,35	-29,87
406,559	-38,06
406,768	68,44
406,977	13,14
407,185	47,96
407,394	25,43
407,603	33,62
407,812	13,14
408,02	-1,19
408,229	58,2
408,438	-23,72
408,646	47,96
408,855	23,38
409,064	13,14
409,272	-36,01
409,481	17,24
409,69	9,05
409,898	50
410,107	60,24
410,315	45,91
410,524	76,63
410,733	-15,53
410,941	-3,24
411,15	-21,67
411,358	7
411,567	-33,96
411,775	-81,07
411,984	13,14
412,192	13,14
412,401	-5,29
412,609	-52,39
412,818	15,19
413,026	-23,72
413,234	41,81
413,443	45,91
413,651	29,52
413,86	-33,96
414,068	-36,01
414,276	31,57
414,485	-36,01
414,693	78,68
414,901	52,05
415,11	35,67
415,318	21,33
415,526	33,62
415,734	19,29
415,943	-5,29
416,151	19,29
416,359	43,86
416,567	37,72
416,776	41,81
416,984	43,86
417,192	15,19
417,4	-5,29
417,608	-74,92
417,817	64,34
418,025	-7,34
418,233	58,2
418,441	-64,68
418,649	-87,21
418,857	27,48
419,065	-11,43
419,273	2,9
419,481	-17,58
419,689	13,14
419,897	-11,43
420,105	19,29
420,313	-13,48
420,521	-40,11
420,729	60,24
420,937	-62,63
421,145	-46,25
421,353	-44,2
421,561	21,33
421,769	-7,34
421,977	90,96
422,185	9,05
422,393	35,67
422,601	-70,83
422,809	11,09
423,017	-19,63
423,224	52,05
423,432	23,38
423,64	88,92
423,848	43,86
424,056	47,96
424,263	84,82
424,471	-11,43
424,679	25,43
424,887	19,29
425,094	-29,87
425,302	-19,63
425,51	-21,67
425,718	23,38
425,925	-7,34
426,133	50
426,341	19,29
426,548	70,48
426,756	21,33
426,964	17,24
427,171	0,85
427,379	25,43
427,586	7
427,794	2,9
428,001	-13,48
428,209	29,52
428,417	-21,67
428,624	-29,87
428,832	31,57
429,039	-15,53
429,247	11,09
429,454	74,58
429,662	17,24
429,869	66,39
430,076	-36,01
430,284	43,86
430,491	62,29
430,699	74,58
430,906	-21,67
431,114	25,43
431,321	-31,91
431,528	-40,11
431,736	-62,63
431,943	27,48
432,15	-13,48
432,358	13,14
432,565	9,05
432,772	-46,25
432,979	4,95
433,187	15,19
433,394	-19,63
433,601	60,24
433,808	27,48
434,016	31,57
434,223	-3,24
434,43	60,24
434,637	56,15
434,844	35,67
435,052	-58,54
435,259	60,24
435,466	-38,06
435,673	68,44
435,88	-13,48
436,087	41,81
436,294	72,53
436,501	2,9
436,708	29,52
436,915	37,72
437,122	-33,96
437,329	41,81
437,537	-40,11
437,743	95,06
437,95	56,15
438,157	52,05
438,364	58,2
438,571	54,1
438,778	-7,34
438,985	-17,58
439,192	-79,02
439,399	25,43
439,606	9,05
439,813	-52,39
440,02	-70,83
440,227	93,01
440,433	-44,2
440,64	-15,53
440,847	0,85
441,054	50
441,261	-7,34
441,467	-23,72
441,674	-52,39
441,881	97,11
442,088	35,67
442,294	90,96
442,501	9,05
442,708	27,48
442,914	29,52
443,121	-56,49
443,328	19,29
443,534	4,95
443,741	31,57
443,948	-21,67
444,154	31,57
444,361	9,05
444,568	-23,72
444,774	58,2
444,981	-23,72
445,187	136,02
445,394	15,19
445,6	-40,11
445,807	0,85
446,013	35,67
446,22	-17,58
446,426	25,43
446,633	-27,82
446,839	17,24
447,046	9,05
447,252	-40,11
447,459	2,9
447,665	82,77
447,871	-23,72
448,078	-23,72
448,284	-44,2
448,491	11,09
448,697	-19,63
448,903	33,62
449,11	2,9
449,316	21,33
449,522	17,24
449,728	50
449,935	-48,3
450,141	50
450,347	7
450,553	95,06
450,76	-40,11
450,966	4,95
451,172	60,24
451,378	-81,07
451,584	-9,39
451,791	41,81
451,997	31,57
452,203	68,44
452,409	-5,29
452,615	-23,72
452,821	60,24
453,027	23,38
453,233	-1,19
453,44	13,14
453,646	-54,44
453,852	50
454,058	56,15
454,264	-21,67
454,47	35,67
454,676	-29,87
454,882	7
455,088	52,05
455,294	-19,63
455,5	43,86
455,705	11,09
455,911	41,81
456,117	-27,82
456,323	23,38
456,529	-3,24
456,735	25,43
456,941	45,91
457,147	-27,82
457,352	13,14
457,558	-46,25
457,764	9,05
457,97	9,05
458,176	19,29
458,381	-19,63
458,587	15,19
458,793	4,95
458,999	-31,91
459,204	99,16
459,41	2,9
459,616	33,62
459,821	66,39
460,027	74,58
460,233	37,72
460,438	-13,48
460,644	9,05
460,85	37,72
461,055	-62,63
461,261	27,48
461,466	-15,53
461,672	27,48
461,878	33,62
462,083	-25,77
462,289	0,85
462,494	60,24
462,7	19,29
462,905	74,58
463,111	33,62
463,316	50
463,522	9,05
463,727	50
463,932	-85,16
464,138	37,72
464,343	54,1
464,549	2,9
464,754	33,62
464,959	27,48
465,165	-7,34
465,37	11,09
465,575	35,67
465,781	15,19
465,986	-9,39
466,191	-13,48
466,397	60,24
466,602	-31,91
466,807	-27,82
467,012	-40,11
467,218	-15,53
467,423	33,62
467,628	33,62
467,833	-48,3
468,038	4,95
468,244	-27,82
468,449	27,48
468,654	41,81
468,859	-3,24
469,064	-21,67
469,269	33,62
469,474	9,05
469,679	43,86
469,885	19,29
470,09	-13,48
470,295	-56,49
470,5	43,86
470,705	-25,77
470,91	127,83
471,115	74,58
471,32	-40,11
471,525	90,96
471,73	-1,19
471,935	-36,01
472,139	64,34
472,344	41,81
472,549	13,14
472,754	39,76
472,959	-40,11
473,164	0,85
473,369	2,9
473,574	60,24
473,778	2,9
473,983	9,05
474,188	50
474,393	15,19
474,598	17,24
474,802	93,01
475,007	29,52
475,212	0,85
475,417	31,57
475,621	88,92
475,826	-13,48
476,031	50
476,235	-33,96
476,44	-19,63
476,645	-7,34
476,849	33,62
477,054	-68,78
477,259	23,38
477,463	-7,34
477,668	27,48
477,872	-7,34
478,077	39,76
478,282	-36,01
478,486	-17,58
478,691	21,33
478,895	19,29
479,1	9,05
479,304	-3,24
479,509	39,76
479,713	-50,35
479,918	23,38
480,122	-50,35
480,326	-13,48
480,531	2,9
480,735	58,2
480,94	-1,19
481,144	19,29
481,348	15,19
481,553	-13,48
481,757	-9,39
481,961	2,9
482,166	43,86
482,37	54,1
482,574	45,91
482,778	-5,29
482,983	41,81
483,187	7
483,391	4,95
483,595	-40,11
483,8	31,57
484,004	45,91
484,208	45,91
484,412	62,29
484,616	84,82
484,821	11,09
485,025	-13,48
485,229	-36,01
485,433	4,95
485,637	-3,24
485,841	15,19
486,045	-27,82
486,249	0,85
486,453	74,58
486,657	-3,24
486,861	-60,59
487,065	23,38
487,269	52,05
487,473	13,14
487,677	52,05
487,881	9,05
488,085	33,62
488,289	7
488,493	-56,49
488,697	33,62
488,901	21,33
489,105	31,57
489,309	58,2
489,512	33,62
489,716	-40,11
489,92	19,29
490,124	31,57
490,328	93,01
490,531	25,43
490,735	95,06
490,939	-50,35
491,143	33,62
491,346	19,29
491,55	9,05
491,754	-74,92
491,958	0,85
492,161	-7,34
492,365	27,48
492,569	-44,2
492,772	37,72
492,976	47,96
493,18	-68,78
493,383	82,77
493,587	-40,11
493,79	0,85
493,994	23,38
494,197	21,33
494,401	45,91
494,605	74,58
494,808	-70,83
495,012	-48,3
495,215	37,72
495,419	9,05
495,622	-40,11
495,825	-3,24
496,029	70,48
496,232	-1,19
496,436	0,85
496,639	-9,39
496,843	60,24
497,046	2,9
497,249	33,62
497,453	35,67
497,656	35,67
497,859	62,29
498,063	50
498,266	11,09
498,469	25,43
498,673	9,05
498,876	0,85
499,079	-33,96
499,282	58,2
499,485	-17,58
499,689	52,05
499,892	0,85
500,095	33,62
500,298	19,29
500,501	56,15
500,705	-5,29
500,908	-13,48
501,111	43,86
501,314	19,29
501,517	54,1
501,72	37,72
501,923	47,96
502,126	-21,67
502,329	19,29
502,532	31,57
502,735	19,29
502,938	62,29
503,141	58,2
503,344	103,25
503,547	66,39
503,75	4,95
503,953	13,14
504,156	29,52
504,359	72,53
504,562	-38,06
504,765	80,72
504,968	-13,48
505,17	-76,97
505,373	68,44
505,576	-7,34
505,779	-7,34
505,982	-17,58
506,185	-52,39
506,387	-60,59
506,59	41,81
506,793	-17,58
506,996	74,58
507,198	-36,01
507,401	50
507,604	50
507,807	74,58
508,009	21,33
508,212	-21,67
508,415	66,39
508,617	29,52
508,82	68,44
509,022	52,05
509,225	25,43
509,428	23,38
509,63	41,81
509,833	25,43
510,035	27,48
510,238	25,43
510,44	-25,77
510,643	11,09
510,845	64,34
511,048	2,9
511,25	-1,19
511,453	43,86
511,655	41,81
511,858	13,14
512,06	43,86
512,262	-31,91
512,465	-7,34
512,667	47,96
512,87	0,85
513,072	23,38
513,274	35,67
513,477	-38,06
513,679	-5,29
513,881	-7,34
514,084	-50,35
514,286	31,57
514,488	52,05
514,69	58,2
514,893	-7,34
515,095	29,52
515,297	41,81
515,499	2,9
515,701	-40,11
515,904	-44,2
516,106	-56,49
516,308	13,14
516,51	23,38
516,712	39,76
516,914	-38,06
517,116	76,63
517,318	-21,67
517,52	50
517,722	41,81
517,925	29,52
518,127	27,48
518,329	74,58
518,531	-54,44
518,733	13,14
518,935	19,29
519,136	35,67
519,338	-33,96
519,54	7
519,742	31,57
519,944	33,62
520,146	35,67
520,348	39,76
520,55	19,29
520,752	-38,06
520,954	2,9
521,155	21,33
521,357	23,38
521,559	80,72
521,761	17,24
521,963	25,43
522,164	2,9
522,366	-1,19
522,568	17,24
522,77	-11,43
522,971	-29,87
523,173	27,48
523,375	-48,3
523,576	74,58
523,778	35,67
523,98	0,85
524,181	29,52
524,383	-38,06
524,584	2,9
524,786	-46,25
524,988	21,33
525,189	-11,43
525,391	-38,06
525,592	-15,53
525,794	4,95
525,995	25,43
526,197	2,9
526,398	0,85
526,6	-38,06
526,801	17,24
527,003	-29,87
527,204	31,57
527,406	31,57
527,607	35,67
527,808	-7,34
528,01	50
528,211	66,39
528,412	66,39
528,614	93,01
528,815	0,85
529,016	50
529,218	13,14
529,419	27,48
529,62	-21,67
529,822	27,48
530,023	17,24
530,224	82,77
530,425	-36,01
530,626	-13,48
530,828	-23,72
531,029	82,77
531,23	52,05
531,431	19,29
531,632	39,76
531,833	29,52
532,035	52,05
532,236	-17,58
532,437	76,63
532,638	-31,91
532,839	-44,2
533,04	58,2
533,241	-5,29
533,442	35,67
533,643	39,76
533,844	0,85
534,045	41,81
534,246	11,09
534,447	23,38
534,648	43,86
534,849	43,86
535,05	52,05
535,251	17,24
535,451	66,39
535,652	17,24
535,853	-3,24
536,054	43,86
536,255	9,05
536,456	-21,67
536,657	-21,67
536,857	31,57
537,058	-3,24
537,259	78,68
537,46	-7,34
537,66	-3,24
537,861	-60,59
538,062	103,25
538,263	-40,11
538,463	9,05
538,664	-17,58
538,865	13,14
539,065	35,67
539,266	7
539,466	-11,43
539,667	37,72
539,868	-7,34
540,068	33,62
540,269	19,29
540,469	60,24
540,67	-5,29
540,87	19,29
541,071	2,9
541,271	27,48
541,472	7
541,672	-23,72
541,873	90,96
542,073	72,53
542,274	-52,39
542,474	66,39
542,675	-31,91
542,875	0,85
543,075	17,24
543,276	-9,39
543,476	74,58
543,676	52,05
543,877	-7,34
544,077	2,9
544,277	17,24
544,478	43,86
544,678	19,29
544,878	68,44
545,078	-13,48
545,279	17,24
545,479	37,72
545,679	43,86
545,879	80,72
546,079	-48,3
546,28	-5,29
546,48	9,05
546,68	43,86
546,88	27,48
547,08	-54,44
547,28	9,05
547,48	45,91
547,68	11,09
547,88	-5,29
548,081	21,33
548,281	25,43
548,481	-11,43
548,681	50
548,881	23,38
549,081	47,96
549,28	0,85
549,48	31,57
549,68	27,48
549,88	50
550,08	76,63
550,28	43,86
550,48	-7,34
550,68	-11,43
550,88	50
551,08	33,62
551,279	52,05
551,479	86,87
551,679	19,29
551,879	15,19
552,079	74,58
552,278	-27,82
552,478	9,05
552,678	72,53
552,878	45,91
553,077	-13,48
553,277	70,48
553,477	41,81
553,676	95,06
553,876	9,05
554,076	23,38
554,275	29,52
554,475	33,62
554,674	52,05
554,874	-52,39
555,074	21,33
555,273	21,33
555,473	68,44
555,672	54,1
555,872	84,82
556,071	52,05
556,271	56,15
556,47	29,52
556,67	29,52
556,869	9,05
557,068	33,62
557,268	-40,11
557,467	-5,29
557,667	66,39
557,866	86,87
558,065	27,48
558,265	29,52
558,464	13,14
558,663	50
558,863	37,72
559,062	9,05
559,261	60,24
559,461	9,05
559,66	-15,53
559,859	64,34
560,058	50
560,258	25,43
560,457	21,33
560,656	54,1
560,855	41,81
561,054	-7,34
561,253	17,24
561,453	37,72
561,652	58,2
561,851	68,44
562,05	76,63
562,249	13,14
562,448	140,12
562,647	68,44
562,846	64,34
563,045	11,09
563,244	29,52
563,443	21,33
563,642	84,82
563,841	103,25
564,04	45,91
564,239	117,59
564,438	39,76
564,637	129,88
564,836	19,29
565,035	111,44
565,234	74,58
565,432	39,76
565,631	74,58
565,83	66,39
566,029	-1,19
566,228	43,86
566,427	131,92
566,625	66,39
566,824	-19,63
567,023	60,24
567,222	95,06
567,42	101,2
567,619	52,05
567,818	136,02
568,016	109,4
568,215	131,92
568,414	123,73
568,612	107,35
568,811	136,02
569,01	150,36
569,208	217,94
569,407	199,51
569,605	164,69
569,804	217,94
570,002	246,61
570,201	246,61
570,4	306
570,598	314,19
570,797	387,92
570,995	377,68
571,193	504,65
571,392	562
571,59	594,76
571,789	713,55
571,987	764,75
572,186	817,99
572,384	1061,7
572,582	1313,6
572,781	1301,31
572,979	1495,87
573,177	1766,2
573,376	2220,85
573,574	2575,15
573,772	3035,94
573,971	3564,32
574,169	4111,13
574,367	5049,1
574,565	6353,65
574,763	7834,33
574,962	9319,11
575,16	11059,88
575,358	13271,69
575,556	15655,53
575,754	19069,49
575,952	22241,79
576,151	25944,52
576,349	30024,08
576,547	33495,38
576,745	37232,93
576,943	40511,72
577,141	43487,42
577,339	45848,73
577,537	47972,47
577,735	50176,09
577,933	51337,29
578,131	52914,22
578,329	53344,3
578,527	53915,68
578,725	54949,9
578,923	55736,32
579,121	56397,82
579,319	56643,57
579,516	56674,29
579,714	57313,26
579,912	57509,86
580,11	58111,97
580,308	58404,83
580,506	59283,4
580,704	58202,08
580,901	60159,94
581,099	60135,36
581,297	60291,01
581,495	60215,23
581,692	60624,82
581,89	59774,92
582,088	60768,18
582,285	60626,87
582,483	61220,78
582,681	60676,02
582,878	60471,23
583,076	59817,92
583,274	60192,7
583,471	58716,12
583,669	58372,06
583,866	56344,57
584,064	55244,81
584,262	51497,03
584,459	49080,42
584,657	45596,83
584,854	43143,36
585,052	38230,29
585,249	34957,63
585,447	31445,37
585,644	27304,37
585,841	24029,67
586,039	20927
586,236	18022,98
586,434	15456,87
586,631	13353,61
586,828	11231,91
587,026	9573,06
587,223	8108,76
587,42	6914,8
587,618	6013,69
587,815	4958,99
588,012	4176,66
588,21	3586,85
588,407	3107,62
588,604	2640,69
588,801	2290,48
588,999	1909,56
589,196	1731,39
589,393	1499,97
589,59	1196,87
589,787	1121,09
589,984	922,44
590,182	889,67
590,379	750,41
590,576	715,59
590,773	623,44
590,97	504,65
591,167	396,11
591,364	488,27
591,561	453,45
591,758	299,86
591,955	324,43
592,152	254,8
592,349	297,81
592,546	332,62
592,743	115,54
592,94	172,88
593,137	138,07
593,334	140,12
593,531	127,83
593,727	123,73
593,924	127,83
594,121	150,36
594,318	172,88
594,515	99,16
594,712	146,26
594,908	111,44
595,105	82,77
595,302	78,68
595,499	62,29
595,696	50
595,892	68,44
596,089	93,01
596,286	129,88
596,482	113,49
596,679	17,24
596,876	150,36
597,072	154,45
597,269	43,86
597,466	97,11
597,662	127,83
597,859	62,29
598,055	86,87
598,252	95,06
598,448	107,35
598,645	39,76
598,841	105,3
599,038	101,2
599,234	84,82
599,431	37,72
599,627	90,96
599,824	29,52
600,02	58,2
600,217	56,15
600,413	52,05
600,609	68,44
600,806	93,01
601,002	74,58
601,198	13,14
601,395	72,53
601,591	54,1
601,787	74,58
601,984	74,58
602,18	37,72
602,376	125,78
602,572	19,29
602,769	21,33
602,965	39,76
603,161	90,96
603,357	41,81
603,553	50
603,75	74,58
603,946	13,14
604,142	-33,96
604,338	35,67
604,534	27,48
604,73	21,33
604,926	25,43
605,122	58,2
605,318	29,52
605,514	37,72
605,71	52,05
605,906	-29,87
606,102	105,3
606,298	125,78
606,494	27,48
606,69	84,82
606,886	54,1
607,082	17,24
607,278	-44,2
607,474	64,34
607,67	25,43
607,866	52,05
608,062	19,29
608,257	56,15
608,453	4,95
608,649	27,48
608,845	0,85
609,041	15,19
609,236	72,53
609,432	58,2
609,628	-3,24
609,824	15,19
610,019	-21,67
610,215	-48,3
610,411	43,86
610,606	72,53
610,802	-1,19
610,998	13,14
611,193	13,14
611,389	97,11
611,584	-27,82
611,78	23,38
611,976	-27,82
612,171	17,24
612,367	9,05
612,562	50
612,758	-15,53
612,953	41,81
613,149	-31,91
613,344	33,62
613,539	78,68
613,735	80,72
613,93	0,85
614,126	84,82
614,321	0,85
614,517	25,43
614,712	86,87
614,907	-19,63
615,103	2,9
615,298	95,06
615,493	11,09
615,688	21,33
615,884	-19,63
616,079	50
616,274	-11,43
616,47	19,29
616,665	9,05
616,86	-29,87
617,055	-15,53
617,25	54,1
617,445	25,43
617,641	33,62
617,836	-27,82
618,031	47,96
618,226	0,85
618,421	33,62
618,616	58,2
618,811	60,24
619,006	-21,67
619,201	60,24
619,396	56,15
619,591	33,62
619,786	0,85
619,981	-38,06
620,176	25,43
620,371	9,05
620,566	-36,01
620,761	2,9
620,956	2,9
621,151	33,62
621,346	-81,07
621,541	-23,72
621,735	52,05
621,93	13,14
622,125	-13,48
622,32	-27,82
622,515	23,38
622,709	43,86
622,904	31,57
623,099	-38,06
623,294	52,05
623,488	-40,11
623,683	4,95
623,878	43,86
624,072	-21,67
624,267	33,62
624,462	31,57
624,656	43,86
624,851	33,62
625,046	-46,25
625,24	43,86
625,435	2,9
625,629	33,62
625,824	-19,63
626,018	-9,39
626,213	70,48
626,407	21,33
626,602	60,24
626,796	45,91
626,991	0,85
627,185	-9,39
627,38	-17,58
627,574	50
627,768	52,05
627,963	19,29
628,157	35,67
628,352	-1,19
628,546	39,76
628,74	2,9
628,935	-7,34
629,129	-13,48
629,323	52,05
629,517	43,86
629,712	-7,34
629,906	17,24
630,1	0,85
630,294	17,24
630,489	54,1
630,683	4,95
630,877	37,72
631,071	9,05
631,265	52,05
631,459	-3,24
631,653	-9,39
631,848	-5,29
632,042	-17,58
632,236	17,24
632,43	66,39
632,624	25,43
632,818	-29,87
633,012	0,85
633,206	-23,72
633,4	2,9
633,594	50
633,788	-5,29
633,982	-42,15
634,176	-19,63
634,369	41,81
634,563	-52,39
634,757	11,09
634,951	27,48
635,145	33,62
635,339	90,96
635,533	66,39
635,726	19,29
635,92	0,85
636,114	29,52
636,308	41,81
636,501	33,62
636,695	52,05
636,889	-29,87
637,083	17,24
637,276	39,76
637,47	56,15
637,664	-3,24
637,857	-1,19
638,051	-72,87
638,244	-46,25
638,438	-36,01
638,632	-11,43
638,825	-36,01
639,019	33,62
639,212	78,68
639,406	43,86
639,599	17,24
639,793	2,9
639,986	19,29
640,18	82,77
640,373	-38,06
640,567	70,48
640,76	-19,63
640,954	-15,53
641,147	-40,11
641,34	37,72
641,534	29,52
641,727	0,85
641,92	47,96
642,114	4,95
642,307	-21,67
642,5	4,95
642,694	-7,34
642,887	-5,29
643,08	-19,63
643,273	17,24
643,467	50
643,66	21,33
643,853	21,33
644,046	-7,34
644,239	25,43
644,432	9,05
644,626	-23,72
644,819	41,81
645,012	86,87
645,205	60,24
645,398	60,24
645,591	58,2
645,784	25,43
645,977	9,05
646,17	17,24
646,363	50
646,556	-33,96
646,749	17,24
646,942	17,24
647,135	11,09
647,328	70,48
647,521	-7,34
647,714	4,95
647,907	-27,82
648,099	23,38
648,292	41,81
648,485	-17,58
648,678	43,86
648,871	4,95
649,064	-50,35
649,256	70,48
649,449	37,72
649,642	-52,39
649,835	-7,34
650,027	95,06
650,22	11,09
650,413	43,86
650,605	72,53
650,798	-44,2
650,991	-15,53
651,183	-21,67
651,376	52,05
651,568	-101,55
651,761	37,72
651,954	19,29
652,146	27,48
652,339	-7,34
652,531	103,25
652,724	33,62
652,916	19,29
653,109	-29,87
653,301	17,24
653,494	-23,72
653,686	82,77
653,879	-21,67
654,071	-52,39
654,263	37,72
654,456	15,19
654,648	9,05
654,84	-54,44
655,033	0,85
655,225	17,24
655,417	86,87
655,61	52,05
655,802	9,05
655,994	4,95
656,186	4,95
656,379	15,19
656,571	-87,21
656,763	41,81
656,955	25,43
657,148	62,29
657,34	-17,58
657,532	29,52
657,724	21,33
657,916	52,05
658,108	13,14
658,3	66,39
658,492	-50,35
658,684	9,05
658,876	17,24
659,068	86,87
659,26	2,9
659,452	23,38
659,644	43,86
659,836	82,77
660,028	39,76
660,22	74,58
660,412	-3,24
660,604	125,78
660,796	7
660,988	-23,72
661,18	11,09
661,372	-5,29
661,563	4,95
661,755	52,05
661,947	58,2
662,139	9,05
662,331	37,72
662,522	50
662,714	15,19
662,906	9,05
663,097	52,05
663,289	90,96
663,481	-46,25
663,673	9,05
663,864	17,24
664,056	25,43
664,247	19,29
664,439	-9,39
664,631	9,05
664,822	39,76
665,014	17,24
665,205	-52,39
665,397	23,38
665,588	19,29
665,78	-17,58
665,971	119,64
666,163	21,33
666,354	21,33
666,546	19,29
666,737	9,05
666,929	54,1
667,12	43,86
667,311	2,9
667,503	33,62
667,694	-56,49
667,885	-9,39
668,077	56,15
668,268	74,58
668,459	9,05
668,651	-81,07
668,842	0,85
669,033	101,2
669,224	-54,44
669,416	27,48
669,607	60,24
669,798	-7,34
669,989	39,76
670,18	19,29
670,371	25,43
670,563	-44,2
670,754	39,76
670,945	35,67
671,136	52,05
671,327	-3,24
671,518	41,81
671,709	136,02
671,9	47,96
672,091	4,95
672,282	-7,34
672,473	27,48
672,664	17,24
672,855	17,24
673,046	76,63
673,237	50
673,428	-21,67
673,619	47,96
673,809	-48,3
674	0,85
674,191	13,14
674,382	29,52
674,573	50
674,764	25,43
674,954	72,53
675,145	39,76
675,336	4,95
675,527	-7,34
675,717	-7,34
675,908	45,91
676,099	-74,92
676,289	35,67
676,48	-1,19
676,671	17,24
676,861	54,1
677,052	11,09
677,243	17,24
677,433	7
677,624	9,05
677,814	-54,44
678,005	2,9
678,195	27,48
678,386	-81,07
678,576	41,81
678,767	-11,43
678,957	-52,39
679,148	-13,48
679,338	15,19
679,529	35,67
679,719	64,34
679,909	33,62
680,1	-99,5
680,29	4,95
680,481	23,38
680,671	-13,48
680,861	127,83
681,052	-17,58
681,242	-9,39
681,432	70,48
681,622	4,95
681,813	4,95
682,003	4,95
682,193	-38,06
682,383	93,01
682,573	-40,11
682,764	2,9
682,954	23,38
683,144	-46,25
683,334	-27,82
683,524	-17,58
683,714	-48,3
683,904	80,72
684,094	29,52
684,284	50
684,474	-33,96
684,664	82,77
684,854	9,05
685,044	54,1
685,234	29,52
685,424	52,05
685,614	0,85
685,804	-46,25
685,994	11,09
686,184	58,2
686,374	-3,24
686,564	41,81
686,753	9,05
686,943	17,24
687,133	37,72
687,323	25,43
687,513	35,67
687,702	15,19
687,892	17,24
688,082	9,05
688,272	0,85
688,461	60,24
688,651	47,96
688,841	11,09
689,03	-7,34
689,22	33,62
689,41	-5,29
689,599	25,43
689,789	-46,25
689,979	-11,43
690,168	-11,43
690,358	2,9
690,547	80,72
690,737	7
690,926	72,53
691,116	2,9
691,305	39,76
691,495	35,67
691,684	39,76
691,874	-13,48
692,063	2,9
692,252	47,96
692,442	68,44
692,631	-25,77
692,82	-17,58
693,01	-13,48
693,199	60,24
693,388	33,62
693,578	58,2
693,767	29,52
693,956	-5,29
694,146	17,24
694,335	9,05
694,524	-40,11
694,713	4,95
694,902	21,33
695,092	-19,63
695,281	7
695,47	58,2
695,659	9,05
695,848	33,62
696,037	2,9
696,226	-29,87
696,415	15,19
696,604	35,67
696,793	60,24
696,982	15,19
697,171	-5,29
697,36	-40,11
697,549	-17,58
697,738	-13,48
697,927	25,43
698,116	43,86
698,305	-11,43
698,494	35,67
698,683	13,14
698,872	7
699,061	37,72
699,25	11,09
699,438	23,38
699,627	-11,43
699,816	-31,91
700,005	35,67
700,193	0,85
700,382	50
700,571	43,86
700,76	-13,48
700,948	66,39
701,137	19,29
701,326	0,85
701,514	-9,39
701,703	45,91
701,892	27,48
702,08	56,15
702,269	-36,01
702,457	-44,2
702,646	70,48
702,834	33,62
703,023	-33,96
703,212	13,14
703,4	33,62
703,589	0,85
703,777	9,05
703,965	-56,49
704,154	11,09
704,342	43,86
704,531	76,63
704,719	-91,31
704,907	-5,29
705,096	25,43
705,284	33,62
705,472	21,33
705,661	37,72
705,849	-17,58
706,037	41,81
706,226	0,85
706,414	47,96
706,602	-17,58
706,79	7
706,979	17,24
707,167	15,19
707,355	-44,2
707,543	-48,3
707,731	9,05
707,919	56,15
708,107	68,44
708,296	-11,43
708,484	-13,48
708,672	105,3
708,86	68,44
709,048	47,96
709,236	-17,58
709,424	-21,67
709,612	47,96
709,8	-9,39
709,988	9,05
710,176	68,44
710,364	2,9
710,551	-48,3
710,739	4,95
710,927	-19,63
711,115	19,29
711,303	54,1
711,491	11,09
711,679	-40,11
711,866	35,67
712,054	-3,24
712,242	13,14
712,43	39,76
712,617	54,1
712,805	15,19
712,993	-31,91
713,181	33,62
713,368	-40,11
713,556	-1,19
713,744	9,05
713,931	43,86
714,119	0,85
714,306	7
714,494	45,91
714,682	-31,91
714,869	72,53
715,057	2,9
715,244	-48,3
715,432	11,09
715,619	50
715,807	21,33
715,994	-15,53
716,182	-72,87
716,369	-7,34
716,556	4,95
716,744	37,72
716,931	-107,69
717,119	68,44
717,306	4,95
717,493	0,85
717,681	0,85
717,868	-25,77
718,055	2,9
718,242	58,2
718,43	-62,63
718,617	-7,34
718,804	11,09
718,991	33,62
719,179	-44,2
719,366	-33,96
719,553	-1,19
719,74	33,62
719,927	-19,63
720,114	37,72
720,301	4,95
720,488	66,39
720,676	21,33
720,863	17,24
721,05	-11,43
721,237	52,05
721,424	50
721,611	-13,48
721,798	-25,77
721,985	-5,29
722,172	0,85
722,358	-25,77
722,545	58,2
722,732	58,2
722,919	-27,82
723,106	35,67
723,293	9,05
723,48	-31,91
723,667	9,05
723,853	-3,24
724,04	-1,19
724,227	21,33
724,414	35,67
724,6	-9,39
724,787	-3,24
724,974	17,24
725,161	64,34
725,347	50
725,534	-56,49
725,72	82,77
725,907	-19,63
726,094	84,82
726,28	-1,19
726,467	-21,67
726,653	-1,19
726,84	27,48
727,027	35,67
727,213	45,91
727,4	-11,43
727,586	80,72
727,773	-50,35
727,959	86,87
728,145	-36,01
728,332	-60,59
728,518	-15,53
728,705	-33,96
728,891	62,29
729,077	27,48
729,264	25,43
729,45	56,15
729,636	68,44
729,823	17,24
730,009	33,62
730,195	9,05
730,382	2,9
730,568	17,24
730,754	37,72
730,94	-29,87
731,126	17,24
731,313	-46,25
731,499	54,1
731,685	9,05
731,871	35,67
732,057	33,62
732,243	13,14
732,429	2,9
732,615	-36,01
732,801	-15,53
732,987	-40,11
733,173	13,14
733,359	-46,25
733,545	84,82
733,731	-50,35
733,917	27,48
734,103	45,91
734,289	35,67
734,475	-44,2
734,661	35,67
734,847	-46,25
735,033	-27,82
735,219	23,38
735,404	-19,63
735,59	15,19
735,776	2,9
735,962	-3,24
736,148	37,72
736,333	19,29
736,519	13,14
736,705	17,24
736,89	23,38
737,076	-58,54
737,262	66,39
737,447	-9,39
737,633	-25,77
737,819	21,33
738,004	33,62
738,19	-27,82
738,375	33,62
738,561	-33,96
738,747	58,2
738,932	21,33
739,118	9,05
739,303	-19,63
739,489	43,86
739,674	-54,44
739,859	25,43
740,045	25,43
740,23	13,14
740,416	0,85
740,601	95,06
740,786	4,95
740,972	-15,53
741,157	50
741,342	-40,11
741,528	-29,87
741,713	-36,01
741,898	50
742,084	19,29
742,269	-5,29
742,454	13,14
742,639	29,52
742,824	15,19
743,01	11,09
743,195	50
743,38	-13,48
743,565	45,91
743,75	-13,48
743,935	-15,53
744,12	-15,53
744,305	17,24
744,49	-13,48
744,675	80,72
744,86	-7,34
745,045	-7,34
745,23	78,68
745,415	27,48
745,6	41,81
745,785	33,62
745,97	11,09
746,155	27,48
746,34	31,57
746,525	74,58
746,71	9,05
746,895	41,81
747,079	-85,16
747,264	-11,43
747,449	4,95
747,634	37,72
747,819	43,86
748,003	68,44
748,188	58,2
748,373	74,58
748,557	43,86
748,742	78,68
748,927	31,57
749,111	60,24
749,296	-5,29
749,481	45,91
749,665	50
749,85	29,52
750,034	56,15
750,219	-15,53
750,404	-3,24
750,588	-23,72
750,773	-21,67
750,957	9,05
751,141	76,63
751,326	66,39
751,51	2,9
751,695	76,63
751,879	-7,34
752,064	9,05
752,248	35,67
752,432	29,52
752,617	37,72
752,801	52,05
752,985	-13,48
753,17	-29,87
753,354	-48,3
753,538	-72,87
753,722	74,58
753,907	-23,72
754,091	13,14
754,275	-62,63
754,459	-56,49
754,643	29,52
754,828	-25,77
755,012	-9,39
755,196	2,9
755,38	-17,58
755,564	-21,67
755,748	86,87
755,932	68,44
756,116	39,76
756,3	-7,34
756,484	45,91
756,668	-27,82
756,852	76,63
757,036	33,62
757,22	27,48
757,404	13,14
757,588	2,9
757,772	-36,01
757,956	-19,63
758,14	37,72
758,323	-89,26
758,507	25,43
758,691	64,34
758,875	27,48
759,059	-19,63
759,242	11,09
759,426	-19,63
759,61	105,3
759,794	-15,53
759,977	25,43
760,161	62,29
760,345	-3,24
760,528	7
760,712	-7,34
760,895	50
761,079	25,43
761,263	60,24
761,446	43,86
761,63	17,24
761,813	-9,39
761,997	-40,11
762,18	52,05
762,364	-13,48
762,547	-31,91
762,731	-46,25
762,914	15,19
763,098	-117,93
763,281	-7,34
763,464	43,86
763,648	-29,87
763,831	-11,43
764,015	9,05
764,198	-23,72
764,381	4,95
764,564	19,29
764,748	-3,24
764,931	-21,67
765,114	-31,91
765,297	2,9
765,481	50
765,664	2,9
765,847	11,09
766,03	47,96
766,213	0,85
766,397	52,05
766,58	17,24
766,763	66,39
766,946	-54,44
767,129	50
767,312	-23,72
767,495	99,16
767,678	-3,24
767,861	-3,24
768,044	0,85
768,227	19,29
768,41	-11,43
768,593	19,29
768,776	43,86
768,959	-40,11
769,142	-5,29
769,324	41,81
769,507	52,05
769,69	50
769,873	21,33
770,056	-5,29
770,239	64,34
770,421	21,33
770,604	-23,72
770,787	41,81
770,97	-60,59
771,152	68,44
771,335	47,96
771,518	58,2
771,7	27,48
771,883	41,81
772,066	52,05
772,248	9,05
772,431	29,52
772,613	50
772,796	19,29
772,978	-21,67
773,161	17,24
773,343	17,24
773,526	-1,19
773,708	50
773,891	-21,67
774,073	58,2
774,256	4,95
774,438	-7,34
774,621	37,72
774,803	23,38
774,985	41,81
775,168	-13,48
775,35	47,96
775,532	52,05
775,715	9,05
775,897	0,85
776,079	9,05
776,261	-15,53
776,444	52,05
776,626	43,86
776,808	2,9
776,99	37,72
777,173	-11,43
777,355	-7,34
777,537	66,39
777,719	9,05
777,901	-1,19
778,083	60,24
778,265	-7,34
778,447	74,58
778,629	-21,67
778,811	29,52
778,993	-31,91
779,175	4,95
779,357	-29,87
779,539	9,05
779,721	11,09
779,903	27,48
780,085	17,24
780,267	17,24
780,449	-33,96
780,631	76,63
780,812	-5,29
780,994	2,9
781,176	35,67
781,358	-17,58
781,54	-70,83
781,721	27,48
781,903	-17,58
782,085	76,63
782,267	-9,39
782,448	9,05
782,63	-70,83
782,812	13,14
782,993	7
783,175	7
783,357	50
783,538	-13,48
783,72	-15,53
783,901	-7,34
784,083	43,86
784,264	-31,91
784,446	-25,77
784,627	74,58
784,809	-40,11
784,99	27,48
785,172	25,43
785,353	-50,35
785,535	70,48
785,716	33,62
785,897	21,33
786,079	-5,29
786,26	39,76
786,441	-7,34
786,623	25,43
786,804	-33,96
786,985	17,24
787,167	35,67
787,348	17,24
787,529	-48,3
787,71	29,52
787,891	11,09
788,073	-25,77
788,254	-19,63
788,435	4,95
788,616	66,39
788,797	4,95
788,978	-3,24
789,159	-38,06
789,34	-7,34
789,522	-11,43
789,703	23,38
789,884	37,72
790,065	-5,29
790,246	-3,24
790,427	82,77
790,607	29,52
790,788	33,62
790,969	33,62
791,15	25,43
791,331	25,43
791,512	-7,34
791,693	-3,24
791,874	66,39
792,054	39,76
792,235	19,29
792,416	-42,15
792,597	17,24
792,778	21,33
792,958	0,85
793,139	-19,63
793,32	13,14
793,5	64,34
793,681	4,95
793,862	-3,24
794,042	25,43
794,223	-54,44
794,404	41,81
794,584	13,14
794,765	-62,63
794,945	-97,45
795,126	101,2
795,306	52,05
795,487	-21,67
795,667	97,11
795,848	62,29
796,028	0,85
796,209	39,76
796,389	27,48
796,57	50
796,75	-31,91
796,93	-23,72
797,111	35,67
797,291	-44,2
797,471	37,72
797,652	29,52
797,832	-56,49
798,012	-40,11
798,192	-54,44
798,373	-31,91
798,553	-62,63
798,733	0,85
798,913	25,43
799,093	-46,25
799,274	-3,24
799,454	0,85
799,634	9,05
799,814	31,57
799,994	27,48
800,174	78,68
800,354	-5,29
800,534	17,24
800,714	97,11
800,894	33,62
801,074	25,43
801,254	9,05
801,434	17,24
801,614	-27,82
801,794	11,09
801,974	144,21
802,154	-5,29
802,334	43,86
802,514	29,52
802,693	66,39
802,873	33,62
803,053	4,95
803,233	-11,43
803,413	-15,53
803,592	-27,82
803,772	33,62
803,952	72,53
804,131	-17,58
804,311	9,05
804,491	29,52
804,67	-11,43
804,85	17,24
805,03	43,86
805,209	62,29
805,389	43,86
805,568	76,63
805,748	17,24
805,928	52,05
806,107	27,48
806,287	-72,87
806,466	-11,43
806,646	45,91
806,825	-15,53
807,004	0,85
807,184	11,09
807,363	-56,49
807,543	-13,48
807,722	25,43
807,901	-23,72
808,081	25,43
808,26	-64,68
808,439	50
808,619	19,29
808,798	4,95
808,977	47,96
809,156	-54,44
809,336	13,14
809,515	-7,34
809,694	11,09
809,873	-31,91
810,052	-97,45
810,231	9,05
810,411	11,09
810,59	-19,63
810,769	-38,06
810,948	33,62
811,127	58,2
811,306	-21,67
811,485	-7,34
811,664	29,52
811,843	-33,96
812,022	-3,24
812,201	-15,53
812,38	21,33
812,559	33,62
812,737	-13,48
812,916	-19,63
813,095	-58,54
813,274	62,29
813,453	33,62
813,632	-17,58
813,811	11,09
813,989	-36,01
814,168	90,96
814,347	54,1
814,526	-11,43
814,704	33,62
814,883	7
815,062	-13,48
815,24	47,96
815,419	13,14
815,598	62,29
815,776	13,14
815,955	-21,67
816,133	54,1
816,312	-1,19
816,49	9,05
816,669	-21,67
816,847	-11,43
817,026	62,29
817,204	-23,72
817,383	37,72
817,561	45,91
817,74	25,43
817,918	7
818,097	45,91
818,275	-13,48
818,453	70,48
818,632	31,57
818,81	13,14
818,988	-44,2
819,167	31,57
819,345	-5,29
819,523	35,67
819,701	52,05
819,879	13,14
820,058	41,81
820,236	-5,29
820,414	17,24
820,592	-21,67
820,77	29,52
820,948	50
821,127	15,19
821,305	-15,53
821,483	50
821,661	33,62
821,839	9,05
822,017	-23,72
822,195	54,1
822,373	-42,15
822,551	21,33
822,729	25,43
822,907	50
823,085	60,24
823,262	-13,48
823,44	0,85
823,618	11,09
823,796	68,44
823,974	-15,53
824,152	-36,01
824,329	9,05
824,507	58,2
824,685	-9,39
824,863	33,62
825,04	-5,29
825,218	-15,53
825,396	0,85
825,574	66,39
825,751	-15,53
825,929	78,68
826,107	29,52
826,284	41,81
826,462	2,9
826,639	0,85
826,817	-13,48
826,994	68,44
827,172	99,16
827,349	39,76
827,527	47,96
827,704	17,24
827,882	-15,53
828,059	-3,24
828,237	9,05
828,414	107,35
828,591	54,1
828,769	-25,77
828,946	27,48
829,124	15,19
829,301	15,19
829,478	-11,43
829,655	-33,96
829,833	-7,34
830,01	-11,43
830,187	11,09
830,364	111,44
830,542	41,81
830,719	-1,19
830,896	-5,29
831,073	-29,87
831,25	-11,43
831,427	33,62
831,604	45,91
831,782	4,95
831,959	27,48
832,136	25,43
832,313	-29,87
832,49	43,86
832,667	93,01
832,844	-13,48
833,021	9,05
833,198	-3,24
833,374	17,24
833,551	13,14
833,728	-1,19
833,905	41,81
834,082	88,92
834,259	-93,35
834,436	58,2
834,612	-3,24
834,789	35,67
834,966	-54,44
835,143	-23,72
835,319	-31,91
835,496	-40,11
835,673	-25,77
835,85	58,2
836,026	25,43
836,203	9,05
836,38	37,72
836,556	17,24
836,733	35,67
836,909	-15,53
837,086	-46,25
837,262	-7,34
837,439	-9,39
837,616	-44,2
837,792	-64,68
837,968	35,67
838,145	-21,67
838,321	19,29
838,498	4,95
838,674	35,67
838,851	15,19
839,027	2,9
839,203	-36,01
839,38	64,34
839,556	9,05
839,732	82,77
839,909	35,67
840,085	-52,39
840,261	43,86
840,437	-15,53
840,614	31,57
840,79	52,05
840,966	-25,77
841,142	60,24
841,318	-15,53
841,494	17,24
841,671	4,95
841,847	31,57
842,023	2,9
842,199	-31,91
842,375	52,05
842,551	9,05
842,727	-97,45
842,903	93,01
843,079	33,62
843,255	-19,63
843,431	-76,97
843,607	-7,34
843,783	0,85
843,959	-9,39
844,134	-19,63
844,31	9,05
844,486	-44,2
844,662	-13,48
844,838	-5,29
845,013	-31,91
845,189	-48,3
845,365	17,24
845,541	-52,39
845,716	37,72
845,892	-7,34
846,068	-21,67
846,244	9,05
846,419	19,29
846,595	-60,59
846,77	-27,82
846,946	-21,67
847,122	-31,91
847,297	37,72
847,473	2,9
847,648	-46,25
847,824	70,48
847,999	-21,67
848,175	35,67
848,35	21,33
848,526	41,81
848,701	9,05
848,876	60,24
849,052	7
849,227	11,09
849,403	-7,34
849,578	23,38
849,753	72,53
849,929	-7,34
850,104	4,95
850,279	-21,67
850,454	17,24
850,63	-99,5
850,805	-29,87
850,98	-27,82
851,155	76,63
851,33	70,48
851,505	-44,2
851,681	4,95
851,856	7
852,031	-7,34
852,206	13,14
852,381	-5,29
852,556	-19,63
852,731	23,38
852,906	9,05
853,081	-11,43
853,256	35,67
853,431	72,53
853,606	-15,53
853,781	72,53
853,956	37,72
854,131	0,85
854,305	0,85
854,48	-38,06
854,655	35,67
854,83	33,62
855,005	-50,35
855,18	-15,53
855,354	-5,29
855,529	27,48
855,704	-23,72
855,879	17,24
856,053	-19,63
856,228	43,86
856,403	-7,34
856,577	-11,43
856,752	-13,48
856,926	11,09
857,101	35,67
857,276	19,29
857,45	64,34
857,625	-38,06
857,799	-60,59
857,974	29,52
858,148	-48,3
858,323	41,81
858,497	31,57
858,672	68,44
858,846	25,43
859,02	17,24
859,195	25,43
859,369	-5,29
859,543	-1,19
859,718	45,91
859,892	-17,58
860,066	21,33
860,241	-11,43
860,415	-27,82
860,589	25,43
860,763	9,05
860,938	-29,87
861,112	19,29
861,286	-21,67
861,46	27,48
861,634	23,38
861,808	-38,06
861,982	-29,87
862,157	-1,19
862,331	9,05
862,505	11,09
862,679	-9,39
862,853	-56,49
863,027	17,24
863,201	-23,72
863,375	7
863,549	-23,72
863,722	-29,87
863,896	35,67
864,07	-23,72
864,244	19,29
864,418	17,24
864,592	11,09
864,766	72,53
864,939	0,85
865,113	15,19
865,287	66,39
865,461	15,19
865,634	19,29
865,808	7
865,982	-62,63
866,156	35,67
866,329	-19,63
866,503	-11,43
866,676	33,62
866,85	50
867,024	-72,87
867,197	78,68
867,371	58,2
867,544	-48,3
867,718	52,05
867,891	-50,35
868,065	35,67
868,238	29,52
868,412	-11,43
868,585	19,29
868,759	50
868,932	33,62
869,105	39,76
869,279	-13,48
869,452	-68,78
869,625	-46,25
869,799	-29,87
869,972	-21,67
870,145	17,24
870,319	-33,96
870,492	2,9
870,665	-27,82
870,838	-54,44
871,011	4,95
871,185	9,05
871,358	-25,77
871,531	41,81
871,704	-17,58
871,877	-5,29
872,05	4,95
872,223	19,29
872,396	-1,19
872,569	50
872,742	-21,67
872,915	37,72
873,088	19,29
873,261	31,57
873,434	58,2
873,607	41,81
873,78	-21,67
873,953	-50,35
874,126	2,9
874,299	90,96
874,471	35,67
874,644	50
874,817	-27,82
874,99	19,29
875,163	15,19
875,335	43,86
875,508	4,95
875,681	41,81
875,853	37,72
876,026	13,14
876,199	-15,53
876,371	-21,67
876,544	-40,11
876,717	27,48
876,889	58,2
877,062	-36,01
877,234	-19,63
877,407	-3,24
877,579	19,29
877,752	-7,34
877,924	33,62
878,097	29,52
878,269	0,85
878,442	-46,25
878,614	60,24
878,786	13,14
878,959	9,05
879,131	58,2
879,303	-11,43
879,476	25,43
879,648	-5,29
879,82	-7,34
879,993	-25,77
880,165	-7,34
880,337	-9,39
880,509	-23,72
880,681	11,09
880,854	25,43
881,026	21,33
881,198	-38,06
881,37	-13,48
881,542	-33,96
881,714	-3,24
881,886	-7,34
882,058	-9,39
882,23	2,9
882,402	0,85
882,574	-40,11
882,746	-19,63
882,918	31,57
883,09	41,81
883,262	-15,53
883,434	-31,91
883,606	-15,53
883,778	-17,58
883,95	41,81
884,122	-5,29
884,293	21,33
884,465	-23,72
884,637	17,24
884,809	-7,34
884,98	43,86
885,152	15,19
885,324	-17,58
885,496	21,33
885,667	-15,53
885,839	-44,2
886,011	-31,91
886,182	11,09
886,354	-9,39
886,525	-23,72
886,697	19,29
886,869	13,14
887,04	11,09
887,212	13,14
887,383	-3,24
887,555	-25,77
887,726	-13,48
887,897	31,57
888,069	-3,24
888,24	-15,53
888,412	58,2
888,583	0,85
888,754	15,19
888,926	21,33
889,097	9,05
889,268	4,95
889,44	-5,29
889,611	-15,53
889,782	50
889,953	37,72
890,125	25,43
890,296	-7,34
890,467	-40,11
890,638	47,96
890,809	64,34
890,98	50
891,151	15,19
891,323	0,85
891,494	35,67
891,665	2,9
891,836	-5,29
892,007	13,14
892,178	99,16
892,349	23,38
892,52	19,29
892,691	17,24
892,862	17,24
893,032	21,33
893,203	13,14
893,374	25,43
893,545	-48,3
893,716	33,62
893,887	-48,3
894,057	37,72
894,228	27,48
894,399	-85,16
894,57	54,1
894,74	-7,34
894,911	23,38
895,082	-23,72
895,253	11,09
895,423	11,09
895,594	17,24
895,764	-25,77
895,935	23,38
896,106	13,14
896,276	-25,77
896,447	29,52
896,617	84,82
896,788	19,29
896,958	19,29
897,129	33,62
897,299	-31,91
897,47	17,24
897,64	-15,53
897,81	-36,01
897,981	-31,91
898,151	-33,96
898,322	4,95
898,492	19,29
898,662	-3,24
898,832	21,33
899,003	-27,82
899,173	-29,87
899,343	-38,06
899,513	-17,58
