Data from filtre580_USB4F104151__2__11-53-55-473.txt Node

Date: Wed Apr 15 11:53:55 EDT 2026
User: LaboPhy
Spectrometer: USB4F10415
Trigger mode: 4
Integration Time (sec): 5,000000E-3
Scans to average: 1
Electric dark correction enabled: true
Nonlinearity correction enabled: false
Boxcar width: 0
XAxis mode: Wavelengths
Number of Pixels in Spectrum: 3648
>>>>>Begin Spectral Data<<<<<
178,204	-35,16
178,424	-35,16
178,644	-35,16
178,864	-22,87
179,084	-51,54
179,304	-18,77
179,524	1,71
179,744	-41,3
179,964	28,33
180,184	11,95
180,404	11,95
180,624	-53,59
180,844	13,99
181,064	24,23
181,283	1,71
181,503	40,62
181,723	-20,82
181,943	11,95
182,163	38,57
182,383	9,9
182,602	52,91
182,822	24,23
183,042	11,95
183,262	-16,73
183,482	36,52
183,701	-22,87
183,921	16,04
184,141	-4,44
184,361	32,43
184,58	9,9
184,8	-59,73
185,02	13,99
185,239	-88,4
185,459	-35,16
185,679	11,95
185,898	-37,2
186,118	7,85
186,338	-4,44
186,557	30,38
186,777	-26,96
186,997	5,8
187,216	-18,77
187,436	9,9
187,655	-59,73
187,875	-41,3
188,095	-4,44
188,314	34,47
188,534	-57,68
188,753	42,67
188,973	54,95
189,192	-31,06
189,412	-10,58
189,631	-39,25
189,851	24,23
190,07	-14,68
190,29	77,48
190,509	-10,58
190,729	-31,06
190,948	28,33
191,168	1,71
191,387	44,71
191,607	-39,25
191,826	-0,34
192,045	-43,35
192,265	-18,77
192,484	54,95
192,704	-72,02
192,923	7,85
193,142	-8,53
193,362	46,76
193,581	-35,16
193,8	-29,01
194,02	46,76
194,239	-53,59
194,458	1,71
194,678	9,9
194,897	-2,39
195,116	-18,77
195,335	-55,64
195,555	5,8
195,774	18,09
195,993	-49,49
196,212	36,52
196,432	-35,16
196,651	61,1
196,87	11,95
197,089	69,29
197,308	-41,3
197,528	5,8
197,747	-43,35
197,966	-12,63
198,185	26,28
198,404	73,39
198,623	32,43
198,842	1,71
199,062	30,38
199,281	-4,44
199,5	-63,83
199,719	63,15
199,938	-47,44
200,157	22,19
200,376	-41,3
200,595	20,14
200,814	-16,73
201,033	3,75
201,252	-29,01
201,471	34,47
201,69	-8,53
201,909	20,14
202,128	-8,53
202,347	-2,39
202,566	32,43
202,785	-29,01
203,004	-6,49
203,223	18,09
203,442	-22,87
203,661	-22,87
203,879	-14,68
204,098	-41,3
204,317	18,09
204,536	-22,87
204,755	-41,3
204,974	-4,44
205,193	26,28
205,411	-39,25
205,63	-39,25
205,849	46,76
206,068	-4,44
206,287	1,71
206,505	-16,73
206,724	-43,35
206,943	-16,73
207,162	-14,68
207,381	-10,58
207,599	26,28
207,818	9,9
208,037	44,71
208,255	-31,06
208,474	22,19
208,693	75,43
208,911	38,57
209,13	46,76
209,349	-22,87
209,567	-12,63
209,786	26,28
210,005	-20,82
210,223	-8,53
210,442	-18,77
210,661	-6,49
210,879	-43,35
211,098	9,9
211,316	-26,96
211,535	-41,3
211,753	-10,58
211,972	52,91
212,191	-29,01
212,409	-31,06
212,628	-18,77
212,846	9,9
213,065	34,47
213,283	-33,11
213,502	50,86
213,72	57
213,938	-10,58
214,157	-18,77
214,375	67,24
214,594	-4,44
214,812	20,14
215,031	3,75
215,249	-47,44
215,467	67,24
215,686	50,86
215,904	26,28
216,122	9,9
216,341	-39,25
216,559	52,91
216,778	85,67
216,996	42,67
217,214	-0,34
217,432	-47,44
217,651	22,19
217,869	-14,68
218,087	13,99
218,306	18,09
218,524	20,14
218,742	-51,54
218,96	32,43
219,179	48,81
219,397	40,62
219,615	22,19
219,833	46,76
220,051	-39,25
220,27	-2,39
220,488	-14,68
220,706	1,71
220,924	-43,35
221,142	-22,87
221,36	50,86
221,578	-35,16
221,796	30,38
222,015	18,09
222,233	-4,44
222,451	52,91
222,669	-57,68
222,887	16,04
223,105	34,47
223,323	-65,88
223,541	46,76
223,759	-6,49
223,977	-43,35
224,195	-14,68
224,413	-37,2
224,631	-86,36
224,849	69,29
225,067	59,05
225,285	-55,64
225,503	5,8
225,721	32,43
225,939	-37,2
226,157	-65,88
226,375	-4,44
226,592	-20,82
226,81	-37,2
227,028	-47,44
227,246	71,34
227,464	-22,87
227,682	-2,39
227,9	-37,2
228,117	34,47
228,335	-24,92
228,553	26,28
228,771	-59,73
228,989	46,76
229,206	18,09
229,424	3,75
229,642	-31,06
229,86	42,67
230,077	-47,44
230,295	-51,54
230,513	28,33
230,731	-37,2
230,948	-29,01
231,166	-22,87
231,384	30,38
231,601	-4,44
231,819	24,23
232,037	-20,82
232,254	-4,44
232,472	-43,35
232,689	-29,01
232,907	9,9
233,125	9,9
233,342	20,14
233,56	16,04
233,777	-41,3
233,995	-16,73
234,213	-4,44
234,43	52,91
234,648	-26,96
234,865	11,95
235,083	-2,39
235,3	-2,39
235,518	65,19
235,735	26,28
235,953	44,71
236,17	-20,82
236,388	26,28
236,605	-29,01
236,822	22,19
237,04	-39,25
237,257	22,19
237,475	-6,49
237,692	75,43
237,909	11,95
238,127	32,43
238,344	48,81
238,562	-18,77
238,779	24,23
238,996	38,57
239,214	18,09
239,431	18,09
239,648	3,75
239,865	22,19
240,083	1,71
240,3	18,09
240,517	5,8
240,735	69,29
240,952	5,8
241,169	-18,77
241,386	34,47
241,603	-12,63
241,821	-26,96
242,038	26,28
242,255	59,05
242,472	-45,4
242,689	38,57
242,907	-35,16
243,124	7,85
243,341	-6,49
243,558	-4,44
243,775	52,91
243,992	-10,58
244,209	-33,11
244,426	-18,77
244,643	-14,68
244,86	42,67
245,078	-29,01
245,295	38,57
245,512	-6,49
245,729	32,43
245,946	-4,44
246,163	-10,58
246,38	-18,77
246,597	36,52
246,814	-4,44
247,031	-0,34
247,248	63,15
247,464	26,28
247,681	-0,34
247,898	7,85
248,115	3,75
248,332	18,09
248,549	9,9
248,766	13,99
248,983	44,71
249,2	-65,88
249,417	-0,34
249,633	-14,68
249,85	36,52
250,067	-43,35
250,284	11,95
250,501	3,75
250,717	-2,39
250,934	26,28
251,151	-39,25
251,368	50,86
251,585	-88,4
251,801	-14,68
252,018	-14,68
252,235	-6,49
252,451	1,71
252,668	38,57
252,885	30,38
253,102	-37,2
253,318	42,67
253,535	-63,83
253,752	-53,59
253,968	-2,39
254,185	46,76
254,401	-43,35
254,618	-88,4
254,835	26,28
255,051	42,67
255,268	-16,73
255,484	18,09
255,701	18,09
255,917	122,54
256,134	9,9
256,351	-31,06
256,567	-61,78
256,784	-2,39
257	28,33
257,217	36,52
257,433	-45,4
257,65	-12,63
257,866	-43,35
258,082	-45,4
258,299	-24,92
258,515	-63,83
258,732	-22,87
258,948	5,8
259,165	-6,49
259,381	9,9
259,597	-29,01
259,814	5,8
260,03	24,23
260,246	1,71
260,463	-61,78
260,679	28,33
260,895	-72,02
261,112	46,76
261,328	-20,82
261,544	9,9
261,761	-22,87
261,977	30,38
262,193	-37,2
262,409	42,67
262,626	22,19
262,842	36,52
263,058	-12,63
263,274	1,71
263,49	11,95
263,707	5,8
263,923	42,67
264,139	-31,06
264,355	34,47
264,571	9,9
264,787	-29,01
265,004	5,8
265,22	11,95
265,436	-22,87
265,652	-55,64
265,868	-0,34
266,084	-26,96
266,3	9,9
266,516	-33,11
266,732	-0,34
266,948	-20,82
267,164	38,57
267,38	61,1
267,596	26,28
267,812	-69,97
268,028	34,47
268,244	18,09
268,46	36,52
268,676	69,29
268,892	48,81
269,108	52,91
269,324	-12,63
269,54	-6,49
269,756	-10,58
269,972	26,28
270,188	-37,2
270,403	30,38
270,619	-0,34
270,835	-51,54
271,051	1,71
271,267	32,43
271,483	24,23
271,698	3,75
271,914	52,91
272,13	18,09
272,346	-35,16
272,562	30,38
272,777	9,9
272,993	-39,25
273,209	3,75
273,425	-26,96
273,64	36,52
273,856	-45,4
274,072	-2,39
274,287	-10,58
274,503	9,9
274,719	18,09
274,934	26,28
275,15	-8,53
275,366	-4,44
275,581	-57,68
275,797	-8,53
276,012	26,28
276,228	77,48
276,444	7,85
276,659	11,95
276,875	-6,49
277,09	67,24
277,306	30,38
277,521	-39,25
277,737	32,43
277,952	-8,53
278,168	5,8
278,383	3,75
278,599	-20,82
278,814	42,67
279,03	-55,64
279,245	36,52
279,461	9,9
279,676	13,99
279,892	7,85
280,107	18,09
280,322	-39,25
280,538	-22,87
280,753	20,14
280,969	26,28
281,184	-0,34
281,399	63,15
281,615	-41,3
281,83	-4,44
282,045	-2,39
282,26	42,67
282,476	13,99
282,691	65,19
282,906	28,33
283,122	-26,96
283,337	-45,4
283,552	-29,01
283,767	-16,73
283,983	1,71
284,198	-51,54
284,413	-45,4
284,628	-4,44
284,843	-33,11
285,058	28,33
285,274	-29,01
285,489	20,14
285,704	-55,64
285,919	-86,36
286,134	40,62
286,349	-117,08
286,564	-14,68
286,779	5,8
286,995	28,33
287,21	-43,35
287,425	-12,63
287,64	-8,53
287,855	9,9
288,07	-31,06
288,285	83,63
288,5	18,09
288,715	5,8
288,93	-33,11
289,145	52,91
289,36	-49,49
289,575	-39,25
289,79	-20,82
290,004	18,09
290,219	18,09
290,434	11,95
290,649	36,52
290,864	-67,92
291,079	46,76
291,294	-4,44
291,509	-33,11
291,724	-37,2
291,938	-33,11
292,153	-8,53
292,368	-8,53
292,583	26,28
292,798	40,62
293,012	-10,58
293,227	22,19
293,442	34,47
293,657	20,14
293,871	79,53
294,086	-6,49
294,301	34,47
294,516	52,91
294,73	-20,82
294,945	-84,31
295,16	-6,49
295,374	-2,39
295,589	-2,39
295,804	-10,58
296,018	9,9
296,233	-80,21
296,447	20,14
296,662	-33,11
296,877	18,09
297,091	-14,68
297,306	-43,35
297,52	69,29
297,735	-16,73
297,949	1,71
298,164	-33,11
298,378	34,47
298,593	-22,87
298,807	-4,44
299,022	22,19
299,236	-2,39
299,451	-20,82
299,665	50,86
299,88	20,14
300,094	20,14
300,309	-37,2
300,523	13,99
300,737	42,67
300,952	5,8
301,166	38,57
301,381	5,8
301,595	40,62
301,809	-57,68
302,024	5,8
302,238	1,71
302,452	18,09
302,667	38,57
302,881	54,95
303,095	-37,2
303,309	71,34
303,524	16,04
303,738	22,19
303,952	22,19
304,166	22,19
304,381	-59,73
304,595	59,05
304,809	36,52
305,023	-37,2
305,237	-0,34
305,452	-29,01
305,666	-49,49
305,88	3,75
306,094	36,52
306,308	9,9
306,522	42,67
306,736	36,52
306,95	16,04
307,164	36,52
307,379	48,81
307,593	-20,82
307,807	3,75
308,021	52,91
308,235	-6,49
308,449	28,33
308,663	-6,49
308,877	-92,5
309,091	-22,87
309,305	11,95
309,519	18,09
309,733	-18,77
309,947	71,34
310,161	48,81
310,374	-43,35
310,588	1,71
310,802	1,71
311,016	-16,73
311,23	-22,87
311,444	-10,58
311,658	34,47
311,872	-43,35
312,085	24,23
312,299	34,47
312,513	-37,2
312,727	-4,44
312,941	-16,73
313,154	50,86
313,368	-14,68
313,582	13,99
313,796	-2,39
314,009	-26,96
314,223	100,01
314,437	73,39
314,651	-51,54
314,864	48,81
315,078	5,8
315,292	18,09
315,505	11,95
315,719	20,14
315,933	-8,53
316,146	-14,68
316,36	-35,16
316,573	59,05
316,787	-2,39
317,001	20,14
317,214	-22,87
317,428	36,52
317,641	54,95
317,855	42,67
318,068	87,72
318,282	-29,01
318,495	1,71
318,709	-31,06
318,922	11,95
319,136	61,1
319,349	-16,73
319,563	22,19
319,776	-6,49
319,99	-2,39
320,203	46,76
320,417	22,19
320,63	-69,97
320,843	-53,59
321,057	87,72
321,27	-47,44
321,483	-51,54
321,697	44,71
321,91	9,9
322,124	59,05
322,337	3,75
322,55	-29,01
322,763	-16,73
322,977	-22,87
323,19	-6,49
323,403	42,67
323,617	67,24
323,83	-39,25
324,043	26,28
324,256	22,19
324,469	11,95
324,683	-6,49
324,896	-41,3
325,109	-29,01
325,322	-18,77
325,535	61,1
325,748	18,09
325,962	20,14
326,175	63,15
326,388	1,71
326,601	-53,59
326,814	18,09
327,027	28,33
327,24	50,86
327,453	-24,92
327,666	1,71
327,879	-6,49
328,092	-26,96
328,305	-45,4
328,518	1,71
328,731	46,76
328,944	-4,44
329,157	-26,96
329,37	-37,2
329,583	40,62
329,796	-18,77
330,009	-33,11
330,222	9,9
330,435	20,14
330,648	-18,77
330,861	-14,68
331,073	-76,12
331,286	-6,49
331,499	18,09
331,712	-65,88
331,925	1,71
332,138	5,8
332,35	3,75
332,563	-18,77
332,776	20,14
332,989	-8,53
333,202	-10,58
333,414	-22,87
333,627	24,23
333,84	28,33
334,053	40,62
334,265	11,95
334,478	20,14
334,691	-8,53
334,903	54,95
335,116	-45,4
335,329	20,14
335,541	34,47
335,754	-0,34
335,966	-6,49
336,179	-24,92
336,392	3,75
336,604	-41,3
336,817	48,81
337,029	-26,96
337,242	57
337,454	11,95
337,667	-31,06
337,88	11,95
338,092	-18,77
338,305	50,86
338,517	-39,25
338,729	24,23
338,942	-14,68
339,154	9,9
339,367	20,14
339,579	22,19
339,792	9,9
340,004	3,75
340,217	-55,64
340,429	-6,49
340,641	-6,49
340,854	7,85
341,066	9,9
341,278	-39,25
341,491	7,85
341,703	32,43
341,915	67,24
342,128	11,95
342,34	9,9
342,552	42,67
342,764	-57,68
342,977	-12,63
343,189	-98,64
343,401	26,28
343,613	1,71
343,826	-35,16
344,038	1,71
344,25	34,47
344,462	7,85
344,674	-2,39
344,886	-12,63
345,099	-53,59
345,311	-26,96
345,523	-24,92
345,735	-88,4
345,947	-29,01
346,159	-2,39
346,371	11,95
346,583	-82,26
346,795	-67,92
347,007	-29,01
347,219	1,71
347,431	-2,39
347,643	59,05
347,855	-55,64
348,067	-10,58
348,279	-12,63
348,491	5,8
348,703	-14,68
348,915	36,52
349,127	1,71
349,339	-4,44
349,551	-26,96
349,763	36,52
349,975	67,24
350,187	83,63
350,399	-14,68
350,61	65,19
350,822	-26,96
351,034	9,9
351,246	26,28
351,458	-49,49
351,669	-51,54
351,881	-12,63
352,093	13,99
352,305	-18,77
352,517	11,95
352,728	-6,49
352,94	5,8
353,152	9,9
353,363	-31,06
353,575	20,14
353,787	102,06
353,999	36,52
354,21	-6,49
354,422	89,77
354,633	18,09
354,845	30,38
355,057	9,9
355,268	-8,53
355,48	-65,88
355,692	22,19
355,903	18,09
356,115	18,09
356,326	26,28
356,538	18,09
356,749	-92,5
356,961	77,48
357,172	67,24
357,384	22,19
357,595	16,04
357,807	20,14
358,018	9,9
358,23	73,39
358,441	-16,73
358,653	38,57
358,864	-59,73
359,075	-10,58
359,287	44,71
359,498	7,85
359,709	-24,92
359,921	54,95
360,132	-88,4
360,344	22,19
360,555	-12,63
360,766	46,76
360,977	-59,73
361,189	13,99
361,4	-18,77
361,611	50,86
361,823	30,38
362,034	-88,4
362,245	-22,87
362,456	65,19
362,667	-6,49
362,879	-35,16
363,09	9,9
363,301	26,28
363,512	-53,59
363,723	-12,63
363,935	36,52
364,146	-16,73
364,357	-8,53
364,568	42,67
364,779	32,43
364,99	1,71
365,201	1,71
365,412	13,99
365,623	-14,68
365,834	-10,58
366,045	11,95
366,256	52,91
366,467	11,95
366,678	69,29
366,889	-16,73
367,1	-10,58
367,311	38,57
367,522	5,8
367,733	-14,68
367,944	-4,44
368,155	-45,4
368,366	-20,82
368,577	-14,68
368,788	20,14
368,999	34,47
369,209	28,33
369,42	9,9
369,631	34,47
369,842	30,38
370,053	42,67
370,264	-37,2
370,474	-12,63
370,685	-47,44
370,896	-6,49
371,107	93,87
371,317	75,43
371,528	42,67
371,739	-6,49
371,95	28,33
372,16	61,1
372,371	38,57
372,582	-22,87
372,792	24,23
373,003	26,28
373,214	5,8
373,424	34,47
373,635	5,8
373,846	61,1
374,056	-12,63
374,267	-41,3
374,477	42,67
374,688	34,47
374,898	36,52
375,109	-14,68
375,319	13,99
375,53	-39,25
375,74	-74,07
375,951	3,75
376,161	50,86
376,372	26,28
376,582	28,33
376,793	-12,63
377,003	7,85
377,214	-29,01
377,424	34,47
377,635	5,8
377,845	5,8
378,055	-72,02
378,266	3,75
378,476	7,85
378,686	24,23
378,897	-2,39
379,107	9,9
379,317	24,23
379,528	26,28
379,738	48,81
379,948	-55,64
380,158	-18,77
380,369	7,85
380,579	-31,06
380,789	83,63
380,999	3,75
381,21	-35,16
381,42	28,33
381,63	13,99
381,84	13,99
382,05	102,06
382,261	34,47
382,471	59,05
382,681	54,95
382,891	57
383,101	-8,53
383,311	-20,82
383,521	-16,73
383,731	11,95
383,941	16,04
384,151	-74,07
384,361	9,9
384,571	42,67
384,781	-31,06
384,991	-29,01
385,201	-22,87
385,411	-20,82
385,621	97,96
385,831	30,38
386,041	20,14
386,251	-8,53
386,461	-37,2
386,671	71,34
386,881	22,19
387,091	22,19
387,301	40,62
387,511	-14,68
387,72	-14,68
387,93	-41,3
388,14	-31,06
388,35	-41,3
388,56	28,33
388,769	38,57
388,979	-63,83
389,189	13,99
389,399	36,52
389,609	-33,11
389,818	-29,01
390,028	-72,02
390,238	-61,78
390,447	42,67
390,657	-65,88
390,867	22,19
391,076	-20,82
391,286	-22,87
391,496	42,67
391,705	57
391,915	-2,39
392,125	20,14
392,334	-4,44
392,544	-20,82
392,753	34,47
392,963	52,91
393,172	57
393,382	18,09
393,591	28,33
393,801	16,04
394,01	28,33
394,22	-0,34
394,429	-86,36
394,639	-0,34
394,848	26,28
395,058	26,28
395,267	-39,25
395,477	-39,25
395,686	75,43
395,895	42,67
396,105	67,24
396,314	-14,68
396,524	30,38
396,733	-39,25
396,942	-29,01
397,152	20,14
397,361	30,38
397,57	46,76
397,78	-12,63
397,989	34,47
398,198	11,95
398,407	11,95
398,617	18,09
398,826	1,71
399,035	-24,92
399,244	1,71
399,453	-37,2
399,663	54,95
399,872	26,28
400,081	-6,49
400,29	-24,92
400,499	-43,35
400,708	1,71
400,917	16,04
401,127	-26,96
401,336	-37,2
401,545	-22,87
401,754	85,67
401,963	36,52
402,172	42,67
402,381	26,28
402,59	-6,49
402,799	-10,58
403,008	16,04
403,217	38,57
403,426	40,62
403,635	22,19
403,844	40,62
404,053	83,63
404,262	26,28
404,471	52,91
404,68	-0,34
404,888	-12,63
405,097	-4,44
405,306	18,09
405,515	-2,39
405,724	42,67
405,933	59,05
406,142	36,52
406,35	-8,53
406,559	50,86
406,768	-6,49
406,977	16,04
407,185	22,19
407,394	18,09
407,603	22,19
407,812	16,04
408,02	-55,64
408,229	-45,4
408,438	3,75
408,646	44,71
408,855	1,71
409,064	75,43
409,272	-39,25
409,481	46,76
409,69	-82,26
409,898	34,47
410,107	3,75
410,315	-4,44
410,524	-12,63
410,733	54,95
410,941	-12,63
411,15	13,99
411,358	26,28
411,567	-12,63
411,775	-6,49
411,984	-31,06
412,192	-26,96
412,401	-59,73
412,609	38,57
412,818	-31,06
413,026	38,57
413,234	44,71
413,443	-20,82
413,651	-10,58
413,86	-43,35
414,068	-47,44
414,276	18,09
414,485	-6,49
414,693	-129,36
414,901	-33,11
415,11	7,85
415,318	34,47
415,526	-72,02
415,734	38,57
415,943	26,28
416,151	48,81
416,359	9,9
416,567	-18,77
416,776	-14,68
416,984	-33,11
417,192	44,71
417,4	-39,25
417,608	28,33
417,817	44,71
418,025	7,85
418,233	13,99
418,441	3,75
418,649	-31,06
418,857	-20,82
419,065	-22,87
419,273	-57,68
419,481	11,95
419,689	30,38
419,897	34,47
420,105	-20,82
420,313	36,52
420,521	46,76
420,729	61,1
420,937	52,91
421,145	50,86
421,353	-14,68
421,561	67,24
421,769	-80,21
421,977	-63,83
422,185	1,71
422,393	-59,73
422,601	11,95
422,809	-69,97
423,017	-2,39
423,224	-14,68
423,432	46,76
423,64	26,28
423,848	13,99
424,056	-8,53
424,263	5,8
424,471	-41,3
424,679	-45,4
424,887	-16,73
425,094	26,28
425,302	34,47
425,51	1,71
425,718	5,8
425,925	26,28
426,133	-8,53
426,341	9,9
426,548	-14,68
426,756	46,76
426,964	-8,53
427,171	-47,44
427,379	-0,34
427,586	-37,2
427,794	-33,11
428,001	-4,44
428,209	-12,63
428,417	-8,53
428,624	18,09
428,832	34,47
429,039	42,67
429,247	13,99
429,454	-29,01
429,662	3,75
429,869	-20,82
430,076	24,23
430,284	67,24
430,491	-22,87
430,699	5,8
430,906	-24,92
431,114	24,23
431,321	83,63
431,528	28,33
431,736	38,57
431,943	18,09
432,15	-10,58
432,358	-0,34
432,565	-12,63
432,772	36,52
432,979	73,39
433,187	50,86
433,394	-47,44
433,601	-63,83
433,808	-12,63
434,016	5,8
434,223	-4,44
434,43	-31,06
434,637	71,34
434,844	26,28
435,052	-8,53
435,259	1,71
435,466	9,9
435,673	30,38
435,88	24,23
436,087	9,9
436,294	1,71
436,501	1,71
436,708	20,14
436,915	1,71
437,122	36,52
437,329	-35,16
437,537	-63,83
437,743	-18,77
437,95	36,52
438,157	-8,53
438,364	-16,73
438,571	18,09
438,778	-47,44
438,985	-10,58
439,192	-88,4
439,399	54,95
439,606	-14,68
439,813	36,52
440,02	16,04
440,227	67,24
440,433	1,71
440,64	18,09
440,847	-22,87
441,054	22,19
441,261	-20,82
441,467	13,99
441,674	26,28
441,881	-47,44
442,088	1,71
442,294	-20,82
442,501	-24,92
442,708	-4,44
442,914	50,86
443,121	-2,39
443,328	-55,64
443,534	-45,4
443,741	63,15
443,948	-82,26
444,154	-8,53
444,361	38,57
444,568	9,9
444,774	81,58
444,981	-51,54
445,187	42,67
445,394	18,09
445,6	38,57
445,807	3,75
446,013	28,33
446,22	5,8
446,426	32,43
446,633	102,06
446,839	13,99
447,046	-26,96
447,252	71,34
447,459	13,99
447,665	24,23
447,871	-63,83
448,078	-26,96
448,284	50,86
448,491	63,15
448,697	16,04
448,903	18,09
449,11	-39,25
449,316	-2,39
449,522	22,19
449,728	24,23
449,935	38,57
450,141	-14,68
450,347	-22,87
450,553	42,67
450,76	-2,39
450,966	-6,49
451,172	40,62
451,378	-12,63
451,584	11,95
451,791	-16,73
451,997	1,71
452,203	-20,82
452,409	-43,35
452,615	-22,87
452,821	-12,63
453,027	-35,16
453,233	44,71
453,44	-33,11
453,646	-2,39
453,852	-26,96
454,058	46,76
454,264	-39,25
454,47	-61,78
454,676	36,52
454,882	-0,34
455,088	5,8
455,294	-20,82
455,5	-18,77
455,705	-22,87
455,911	20,14
456,117	-37,2
456,323	3,75
456,529	59,05
456,735	-47,44
456,941	-16,73
457,147	-6,49
457,352	1,71
457,558	-8,53
457,764	-100,69
457,97	-4,44
458,176	-22,87
458,381	34,47
458,587	69,29
458,793	-22,87
458,999	50,86
459,204	-47,44
459,41	-20,82
459,616	-72,02
459,821	-41,3
460,027	20,14
460,233	28,33
460,438	-35,16
460,644	28,33
460,85	38,57
461,055	16,04
461,261	22,19
461,466	-14,68
461,672	1,71
461,878	18,09
462,083	5,8
462,289	-8,53
462,494	28,33
462,7	-8,53
462,905	11,95
463,111	18,09
463,316	3,75
463,522	-39,25
463,727	-74,07
463,932	-2,39
464,138	-47,44
464,343	26,28
464,549	-31,06
464,754	-69,97
464,959	75,43
465,165	-22,87
465,37	3,75
465,575	-2,39
465,781	3,75
465,986	-20,82
466,191	-6,49
466,397	-53,59
466,602	16,04
466,807	-10,58
467,012	-45,4
467,218	13,99
467,423	77,48
467,628	7,85
467,833	83,63
468,038	-14,68
468,244	-8,53
468,449	-53,59
468,654	52,91
468,859	-39,25
469,064	28,33
469,269	-22,87
469,474	93,87
469,679	13,99
469,885	-31,06
470,09	26,28
470,295	-14,68
470,5	50,86
470,705	9,9
470,91	22,19
471,115	7,85
471,32	-14,68
471,525	93,87
471,73	-14,68
471,935	77,48
472,139	46,76
472,344	34,47
472,549	5,8
472,754	-2,39
472,959	7,85
473,164	-2,39
473,369	-2,39
473,574	24,23
473,778	42,67
473,983	48,81
474,188	54,95
474,393	-45,4
474,598	9,9
474,802	-22,87
475,007	-6,49
475,212	-8,53
475,417	-2,39
475,621	-4,44
475,826	20,14
476,031	79,53
476,235	36,52
476,44	42,67
476,645	112,3
476,849	-43,35
477,054	30,38
477,259	11,95
477,463	9,9
477,668	18,09
477,872	-20,82
478,077	-35,16
478,282	16,04
478,486	20,14
478,691	-35,16
478,895	5,8
479,1	9,9
479,304	-37,2
479,509	-35,16
479,713	-6,49
479,918	38,57
480,122	-22,87
480,326	83,63
480,531	1,71
480,735	42,67
480,94	-47,44
481,144	54,95
481,348	-18,77
481,553	-14,68
481,757	11,95
481,961	3,75
482,166	-10,58
482,37	44,71
482,574	30,38
482,778	1,71
482,983	-45,4
483,187	-33,11
483,391	-6,49
483,595	20,14
483,8	-14,68
484,004	7,85
484,208	93,87
484,412	38,57
484,616	18,09
484,821	-8,53
485,025	59,05
485,229	-29,01
485,433	40,62
485,637	-14,68
485,841	7,85
486,045	-26,96
486,249	-6,49
486,453	46,76
486,657	1,71
486,861	18,09
487,065	13,99
487,269	1,71
487,473	-43,35
487,677	3,75
487,881	-6,49
488,085	18,09
488,289	20,14
488,493	24,23
488,697	-22,87
488,901	30,38
489,105	22,19
489,309	-16,73
489,512	34,47
489,716	36,52
489,92	59,05
490,124	-37,2
490,328	-14,68
490,531	-24,92
490,735	-14,68
490,939	-29,01
491,143	26,28
491,346	7,85
491,55	-14,68
491,754	-72,02
491,958	73,39
492,161	-4,44
492,365	-29,01
492,569	38,57
492,772	7,85
492,976	36,52
493,18	-61,78
493,383	67,24
493,587	-49,49
493,79	-45,4
493,994	-20,82
494,197	-41,3
494,401	5,8
494,605	-55,64
494,808	93,87
495,012	-33,11
495,215	-4,44
495,419	36,52
495,622	52,91
495,825	40,62
496,029	26,28
496,232	65,19
496,436	1,71
496,639	26,28
496,843	61,1
497,046	-14,68
497,249	-6,49
497,453	18,09
497,656	67,24
497,859	73,39
498,063	-26,96
498,266	-4,44
498,469	34,47
498,673	18,09
498,876	38,57
499,079	-8,53
499,282	9,9
499,485	-22,87
499,689	61,1
499,892	1,71
500,095	11,95
500,298	-14,68
500,501	44,71
500,705	1,71
500,908	-26,96
501,111	22,19
501,314	-10,58
501,517	30,38
501,72	13,99
501,923	26,28
502,126	11,95
502,329	34,47
502,532	-47,44
502,735	-4,44
502,938	57
503,141	38,57
503,344	-4,44
503,547	26,28
503,75	-12,63
503,953	-49,49
504,156	36,52
504,359	-20,82
504,562	-26,96
504,765	-10,58
504,968	-8,53
505,17	13,99
505,373	-39,25
505,576	-53,59
505,779	-20,82
505,982	-24,92
506,185	34,47
506,387	13,99
506,59	28,33
506,793	63,15
506,996	-12,63
507,198	-37,2
507,401	-22,87
507,604	-14,68
507,807	-69,97
508,009	-18,77
508,212	1,71
508,415	-45,4
508,617	9,9
508,82	-4,44
509,022	3,75
509,225	-14,68
509,428	-14,68
509,63	11,95
509,833	-2,39
510,035	26,28
510,238	-0,34
510,44	-12,63
510,643	28,33
510,845	34,47
511,048	3,75
511,25	-29,01
511,453	38,57
511,655	38,57
511,858	-16,73
512,06	24,23
512,262	61,1
512,465	11,95
512,667	-63,83
512,87	54,95
513,072	28,33
513,274	-37,2
513,477	11,95
513,679	-4,44
513,881	18,09
514,084	-20,82
514,286	38,57
514,488	24,23
514,69	7,85
514,893	9,9
515,095	-16,73
515,297	9,9
515,499	75,43
515,701	-0,34
515,904	61,1
516,106	-20,82
516,308	110,25
516,51	-2,39
516,712	20,14
516,914	-65,88
517,116	-35,16
517,318	-49,49
517,52	9,9
517,722	83,63
517,925	26,28
518,127	22,19
518,329	-2,39
518,531	-47,44
518,733	13,99
518,935	5,8
519,136	22,19
519,338	32,43
519,54	20,14
519,742	20,14
519,944	28,33
520,146	1,71
520,348	93,87
520,55	42,67
520,752	-78,16
520,954	5,8
521,155	30,38
521,357	-18,77
521,559	44,71
521,761	13,99
521,963	-37,2
522,164	-55,64
522,366	-69,97
522,568	73,39
522,77	-0,34
522,971	1,71
523,173	-2,39
523,375	36,52
523,576	-2,39
523,778	30,38
523,98	5,8
524,181	-63,83
524,383	26,28
524,584	77,48
524,786	87,72
524,988	-8,53
525,189	-10,58
525,391	18,09
525,592	69,29
525,794	34,47
525,995	50,86
526,197	63,15
526,398	-41,3
526,6	9,9
526,801	-0,34
527,003	9,9
527,204	61,1
527,406	63,15
527,607	3,75
527,808	-8,53
528,01	87,72
528,211	42,67
528,412	46,76
528,614	-12,63
528,815	18,09
529,016	34,47
529,218	26,28
529,419	1,71
529,62	-22,87
529,822	-12,63
530,023	-8,53
530,224	36,52
530,425	-10,58
530,626	-59,73
530,828	-55,64
531,029	1,71
531,23	20,14
531,431	22,19
531,632	9,9
531,833	28,33
532,035	-4,44
532,236	42,67
532,437	30,38
532,638	11,95
532,839	42,67
533,04	-39,25
533,241	-4,44
533,442	28,33
533,643	95,91
533,844	1,71
534,045	11,95
534,246	18,09
534,447	77,48
534,648	-0,34
534,849	-10,58
535,05	-22,87
535,251	38,57
535,451	28,33
535,652	65,19
535,853	-65,88
536,054	50,86
536,255	-24,92
536,456	13,99
536,657	20,14
536,857	-18,77
537,058	7,85
537,259	26,28
537,46	30,38
537,66	-29,01
537,861	-45,4
538,062	-14,68
538,263	5,8
538,463	91,82
538,664	57
538,865	-6,49
539,065	-4,44
539,266	48,81
539,466	38,57
539,667	13,99
539,868	-37,2
540,068	11,95
540,269	20,14
540,469	-10,58
540,67	20,14
540,87	30,38
541,071	-6,49
541,271	26,28
541,472	-2,39
541,672	38,57
541,873	1,71
542,073	-14,68
542,274	1,71
542,474	54,95
542,675	-20,82
542,875	22,19
543,075	-18,77
543,276	-43,35
543,476	38,57
543,676	59,05
543,877	34,47
544,077	38,57
544,277	26,28
544,478	38,57
544,678	54,95
544,878	-20,82
545,078	1,71
545,279	-20,82
545,479	26,28
545,679	-41,3
545,879	-53,59
546,079	69,29
546,28	75,43
546,48	-16,73
546,68	24,23
546,88	93,87
547,08	26,28
547,28	9,9
547,48	-59,73
547,68	-22,87
547,88	18,09
548,081	11,95
548,281	-14,68
548,481	97,96
548,681	9,9
548,881	11,95
549,081	-29,01
549,28	-22,87
549,48	7,85
549,68	22,19
549,88	30,38
550,08	46,76
550,28	-53,59
550,48	26,28
550,68	-6,49
550,88	48,81
551,08	28,33
551,279	13,99
551,479	36,52
551,679	42,67
551,879	42,67
552,079	-8,53
552,278	-14,68
552,478	-6,49
552,678	1,71
552,878	50,86
553,077	-0,34
553,277	71,34
553,477	-67,92
553,676	38,57
553,876	-6,49
554,076	1,71
554,275	-0,34
554,475	18,09
554,674	63,15
554,874	-20,82
555,074	-39,25
555,273	-0,34
555,473	18,09
555,672	24,23
555,872	3,75
556,071	46,76
556,271	52,91
556,47	-47,44
556,67	-20,82
556,869	77,48
557,068	67,24
557,268	13,99
557,467	83,63
557,667	-14,68
557,866	-14,68
558,065	28,33
558,265	18,09
558,464	57
558,663	11,95
558,863	116,39
559,062	79,53
559,261	38,57
559,461	36,52
559,66	159,4
559,859	-0,34
560,058	100,01
560,258	48,81
560,457	73,39
560,656	1,71
560,855	114,34
561,054	52,91
561,253	46,76
561,453	54,95
561,652	67,24
561,851	20,14
562,05	67,24
562,249	28,33
562,448	81,58
562,647	-4,44
562,846	42,67
563,045	9,9
563,244	75,43
563,443	42,67
563,642	91,82
563,841	16,04
564,04	26,28
564,239	126,63
564,438	87,72
564,637	22,19
564,836	28,33
565,035	16,04
565,234	34,47
565,432	44,71
565,631	73,39
565,83	44,71
566,029	87,72
566,228	54,95
566,427	102,06
566,625	50,86
566,824	75,43
567,023	61,1
567,222	102,06
567,42	120,49
567,619	89,77
567,818	71,34
568,016	136,87
568,215	87,72
568,414	165,54
568,612	136,87
568,811	126,63
569,01	167,59
569,208	145,06
569,407	169,64
569,605	149,16
569,804	181,93
570,002	257,7
570,201	224,94
570,4	356,01
570,598	347,81
570,797	347,81
570,995	429,73
571,193	503,46
571,392	487,08
571,59	568,99
571,789	646,82
571,987	751,26
572,186	880,29
572,384	1023,64
572,582	1193,62
572,781	1287,83
572,979	1455,76
573,177	1810,06
573,376	2123,4
573,574	2571,91
573,772	3108,48
573,971	3565,17
574,169	4212,33
574,367	5121,63
574,565	6243,92
574,763	7675,45
574,962	9498,14
575,16	11118,08
575,358	13501,92
575,556	15758,78
575,754	19103,11
575,952	22144,34
576,151	26199,32
576,349	29547,75
576,547	33344,69
576,745	37227,63
576,943	40315,97
577,141	43154,46
577,339	45812,72
577,537	48270,28
577,735	50019,25
577,933	51512,22
578,131	52943,75
578,329	53633,91
578,527	54119,28
578,725	55020,39
578,923	56011,6
579,121	56048,47
579,319	56666,95
579,516	57041,73
579,714	57686,84
579,912	58030,9
580,11	58032,95
580,308	58290,99
580,506	59167,52
580,704	58364,72
580,901	60115,73
581,099	60410,64
581,297	59915,03
581,495	59976,47
581,692	60855,05
581,89	60341,01
582,088	61055,75
582,285	60820,23
582,483	61479,68
582,681	61090,57
582,878	60123,93
583,076	59982,62
583,274	60142,36
583,471	58702,63
583,669	57981,75
583,866	56646,47
584,064	54725,48
584,262	51653,53
584,459	49255,36
584,657	45779,95
584,854	42992,67
585,052	38610,01
585,249	35083,41
585,447	31253,71
585,644	27331,85
585,841	23999,8
586,039	21073,26
586,236	17816,99
586,434	15545,79
586,631	13358,56
586,828	11318,78
587,026	9475,61
587,223	8162,86
587,42	6934,08
587,618	5842,51
587,815	4834,91
588,012	4181,61
588,21	3509,88
588,407	3049,08
588,604	2567,81
588,801	2225,8
588,999	1994,38
589,196	1730,19
589,393	1420,95
589,59	1379,99
589,787	1060,51
589,984	886,43
590,182	831,13
590,379	786,08
590,576	644,77
590,773	532,13
590,97	485,03
591,167	505,51
591,364	464,55
591,561	368,29
591,758	403,11
591,955	306,85
592,152	341,67
592,349	259,75
592,546	169,64
592,743	198,31
592,94	157,35
593,137	210,6
593,334	202,41
593,531	196,26
593,727	200,36
593,924	145,06
594,121	206,5
594,318	108,2
594,515	132,78
594,712	151,21
594,908	140,97
595,105	42,67
595,302	128,68
595,499	42,67
595,696	120,49
595,892	79,53
596,089	95,91
596,286	138,92
596,482	63,15
596,679	110,25
596,876	65,19
597,072	63,15
597,269	46,76
597,466	32,43
597,662	71,34
597,859	-4,44
598,055	104,11
598,252	63,15
598,448	93,87
598,645	75,43
598,841	50,86
599,038	34,47
599,234	-8,53
599,431	69,29
599,627	79,53
599,824	11,95
600,02	48,81
600,217	-59,73
600,413	34,47
600,609	83,63
600,806	26,28
601,002	114,34
601,198	59,05
601,395	34,47
601,591	42,67
601,787	61,1
601,984	44,71
602,18	-37,2
602,376	-8,53
602,572	28,33
602,769	-14,68
602,965	5,8
603,161	28,33
603,357	42,67
603,553	-4,44
603,75	63,15
603,946	44,71
604,142	42,67
604,338	71,34
604,534	13,99
604,73	52,91
604,926	57
605,122	9,9
605,318	-47,44
605,514	75,43
605,71	-29,01
605,906	69,29
606,102	-37,2
606,298	18,09
606,494	46,76
606,69	-0,34
606,886	87,72
607,082	11,95
607,278	85,67
607,474	-14,68
607,67	77,48
607,866	22,19
608,062	85,67
608,257	42,67
608,453	77,48
608,649	42,67
608,845	77,48
609,041	-0,34
609,236	44,71
609,432	102,06
609,628	11,95
609,824	38,57
610,019	18,09
610,215	1,71
610,411	-10,58
610,606	40,62
610,802	-6,49
610,998	13,99
611,193	26,28
611,389	-4,44
611,584	-22,87
611,78	13,99
611,976	24,23
612,171	81,58
612,367	71,34
612,562	36,52
612,758	34,47
612,953	61,1
613,149	65,19
613,344	-4,44
613,539	22,19
613,735	-31,06
613,93	-26,96
614,126	13,99
614,321	-4,44
614,517	26,28
614,712	52,91
614,907	-20,82
615,103	-18,77
615,298	-18,77
615,493	7,85
615,688	52,91
615,884	46,76
616,079	28,33
616,274	-2,39
616,47	26,28
616,665	32,43
616,86	34,47
617,055	-45,4
617,25	38,57
617,445	36,52
617,641	16,04
617,836	-2,39
618,031	20,14
618,226	44,71
618,421	-14,68
618,616	-20,82
618,811	26,28
619,006	18,09
619,201	26,28
619,396	28,33
619,591	36,52
619,786	-35,16
619,981	32,43
620,176	-18,77
620,371	-2,39
620,566	34,47
620,761	69,29
620,956	38,57
621,151	-22,87
621,346	24,23
621,541	9,9
621,735	-16,73
621,93	134,82
622,125	67,24
622,32	-20,82
622,515	5,8
622,709	87,72
622,904	-2,39
623,099	42,67
623,294	-61,78
623,488	50,86
623,683	-37,2
623,878	57
624,072	22,19
624,267	9,9
624,462	36,52
624,656	108,2
624,851	-51,54
625,046	54,95
625,24	-47,44
625,435	46,76
625,629	34,47
625,824	-29,01
626,018	-18,77
626,213	9,9
626,407	65,19
626,602	30,38
626,796	24,23
626,991	83,63
627,185	24,23
627,38	-20,82
627,574	42,67
627,768	3,75
627,963	40,62
628,157	-47,44
628,352	5,8
628,546	-37,2
628,74	-51,54
628,935	5,8
629,129	30,38
629,323	1,71
629,517	16,04
629,712	30,38
629,906	42,67
630,1	-24,92
630,294	-2,39
630,489	3,75
630,683	28,33
630,877	61,1
631,071	11,95
631,265	18,09
631,459	-8,53
631,653	28,33
631,848	-31,06
632,042	16,04
632,236	9,9
632,43	-4,44
632,624	52,91
632,818	-8,53
633,012	-8,53
633,206	32,43
633,4	50,86
633,594	13,99
633,788	-14,68
633,982	-6,49
634,176	-4,44
634,369	-4,44
634,563	32,43
634,757	1,71
634,951	-37,2
635,145	52,91
635,339	20,14
635,533	100,01
635,726	-55,64
635,92	-16,73
636,114	1,71
636,308	42,67
636,501	-14,68
636,695	36,52
636,889	13,99
637,083	7,85
637,276	54,95
637,47	-6,49
637,664	-33,11
637,857	-10,58
638,051	13,99
638,244	-61,78
638,438	1,71
638,632	59,05
638,825	-20,82
639,019	-2,39
639,212	-4,44
639,406	5,8
639,599	-4,44
639,793	-4,44
639,986	61,1
640,18	89,77
640,373	54,95
640,567	-33,11
640,76	13,99
640,954	36,52
641,147	34,47
641,34	18,09
641,534	-37,2
641,727	16,04
641,92	-35,16
642,114	-86,36
642,307	1,71
642,5	-4,44
642,694	-57,68
642,887	-37,2
643,08	38,57
643,273	-92,5
643,467	-2,39
643,66	13,99
643,853	11,95
644,046	-10,58
644,239	-24,92
644,432	9,9
644,626	11,95
644,819	-76,12
645,012	11,95
645,205	3,75
645,398	7,85
645,591	-22,87
645,784	18,09
645,977	5,8
646,17	44,71
646,363	-20,82
646,556	42,67
646,749	30,38
646,942	-14,68
647,135	3,75
647,328	34,47
647,521	1,71
647,714	5,8
647,907	-10,58
648,099	20,14
648,292	73,39
648,485	44,71
648,678	42,67
648,871	18,09
649,064	22,19
649,256	-14,68
649,449	-16,73
649,642	-39,25
649,835	-35,16
650,027	18,09
650,22	26,28
650,413	-0,34
650,605	26,28
650,798	-12,63
650,991	-14,68
651,183	-33,11
651,376	9,9
651,568	-0,34
651,761	52,91
651,954	-4,44
652,146	-2,39
652,339	-37,2
652,531	-14,68
652,724	1,71
652,916	-14,68
653,109	9,9
653,301	30,38
653,494	-63,83
653,686	-8,53
653,879	-80,21
654,071	-8,53
654,263	-37,2
654,456	-4,44
654,648	-45,4
654,84	40,62
655,033	-41,3
655,225	11,95
655,417	-0,34
655,61	-4,44
655,802	13,99
655,994	9,9
656,186	1,71
656,379	32,43
656,571	-61,78
656,763	5,8
656,955	-35,16
657,148	28,33
657,34	-61,78
657,532	26,28
657,724	-61,78
657,916	-33,11
658,108	22,19
658,3	40,62
658,492	36,52
658,684	-24,92
658,876	20,14
659,068	9,9
659,26	-33,11
659,452	32,43
659,644	36,52
659,836	36,52
660,028	34,47
660,22	83,63
660,412	28,33
660,604	-29,01
660,796	18,09
660,988	24,23
661,18	11,95
661,372	13,99
661,563	20,14
661,755	40,62
661,947	44,71
662,139	-29,01
662,331	9,9
662,522	3,75
662,714	-14,68
662,906	-6,49
663,097	-43,35
663,289	-31,06
663,481	-22,87
663,673	40,62
663,864	67,24
664,056	-33,11
664,247	1,71
664,439	-12,63
664,631	-49,49
664,822	22,19
665,014	18,09
665,205	1,71
665,397	30,38
665,588	26,28
665,78	36,52
665,971	-24,92
666,163	36,52
666,354	-53,59
666,546	-10,58
666,737	-16,73
666,929	34,47
667,12	44,71
667,311	-137,56
667,503	85,67
667,694	1,71
667,885	-16,73
668,077	36,52
668,268	-4,44
668,459	-65,88
668,651	-31,06
668,842	20,14
669,033	7,85
669,224	9,9
669,416	16,04
669,607	9,9
669,798	-26,96
669,989	46,76
670,18	-6,49
670,371	1,71
670,563	13,99
670,754	5,8
670,945	110,25
671,136	-10,58
671,327	93,87
671,518	-0,34
671,709	44,71
671,9	-31,06
672,091	13,99
672,282	-26,96
672,473	9,9
672,664	-10,58
672,855	26,28
673,046	22,19
673,237	-53,59
673,428	-14,68
673,619	42,67
673,809	-4,44
674	52,91
674,191	63,15
674,382	-31,06
674,573	-53,59
674,764	18,09
674,954	26,28
675,145	-22,87
675,336	-31,06
675,527	22,19
675,717	38,57
675,908	91,82
676,099	-20,82
676,289	-20,82
676,48	-43,35
676,671	26,28
676,861	34,47
677,052	3,75
677,243	44,71
677,433	13,99
677,624	7,85
677,814	34,47
678,005	36,52
678,195	65,19
678,386	67,24
678,576	13,99
678,767	-47,44
678,957	44,71
679,148	40,62
679,338	-14,68
679,529	-39,25
679,719	-33,11
679,909	83,63
680,1	-26,96
680,29	-4,44
680,481	-26,96
680,671	-0,34
680,861	1,71
681,052	24,23
681,242	75,43
681,432	67,24
681,622	9,9
681,813	-8,53
682,003	-6,49
682,193	-14,68
682,383	-12,63
682,573	7,85
682,764	34,47
682,954	18,09
683,144	-49,49
683,334	16,04
683,524	-20,82
683,714	59,05
683,904	28,33
684,094	-61,78
684,284	24,23
684,474	-10,58
684,664	-0,34
684,854	-6,49
685,044	16,04
685,234	-29,01
685,424	13,99
685,614	-35,16
685,804	-6,49
685,994	85,67
686,184	5,8
686,374	52,91
686,564	26,28
686,753	-14,68
686,943	-4,44
687,133	-47,44
687,323	30,38
687,513	-39,25
687,702	-0,34
687,892	-80,21
688,082	-8,53
688,272	-18,77
688,461	-10,58
688,651	-12,63
688,841	54,95
689,03	-76,12
689,22	34,47
689,41	44,71
689,599	65,19
689,789	16,04
689,979	18,09
690,168	-41,3
690,358	34,47
690,547	-67,92
690,737	71,34
690,926	-72,02
691,116	-4,44
691,305	-33,11
691,495	34,47
691,684	28,33
691,874	65,19
692,063	24,23
692,252	38,57
692,442	57
692,631	20,14
692,82	18,09
693,01	-0,34
693,199	-4,44
693,388	-18,77
693,578	24,23
693,767	120,49
693,956	-14,68
694,146	-12,63
694,335	18,09
694,524	9,9
694,713	-39,25
694,902	75,43
695,092	-6,49
695,281	59,05
695,47	5,8
695,659	-24,92
695,848	-26,96
696,037	26,28
696,226	-37,2
696,415	54,95
696,604	-41,3
696,793	102,06
696,982	22,19
697,171	46,76
697,36	50,86
697,549	-8,53
697,738	26,28
697,927	28,33
698,116	-10,58
698,305	-53,59
698,494	42,67
698,683	18,09
698,872	-26,96
699,061	-29,01
699,25	-43,35
699,438	-12,63
699,627	13,99
699,816	1,71
700,005	20,14
700,193	3,75
700,382	-26,96
700,571	18,09
700,76	48,81
700,948	22,19
701,137	-47,44
701,326	-72,02
701,514	-0,34
701,703	100,01
701,892	-39,25
702,08	28,33
702,269	-31,06
702,457	-39,25
702,646	28,33
702,834	22,19
703,023	-41,3
703,212	59,05
703,4	-0,34
703,589	-12,63
703,777	59,05
703,965	34,47
704,154	-6,49
704,342	24,23
704,531	13,99
704,719	34,47
704,907	57
705,096	26,28
705,284	9,9
705,472	-8,53
705,661	-37,2
705,849	-31,06
706,037	32,43
706,226	-4,44
706,414	-26,96
706,602	42,67
706,79	38,57
706,979	59,05
707,167	-22,87
707,355	-2,39
707,543	-22,87
707,731	-72,02
707,919	-26,96
708,107	13,99
708,296	20,14
708,484	5,8
708,672	30,38
708,86	-0,34
709,048	13,99
709,236	59,05
709,424	36,52
709,612	-20,82
709,8	13,99
709,988	9,9
710,176	-49,49
710,364	-4,44
710,551	44,71
710,739	-8,53
710,927	11,95
711,115	-47,44
711,303	-43,35
711,491	-4,44
711,679	1,71
711,866	36,52
712,054	9,9
712,242	11,95
712,43	30,38
712,617	54,95
712,805	71,34
712,993	-24,92
713,181	-20,82
713,368	9,9
713,556	3,75
713,744	-35,16
713,931	63,15
714,119	59,05
714,306	-0,34
714,494	-22,87
714,682	-6,49
714,869	-22,87
715,057	18,09
715,244	-29,01
715,432	-63,83
715,619	20,14
715,807	-14,68
715,994	-47,44
716,182	-43,35
716,369	-31,06
716,556	69,29
716,744	54,95
716,931	-12,63
717,119	26,28
717,306	1,71
717,493	-47,44
717,681	-22,87
717,868	-20,82
718,055	5,8
718,242	5,8
718,43	54,95
718,617	3,75
718,804	48,81
718,991	3,75
719,179	11,95
719,366	11,95
719,553	-22,87
719,74	22,19
719,927	-12,63
720,114	48,81
720,301	18,09
720,488	-51,54
720,676	5,8
720,863	22,19
721,05	-4,44
721,237	-12,63
721,424	-33,11
721,611	38,57
721,798	3,75
721,985	36,52
722,172	-14,68
722,358	-29,01
722,545	-22,87
722,732	59,05
722,919	-51,54
723,106	-14,68
723,293	22,19
723,48	-57,68
723,667	42,67
723,853	-6,49
724,04	77,48
724,227	7,85
724,414	20,14
724,6	1,71
724,787	5,8
724,974	-14,68
725,161	9,9
725,347	22,19
725,534	26,28
725,72	-20,82
725,907	18,09
726,094	75,43
726,28	-29,01
726,467	-43,35
726,653	1,71
726,84	69,29
727,027	-0,34
727,213	65,19
727,4	-16,73
727,586	-2,39
727,773	-39,25
727,959	-20,82
728,145	-20,82
728,332	36,52
728,518	-2,39
728,705	-37,2
728,891	-18,77
729,077	-16,73
729,264	11,95
729,45	-22,87
729,636	-24,92
729,823	28,33
730,009	-55,64
730,195	-20,82
730,382	-8,53
730,568	5,8
730,754	-88,4
730,94	18,09
731,126	-31,06
731,313	-2,39
731,499	-29,01
731,685	-90,45
731,871	5,8
732,057	-20,82
732,243	-55,64
732,429	-12,63
732,615	13,99
732,801	-29,01
732,987	32,43
733,173	-53,59
733,359	-14,68
733,545	-22,87
733,731	3,75
733,917	-4,44
734,103	7,85
734,289	28,33
734,475	11,95
734,661	18,09
734,847	52,91
735,033	5,8
735,219	-80,21
735,404	16,04
735,59	-0,34
735,776	-45,4
735,962	-20,82
736,148	-10,58
736,333	-67,92
736,519	42,67
736,705	-16,73
736,89	46,76
737,076	7,85
737,262	28,33
737,447	9,9
737,633	65,19
737,819	-6,49
738,004	83,63
738,19	-76,12
738,375	57
738,561	-74,07
738,747	81,58
738,932	-6,49
739,118	9,9
739,303	13,99
739,489	34,47
739,674	-22,87
739,859	-16,73
740,045	-49,49
740,23	18,09
740,416	16,04
740,601	26,28
740,786	11,95
740,972	-10,58
741,157	-43,35
741,342	36,52
741,528	-39,25
741,713	38,57
741,898	42,67
742,084	1,71
742,269	77,48
742,454	-10,58
742,639	-2,39
742,824	22,19
743,01	20,14
743,195	75,43
743,38	34,47
743,565	16,04
743,75	30,38
743,935	52,91
744,12	-47,44
744,305	-39,25
744,49	-6,49
744,675	-18,77
744,86	54,95
745,045	54,95
745,23	59,05
745,415	1,71
745,6	-2,39
745,785	-6,49
745,97	54,95
746,155	30,38
746,34	-31,06
746,525	-4,44
746,71	30,38
746,895	44,71
747,079	-37,2
747,264	-6,49
747,449	-24,92
747,634	-55,64
747,819	59,05
748,003	-2,39
748,188	-39,25
748,373	-53,59
748,557	-10,58
748,742	3,75
748,927	44,71
749,111	46,76
749,296	-29,01
749,481	26,28
749,665	40,62
749,85	-37,2
750,034	-55,64
750,219	26,28
750,404	11,95
750,588	1,71
750,773	-47,44
750,957	50,86
751,141	-10,58
751,326	1,71
751,51	5,8
751,695	36,52
751,879	-14,68
752,064	61,1
752,248	-4,44
752,432	20,14
752,617	34,47
752,801	50,86
752,985	-18,77
753,17	28,33
753,354	36,52
753,538	30,38
753,722	-94,55
753,907	-47,44
754,091	5,8
754,275	42,67
754,459	-14,68
754,643	57
754,828	-16,73
755,012	44,71
755,196	-8,53
755,38	48,81
755,564	-29,01
755,748	59,05
755,932	16,04
756,116	34,47
756,3	79,53
756,484	13,99
756,668	-4,44
756,852	54,95
757,036	-14,68
757,22	1,71
757,404	-96,6
757,588	-14,68
757,772	5,8
757,956	59,05
758,14	34,47
758,323	18,09
758,507	-6,49
758,691	13,99
758,875	9,9
759,059	-12,63
759,242	44,71
759,426	5,8
759,61	-22,87
759,794	44,71
759,977	1,71
760,161	9,9
760,345	-16,73
760,528	1,71
760,712	-20,82
760,895	-12,63
761,079	-16,73
761,263	-4,44
761,446	-14,68
761,63	32,43
761,813	42,67
761,997	-47,44
762,18	-22,87
762,364	-45,4
762,547	-53,59
762,731	30,38
762,914	-12,63
763,098	-18,77
763,281	-14,68
763,464	38,57
763,648	18,09
763,831	71,34
764,015	-59,73
764,198	-37,2
764,381	1,71
764,564	57
764,748	-33,11
764,931	9,9
765,114	9,9
765,297	-14,68
765,481	75,43
765,664	-33,11
765,847	34,47
766,03	1,71
766,213	-31,06
766,397	-41,3
766,58	-16,73
766,763	7,85
766,946	18,09
767,129	-31,06
767,312	-12,63
767,495	-14,68
767,678	-45,4
767,861	-4,44
768,044	54,95
768,227	16,04
768,41	30,38
768,593	-57,68
768,776	-12,63
768,959	9,9
769,142	-29,01
769,324	1,71
769,507	-31,06
769,69	-18,77
769,873	-29,01
770,056	26,28
770,239	-4,44
770,421	52,91
770,604	-31,06
770,787	42,67
770,97	3,75
771,152	34,47
771,335	-16,73
771,518	52,91
771,7	18,09
771,883	34,47
772,066	-4,44
772,248	-10,58
772,431	-26,96
772,613	-6,49
772,796	-22,87
772,978	1,71
773,161	-43,35
773,343	9,9
773,526	-55,64
773,708	-26,96
773,891	-24,92
774,073	-20,82
774,256	-35,16
774,438	9,9
774,621	-6,49
774,803	-18,77
774,985	42,67
775,168	-57,68
775,35	11,95
775,532	-6,49
775,715	30,38
775,897	83,63
776,079	11,95
776,261	3,75
776,444	1,71
776,626	9,9
776,808	18,09
776,99	-57,68
777,173	-41,3
777,355	46,76
777,537	-51,54
777,719	-14,68
777,901	-4,44
778,083	-4,44
778,265	-55,64
778,447	38,57
778,629	-16,73
778,811	26,28
778,993	-14,68
779,175	18,09
779,357	-31,06
779,539	-12,63
779,721	50,86
779,903	9,9
780,085	42,67
780,267	-0,34
780,449	46,76
780,631	-94,55
780,812	18,09
780,994	-41,3
781,176	-0,34
781,358	48,81
781,54	-6,49
781,721	81,58
781,903	11,95
782,085	-6,49
782,267	61,1
782,448	-22,87
782,63	13,99
782,812	26,28
782,993	16,04
783,175	16,04
783,357	50,86
783,538	5,8
783,72	-82,26
783,901	-22,87
784,083	42,67
784,264	3,75
784,446	-43,35
784,627	-14,68
784,809	-33,11
784,99	-16,73
785,172	-51,54
785,353	-63,83
785,535	42,67
785,716	-6,49
785,897	-53,59
786,079	32,43
786,26	-10,58
786,441	-29,01
786,623	28,33
786,804	-29,01
786,985	-45,4
787,167	7,85
787,348	-47,44
787,529	38,57
787,71	18,09
787,891	38,57
788,073	20,14
788,254	102,06
788,435	44,71
788,616	-12,63
788,797	-16,73
788,978	28,33
789,159	-55,64
789,34	40,62
789,522	69,29
789,703	38,57
789,884	-16,73
790,065	-35,16
790,246	5,8
790,427	-22,87
790,607	73,39
790,788	13,99
790,969	-31,06
791,15	-4,44
791,331	-12,63
791,512	9,9
791,693	-39,25
791,874	32,43
792,054	46,76
792,235	22,19
792,416	30,38
792,597	18,09
792,778	-53,59
792,958	-14,68
793,139	18,09
793,32	32,43
793,5	-22,87
793,681	40,62
793,862	54,95
794,042	9,9
794,223	44,71
794,404	52,91
794,584	-94,55
794,765	44,71
794,945	-10,58
795,126	34,47
795,306	11,95
795,487	42,67
795,667	-26,96
795,848	30,38
796,028	9,9
796,209	-22,87
796,389	-41,3
796,57	-47,44
796,75	-8,53
796,93	-14,68
797,111	9,9
797,291	20,14
797,471	38,57
797,652	59,05
797,832	13,99
798,012	-22,87
798,192	26,28
798,373	-31,06
798,553	-29,01
798,733	44,71
798,913	-22,87
799,093	-6,49
799,274	-20,82
799,454	1,71
799,634	-26,96
799,814	-2,39
799,994	-49,49
800,174	9,9
800,354	-10,58
800,534	-0,34
800,714	-2,39
800,894	50,86
801,074	18,09
801,254	20,14
801,434	-53,59
801,614	1,71
801,794	57
801,974	59,05
802,154	-51,54
802,334	3,75
802,514	26,28
802,693	-37,2
802,873	26,28
803,053	18,09
803,233	20,14
803,413	36,52
803,592	7,85
803,772	36,52
803,952	-76,12
804,131	11,95
804,311	18,09
804,491	85,67
804,67	-26,96
804,85	-20,82
805,03	26,28
805,209	40,62
805,389	-53,59
805,568	-39,25
805,748	-72,02
805,928	-14,68
806,107	-29,01
806,287	40,62
806,466	26,28
806,646	-63,83
806,825	-31,06
807,004	30,38
807,184	-55,64
807,363	18,09
807,543	50,86
807,722	34,47
807,901	34,47
808,081	1,71
808,26	59,05
808,439	1,71
808,619	26,28
808,798	26,28
808,977	50,86
809,156	48,81
809,336	34,47
809,515	5,8
809,694	-61,78
809,873	24,23
810,052	9,9
810,231	-59,73
810,411	5,8
810,59	-26,96
810,769	-6,49
810,948	-14,68
811,127	-45,4
811,306	-51,54
811,485	20,14
811,664	11,95
811,843	-47,44
812,022	-47,44
812,201	67,24
812,38	-59,73
812,559	32,43
812,737	-2,39
812,916	7,85
813,095	-14,68
813,274	13,99
813,453	-4,44
813,632	-14,68
813,811	108,2
813,989	18,09
814,168	-2,39
814,347	-4,44
814,526	20,14
814,704	36,52
814,883	59,05
815,062	13,99
815,24	-37,2
815,419	28,33
815,598	-29,01
815,776	-20,82
815,955	-2,39
816,133	-12,63
816,312	-33,11
816,49	-16,73
816,669	-6,49
816,847	-20,82
817,026	32,43
817,204	5,8
817,383	-33,11
817,561	22,19
817,74	-12,63
817,918	-22,87
818,097	-14,68
818,275	7,85
818,453	-16,73
818,632	24,23
818,81	-14,68
818,988	-29,01
819,167	-45,4
819,345	1,71
819,523	18,09
819,701	-51,54
819,879	-6,49
820,058	-63,83
820,236	46,76
820,414	18,09
820,592	44,71
820,77	-20,82
820,948	91,82
821,127	-24,92
821,305	9,9
821,483	-18,77
821,661	71,34
821,839	11,95
822,017	-102,74
822,195	46,76
822,373	-4,44
822,551	22,19
822,729	34,47
822,907	50,86
823,085	-26,96
823,262	38,57
823,44	-2,39
823,618	1,71
823,796	-31,06
823,974	-4,44
824,152	-2,39
824,329	1,71
824,507	-0,34
824,685	-8,53
824,863	-6,49
825,04	-88,4
825,218	42,67
825,396	63,15
825,574	18,09
825,751	-10,58
825,929	-29,01
826,107	140,97
826,284	24,23
826,462	-45,4
826,639	-24,92
826,817	-8,53
826,994	5,8
827,172	-29,01
827,349	81,58
827,527	-8,53
827,704	13,99
827,882	5,8
828,059	63,15
828,237	18,09
828,414	-86,36
828,591	-4,44
828,769	28,33
828,946	-24,92
829,124	42,67
829,301	-12,63
829,478	-6,49
829,655	-37,2
829,833	91,82
830,01	5,8
830,187	-2,39
830,364	-39,25
830,542	-22,87
830,719	38,57
830,896	-4,44
831,073	-22,87
831,25	9,9
831,427	26,28
831,604	7,85
831,782	-2,39
831,959	71,34
832,136	7,85
832,313	36,52
832,49	9,9
832,667	20,14
832,844	69,29
833,021	40,62
833,198	-61,78
833,374	-6,49
833,551	1,71
833,728	75,43
833,905	81,58
834,082	26,28
834,259	-29,01
834,436	-6,49
834,612	-39,25
834,789	61,1
834,966	-67,92
835,143	54,95
835,319	-49,49
835,496	26,28
835,673	-29,01
835,85	30,38
836,026	34,47
836,203	3,75
836,38	-8,53
836,556	30,38
836,733	-22,87
836,909	11,95
837,086	18,09
837,262	30,38
837,439	-6,49
837,616	-31,06
837,792	-37,2
837,968	-31,06
838,145	5,8
838,321	26,28
838,498	-22,87
838,674	48,81
838,851	-14,68
839,027	44,71
839,203	-8,53
839,38	-12,63
839,556	-29,01
839,732	42,67
839,909	-12,63
840,085	13,99
840,261	16,04
840,437	59,05
840,614	-22,87
840,79	24,23
840,966	11,95
841,142	-16,73
841,318	22,19
841,494	26,28
841,671	34,47
841,847	-39,25
842,023	-12,63
842,199	24,23
842,375	-76,12
842,551	-18,77
842,727	-2,39
842,903	-2,39
843,079	1,71
843,255	40,62
843,431	-63,83
843,607	20,14
843,783	-33,11
843,959	16,04
844,134	-6,49
844,31	26,28
844,486	-29,01
844,662	-76,12
844,838	67,24
845,013	26,28
845,189	-6,49
845,365	-24,92
845,541	42,67
845,716	28,33
845,892	-4,44
846,068	-14,68
846,244	20,14
846,419	28,33
846,595	-33,11
846,77	-37,2
846,946	-10,58
847,122	34,47
847,297	-86,36
847,473	13,99
847,648	11,95
847,824	34,47
847,999	40,62
848,175	59,05
848,35	9,9
848,526	24,23
848,701	11,95
848,876	-35,16
849,052	59,05
849,227	52,91
849,403	75,43
849,578	9,9
849,753	-18,77
849,929	20,14
850,104	-37,2
850,279	26,28
850,454	28,33
850,63	3,75
850,805	28,33
850,98	71,34
851,155	-18,77
851,33	75,43
851,505	22,19
851,681	44,71
851,856	22,19
852,031	3,75
852,206	7,85
852,381	-37,2
852,556	-12,63
852,731	32,43
852,906	-14,68
853,081	50,86
853,256	-67,92
853,431	42,67
853,606	38,57
853,781	40,62
853,956	-16,73
854,131	11,95
854,305	9,9
854,48	-35,16
854,655	3,75
854,83	32,43
855,005	32,43
855,18	24,23
855,354	11,95
855,529	46,76
855,704	-37,2
855,879	-35,16
856,053	-14,68
856,228	-6,49
856,403	1,71
856,577	38,57
856,752	-57,68
856,926	54,95
857,101	-14,68
857,276	20,14
857,45	-18,77
857,625	-2,39
857,799	-24,92
857,974	-57,68
858,148	-8,53
858,323	13,99
858,497	-43,35
858,672	-49,49
858,846	24,23
859,02	-29,01
859,195	-31,06
859,369	-26,96
859,543	-29,01
859,718	1,71
859,892	28,33
860,066	85,67
860,241	26,28
860,415	34,47
860,589	-12,63
860,763	52,91
860,938	-69,97
861,112	-20,82
861,286	26,28
861,46	-24,92
861,634	-31,06
861,808	22,19
861,982	-16,73
862,157	30,38
862,331	-4,44
862,505	-4,44
862,679	50,86
862,853	28,33
863,027	-14,68
863,201	-61,78
863,375	-39,25
863,549	-35,16
863,722	13,99
863,896	-6,49
864,07	-14,68
864,244	-94,55
864,418	9,9
864,592	-33,11
864,766	-20,82
864,939	63,15
865,113	26,28
865,287	5,8
865,461	-6,49
865,634	26,28
865,808	11,95
865,982	28,33
866,156	22,19
866,329	40,62
866,503	20,14
866,676	20,14
866,85	-14,68
867,024	-31,06
867,197	22,19
867,371	34,47
867,544	-37,2
867,718	42,67
867,891	48,81
868,065	-14,68
868,238	18,09
868,412	-4,44
868,585	-6,49
868,759	13,99
868,932	-4,44
869,105	-31,06
869,279	3,75
869,452	26,28
869,625	5,8
869,799	9,9
869,972	20,14
870,145	24,23
870,319	-47,44
870,492	22,19
870,665	3,75
870,838	57
871,011	-84,31
871,185	65,19
871,358	30,38
871,531	34,47
871,704	-22,87
871,877	44,71
872,05	65,19
872,223	-20,82
872,396	-20,82
872,569	28,33
872,742	-10,58
872,915	50,86
873,088	-86,36
873,261	28,33
873,434	-2,39
873,607	18,09
873,78	22,19
873,953	48,81
874,126	5,8
874,299	-4,44
874,471	11,95
874,644	13,99
874,817	30,38
874,99	26,28
875,163	34,47
875,335	-2,39
875,508	-14,68
875,681	32,43
875,853	13,99
876,026	36,52
876,199	24,23
876,371	1,71
876,544	7,85
876,717	61,1
876,889	9,9
877,062	1,71
877,234	30,38
877,407	36,52
877,579	18,09
877,752	-14,68
877,924	42,67
878,097	-37,2
878,269	28,33
878,442	-67,92
878,614	28,33
878,786	-47,44
878,959	-18,77
879,131	36,52
879,303	-41,3
879,476	-12,63
879,648	-20,82
879,82	-61,78
879,993	-2,39
880,165	28,33
880,337	-2,39
880,509	-6,49
880,681	-53,59
880,854	-20,82
881,026	-24,92
881,198	-18,77
881,37	13,99
881,542	-84,31
881,714	18,09
881,886	-14,68
882,058	18,09
882,23	83,63
882,402	16,04
882,574	34,47
882,746	-12,63
882,918	-6,49
883,09	-53,59
883,262	-12,63
883,434	-22,87
883,606	-6,49
883,778	54,95
883,95	13,99
884,122	18,09
884,293	-12,63
884,465	11,95
884,637	9,9
884,809	-51,54
884,98	-14,68
885,152	24,23
885,324	-4,44
885,496	7,85
885,667	-108,88
885,839	28,33
886,011	38,57
886,182	-6,49
886,354	-2,39
886,525	30,38
886,697	-14,68
886,869	22,19
887,04	13,99
887,212	18,09
887,383	-24,92
887,555	-39,25
887,726	52,91
887,897	-18,77
888,069	9,9
888,24	9,9
888,412	-2,39
888,583	-20,82
888,754	-47,44
888,926	-20,82
889,097	-4,44
889,268	-37,2
889,44	-53,59
889,611	13,99
889,782	-51,54
889,953	-18,77
890,125	54,95
890,296	1,71
890,467	11,95
890,638	-69,97
890,809	-10,58
890,98	-31,06
891,151	5,8
891,323	26,28
891,494	7,85
891,665	-37,2
891,836	-22,87
892,007	-69,97
892,178	-14,68
892,349	34,47
892,52	-63,83
892,691	-39,25
892,862	11,95
893,032	-12,63
893,203	11,95
893,374	-10,58
893,545	13,99
893,716	-12,63
893,887	-2,39
894,057	1,71
894,228	50,86
894,399	-6,49
894,57	-26,96
894,74	3,75
894,911	24,23
895,082	-0,34
895,253	36,52
895,423	-4,44
895,594	-2,39
895,764	34,47
895,935	3,75
896,106	13,99
896,276	-53,59
896,447	48,81
896,617	-24,92
896,788	-39,25
896,958	18,09
897,129	30,38
897,299	-2,39
897,47	-49,49
897,64	3,75
897,81	-18,77
897,981	-12,63
898,151	-47,44
898,322	34,47
898,492	44,71
898,662	-4,44
898,832	1,71
899,003	28,33
899,173	71,34
899,343	-22,87
899,513	3,75
