Data from filtre580_USB4F104151__3__11-53-55-481.txt Node

Date: Wed Apr 15 11:53:55 EDT 2026
User: LaboPhy
Spectrometer: USB4F10415
Trigger mode: 4
Integration Time (sec): 5,000000E-3
Scans to average: 1
Electric dark correction enabled: true
Nonlinearity correction enabled: false
Boxcar width: 0
XAxis mode: Wavelengths
Number of Pixels in Spectrum: 3648
>>>>>Begin Spectral Data<<<<<
178,204	-43,18
178,424	-43,18
178,644	-43,18
178,864	-73,9
179,084	51,03
179,304	-51,37
179,524	-24,75
179,744	10,07
179,964	-30,89
180,184	10,07
180,404	5,97
180,624	38,74
180,844	16,21
181,064	-10,41
181,283	36,69
181,503	-39,08
181,723	38,74
181,943	-57,51
182,163	55,12
182,383	65,36
182,602	-8,36
182,822	-26,79
183,042	-0,17
183,262	-39,08
183,482	65,36
183,701	1,88
183,921	63,32
184,141	-51,37
184,361	22,36
184,58	12,12
184,8	-41,13
185,02	-18,6
185,239	22,36
185,459	-8,36
185,679	-2,22
185,898	-16,55
186,118	14,17
186,338	-43,18
186,557	18,26
186,777	12,12
186,997	-2,22
187,216	42,84
187,436	-55,47
187,655	18,26
187,875	22,36
188,095	22,36
188,314	18,26
188,534	-2,22
188,753	8,02
188,973	-41,13
189,192	46,93
189,412	112,47
189,631	102,23
189,851	-32,94
190,07	-18,6
190,29	8,02
190,509	-34,99
190,729	48,98
190,948	-0,17
191,168	71,51
191,387	32,6
191,607	5,97
191,826	18,26
192,045	53,08
192,265	1,88
192,484	32,6
192,704	79,7
192,923	-67,75
193,142	8,02
193,362	28,5
193,581	57,17
193,8	-8,36
194,02	55,12
194,239	48,98
194,458	18,26
194,678	-43,18
194,897	87,89
195,116	10,07
195,335	5,97
195,555	-28,84
195,774	-2,22
195,993	-6,31
196,212	-6,31
196,432	-57,51
196,651	-16,55
196,87	-24,75
197,089	61,27
197,308	-22,7
197,528	-24,75
197,747	59,22
197,966	65,36
198,185	12,12
198,404	-18,6
198,623	-8,36
198,842	51,03
199,062	75,6
199,281	65,36
199,5	91,99
199,719	30,55
199,938	42,84
200,157	-24,75
200,376	-8,36
200,595	18,26
200,814	20,31
201,033	10,07
201,252	3,93
201,471	-24,75
201,69	16,21
201,909	51,03
202,128	-30,89
202,347	-47,27
202,566	34,64
202,785	5,97
203,004	-26,79
203,223	-0,17
203,442	-28,84
203,661	96,08
203,879	30,55
204,098	22,36
204,317	26,45
204,536	-28,84
204,755	-0,17
204,974	38,74
205,193	-22,7
205,411	65,36
205,63	53,08
205,849	71,51
206,068	69,46
206,287	3,93
206,505	-10,41
206,724	44,88
206,943	57,17
207,162	32,6
207,381	-22,7
207,599	-26,79
207,818	48,98
208,037	8,02
208,255	69,46
208,474	48,98
208,693	16,21
208,911	24,4
209,13	-10,41
209,349	-26,79
209,567	10,07
209,786	57,17
210,005	-49,32
210,223	16,21
210,442	-14,51
210,661	-43,18
210,879	5,97
211,098	-18,6
211,316	22,36
211,535	-2,22
211,753	-41,13
211,972	5,97
212,191	-24,75
212,409	5,97
212,628	67,41
212,846	10,07
213,065	48,98
213,283	32,6
213,502	46,93
213,72	32,6
213,938	71,51
214,157	1,88
214,375	71,51
214,594	57,17
214,812	32,6
215,031	14,17
215,249	42,84
215,467	73,56
215,686	18,26
215,904	26,45
216,122	22,36
216,341	89,94
216,559	-30,89
216,778	-4,27
216,996	51,03
217,214	-32,94
217,432	-24,75
217,651	18,26
217,869	53,08
218,087	124,76
218,306	-8,36
218,524	-12,46
218,742	-22,7
218,96	-32,94
219,179	-12,46
219,397	42,84
219,615	10,07
219,833	-10,41
220,051	18,26
220,27	-10,41
220,488	12,12
220,706	22,36
220,924	-10,41
221,142	-18,6
221,36	-10,41
221,578	24,4
221,796	-2,22
222,015	-0,17
222,233	-8,36
222,451	73,56
222,669	34,64
222,887	26,45
223,105	-26,79
223,323	-82,09
223,541	-2,22
223,759	38,74
223,977	24,4
224,195	26,45
224,413	42,84
224,631	-45,23
224,849	18,26
225,067	55,12
225,285	-0,17
225,503	28,5
225,721	1,88
225,939	57,17
226,157	16,21
226,375	-2,22
226,592	8,02
226,81	34,64
227,028	30,55
227,246	112,47
227,464	-20,65
227,682	42,84
227,9	61,27
228,117	-26,79
228,335	71,51
228,553	30,55
228,771	14,17
228,989	57,17
229,206	-6,31
229,424	22,36
229,642	-6,31
229,86	-75,95
230,077	-12,46
230,295	-2,22
230,513	38,74
230,731	85,84
230,948	44,88
231,166	-2,22
231,384	38,74
231,601	22,36
231,819	-0,17
232,037	-6,31
232,254	22,36
232,472	14,17
232,689	-10,41
232,907	-2,22
233,125	-82,09
233,342	38,74
233,56	40,79
233,777	-45,23
233,995	59,22
234,213	-34,99
234,43	28,5
234,648	-18,6
234,865	34,64
235,083	-10,41
235,3	22,36
235,518	8,02
235,735	38,74
235,953	32,6
236,17	-6,31
236,388	46,93
236,605	-12,46
236,822	61,27
237,04	79,7
237,257	63,32
237,475	67,41
237,692	38,74
237,909	-0,17
238,127	-18,6
238,344	42,84
238,562	20,31
238,779	42,84
238,996	1,88
239,214	-16,55
239,431	16,21
239,648	-16,55
239,865	-28,84
240,083	63,32
240,3	46,93
240,517	5,97
240,735	14,17
240,952	53,08
241,169	1,88
241,386	5,97
241,603	42,84
241,821	10,07
242,038	22,36
242,255	67,41
242,472	-43,18
242,689	34,64
242,907	16,21
243,124	38,74
243,341	-8,36
243,558	5,97
243,775	18,26
243,992	-12,46
244,209	-8,36
244,426	-22,7
244,643	83,8
244,86	18,26
245,078	-51,37
245,295	-4,27
245,512	-22,7
245,729	55,12
245,946	-6,31
246,163	20,31
246,38	71,51
246,597	-16,55
246,814	5,97
247,031	79,7
247,248	8,02
247,464	5,97
247,681	63,32
247,898	28,5
248,115	-18,6
248,332	46,93
248,549	48,98
248,766	-0,17
248,983	12,12
249,2	-2,22
249,417	14,17
249,633	-0,17
249,85	48,98
250,067	-75,95
250,284	-18,6
250,501	-26,79
250,717	91,99
250,934	-65,71
251,151	40,79
251,368	22,36
251,585	5,97
251,801	16,21
252,018	69,46
252,235	26,45
252,451	3,93
252,668	-41,13
252,885	51,03
253,102	-8,36
253,318	-10,41
253,535	-8,36
253,752	46,93
253,968	87,89
254,185	87,89
254,401	-10,41
254,618	3,93
254,835	16,21
255,051	16,21
255,268	44,88
255,484	14,17
255,701	-67,75
255,917	55,12
256,134	-59,56
256,351	10,07
256,567	-39,08
256,784	5,97
257	63,32
257,217	75,6
257,433	16,21
257,65	14,17
257,866	16,21
258,082	55,12
258,299	16,21
258,515	20,31
258,732	-22,7
258,948	46,93
259,165	3,93
259,381	40,79
259,597	32,6
259,814	44,88
260,03	22,36
260,246	18,26
260,463	30,55
260,679	59,22
260,895	59,22
261,112	-77,99
261,328	1,88
261,544	73,56
261,761	-71,85
261,977	67,41
262,193	-8,36
262,409	89,94
262,626	87,89
262,842	8,02
263,058	-61,61
263,274	5,97
263,49	-16,55
263,707	51,03
263,923	16,21
264,139	32,6
264,355	18,26
264,571	48,98
264,787	-26,79
265,004	42,84
265,22	20,31
265,436	85,84
265,652	32,6
265,868	48,98
266,084	-16,55
266,3	-4,27
266,516	1,88
266,732	20,31
266,948	-39,08
267,164	8,02
267,38	-4,27
267,596	73,56
267,812	75,6
268,028	32,6
268,244	46,93
268,46	48,98
268,676	30,55
268,892	5,97
269,108	-32,94
269,324	3,93
269,54	-14,51
269,756	8,02
269,972	-8,36
270,188	61,27
270,403	44,88
270,619	26,45
270,835	-2,22
271,051	-26,79
271,267	-4,27
271,483	57,17
271,698	-18,6
271,914	-6,31
272,13	22,36
272,346	22,36
272,562	22,36
272,777	8,02
272,993	-28,84
273,209	46,93
273,425	-12,46
273,64	42,84
273,856	89,94
274,072	-6,31
274,287	69,46
274,503	1,88
274,719	30,55
274,934	24,4
275,15	-22,7
275,366	-8,36
275,581	-2,22
275,797	16,21
276,012	-32,94
276,228	8,02
276,444	59,22
276,659	85,84
276,875	34,64
277,09	22,36
277,306	1,88
277,521	112,47
277,737	-10,41
277,952	55,12
278,168	-32,94
278,383	22,36
278,599	-12,46
278,814	-8,36
279,03	14,17
279,245	8,02
279,461	3,93
279,676	89,94
279,892	42,84
280,107	5,97
280,322	-41,13
280,538	42,84
280,753	61,27
280,969	-26,79
281,184	8,02
281,399	28,5
281,615	20,31
281,83	10,07
282,045	38,74
282,26	34,64
282,476	10,07
282,691	22,36
282,906	42,84
283,122	5,97
283,337	-24,75
283,552	12,12
283,767	-26,79
283,983	-4,27
284,198	5,97
284,413	40,79
284,628	-24,75
284,843	14,17
285,058	-18,6
285,274	61,27
285,489	5,97
285,704	-0,17
285,919	-55,47
286,134	38,74
286,349	-10,41
286,564	51,03
286,779	104,28
286,995	-10,41
287,21	-39,08
287,425	22,36
287,64	8,02
287,855	-10,41
288,07	-37,03
288,285	16,21
288,5	-47,27
288,715	65,36
288,93	12,12
289,145	65,36
289,36	-18,6
289,575	5,97
289,79	-10,41
290,004	67,41
290,219	22,36
290,434	14,17
290,649	-61,61
290,864	75,6
291,079	5,97
291,294	-10,41
291,509	-59,56
291,724	12,12
291,938	8,02
292,153	71,51
292,368	46,93
292,583	-2,22
292,798	16,21
293,012	55,12
293,227	-45,23
293,442	-8,36
293,657	-47,27
293,871	75,6
294,086	26,45
294,301	-22,7
294,516	30,55
294,73	30,55
294,945	-45,23
295,16	-10,41
295,374	42,84
295,589	14,17
295,804	-4,27
296,018	-22,7
296,233	-14,51
296,447	-2,22
296,662	48,98
296,877	75,6
297,091	-43,18
297,306	-2,22
297,52	34,64
297,735	65,36
297,949	8,02
298,164	-34,99
298,378	-4,27
298,593	10,07
298,807	46,93
299,022	30,55
299,236	26,45
299,451	73,56
299,665	26,45
299,88	8,02
300,094	12,12
300,309	79,7
300,523	-51,37
300,737	30,55
300,952	-10,41
301,166	1,88
301,381	5,97
301,595	22,36
301,809	8,02
302,024	12,12
302,238	-24,75
302,452	10,07
302,667	36,69
302,881	30,55
303,095	26,45
303,309	32,6
303,524	32,6
303,738	-18,6
303,952	63,32
304,166	22,36
304,381	-57,51
304,595	32,6
304,809	16,21
305,023	32,6
305,237	18,26
305,452	77,65
305,666	-63,66
305,88	-2,22
306,094	-12,46
306,308	26,45
306,522	-16,55
306,736	57,17
306,95	46,93
307,164	65,36
307,379	63,32
307,593	40,79
307,807	-16,55
308,021	-16,55
308,235	36,69
308,449	30,55
308,663	-10,41
308,877	14,17
309,091	1,88
309,305	-6,31
309,519	12,12
309,733	46,93
309,947	3,93
310,161	63,32
310,374	-41,13
310,588	16,21
310,802	18,26
311,016	38,74
311,23	10,07
311,444	61,27
311,658	-28,84
311,872	40,79
312,085	87,89
312,299	32,6
312,513	51,03
312,727	16,21
312,941	34,64
313,154	46,93
313,368	1,88
313,582	28,5
313,796	-26,79
314,009	18,26
314,223	71,51
314,437	48,98
314,651	-0,17
314,864	-34,99
315,078	30,55
315,292	71,51
315,505	32,6
315,719	5,97
315,933	22,36
316,146	-0,17
316,36	32,6
316,573	-26,79
316,787	-24,75
317,001	-26,79
317,214	-53,42
317,428	87,89
317,641	-98,47
317,855	1,88
318,068	-16,55
318,282	-8,36
318,495	30,55
318,709	24,4
318,922	8,02
319,136	-8,36
319,349	46,93
319,563	14,17
319,776	-47,27
319,99	57,17
320,203	24,4
320,417	34,64
320,63	-24,75
320,843	-6,31
321,057	-24,75
321,27	30,55
321,483	53,08
321,697	-0,17
321,91	46,93
322,124	26,45
322,337	22,36
322,55	22,36
322,763	85,84
322,977	81,75
323,19	-8,36
323,403	32,6
323,617	48,98
323,83	36,69
324,043	-84,14
324,256	22,36
324,469	44,88
324,683	57,17
324,896	20,31
325,109	-18,6
325,322	-53,42
325,535	32,6
325,748	-41,13
325,962	42,84
326,175	44,88
326,388	30,55
326,601	16,21
326,814	-24,75
327,027	30,55
327,24	16,21
327,453	-16,55
327,666	-14,51
327,879	18,26
328,092	55,12
328,305	-8,36
328,518	65,36
328,731	-43,18
328,944	53,08
329,157	44,88
329,37	-37,03
329,583	57,17
329,796	-2,22
330,009	30,55
330,222	5,97
330,435	-34,99
330,648	22,36
330,861	38,74
331,073	38,74
331,286	-24,75
331,499	8,02
331,712	-92,33
331,925	14,17
332,138	26,45
332,35	126,8
332,563	-26,79
332,776	32,6
332,989	-4,27
333,202	-0,17
333,414	8,02
333,627	48,98
333,84	71,51
334,053	-2,22
334,265	26,45
334,478	-41,13
334,691	26,45
334,903	94,04
335,116	-10,41
335,329	53,08
335,541	5,97
335,754	46,93
335,966	26,45
336,179	16,21
336,392	18,26
336,604	26,45
336,817	-32,94
337,029	1,88
337,242	-6,31
337,454	26,45
337,667	-65,71
337,88	-14,51
338,092	-14,51
338,305	-0,17
338,517	18,26
338,729	-12,46
338,942	-2,22
339,154	67,41
339,367	-14,51
339,579	-22,7
339,792	5,97
340,004	-14,51
340,217	5,97
340,429	44,88
340,641	-45,23
340,854	26,45
341,066	34,64
341,278	71,51
341,491	38,74
341,703	5,97
341,915	1,88
342,128	14,17
342,34	-10,41
342,552	30,55
342,764	14,17
342,977	-14,51
343,189	55,12
343,401	30,55
343,613	12,12
343,826	5,97
344,038	38,74
344,25	40,79
344,462	-18,6
344,674	8,02
344,886	5,97
345,099	40,79
345,311	34,64
345,523	-18,6
345,735	-2,22
345,947	46,93
346,159	-4,27
346,371	10,07
346,583	20,31
346,795	38,74
347,007	1,88
347,219	38,74
347,431	22,36
347,643	48,98
347,855	14,17
348,067	24,4
348,279	30,55
348,491	14,17
348,703	24,4
348,915	14,17
349,127	55,12
349,339	-14,51
349,551	38,74
349,763	38,74
349,975	-30,89
350,187	28,5
350,399	46,93
350,61	71,51
350,822	-18,6
351,034	42,84
351,246	51,03
351,458	22,36
351,669	26,45
351,881	30,55
352,093	14,17
352,305	71,51
352,517	57,17
352,728	53,08
352,94	14,17
353,152	51,03
353,363	30,55
353,575	5,97
353,787	36,69
353,999	-20,65
354,21	44,88
354,422	14,17
354,633	-32,94
354,845	10,07
355,057	87,89
355,268	59,22
355,48	48,98
355,692	24,4
355,903	59,22
356,115	28,5
356,326	22,36
356,538	53,08
356,749	-30,89
356,961	42,84
357,172	-34,99
357,384	30,55
357,595	-24,75
357,807	34,64
358,018	-10,41
358,23	-43,18
358,441	63,32
358,653	-2,22
358,864	14,17
359,075	-10,41
359,287	-26,79
359,498	67,41
359,709	14,17
359,921	61,27
360,132	-37,03
360,344	30,55
360,555	59,22
360,766	-26,79
360,977	24,4
361,189	57,17
361,4	55,12
361,611	32,6
361,823	24,4
362,034	-26,79
362,245	69,46
362,456	51,03
362,667	48,98
362,879	12,12
363,09	32,6
363,301	73,56
363,512	34,64
363,723	-8,36
363,935	18,26
364,146	-2,22
364,357	44,88
364,568	24,4
364,779	-6,31
364,99	14,17
365,201	-14,51
365,412	32,6
365,623	-39,08
365,834	26,45
366,045	-0,17
366,256	5,97
366,467	26,45
366,678	57,17
366,889	57,17
367,1	-6,31
367,311	-0,17
367,522	55,12
367,733	36,69
367,944	-18,6
368,155	5,97
368,366	-18,6
368,577	32,6
368,788	96,08
368,999	20,31
369,209	8,02
369,42	8,02
369,631	16,21
369,842	-18,6
370,053	10,07
370,264	20,31
370,474	12,12
370,685	-28,84
370,896	112,47
371,107	38,74
371,317	14,17
371,528	8,02
371,739	22,36
371,95	55,12
372,16	42,84
372,371	-24,75
372,582	-2,22
372,792	44,88
373,003	-6,31
373,214	34,64
373,424	30,55
373,635	63,32
373,846	67,41
374,056	1,88
374,267	73,56
374,477	8,02
374,688	-24,75
374,898	12,12
375,109	-61,61
375,319	22,36
375,53	18,26
375,74	-34,99
375,951	18,26
376,161	-67,75
376,372	-32,94
376,582	1,88
376,793	22,36
377,003	8,02
377,214	46,93
377,424	-10,41
377,635	32,6
377,845	51,03
378,055	30,55
378,266	-41,13
378,476	36,69
378,686	40,79
378,897	24,4
379,107	51,03
379,317	1,88
379,528	-28,84
379,738	44,88
379,948	14,17
380,158	48,98
380,369	-2,22
380,579	65,36
380,789	-12,46
380,999	32,6
381,21	16,21
381,42	14,17
381,63	-4,27
381,84	32,6
382,05	12,12
382,261	-34,99
382,471	5,97
382,681	71,51
382,891	18,26
383,101	18,26
383,311	-8,36
383,521	16,21
383,731	22,36
383,941	14,17
384,151	-22,7
384,361	83,8
384,571	53,08
384,781	-18,6
384,991	-8,36
385,201	-24,75
385,411	-8,36
385,621	87,89
385,831	42,84
386,041	40,79
386,251	34,64
386,461	30,55
386,671	-18,6
386,881	40,79
387,091	46,93
387,301	30,55
387,511	-2,22
387,72	-20,65
387,93	8,02
388,14	-41,13
388,35	34,64
388,56	42,84
388,769	1,88
388,979	79,7
389,189	48,98
389,399	51,03
389,609	38,74
389,818	-39,08
390,028	5,97
390,238	-6,31
390,447	-4,27
390,657	16,21
390,867	59,22
391,076	-20,65
391,286	55,12
391,496	30,55
391,705	-18,6
391,915	71,51
392,125	-14,51
392,334	14,17
392,544	38,74
392,753	28,5
392,963	40,79
393,172	38,74
393,382	24,4
393,591	-0,17
393,801	71,51
394,01	12,12
394,22	14,17
394,429	24,4
394,639	3,93
394,848	81,75
395,058	-2,22
395,267	26,45
395,477	57,17
395,686	24,4
395,895	8,02
396,105	12,12
396,314	24,4
396,524	46,93
396,733	-2,22
396,942	5,97
397,152	40,79
397,361	32,6
397,57	30,55
397,78	-2,22
397,989	16,21
398,198	-14,51
398,407	-47,27
398,617	-32,94
398,826	20,31
399,035	-26,79
399,244	-0,17
399,453	-10,41
399,663	22,36
399,872	55,12
400,081	63,32
400,29	71,51
400,499	-28,84
400,708	34,64
400,917	46,93
401,127	-32,94
401,336	-6,31
401,545	38,74
401,754	-0,17
401,963	16,21
402,172	48,98
402,381	-10,41
402,59	-43,18
402,799	55,12
403,008	18,26
403,217	40,79
403,426	46,93
403,635	14,17
403,844	79,7
404,053	20,31
404,262	108,37
404,471	59,22
404,68	36,69
404,888	34,64
405,097	-10,41
405,306	-22,7
405,515	1,88
405,724	5,97
405,933	-20,65
406,142	83,8
406,35	24,4
406,559	32,6
406,768	-2,22
406,977	14,17
407,185	10,07
407,394	30,55
407,603	-57,51
407,812	30,55
408,02	20,31
408,229	59,22
408,438	3,93
408,646	51,03
408,855	46,93
409,064	40,79
409,272	-8,36
409,481	28,5
409,69	-12,46
409,898	77,65
410,107	-16,55
410,315	71,51
410,524	12,12
410,733	59,22
410,941	5,97
411,15	14,17
411,358	-51,37
411,567	61,27
411,775	16,21
411,984	28,5
412,192	24,4
412,401	16,21
412,609	-73,9
412,818	-45,23
413,026	53,08
413,234	36,69
413,443	-12,46
413,651	10,07
413,86	-65,71
414,068	10,07
414,276	48,98
414,485	18,26
414,693	30,55
414,901	40,79
415,11	-10,41
415,318	16,21
415,526	-10,41
415,734	-0,17
415,943	38,74
416,151	20,31
416,359	3,93
416,567	20,31
416,776	5,97
416,984	-14,51
417,192	-12,46
417,4	-2,22
417,608	34,64
417,817	1,88
418,025	14,17
418,233	26,45
418,441	-14,51
418,649	32,6
418,857	-0,17
419,065	16,21
419,273	-30,89
419,481	40,79
419,689	24,4
419,897	-2,22
420,105	-14,51
420,313	-2,22
420,521	-37,03
420,729	40,79
420,937	89,94
421,145	-20,65
421,353	10,07
421,561	51,03
421,769	-47,27
421,977	30,55
422,185	38,74
422,393	-8,36
422,601	10,07
422,809	12,12
423,017	-12,46
423,224	-20,65
423,432	-34,99
423,64	53,08
423,848	65,36
424,056	-18,6
424,263	30,55
424,471	-10,41
424,679	36,69
424,887	24,4
425,094	10,07
425,302	-26,79
425,51	32,6
425,718	-47,27
425,925	-6,31
426,133	38,74
426,341	18,26
426,548	40,79
426,756	-43,18
426,964	32,6
427,171	-18,6
427,379	-39,08
427,586	32,6
427,794	63,32
428,001	-16,55
428,209	-18,6
428,417	-47,27
428,624	77,65
428,832	38,74
429,039	48,98
429,247	1,88
429,454	26,45
429,662	-18,6
429,869	10,07
430,076	36,69
430,284	-51,37
430,491	38,74
430,699	18,26
430,906	-0,17
431,114	-24,75
431,321	-32,94
431,528	22,36
431,736	-6,31
431,943	5,97
432,15	-37,03
432,358	79,7
432,565	-26,79
432,772	12,12
432,979	38,74
433,187	55,12
433,394	26,45
433,601	46,93
433,808	-18,6
434,016	36,69
434,223	-16,55
434,43	20,31
434,637	40,79
434,844	8,02
435,052	-18,6
435,259	14,17
435,466	5,97
435,673	14,17
435,88	57,17
436,087	77,65
436,294	77,65
436,501	46,93
436,708	-30,89
436,915	98,13
437,122	73,56
437,329	3,93
437,537	57,17
437,743	42,84
437,95	-8,36
438,157	-32,94
438,364	59,22
438,571	22,36
438,778	38,74
438,985	51,03
439,192	8,02
439,399	55,12
439,606	-32,94
439,813	30,55
440,02	67,41
440,227	79,7
440,433	46,93
440,64	-57,51
440,847	46,93
441,054	-14,51
441,261	87,89
441,467	-2,22
441,674	48,98
441,881	30,55
442,088	44,88
442,294	-45,23
442,501	22,36
442,708	87,89
442,914	51,03
443,121	5,97
443,328	-2,22
443,534	-18,6
443,741	-16,55
443,948	55,12
444,154	14,17
444,361	59,22
444,568	24,4
444,774	65,36
444,981	-2,22
445,187	59,22
445,394	83,8
445,6	20,31
445,807	18,26
446,013	22,36
446,22	26,45
446,426	40,79
446,633	67,41
446,839	40,79
447,046	20,31
447,252	8,02
447,459	-8,36
447,665	-22,7
447,871	22,36
448,078	16,21
448,284	-8,36
448,491	46,93
448,697	55,12
448,903	-8,36
449,11	-22,7
449,316	14,17
449,522	-39,08
449,728	57,17
449,935	42,84
450,141	22,36
450,347	-22,7
450,553	-10,41
450,76	44,88
450,966	-24,75
451,172	12,12
451,378	-2,22
451,584	10,07
451,791	130,9
451,997	-43,18
452,203	38,74
452,409	18,26
452,615	8,02
452,821	30,55
453,027	-26,79
453,233	-8,36
453,44	75,6
453,646	14,17
453,852	-10,41
454,058	26,45
454,264	-34,99
454,47	-37,03
454,676	63,32
454,882	-34,99
455,088	-20,65
455,294	81,75
455,5	12,12
455,705	46,93
455,911	-24,75
456,117	16,21
456,323	57,17
456,529	-8,36
456,735	-4,27
456,941	46,93
457,147	8,02
457,352	14,17
457,558	-32,94
457,764	-8,36
457,97	-12,46
458,176	-73,9
458,381	30,55
458,587	32,6
458,793	55,12
458,999	63,32
459,204	34,64
459,41	22,36
459,616	69,46
459,821	20,31
460,027	42,84
460,233	-14,51
460,438	3,93
460,644	55,12
460,85	-55,47
461,055	67,41
461,261	83,8
461,466	-4,27
461,672	16,21
461,878	14,17
462,083	-18,6
462,289	22,36
462,494	10,07
462,7	38,74
462,905	10,07
463,111	-22,7
463,316	-32,94
463,522	48,98
463,727	79,7
463,932	-2,22
464,138	14,17
464,343	12,12
464,549	12,12
464,754	5,97
464,959	26,45
465,165	-16,55
465,37	-45,23
465,575	24,4
465,781	57,17
465,986	34,64
466,191	59,22
466,397	-47,27
466,602	22,36
466,807	38,74
467,012	1,88
467,218	32,6
467,423	-16,55
467,628	20,31
467,833	-61,61
468,038	18,26
468,244	77,65
468,449	30,55
468,654	71,51
468,859	-51,37
469,064	5,97
469,269	-57,51
469,474	34,64
469,679	44,88
469,885	20,31
470,09	-26,79
470,295	57,17
470,5	38,74
470,705	108,37
470,91	104,28
471,115	-10,41
471,32	-14,51
471,525	30,55
471,73	-8,36
471,935	34,64
472,139	-59,56
472,344	8,02
472,549	5,97
472,754	30,55
472,959	83,8
473,164	1,88
473,369	-0,17
473,574	57,17
473,778	-55,47
473,983	-18,6
474,188	-34,99
474,393	-4,27
474,598	-12,46
474,802	40,79
475,007	-2,22
475,212	79,7
475,417	34,64
475,621	22,36
475,826	8,02
476,031	18,26
476,235	83,8
476,44	-14,51
476,645	-30,89
476,849	38,74
477,054	26,45
477,259	63,32
477,463	1,88
477,668	14,17
477,872	-14,51
478,077	63,32
478,282	-12,46
478,486	-67,75
478,691	8,02
478,895	30,55
479,1	5,97
479,304	44,88
479,509	48,98
479,713	-106,67
479,918	-8,36
480,122	-39,08
480,326	26,45
480,531	26,45
480,735	10,07
480,94	42,84
481,144	-10,41
481,348	-37,03
481,553	65,36
481,757	-24,75
481,961	34,64
482,166	-2,22
482,37	-16,55
482,574	18,26
482,778	10,07
482,983	48,98
483,187	30,55
483,391	-10,41
483,595	1,88
483,8	-22,7
484,004	-34,99
484,208	46,93
484,412	61,27
484,616	44,88
484,821	63,32
485,025	-82,09
485,229	14,17
485,433	53,08
485,637	24,4
485,841	44,88
486,045	57,17
486,249	24,4
486,453	-26,79
486,657	20,31
486,861	38,74
487,065	24,4
487,269	38,74
487,473	-8,36
487,677	-22,7
487,881	65,36
488,085	51,03
488,289	-34,99
488,493	22,36
488,697	-6,31
488,901	-8,36
489,105	-49,32
489,309	-49,32
489,512	34,64
489,716	22,36
489,92	36,69
490,124	30,55
490,328	-41,13
490,531	-2,22
490,735	34,64
490,939	-4,27
491,143	55,12
491,346	36,69
491,55	81,75
491,754	5,97
491,958	102,23
492,161	-18,6
492,365	22,36
492,569	-24,75
492,772	106,32
492,976	5,97
493,18	26,45
493,383	44,88
493,587	5,97
493,79	-30,89
493,994	-51,37
494,197	59,22
494,401	91,99
494,605	-61,61
494,808	34,64
495,012	34,64
495,215	24,4
495,419	-24,75
495,622	20,31
495,825	51,03
496,029	89,94
496,232	32,6
496,436	-0,17
496,639	26,45
496,843	-2,22
497,046	-41,13
497,249	38,74
497,453	-32,94
497,656	40,79
497,859	5,97
498,063	16,21
498,266	59,22
498,469	-4,27
498,673	-0,17
498,876	-2,22
499,079	53,08
499,282	98,13
499,485	51,03
499,689	48,98
499,892	-34,99
500,095	-10,41
500,298	26,45
500,501	-32,94
500,705	-18,6
500,908	30,55
501,111	28,5
501,314	81,75
501,517	40,79
501,72	30,55
501,923	63,32
502,126	63,32
502,329	51,03
502,532	38,74
502,735	-24,75
502,938	8,02
503,141	32,6
503,344	28,5
503,547	71,51
503,75	-10,41
503,953	40,79
504,156	55,12
504,359	55,12
504,562	12,12
504,765	-47,27
504,968	-0,17
505,17	-41,13
505,373	-30,89
505,576	-4,27
505,779	26,45
505,982	-8,36
506,185	-32,94
506,387	8,02
506,59	-2,22
506,793	-34,99
506,996	-22,7
507,198	12,12
507,401	-0,17
507,604	30,55
507,807	-2,22
508,009	-28,84
508,212	44,88
508,415	48,98
508,617	24,4
508,82	-30,89
509,022	85,84
509,225	67,41
509,428	42,84
509,63	22,36
509,833	69,46
510,035	-32,94
510,238	46,93
510,44	38,74
510,643	-57,51
510,845	40,79
511,048	10,07
511,25	53,08
511,453	8,02
511,655	69,46
511,858	28,5
512,06	51,03
512,262	12,12
512,465	44,88
512,667	28,5
512,87	34,64
513,072	55,12
513,274	40,79
513,477	38,74
513,679	-24,75
513,881	-43,18
514,084	-63,66
514,286	32,6
514,488	8,02
514,69	34,64
514,893	3,93
515,095	-2,22
515,297	-43,18
515,499	-0,17
515,701	8,02
515,904	69,46
516,106	12,12
516,308	96,08
516,51	38,74
516,712	18,26
516,914	30,55
517,116	-10,41
517,318	42,84
517,52	48,98
517,722	5,97
517,925	24,4
518,127	3,93
518,329	44,88
518,531	-24,75
518,733	42,84
518,935	-37,03
519,136	-10,41
519,338	22,36
519,54	65,36
519,742	53,08
519,944	-0,17
520,146	48,98
520,348	53,08
520,55	46,93
520,752	63,32
520,954	3,93
521,155	-47,27
521,357	26,45
521,559	161,62
521,761	-16,55
521,963	22,36
522,164	48,98
522,366	40,79
522,568	-90,28
522,77	16,21
522,971	1,88
523,173	8,02
523,375	12,12
523,576	-0,17
523,778	-18,6
523,98	73,56
524,181	-26,79
524,383	53,08
524,584	71,51
524,786	-8,36
524,988	79,7
525,189	46,93
525,391	61,27
525,592	30,55
525,794	18,26
525,995	46,93
526,197	40,79
526,398	-10,41
526,6	28,5
526,801	18,26
527,003	-26,79
527,204	-24,75
527,406	-0,17
527,607	5,97
527,808	30,55
528,01	-24,75
528,211	110,42
528,412	38,74
528,614	38,74
528,815	26,45
529,016	5,97
529,218	22,36
529,419	5,97
529,62	1,88
529,822	14,17
530,023	22,36
530,224	18,26
530,425	-12,46
530,626	91,99
530,828	-0,17
531,029	30,55
531,23	28,5
531,431	-16,55
531,632	42,84
531,833	-6,31
532,035	22,36
532,236	38,74
532,437	38,74
532,638	18,26
532,839	38,74
533,04	-75,95
533,241	20,31
533,442	98,13
533,643	34,64
533,844	5,97
534,045	-24,75
534,246	42,84
534,447	12,12
534,648	32,6
534,849	-18,6
535,05	-30,89
535,251	22,36
535,451	16,21
535,652	32,6
535,853	-34,99
536,054	36,69
536,255	-18,6
536,456	46,93
536,657	30,55
536,857	42,84
537,058	14,17
537,259	8,02
537,46	8,02
537,66	51,03
537,861	-12,46
538,062	22,36
538,263	26,45
538,463	87,89
538,664	24,4
538,865	5,97
539,065	14,17
539,266	28,5
539,466	18,26
539,667	46,93
539,868	55,12
540,068	30,55
540,269	57,17
540,469	-47,27
540,67	71,51
540,87	12,12
541,071	-0,17
541,271	63,32
541,472	57,17
541,672	46,93
541,873	57,17
542,073	10,07
542,274	-16,55
542,474	69,46
542,675	71,51
542,875	8,02
543,075	51,03
543,276	14,17
543,476	14,17
543,676	34,64
543,877	-10,41
544,077	59,22
544,277	8,02
544,478	8,02
544,678	10,07
544,878	38,74
545,078	12,12
545,279	-24,75
545,479	1,88
545,679	120,66
545,879	-28,84
546,079	5,97
546,28	59,22
546,48	57,17
546,68	-0,17
546,88	14,17
547,08	3,93
547,28	71,51
547,48	14,17
547,68	26,45
547,88	30,55
548,081	53,08
548,281	14,17
548,481	12,12
548,681	30,55
548,881	22,36
549,081	10,07
549,28	3,93
549,48	63,32
549,68	71,51
549,88	-10,41
550,08	65,36
550,28	38,74
550,48	51,03
550,68	14,17
550,88	-8,36
551,08	16,21
551,279	22,36
551,479	57,17
551,679	38,74
551,879	-6,31
552,079	18,26
552,278	20,31
552,478	42,84
552,678	91,99
552,878	83,8
553,077	75,6
553,277	104,28
553,477	-22,7
553,676	46,93
553,876	34,64
554,076	-2,22
554,275	14,17
554,475	-10,41
554,674	38,74
554,874	87,89
555,074	83,8
555,273	32,6
555,473	16,21
555,672	24,4
555,872	26,45
556,071	18,26
556,271	59,22
556,47	38,74
556,67	34,64
556,869	77,65
557,068	65,36
557,268	44,88
557,467	5,97
557,667	59,22
557,866	34,64
558,065	104,28
558,265	108,37
558,464	94,04
558,663	112,47
558,863	42,84
559,062	89,94
559,261	98,13
559,461	22,36
559,66	40,79
559,859	55,12
560,058	28,5
560,258	53,08
560,457	63,32
560,656	46,93
560,855	10,07
561,054	151,38
561,253	28,5
561,453	36,69
561,652	30,55
561,851	96,08
562,05	12,12
562,249	26,45
562,448	28,5
562,647	81,75
562,846	40,79
563,045	81,75
563,244	79,7
563,443	57,17
563,642	46,93
563,841	79,7
564,04	55,12
564,239	83,8
564,438	63,32
564,637	69,46
564,836	96,08
565,035	67,41
565,234	32,6
565,432	96,08
565,631	87,89
565,83	81,75
566,029	114,52
566,228	81,75
566,427	85,84
566,625	65,36
566,824	126,8
567,023	161,62
567,222	139,09
567,42	24,4
567,619	135
567,818	130,9
568,016	130,9
568,215	182,1
568,414	145,24
568,612	212,82
568,811	114,52
569,01	141,14
569,208	204,63
569,407	141,14
569,605	202,58
569,804	264,02
570,002	335,7
570,201	229,2
570,4	345,94
570,598	276,31
570,797	372,56
570,995	384,85
571,193	501,58
571,392	597,84
571,59	587,6
571,789	620,36
571,987	819,02
572,186	859,98
572,384	956,23
572,582	1197,89
572,781	1390,4
572,979	1634,11
573,177	1871,67
573,376	2225,97
573,574	2586,41
573,772	3247,91
573,971	3710,75
574,169	4314,9
574,367	5234,44
574,565	6420,21
574,763	7761,63
574,962	9387,72
575,16	11378,34
575,358	13342,35
575,556	15902,31
575,754	18855,48
575,952	22005,25
576,151	26219,97
576,349	29832,59
576,547	33740,11
576,745	37336,35
576,943	40236,27
577,141	43095,24
577,339	45812,89
577,537	48139,38
577,735	49951,84
577,933	50912,33
578,131	52679,73
578,329	53894,17
578,527	53943,33
578,725	55305,23
578,923	55712,77
579,121	55796,74
579,319	56691,7
579,516	57287,66
579,714	57613,29
579,912	57455,59
580,11	57648,1
580,308	58223,58
580,506	58962,9
580,704	58569,69
580,901	59827,14
581,099	60187,58
581,297	60158,91
581,495	60027,84
581,692	61012,91
581,89	60117,95
582,088	60865,46
582,285	60689,34
582,483	61178,8
582,681	60410,81
582,878	60783,54
583,076	60206,01
583,274	60507,07
583,471	58706,9
583,669	58213,34
583,866	56304,63
584,064	54678,55
584,262	51792,96
584,459	49636,45
584,657	45812,89
584,854	42656,97
585,052	38403,34
585,249	35235,13
585,447	31255,93
585,644	27610,54
585,841	23877,1
586,039	21108,24
586,236	17962,56
586,434	15461,99
586,631	13186,7
586,828	11386,54
587,026	9477,83
587,223	8031,96
587,42	6825,71
587,618	6024,95
587,815	4947,72
588,012	4204,31
588,21	3618,59
588,407	3069,73
588,604	2645,8
588,801	2193,2
588,999	2015,03
589,196	1613,63
589,393	1511,23
589,59	1306,43
589,787	1118,02
589,984	960,33
590,182	808,78
590,379	767,82
590,576	661,32
590,773	694,09
590,97	536,4
591,167	507,73
591,364	395,09
591,561	464,72
591,758	329,55
591,955	360,27
592,152	239,44
592,349	227,15
592,546	231,25
592,743	278,35
592,94	204,63
593,137	147,28
593,334	227,15
593,531	204,63
593,727	186,19
593,924	159,57
594,121	124,76
594,318	145,24
594,515	169,81
594,712	159,57
594,908	112,47
595,105	51,03
595,302	96,08
595,499	106,32
595,696	132,95
595,892	124,76
596,089	120,66
596,286	94,04
596,482	48,98
596,679	81,75
596,876	98,13
597,072	18,26
597,269	89,94
597,466	-22,7
597,662	38,74
597,859	38,74
598,055	53,08
598,252	24,4
598,448	57,17
598,645	34,64
598,841	-0,17
599,038	71,51
599,234	61,27
599,431	20,31
599,627	55,12
599,824	48,98
600,02	102,23
600,217	-16,55
600,413	48,98
600,609	-6,31
600,806	94,04
601,002	30,55
601,198	69,46
601,395	14,17
601,591	46,93
601,787	40,79
601,984	26,45
602,18	-12,46
602,376	1,88
602,572	20,31
602,769	71,51
602,965	85,84
603,161	100,18
603,357	-49,32
603,553	34,64
603,75	30,55
603,946	81,75
604,142	71,51
604,338	24,4
604,534	1,88
604,73	53,08
604,926	63,32
605,122	42,84
605,318	112,47
605,514	34,64
605,71	73,56
605,906	16,21
606,102	63,32
606,298	110,42
606,494	91,99
606,69	40,79
606,886	-6,31
607,082	-0,17
607,278	83,8
607,474	-10,41
607,67	75,6
607,866	5,97
608,062	75,6
608,257	128,85
608,453	-0,17
608,649	118,61
608,845	-47,27
609,041	71,51
609,236	65,36
609,432	83,8
609,628	34,64
609,824	-0,17
610,019	89,94
610,215	48,98
610,411	71,51
610,606	51,03
610,802	30,55
610,998	-2,22
611,193	3,93
611,389	63,32
611,584	26,45
611,78	55,12
611,976	83,8
612,171	65,36
612,367	59,22
612,562	-39,08
612,758	98,13
612,953	46,93
613,149	26,45
613,344	24,4
613,539	59,22
613,735	1,88
613,93	40,79
614,126	24,4
614,321	-57,51
614,517	10,07
614,712	38,74
614,907	96,08
615,103	46,93
615,298	5,97
615,493	51,03
615,688	30,55
615,884	-2,22
616,079	40,79
616,274	16,21
616,47	48,98
616,665	22,36
616,86	51,03
617,055	-59,56
617,25	24,4
617,445	-45,23
617,641	5,97
617,836	67,41
618,031	61,27
618,226	-30,89
618,421	22,36
618,616	16,21
618,811	18,26
619,006	46,93
619,201	79,7
619,396	-65,71
619,591	79,7
619,786	130,9
619,981	8,02
620,176	14,17
620,371	116,56
620,566	-22,7
620,761	122,71
620,956	32,6
621,151	12,12
621,346	14,17
621,541	42,84
621,735	96,08
621,93	18,26
622,125	51,03
622,32	40,79
622,515	16,21
622,709	40,79
622,904	40,79
623,099	28,5
623,294	65,36
623,488	83,8
623,683	55,12
623,878	16,21
624,072	-18,6
624,267	79,7
624,462	8,02
624,656	-8,36
624,851	30,55
625,046	-39,08
625,24	24,4
625,435	24,4
625,629	106,32
625,824	87,89
626,018	-0,17
626,213	12,12
626,407	30,55
626,602	-30,89
626,796	-16,55
626,991	12,12
627,185	-30,89
627,38	-8,36
627,574	-10,41
627,768	-24,75
627,963	28,5
628,157	-12,46
628,352	34,64
628,546	-6,31
628,74	-41,13
628,935	1,88
629,129	8,02
629,323	32,6
629,517	63,32
629,712	14,17
629,906	-55,47
630,1	87,89
630,294	14,17
630,489	-26,79
630,683	-30,89
630,877	30,55
631,071	-2,22
631,265	-43,18
631,459	104,28
631,653	8,02
631,848	22,36
632,042	75,6
632,236	122,71
632,43	73,56
632,624	20,31
632,818	24,4
633,012	28,5
633,206	-2,22
633,4	14,17
633,594	40,79
633,788	55,12
633,982	40,79
634,176	69,46
634,369	57,17
634,563	-0,17
634,757	14,17
634,951	38,74
635,145	-4,27
635,339	-18,6
635,533	-10,41
635,726	20,31
635,92	59,22
636,114	22,36
636,308	32,6
636,501	34,64
636,695	40,79
636,889	-10,41
637,083	46,93
637,276	-12,46
637,47	55,12
637,664	-14,51
637,857	-8,36
638,051	16,21
638,244	24,4
638,438	89,94
638,632	55,12
638,825	-14,51
639,019	18,26
639,212	-26,79
639,406	-8,36
639,599	30,55
639,793	30,55
639,986	-20,65
640,18	40,79
640,373	-26,79
640,567	87,89
640,76	14,17
640,954	-4,27
641,147	51,03
641,34	-32,94
641,534	5,97
641,727	-47,27
641,92	3,93
642,114	1,88
642,307	-24,75
642,5	40,79
642,694	-30,89
642,887	-26,79
643,08	-24,75
643,273	-24,75
643,467	48,98
643,66	14,17
643,853	-41,13
644,046	22,36
644,239	42,84
644,432	40,79
644,626	-12,46
644,819	87,89
645,012	-16,55
645,205	55,12
645,398	-6,31
645,591	71,51
645,784	61,27
645,977	22,36
646,17	14,17
646,363	63,32
646,556	104,28
646,749	81,75
646,942	32,6
647,135	32,6
647,328	44,88
647,521	83,8
647,714	65,36
647,907	-18,6
648,099	26,45
648,292	-0,17
648,485	-24,75
648,678	8,02
648,871	42,84
649,064	-10,41
649,256	-14,51
649,449	34,64
649,642	38,74
649,835	42,84
650,027	67,41
650,22	24,4
650,413	-18,6
650,605	-2,22
650,798	22,36
650,991	34,64
651,183	32,6
651,376	63,32
651,568	42,84
651,761	16,21
651,954	-2,22
652,146	44,88
652,339	44,88
652,531	26,45
652,724	38,74
652,916	14,17
653,109	-32,94
653,301	24,4
653,494	-10,41
653,686	-34,99
653,879	3,93
654,071	-10,41
654,263	24,4
654,456	14,17
654,648	-6,31
654,84	46,93
655,033	-59,56
655,225	24,4
655,417	-43,18
655,61	73,56
655,802	1,88
655,994	5,97
656,186	-8,36
656,379	18,26
656,571	5,97
656,763	8,02
656,955	10,07
657,148	-16,55
657,34	-10,41
657,532	26,45
657,724	-12,46
657,916	57,17
658,108	10,07
658,3	38,74
658,492	-6,31
658,684	22,36
658,876	22,36
659,068	-26,79
659,26	-37,03
659,452	10,07
659,644	34,64
659,836	30,55
660,028	-55,47
660,22	20,31
660,412	57,17
660,604	-16,55
660,796	14,17
660,988	-24,75
661,18	73,56
661,372	22,36
661,563	5,97
661,755	40,79
661,947	32,6
662,139	55,12
662,331	-2,22
662,522	26,45
662,714	-26,79
662,906	36,69
663,097	81,75
663,289	46,93
663,481	-14,51
663,673	-20,65
663,864	83,8
664,056	38,74
664,247	51,03
664,439	16,21
664,631	-2,22
664,822	48,98
665,014	48,98
665,205	-4,27
665,397	48,98
665,588	51,03
665,78	55,12
665,971	118,61
666,163	12,12
666,354	73,56
666,546	79,7
666,737	18,26
666,929	44,88
667,12	-63,66
667,311	-30,89
667,503	34,64
667,694	3,93
667,885	96,08
668,077	34,64
668,268	30,55
668,459	30,55
668,651	-26,79
668,842	-24,75
669,033	63,32
669,224	59,22
669,416	1,88
669,607	38,74
669,798	16,21
669,989	-14,51
670,18	63,32
670,371	128,85
670,563	46,93
670,754	-8,36
670,945	-86,19
671,136	-37,03
671,327	-4,27
671,518	34,64
671,709	22,36
671,9	-4,27
672,091	59,22
672,282	46,93
672,473	12,12
672,664	5,97
672,855	-14,51
673,046	3,93
673,237	-14,51
673,428	-0,17
673,619	55,12
673,809	-6,31
674	32,6
674,191	-6,31
674,382	22,36
674,573	69,46
674,764	-24,75
674,954	71,51
675,145	-34,99
675,336	-0,17
675,527	32,6
675,717	-22,7
675,908	18,26
676,099	-0,17
676,289	-26,79
676,48	-18,6
676,671	57,17
676,861	16,21
677,052	24,4
677,243	26,45
677,433	1,88
677,624	-16,55
677,814	32,6
678,005	-100,52
678,195	83,8
678,386	-6,31
678,576	32,6
678,767	-10,41
678,957	24,4
679,148	38,74
679,338	69,46
679,529	-47,27
679,719	-69,8
679,909	5,97
680,1	71,51
680,29	8,02
680,481	22,36
680,671	46,93
680,861	-2,22
681,052	-24,75
681,242	59,22
681,432	26,45
681,622	51,03
681,813	38,74
682,003	26,45
682,193	-32,94
682,383	75,6
682,573	91,99
682,764	-6,31
682,954	18,26
683,144	-0,17
683,334	61,27
683,524	46,93
683,714	36,69
683,904	8,02
684,094	5,97
684,284	-18,6
684,474	8,02
684,664	44,88
684,854	5,97
685,044	-0,17
685,234	22,36
685,424	40,79
685,614	-45,23
685,804	79,7
685,994	-37,03
686,184	-8,36
686,374	63,32
686,564	12,12
686,753	-8,36
686,943	57,17
687,133	-24,75
687,323	24,4
687,513	38,74
687,702	51,03
687,892	-18,6
688,082	57,17
688,272	32,6
688,461	46,93
688,651	-10,41
688,841	53,08
689,03	-8,36
689,22	34,64
689,41	-10,41
689,599	46,93
689,789	-8,36
689,979	22,36
690,168	14,17
690,358	-0,17
690,547	5,97
690,737	30,55
690,926	73,56
691,116	-8,36
691,305	5,97
691,495	10,07
691,684	-43,18
691,874	51,03
692,063	14,17
692,252	-98,47
692,442	3,93
692,631	34,64
692,82	8,02
693,01	34,64
693,199	51,03
693,388	-8,36
693,578	-10,41
693,767	63,32
693,956	-43,18
694,146	5,97
694,335	-6,31
694,524	12,12
694,713	28,5
694,902	59,22
695,092	65,36
695,281	16,21
695,47	-59,56
695,659	71,51
695,848	8,02
696,037	44,88
696,226	12,12
696,415	3,93
696,604	79,7
696,793	65,36
696,982	16,21
697,171	30,55
697,36	46,93
697,549	14,17
697,738	-32,94
697,927	-26,79
698,116	30,55
698,305	22,36
698,494	73,56
698,683	34,64
698,872	55,12
699,061	24,4
699,25	-16,55
699,438	42,84
699,627	8,02
699,816	34,64
700,005	34,64
700,193	53,08
700,382	46,93
700,571	5,97
700,76	-26,79
700,948	10,07
701,137	81,75
701,326	26,45
701,514	-43,18
701,703	48,98
701,892	-24,75
702,08	-20,65
702,269	-6,31
702,457	18,26
702,646	-14,51
702,834	104,28
703,023	-67,75
703,212	110,42
703,4	83,8
703,589	-4,27
703,777	8,02
703,965	46,93
704,154	-14,51
704,342	-32,94
704,531	-12,46
704,719	-73,9
704,907	81,75
705,096	51,03
705,284	-82,09
705,472	-51,37
705,661	22,36
705,849	28,5
706,037	20,31
706,226	102,23
706,414	44,88
706,602	32,6
706,79	48,98
706,979	71,51
707,167	32,6
707,355	-22,7
707,543	32,6
707,731	5,97
707,919	-14,51
708,107	24,4
708,296	-4,27
708,484	79,7
708,672	48,98
708,86	1,88
709,048	38,74
709,236	28,5
709,424	36,69
709,612	36,69
709,8	1,88
709,988	57,17
710,176	100,18
710,364	1,88
710,551	22,36
710,739	10,07
710,927	20,31
711,115	40,79
711,303	24,4
711,491	24,4
711,679	-4,27
711,866	57,17
712,054	20,31
712,242	16,21
712,43	-67,75
712,617	-8,36
712,805	51,03
712,993	30,55
713,181	-45,23
713,368	10,07
713,556	3,93
713,744	-0,17
713,931	-20,65
714,119	26,45
714,306	5,97
714,494	8,02
714,682	26,45
714,869	-2,22
715,057	-18,6
715,244	-0,17
715,432	40,79
715,619	-53,42
715,807	18,26
715,994	71,51
716,182	36,69
716,369	24,4
716,556	10,07
716,744	63,32
716,931	46,93
717,119	14,17
717,306	-43,18
717,493	51,03
717,681	-14,51
717,868	26,45
718,055	26,45
718,242	-39,08
718,43	-59,56
718,617	-12,46
718,804	-26,79
718,991	67,41
719,179	51,03
719,366	73,56
719,553	32,6
719,74	8,02
719,927	14,17
720,114	-34,99
720,301	77,65
720,488	40,79
720,676	67,41
720,863	89,94
721,05	-22,7
721,237	-41,13
721,424	-2,22
721,611	73,56
721,798	38,74
721,985	98,13
722,172	1,88
722,358	1,88
722,545	24,4
722,732	1,88
722,919	1,88
723,106	22,36
723,293	30,55
723,48	26,45
723,667	-14,51
723,853	3,93
724,04	-75,95
724,227	-0,17
724,414	36,69
724,6	38,74
724,787	36,69
724,974	18,26
725,161	51,03
725,347	83,8
725,534	26,45
725,72	-51,37
725,907	-0,17
726,094	8,02
726,28	71,51
726,467	16,21
726,653	-43,18
726,84	38,74
727,027	30,55
727,213	38,74
727,4	-12,46
727,586	-26,79
727,773	-30,89
727,959	-20,65
728,145	8,02
728,332	22,36
728,518	20,31
728,705	28,5
728,891	-53,42
729,077	24,4
729,264	-16,55
729,45	3,93
729,636	-22,7
729,823	16,21
730,009	1,88
730,195	38,74
730,382	-6,31
730,568	38,74
730,754	-47,27
730,94	53,08
731,126	-14,51
731,313	38,74
731,499	18,26
731,685	-34,99
731,871	-8,36
732,057	79,7
732,243	34,64
732,429	79,7
732,615	73,56
732,801	-10,41
732,987	-59,56
733,173	5,97
733,359	12,12
733,545	75,6
733,731	55,12
733,917	-24,75
734,103	32,6
734,289	32,6
734,475	12,12
734,661	-34,99
734,847	57,17
735,033	-2,22
735,219	57,17
735,404	24,4
735,59	26,45
735,776	-2,22
735,962	-12,46
736,148	-10,41
736,333	26,45
736,519	59,22
736,705	51,03
736,89	34,64
737,076	1,88
737,262	-10,41
737,447	1,88
737,633	-22,7
737,819	1,88
738,004	34,64
738,19	40,79
738,375	-4,27
738,561	26,45
738,747	14,17
738,932	-2,22
739,118	42,84
739,303	-16,55
739,489	-43,18
739,674	1,88
739,859	16,21
740,045	-14,51
740,23	-41,13
740,416	-24,75
740,601	38,74
740,786	-6,31
740,972	34,64
741,157	38,74
741,342	-0,17
741,528	3,93
741,713	14,17
741,898	46,93
742,084	-39,08
742,269	71,51
742,454	55,12
742,639	-10,41
742,824	67,41
743,01	5,97
743,195	-57,51
743,38	22,36
743,565	67,41
743,75	20,31
743,935	-6,31
744,12	-2,22
744,305	12,12
744,49	-41,13
744,675	14,17
744,86	-10,41
745,045	36,69
745,23	34,64
745,415	-26,79
745,6	24,4
745,785	20,31
745,97	28,5
746,155	-14,51
746,34	79,7
746,525	40,79
746,71	30,55
746,895	46,93
747,079	42,84
747,264	3,93
747,449	55,12
747,634	30,55
747,819	-8,36
748,003	-2,22
748,188	-0,17
748,373	51,03
748,557	-80,04
748,742	-57,51
748,927	14,17
749,111	87,89
749,296	8,02
749,481	40,79
749,665	-75,95
749,85	1,88
750,034	18,26
750,219	-24,75
750,404	-0,17
750,588	-2,22
750,773	-55,47
750,957	30,55
751,141	-22,7
751,326	30,55
751,51	1,88
751,695	-47,27
751,879	1,88
752,064	51,03
752,248	46,93
752,432	18,26
752,617	26,45
752,801	38,74
752,985	18,26
753,17	42,84
753,354	46,93
753,538	16,21
753,722	-24,75
753,907	-14,51
754,091	-37,03
754,275	36,69
754,459	55,12
754,643	36,69
754,828	63,32
755,012	85,84
755,196	18,26
755,38	-75,95
755,564	14,17
755,748	34,64
755,932	59,22
756,116	-20,65
756,3	38,74
756,484	44,88
756,668	-28,84
756,852	-51,37
757,036	30,55
757,22	30,55
757,404	-8,36
757,588	-8,36
757,772	30,55
757,956	22,36
758,14	79,7
758,323	38,74
758,507	26,45
758,691	124,76
758,875	18,26
759,059	81,75
759,242	-14,51
759,426	5,97
759,61	-30,89
759,794	-10,41
759,977	22,36
760,161	-0,17
760,345	-12,46
760,528	32,6
760,712	48,98
760,895	32,6
761,079	-18,6
761,263	10,07
761,446	-8,36
761,63	87,89
761,813	65,36
761,997	42,84
762,18	38,74
762,364	114,52
762,547	30,55
762,731	-39,08
762,914	28,5
763,098	-14,51
763,281	10,07
763,464	18,26
763,648	1,88
763,831	-16,55
764,015	-24,75
764,198	36,69
764,381	3,93
764,564	32,6
764,748	-24,75
764,931	83,8
765,114	12,12
765,297	38,74
765,481	-26,79
765,664	42,84
765,847	-0,17
766,03	63,32
766,213	12,12
766,397	36,69
766,58	28,5
766,763	3,93
766,946	-80,04
767,129	1,88
767,312	-34,99
767,495	5,97
767,678	-26,79
767,861	-18,6
768,044	63,32
768,227	46,93
768,41	-6,31
768,593	53,08
768,776	-8,36
768,959	87,89
769,142	59,22
769,324	71,51
769,507	-34,99
769,69	-2,22
769,873	-51,37
770,056	20,31
770,239	8,02
770,421	-0,17
770,604	-2,22
770,787	63,32
770,97	-6,31
771,152	96,08
771,335	22,36
771,518	63,32
771,7	5,97
771,883	30,55
772,066	-8,36
772,248	63,32
772,431	24,4
772,613	-10,41
772,796	48,98
772,978	18,26
773,161	10,07
773,343	71,51
773,526	1,88
773,708	3,93
773,891	65,36
774,073	53,08
774,256	-12,46
774,438	10,07
774,621	26,45
774,803	48,98
774,985	-26,79
775,168	46,93
775,35	24,4
775,532	38,74
775,715	16,21
775,897	20,31
776,079	-45,23
776,261	73,56
776,444	40,79
776,626	36,69
776,808	-28,84
776,99	-6,31
777,173	32,6
777,355	96,08
777,537	-39,08
777,719	57,17
777,901	3,93
778,083	-2,22
778,265	55,12
778,447	28,5
778,629	16,21
778,811	10,07
778,993	28,5
779,175	48,98
779,357	-37,03
779,539	-63,66
779,721	40,79
779,903	10,07
780,085	16,21
780,267	26,45
780,449	67,41
780,631	-26,79
780,812	40,79
780,994	32,6
781,176	20,31
781,358	-24,75
781,54	-39,08
781,721	8,02
781,903	1,88
782,085	-10,41
782,267	59,22
782,448	-22,7
782,63	12,12
782,812	-18,6
782,993	20,31
783,175	28,5
783,357	10,07
783,538	8,02
783,72	-49,32
783,901	-10,41
784,083	-28,84
784,264	-20,65
784,446	-22,7
784,627	8,02
784,809	-14,51
784,99	22,36
785,172	20,31
785,353	32,6
785,535	8,02
785,716	-10,41
785,897	57,17
786,079	48,98
786,26	75,6
786,441	16,21
786,623	14,17
786,804	32,6
786,985	55,12
787,167	24,4
787,348	42,84
787,529	-16,55
787,71	71,51
787,891	-18,6
788,073	-2,22
788,254	12,12
788,435	48,98
788,616	53,08
788,797	-14,51
788,978	18,26
789,159	-6,31
789,34	1,88
789,522	71,51
789,703	40,79
789,884	-24,75
790,065	24,4
790,246	5,97
790,427	-88,23
790,607	10,07
790,788	16,21
790,969	14,17
791,15	26,45
791,331	16,21
791,512	-8,36
791,693	22,36
791,874	-26,79
792,054	-6,31
792,235	67,41
792,416	12,12
792,597	51,03
792,778	87,89
792,958	-24,75
793,139	-14,51
793,32	30,55
793,5	-10,41
793,681	-2,22
793,862	-22,7
794,042	-18,6
794,223	-10,41
794,404	63,32
794,584	-6,31
794,765	87,89
794,945	-6,31
795,126	-2,22
795,306	10,07
795,487	-24,75
795,667	-30,89
795,848	46,93
796,028	124,76
796,209	1,88
796,389	38,74
796,57	71,51
796,75	-20,65
796,93	100,18
797,111	-12,46
797,291	-32,94
797,471	44,88
797,652	-20,65
797,832	40,79
798,012	24,4
798,192	5,97
798,373	14,17
798,553	38,74
798,733	51,03
798,913	12,12
799,093	-8,36
799,274	-12,46
799,454	-2,22
799,634	-45,23
799,814	61,27
799,994	-30,89
800,174	-73,9
800,354	24,4
800,534	85,84
800,714	48,98
800,894	38,74
801,074	-43,18
801,254	-34,99
801,434	20,31
801,614	-14,51
801,794	-0,17
801,974	122,71
802,154	10,07
802,334	20,31
802,514	-43,18
802,693	53,08
802,873	48,98
803,053	114,52
803,233	-94,38
803,413	20,31
803,592	-47,27
803,772	34,64
803,952	24,4
804,131	16,21
804,311	67,41
804,491	38,74
804,67	16,21
804,85	-45,23
805,03	24,4
805,209	16,21
805,389	-10,41
805,568	5,97
805,748	48,98
805,928	12,12
806,107	-26,79
806,287	40,79
806,466	14,17
806,646	-10,41
806,825	-67,75
807,004	12,12
807,184	14,17
807,363	83,8
807,543	48,98
807,722	-10,41
807,901	42,84
808,081	1,88
808,26	8,02
808,439	-67,75
808,619	40,79
808,798	14,17
808,977	26,45
809,156	-6,31
809,336	-24,75
809,515	46,93
809,694	16,21
809,873	69,46
810,052	-90,28
810,231	30,55
810,411	79,7
810,59	-84,14
810,769	16,21
810,948	-16,55
811,127	28,5
811,306	14,17
811,485	55,12
811,664	71,51
811,843	-12,46
812,022	24,4
812,201	63,32
812,38	53,08
812,559	46,93
812,737	51,03
812,916	79,7
813,095	18,26
813,274	22,36
813,453	30,55
813,632	10,07
813,811	67,41
813,989	-47,27
814,168	-4,27
814,347	46,93
814,526	-43,18
814,704	10,07
814,883	38,74
815,062	18,26
815,24	30,55
815,419	57,17
815,598	44,88
815,776	16,21
815,955	22,36
816,133	8,02
816,312	14,17
816,49	-63,66
816,669	8,02
816,847	67,41
817,026	-10,41
817,204	38,74
817,383	-2,22
817,561	-10,41
817,74	-18,6
817,918	-63,66
818,097	-32,94
818,275	-24,75
818,453	-20,65
818,632	71,51
818,81	5,97
818,988	30,55
819,167	40,79
819,345	-57,51
819,523	79,7
819,701	61,27
819,879	57,17
820,058	51,03
820,236	38,74
820,414	16,21
820,592	5,97
820,77	3,93
820,948	-8,36
821,127	-16,55
821,305	51,03
821,483	63,32
821,661	87,89
821,839	5,97
822,017	22,36
822,195	32,6
822,373	30,55
822,551	48,98
822,729	-8,36
822,907	-39,08
823,085	30,55
823,262	-26,79
823,44	12,12
823,618	5,97
823,796	-32,94
823,974	-59,56
824,152	-6,31
824,329	-10,41
824,507	-8,36
824,685	14,17
824,863	-10,41
825,04	38,74
825,218	14,17
825,396	-10,41
825,574	-43,18
825,751	-10,41
825,929	38,74
826,107	3,93
826,284	24,4
826,462	-24,75
826,639	14,17
826,817	59,22
826,994	-18,6
827,172	61,27
827,349	26,45
827,527	-43,18
827,704	46,93
827,882	1,88
828,059	46,93
828,237	8,02
828,414	22,36
828,591	30,55
828,769	51,03
828,946	5,97
829,124	79,7
829,301	36,69
829,478	87,89
829,655	-10,41
829,833	-30,89
830,01	14,17
830,187	55,12
830,364	16,21
830,542	46,93
830,719	59,22
830,896	18,26
831,073	-6,31
831,25	32,6
831,427	22,36
831,604	34,64
831,782	-6,31
831,959	46,93
832,136	16,21
832,313	-12,46
832,49	-67,75
832,667	77,65
832,844	51,03
833,021	-18,6
833,198	24,4
833,374	51,03
833,551	-20,65
833,728	46,93
833,905	28,5
834,082	-8,36
834,259	-59,56
834,436	24,4
834,612	-34,99
834,789	-0,17
834,966	10,07
835,143	-2,22
835,319	18,26
835,496	48,98
835,673	22,36
835,85	63,32
836,026	-20,65
836,203	71,51
836,38	65,36
836,556	16,21
836,733	42,84
836,909	40,79
837,086	-18,6
837,262	14,17
837,439	16,21
837,616	12,12
837,792	14,17
837,968	46,93
838,145	32,6
838,321	-20,65
838,498	44,88
838,674	5,97
838,851	38,74
839,027	22,36
839,203	5,97
839,38	24,4
839,556	85,84
839,732	38,74
839,909	-47,27
840,085	73,56
840,261	61,27
840,437	16,21
840,614	8,02
840,79	38,74
840,966	40,79
841,142	77,65
841,318	-16,55
841,494	24,4
841,671	-32,94
841,847	48,98
842,023	118,61
842,199	38,74
842,375	-8,36
842,551	46,93
842,727	-41,13
842,903	20,31
843,079	-24,75
843,255	36,69
843,431	38,74
843,607	16,21
843,783	28,5
843,959	-2,22
844,134	-8,36
844,31	16,21
844,486	38,74
844,662	55,12
844,838	-61,61
845,013	-14,51
845,189	-20,65
845,365	44,88
845,541	63,32
845,716	-10,41
845,892	75,6
846,068	22,36
846,244	8,02
846,419	-24,75
846,595	-24,75
846,77	59,22
846,946	55,12
847,122	14,17
847,297	-8,36
847,473	-34,99
847,648	22,36
847,824	-32,94
847,999	8,02
848,175	-0,17
848,35	12,12
848,526	14,17
848,701	-73,9
848,876	14,17
849,052	14,17
849,227	89,94
849,403	1,88
849,578	14,17
849,753	-2,22
849,929	14,17
850,104	48,98
850,279	-123,05
850,454	-4,27
850,63	-2,22
850,805	34,64
850,98	44,88
851,155	55,12
851,33	16,21
851,505	8,02
851,681	-32,94
851,856	26,45
852,031	1,88
852,206	-24,75
852,381	20,31
852,556	5,97
852,731	-18,6
852,906	22,36
853,081	-26,79
853,256	5,97
853,431	22,36
853,606	46,93
853,781	-82,09
853,956	5,97
854,131	22,36
854,305	-24,75
854,48	32,6
854,655	20,31
854,83	-43,18
855,005	-8,36
855,18	59,22
855,354	18,26
855,529	32,6
855,704	24,4
855,879	-55,47
856,053	-53,42
856,228	-14,51
856,403	-28,84
856,577	32,6
856,752	65,36
856,926	-8,36
857,101	-49,32
857,276	71,51
857,45	30,55
857,625	18,26
857,799	-16,55
857,974	26,45
858,148	12,12
858,323	53,08
858,497	59,22
858,672	-2,22
858,846	18,26
859,02	-30,89
859,195	42,84
859,369	26,45
859,543	-26,79
859,718	12,12
859,892	61,27
860,066	38,74
860,241	34,64
860,415	32,6
860,589	-37,03
860,763	-41,13
860,938	10,07
861,112	24,4
861,286	30,55
861,46	30,55
861,634	5,97
861,808	30,55
861,982	10,07
862,157	8,02
862,331	53,08
862,505	-41,13
862,679	-67,75
862,853	-41,13
863,027	10,07
863,201	-14,51
863,375	40,79
863,549	-2,22
863,722	1,88
863,896	-10,41
864,07	-4,27
864,244	-4,27
864,418	-6,31
864,592	-16,55
864,766	-37,03
864,939	59,22
865,113	-14,51
865,287	51,03
865,461	67,41
865,634	104,28
865,808	-0,17
865,982	-18,6
866,156	-16,55
866,329	-8,36
866,503	42,84
866,676	-26,79
866,85	-18,6
867,024	44,88
867,197	32,6
867,371	46,93
867,544	14,17
867,718	26,45
867,891	55,12
868,065	-10,41
868,238	-55,47
868,412	34,64
868,585	-0,17
868,759	81,75
868,932	55,12
869,105	67,41
869,279	79,7
869,452	44,88
869,625	-20,65
869,799	-34,99
869,972	-22,7
870,145	32,6
870,319	5,97
870,492	-26,79
870,665	8,02
870,838	-100,52
871,011	73,56
871,185	5,97
871,358	40,79
871,531	-57,51
871,704	24,4
871,877	8,02
872,05	67,41
872,223	83,8
872,396	-18,6
872,569	26,45
872,742	57,17
872,915	10,07
873,088	26,45
873,261	-24,75
873,434	5,97
873,607	-0,17
873,78	5,97
873,953	46,93
874,126	16,21
874,299	67,41
874,471	-71,85
874,644	14,17
874,817	14,17
874,99	32,6
875,163	30,55
875,335	30,55
875,508	10,07
875,681	63,32
875,853	-4,27
876,026	-8,36
876,199	42,84
876,371	10,07
876,544	51,03
876,717	-32,94
876,889	44,88
877,062	57,17
877,234	36,69
877,407	-47,27
877,579	57,17
877,752	48,98
877,924	-26,79
878,097	59,22
878,269	14,17
878,442	-49,32
878,614	14,17
878,786	46,93
878,959	10,07
879,131	55,12
879,303	1,88
879,476	5,97
879,648	46,93
879,82	38,74
879,993	24,4
880,165	14,17
880,337	18,26
880,509	1,88
880,681	38,74
880,854	-2,22
881,026	55,12
881,198	69,46
881,37	38,74
881,542	69,46
881,714	-12,46
881,886	-32,94
882,058	38,74
882,23	-18,6
882,402	-37,03
882,574	34,64
882,746	-26,79
882,918	-22,7
883,09	36,69
883,262	83,8
883,434	20,31
883,606	-8,36
883,778	-0,17
883,95	24,4
884,122	24,4
884,293	36,69
884,465	-6,31
884,637	14,17
884,809	-14,51
884,98	55,12
885,152	-18,6
885,324	1,88
885,496	18,26
885,667	-32,94
885,839	12,12
886,011	102,23
886,182	-8,36
886,354	5,97
886,525	51,03
886,697	57,17
886,869	67,41
887,04	-30,89
887,212	10,07
887,383	42,84
887,555	-14,51
887,726	14,17
887,897	-73,9
888,069	40,79
888,24	1,88
888,412	51,03
888,583	30,55
888,754	-18,6
888,926	-24,75
889,097	96,08
889,268	-59,56
889,44	89,94
889,611	-0,17
889,782	-2,22
889,953	14,17
890,125	67,41
890,296	-12,46
890,467	59,22
890,638	8,02
890,809	108,37
890,98	28,5
891,151	1,88
891,323	46,93
891,494	-2,22
891,665	30,55
891,836	38,74
892,007	59,22
892,178	44,88
892,349	71,51
892,52	8,02
892,691	22,36
892,862	-10,41
893,032	-2,22
893,203	22,36
893,374	-22,7
893,545	55,12
893,716	38,74
893,887	44,88
894,057	10,07
894,228	20,31
894,399	-8,36
894,57	26,45
894,74	-2,22
894,911	14,17
895,082	38,74
895,253	44,88
895,423	-37,03
895,594	59,22
895,764	-26,79
895,935	-24,75
896,106	34,64
896,276	3,93
896,447	63,32
896,617	-2,22
896,788	34,64
896,958	-24,75
897,129	-63,66
897,299	22,36
897,47	22,36
897,64	30,55
897,81	55,12
897,981	-26,79
898,151	61,27
898,322	67,41
898,492	-8,36
898,662	-49,32
898,832	55,12
899,003	12,12
899,173	-92,33
899,343	55,12
899,513	18,26
