Data from filtre580_USB4F104151__6__11-53-55-517.txt Node

Date: Wed Apr 15 11:53:55 EDT 2026
User: LaboPhy
Spectrometer: USB4F10415
Trigger mode: 4
Integration Time (sec): 5,000000E-3
Scans to average: 1
Electric dark correction enabled: true
Nonlinearity correction enabled: false
Boxcar width: 0
XAxis mode: Wavelengths
Number of Pixels in Spectrum: 3648
>>>>>Begin Spectral Data<<<<<
178,204	-53,08
178,424	-53,08
178,644	-53,08
178,864	-8,02
179,084	-69,46
179,304	-51,03
179,524	59,56
179,744	-8,02
179,964	-22,36
180,184	-55,12
180,404	26,79
180,624	-1,88
180,844	14,51
181,064	2,22
181,283	26,79
181,503	-18,26
181,723	26,79
181,943	-51,03
182,163	20,65
182,383	-3,93
182,602	26,79
182,822	-32,6
183,042	26,79
183,262	-16,21
183,482	-63,32
183,701	30,89
183,921	18,6
184,141	-59,22
184,361	16,55
184,58	4,27
184,8	30,89
185,02	-32,6
185,239	-20,31
185,459	-26,45
185,679	49,32
185,898	0,17
186,118	-44,88
186,338	20,65
186,557	-20,31
186,777	-20,31
186,997	37,03
187,216	-53,08
187,436	-14,17
187,655	37,03
187,875	98,47
188,095	-104,28
188,314	-55,12
188,534	-18,26
188,753	-59,22
188,973	4,27
189,192	45,23
189,412	10,41
189,631	34,99
189,851	-48,98
190,07	-10,07
190,29	-67,41
190,509	-30,55
190,729	28,84
190,948	-34,64
191,168	14,51
191,387	-20,31
191,607	-5,97
191,826	8,36
192,045	-20,31
192,265	18,6
192,484	4,27
192,704	41,13
192,923	-53,08
193,142	-10,07
193,362	43,18
193,581	-26,45
193,8	-5,97
194,02	-5,97
194,239	-34,64
194,458	37,03
194,678	14,51
194,897	28,84
195,116	2,22
195,335	-12,12
195,555	71,85
195,774	82,09
195,993	-51,03
196,212	32,94
196,432	49,32
196,651	-14,17
196,87	-1,88
197,089	-5,97
197,308	12,46
197,528	118,95
197,747	-36,69
197,966	47,27
198,185	6,31
198,404	8,36
198,623	-12,12
198,842	94,38
199,062	-36,69
199,281	12,46
199,5	75,95
199,719	-14,17
199,938	-104,28
200,157	-22,36
200,376	12,46
200,595	-14,17
200,814	-24,4
201,033	-22,36
201,252	-53,08
201,471	-16,21
201,69	43,18
201,909	18,6
202,128	-91,99
202,347	53,42
202,566	-5,97
202,785	-30,55
203,004	22,7
203,223	12,46
203,442	32,94
203,661	32,94
203,879	28,84
204,098	0,17
204,317	-69,46
204,536	71,85
204,755	-96,08
204,974	41,13
205,193	20,65
205,411	-42,84
205,63	49,32
205,849	24,75
206,068	-36,69
206,287	43,18
206,505	34,99
206,724	26,79
206,943	4,27
207,162	-3,93
207,381	-16,21
207,599	-14,17
207,818	-67,41
208,037	67,75
208,255	-26,45
208,474	-14,17
208,693	-1,88
208,911	22,7
209,13	45,23
209,349	-36,69
209,567	77,99
209,786	-1,88
210,005	37,03
210,223	10,41
210,442	-3,93
210,661	6,31
210,879	-36,69
211,098	-48,98
211,316	-16,21
211,535	-22,36
211,753	10,41
211,972	55,47
212,191	0,17
212,409	34,99
212,628	51,37
212,846	20,65
213,065	-10,07
213,283	0,17
213,502	26,79
213,72	45,23
213,938	71,85
214,157	-14,17
214,375	-14,17
214,594	2,22
214,812	2,22
215,031	-18,26
215,249	-42,84
215,467	-14,17
215,686	-14,17
215,904	39,08
216,122	22,7
216,341	2,22
216,559	2,22
216,778	-20,31
216,996	2,22
217,214	55,47
217,432	49,32
217,651	2,22
217,869	12,46
218,087	53,42
218,306	-20,31
218,524	28,84
218,742	-63,32
218,96	-1,88
219,179	-32,6
219,397	26,79
219,615	55,47
219,833	-57,17
220,051	-36,69
220,27	84,14
220,488	-53,08
220,706	10,41
220,924	20,65
221,142	-10,07
221,36	-12,12
221,578	4,27
221,796	-44,88
222,015	26,79
222,233	34,99
222,451	22,7
222,669	-28,5
222,887	0,17
223,105	-10,07
223,323	22,7
223,541	6,31
223,759	63,66
223,977	-10,07
224,195	-55,12
224,413	-5,97
224,631	37,03
224,849	6,31
225,067	12,46
225,285	28,84
225,503	28,84
225,721	-10,07
225,939	-22,36
226,157	-36,69
226,375	30,89
226,592	-53,08
226,81	-36,69
227,028	-42,84
227,246	32,94
227,464	-57,17
227,682	28,84
227,9	20,65
228,117	2,22
228,335	-20,31
228,553	-57,17
228,771	-98,13
228,989	14,51
229,206	-44,88
229,424	18,6
229,642	-79,7
229,86	-16,21
230,077	2,22
230,295	34,99
230,513	-5,97
230,731	8,36
230,948	34,99
231,166	26,79
231,384	-77,65
231,601	51,37
231,819	28,84
232,037	-53,08
232,254	8,36
232,472	20,65
232,689	-5,97
232,907	45,23
233,125	39,08
233,342	0,17
233,56	-12,12
233,777	-16,21
233,995	65,71
234,213	-34,64
234,43	-44,88
234,648	14,51
234,865	6,31
235,083	-38,74
235,3	67,75
235,518	39,08
235,735	-26,45
235,953	-16,21
236,17	-91,99
236,388	-48,98
236,605	6,31
236,822	45,23
237,04	2,22
237,257	12,46
237,475	-20,31
237,692	-3,93
237,909	59,56
238,127	-10,07
238,344	-55,12
238,562	34,99
238,779	10,41
238,996	-46,93
239,214	45,23
239,431	-16,21
239,648	-10,07
239,865	-36,69
240,083	37,03
240,3	-73,56
240,517	2,22
240,735	10,41
240,952	-12,12
241,169	-3,93
241,386	-30,55
241,603	14,51
241,821	63,66
242,038	-3,93
242,255	-18,26
242,472	55,47
242,689	-1,88
242,907	6,31
243,124	0,17
243,341	37,03
243,558	51,37
243,775	-1,88
243,992	-12,12
244,209	-96,08
244,426	28,84
244,643	45,23
244,86	2,22
245,078	51,37
245,295	39,08
245,512	55,47
245,729	2,22
245,946	18,6
246,163	-20,31
246,38	59,56
246,597	34,99
246,814	14,51
247,031	67,75
247,248	-5,97
247,464	-26,45
247,681	-5,97
247,898	-3,93
248,115	-1,88
248,332	-55,12
248,549	-63,32
248,766	4,27
248,983	-77,65
249,2	20,65
249,417	43,18
249,633	55,47
249,85	-20,31
250,067	-14,17
250,284	-44,88
250,501	10,41
250,717	61,61
250,934	59,56
251,151	-14,17
251,368	-3,93
251,585	55,47
251,801	-79,7
252,018	32,94
252,235	90,28
252,451	28,84
252,668	-26,45
252,885	39,08
253,102	-44,88
253,318	14,51
253,535	-3,93
253,752	-12,12
253,968	-5,97
254,185	12,46
254,401	34,99
254,618	10,41
254,835	37,03
255,051	16,55
255,268	49,32
255,484	-24,4
255,701	-28,5
255,917	-16,21
256,134	45,23
256,351	20,65
256,567	10,41
256,784	-26,45
257	-59,22
257,217	59,56
257,433	-48,98
257,65	-36,69
257,866	-14,17
258,082	-55,12
258,299	14,51
258,515	-28,5
258,732	-26,45
258,948	2,22
259,165	-22,36
259,381	-53,08
259,597	12,46
259,814	6,31
260,03	-10,07
260,246	-3,93
260,463	30,89
260,679	84,14
260,895	-42,84
261,112	14,51
261,328	55,47
261,544	-5,97
261,761	18,6
261,977	0,17
262,193	-34,64
262,409	65,71
262,626	20,65
262,842	45,23
263,058	-14,17
263,274	28,84
263,49	-44,88
263,707	43,18
263,923	88,23
264,139	-3,93
264,355	-32,6
264,571	34,99
264,787	-40,79
265,004	2,22
265,22	14,51
265,436	59,56
265,652	-32,6
265,868	-87,89
266,084	-44,88
266,3	8,36
266,516	-48,98
266,732	-12,12
266,948	51,37
267,164	-22,36
267,38	51,37
267,596	-18,26
267,812	-44,88
268,028	-8,02
268,244	-61,27
268,46	43,18
268,676	0,17
268,892	-40,79
269,108	39,08
269,324	-8,02
269,54	6,31
269,756	-26,45
269,972	-22,36
270,188	53,42
270,403	-5,97
270,619	26,79
270,835	-5,97
271,051	28,84
271,267	-12,12
271,483	-44,88
271,698	-3,93
271,914	18,6
272,13	12,46
272,346	-38,74
272,562	63,66
272,777	24,75
272,993	-30,55
273,209	-20,31
273,425	-24,4
273,64	41,13
273,856	6,31
274,072	28,84
274,287	20,65
274,503	26,79
274,719	55,47
274,934	127,14
275,15	-20,31
275,366	-8,02
275,581	18,6
275,797	-20,31
276,012	2,22
276,228	0,17
276,444	47,27
276,659	-26,45
276,875	20,65
277,09	34,99
277,306	-51,03
277,521	-30,55
277,737	18,6
277,952	-18,26
278,168	2,22
278,383	28,84
278,599	-30,55
278,814	106,67
279,03	2,22
279,245	-18,26
279,461	-30,55
279,676	34,99
279,892	6,31
280,107	-40,79
280,322	-87,89
280,538	10,41
280,753	12,46
280,969	45,23
281,184	10,41
281,399	69,8
281,615	22,7
281,83	-5,97
282,045	57,51
282,26	26,79
282,476	0,17
282,691	80,04
282,906	10,41
283,122	12,46
283,337	-24,4
283,552	41,13
283,767	24,75
283,983	20,65
284,198	-28,5
284,413	77,99
284,628	4,27
284,843	28,84
285,058	73,9
285,274	10,41
285,489	10,41
285,704	-34,64
285,919	10,41
286,134	59,56
286,349	-53,08
286,564	6,31
286,779	-14,17
286,995	10,41
287,21	-26,45
287,425	53,42
287,64	0,17
287,855	-10,07
288,07	14,51
288,285	-20,31
288,5	8,36
288,715	41,13
288,93	63,66
289,145	12,46
289,36	-57,17
289,575	34,99
289,79	22,7
290,004	-14,17
290,219	30,89
290,434	-42,84
290,649	-28,5
290,864	43,18
291,079	34,99
291,294	-10,07
291,509	12,46
291,724	43,18
291,938	4,27
292,153	6,31
292,368	-20,31
292,583	4,27
292,798	-3,93
293,012	37,03
293,227	6,31
293,442	41,13
293,657	-10,07
293,871	-46,93
294,086	-14,17
294,301	-10,07
294,516	41,13
294,73	43,18
294,945	20,65
295,16	-24,4
295,374	-55,12
295,589	24,75
295,804	-38,74
296,018	-5,97
296,233	-34,64
296,447	86,19
296,662	-28,5
296,877	-22,36
297,091	28,84
297,306	26,79
297,52	0,17
297,735	59,56
297,949	0,17
298,164	63,66
298,378	28,84
298,593	16,55
298,807	-20,31
299,022	18,6
299,236	-8,02
299,451	24,75
299,665	84,14
299,88	-20,31
300,094	-16,21
300,309	28,84
300,523	-10,07
300,737	4,27
300,952	0,17
301,166	18,6
301,381	20,65
301,595	6,31
301,809	65,71
302,024	-53,08
302,238	16,55
302,452	-59,22
302,667	20,65
302,881	-38,74
303,095	43,18
303,309	26,79
303,524	-5,97
303,738	-44,88
303,952	34,99
304,166	-53,08
304,381	18,6
304,595	2,22
304,809	43,18
305,023	2,22
305,237	12,46
305,452	-59,22
305,666	-10,07
305,88	53,42
306,094	-53,08
306,308	-8,02
306,522	0,17
306,736	41,13
306,95	-28,5
307,164	-18,26
307,379	-5,97
307,593	-22,36
307,807	28,84
308,021	24,75
308,235	59,56
308,449	37,03
308,663	41,13
308,877	57,51
309,091	-1,88
309,305	-5,97
309,519	-5,97
309,733	-38,74
309,947	-5,97
310,161	10,41
310,374	-20,31
310,588	26,79
310,802	-28,5
311,016	-10,07
311,23	-5,97
311,444	71,85
311,658	24,75
311,872	18,6
312,085	-32,6
312,299	-30,55
312,513	2,22
312,727	59,56
312,941	-32,6
313,154	-28,5
313,368	61,61
313,582	16,55
313,796	-5,97
314,009	94,38
314,223	4,27
314,437	-22,36
314,651	2,22
314,864	-53,08
315,078	10,41
315,292	2,22
315,505	12,46
315,719	53,42
315,933	-34,64
316,146	-55,12
316,36	-14,17
316,573	6,31
316,787	-44,88
317,001	-14,17
317,214	-14,17
317,428	-40,79
317,641	-30,55
317,855	-8,02
318,068	18,6
318,282	18,6
318,495	-104,28
318,709	-30,55
318,922	-3,93
319,136	37,03
319,349	12,46
319,563	-73,56
319,776	18,6
319,99	26,79
320,203	10,41
320,417	77,99
320,63	14,51
320,843	-40,79
321,057	43,18
321,27	0,17
321,483	-5,97
321,697	61,61
321,91	-42,84
322,124	12,46
322,337	-10,07
322,55	-5,97
322,763	108,71
322,977	-18,26
323,19	6,31
323,403	59,56
323,617	20,65
323,83	28,84
324,043	69,8
324,256	45,23
324,469	-5,97
324,683	12,46
324,896	6,31
325,109	-22,36
325,322	-22,36
325,535	30,89
325,748	-28,5
325,962	22,7
326,175	12,46
326,388	34,99
326,601	67,75
326,814	0,17
327,027	-8,02
327,24	69,8
327,453	49,32
327,666	-24,4
327,879	-5,97
328,092	59,56
328,305	45,23
328,518	-63,32
328,731	-24,4
328,944	41,13
329,157	-75,6
329,37	-42,84
329,583	2,22
329,796	-55,12
330,009	-22,36
330,222	45,23
330,435	59,56
330,648	43,18
330,861	10,41
331,073	22,7
331,286	-53,08
331,499	-59,22
331,712	-16,21
331,925	45,23
332,138	55,47
332,35	55,47
332,563	-20,31
332,776	63,66
332,989	-30,55
333,202	2,22
333,414	51,37
333,627	-30,55
333,84	24,75
334,053	-1,88
334,265	-30,55
334,478	-22,36
334,691	-8,02
334,903	-10,07
335,116	-1,88
335,329	-5,97
335,541	2,22
335,754	34,99
335,966	10,41
336,179	-14,17
336,392	-10,07
336,604	-20,31
336,817	-3,93
337,029	32,94
337,242	16,55
337,454	-34,64
337,667	-38,74
337,88	-55,12
338,092	-8,02
338,305	14,51
338,517	-42,84
338,729	49,32
338,942	18,6
339,154	18,6
339,367	-71,51
339,579	49,32
339,792	-32,6
340,004	73,9
340,217	-42,84
340,429	-48,98
340,641	-28,5
340,854	12,46
341,066	-48,98
341,278	20,65
341,491	43,18
341,703	53,42
341,915	8,36
342,128	53,42
342,34	-14,17
342,552	-26,45
342,764	43,18
342,977	-24,4
343,189	-10,07
343,401	-14,17
343,613	18,6
343,826	-14,17
344,038	0,17
344,25	-14,17
344,462	10,41
344,674	-26,45
344,886	12,46
345,099	-34,64
345,311	10,41
345,523	-5,97
345,735	-42,84
345,947	32,94
346,159	-110,42
346,371	18,6
346,583	-46,93
346,795	24,75
347,007	10,41
347,219	28,84
347,431	26,79
347,643	-5,97
347,855	-46,93
348,067	12,46
348,279	32,94
348,491	61,61
348,703	-22,36
348,915	12,46
349,127	-30,55
349,339	26,79
349,551	16,55
349,763	20,65
349,975	-42,84
350,187	-8,02
350,399	10,41
350,61	10,41
350,822	-30,55
351,034	-30,55
351,246	28,84
351,458	24,75
351,669	12,46
351,881	34,99
352,093	2,22
352,305	-75,6
352,517	16,55
352,728	2,22
352,94	-5,97
353,152	28,84
353,363	-20,31
353,575	51,37
353,787	55,47
353,999	10,41
354,21	18,6
354,422	-24,4
354,633	-30,55
354,845	2,22
355,057	-26,45
355,268	-55,12
355,48	30,89
355,692	-14,17
355,903	55,47
356,115	-48,98
356,326	39,08
356,538	32,94
356,749	28,84
356,961	-53,08
357,172	-20,31
357,384	20,65
357,595	-10,07
357,807	-59,22
358,018	-24,4
358,23	-3,93
358,441	-12,12
358,653	-46,93
358,864	43,18
359,075	43,18
359,287	32,94
359,498	20,65
359,709	43,18
359,921	18,6
360,132	-53,08
360,344	47,27
360,555	-16,21
360,766	-12,12
360,977	16,55
361,189	10,41
361,4	0,17
361,611	-22,36
361,823	-26,45
362,034	10,41
362,245	57,51
362,456	12,46
362,667	18,6
362,879	-20,31
363,09	-38,74
363,301	26,79
363,512	-1,88
363,723	41,13
363,935	16,55
364,146	26,79
364,357	6,31
364,568	-46,93
364,779	-61,27
364,99	51,37
365,201	24,75
365,412	34,99
365,623	-30,55
365,834	10,41
366,045	30,89
366,256	10,41
366,467	0,17
366,678	-36,69
366,889	-10,07
367,1	12,46
367,311	-3,93
367,522	-3,93
367,733	12,46
367,944	41,13
368,155	-3,93
368,366	53,42
368,577	-28,5
368,788	-30,55
368,999	-48,98
369,209	10,41
369,42	-44,88
369,631	10,41
369,842	-20,31
370,053	51,37
370,264	-22,36
370,474	77,99
370,685	-30,55
370,896	10,41
371,107	37,03
371,317	-1,88
371,528	12,46
371,739	-59,22
371,95	41,13
372,16	6,31
372,371	49,32
372,582	-28,5
372,792	0,17
373,003	-12,12
373,214	-32,6
373,424	-73,56
373,635	-14,17
373,846	2,22
374,056	-34,64
374,267	-42,84
374,477	47,27
374,688	20,65
374,898	-38,74
375,109	-44,88
375,319	-63,32
375,53	6,31
375,74	6,31
375,951	47,27
376,161	32,94
376,372	-30,55
376,582	-40,79
376,793	20,65
377,003	-32,6
377,214	-14,17
377,424	16,55
377,635	-46,93
377,845	-36,69
378,055	-18,26
378,266	-32,6
378,476	2,22
378,686	-22,36
378,897	4,27
379,107	39,08
379,317	63,66
379,528	14,51
379,738	14,51
379,948	-16,21
380,158	-1,88
380,369	-48,98
380,579	-24,4
380,789	39,08
380,999	8,36
381,21	26,79
381,42	2,22
381,63	26,79
381,84	24,75
382,05	61,61
382,261	8,36
382,471	8,36
382,681	-34,64
382,891	8,36
383,101	37,03
383,311	-48,98
383,521	-46,93
383,731	-30,55
383,941	14,51
384,151	30,89
384,361	-24,4
384,571	26,79
384,781	-14,17
384,991	28,84
385,201	45,23
385,411	-30,55
385,621	-1,88
385,831	-36,69
386,041	63,66
386,251	-12,12
386,461	16,55
386,671	-5,97
386,881	10,41
387,091	39,08
387,301	-20,31
387,511	-26,45
387,72	51,37
387,93	-51,03
388,14	12,46
388,35	-59,22
388,56	-3,93
388,769	-34,64
388,979	-46,93
389,189	-16,21
389,399	47,27
389,609	20,65
389,818	-1,88
390,028	-22,36
390,238	59,56
390,447	-73,56
390,657	67,75
390,867	34,99
391,076	92,33
391,286	20,65
391,496	80,04
391,705	-14,17
391,915	-3,93
392,125	-46,93
392,334	18,6
392,544	2,22
392,753	12,46
392,963	-1,88
393,172	47,27
393,382	55,47
393,591	34,99
393,801	-44,88
394,01	-30,55
394,22	-30,55
394,429	20,65
394,639	-20,31
394,848	26,79
395,058	14,51
395,267	-8,02
395,477	-57,17
395,686	-30,55
395,895	37,03
396,105	2,22
396,314	-12,12
396,524	-24,4
396,733	-22,36
396,942	92,33
397,152	-30,55
397,361	67,75
397,57	-44,88
397,78	-69,46
397,989	-18,26
398,198	-5,97
398,407	14,51
398,617	-5,97
398,826	-40,79
399,035	-22,36
399,244	49,32
399,453	37,03
399,663	28,84
399,872	-16,21
400,081	39,08
400,29	-24,4
400,499	-38,74
400,708	24,75
400,917	47,27
401,127	-5,97
401,336	-38,74
401,545	-36,69
401,754	22,7
401,963	24,75
402,172	49,32
402,381	16,55
402,59	16,55
402,799	14,51
403,008	41,13
403,217	-55,12
403,426	10,41
403,635	-16,21
403,844	-53,08
404,053	4,27
404,262	0,17
404,471	-10,07
404,68	-79,7
404,888	-36,69
405,097	-42,84
405,306	-3,93
405,515	82,09
405,724	26,79
405,933	-20,31
406,142	-12,12
406,35	-36,69
406,559	20,65
406,768	37,03
406,977	88,23
407,185	-1,88
407,394	8,36
407,603	-94,04
407,812	43,18
408,02	-44,88
408,229	39,08
408,438	18,6
408,646	-1,88
408,855	-12,12
409,064	-8,02
409,272	82,09
409,481	-3,93
409,69	-14,17
409,898	-61,27
410,107	-65,36
410,315	26,79
410,524	-40,79
410,733	18,6
410,941	12,46
411,15	10,41
411,358	18,6
411,567	0,17
411,775	37,03
411,984	-12,12
412,192	8,36
412,401	47,27
412,609	-36,69
412,818	8,36
413,026	41,13
413,234	-28,5
413,443	57,51
413,651	-3,93
413,86	43,18
414,068	-26,45
414,276	18,6
414,485	-59,22
414,693	-28,5
414,901	-12,12
415,11	-8,02
415,318	51,37
415,526	-34,64
415,734	6,31
415,943	77,99
416,151	10,41
416,359	-8,02
416,567	-10,07
416,776	12,46
416,984	55,47
417,192	6,31
417,4	-8,02
417,608	-5,97
417,817	73,9
418,025	10,41
418,233	-38,74
418,441	-16,21
418,649	-26,45
418,857	-38,74
419,065	84,14
419,273	-55,12
419,481	-8,02
419,689	30,89
419,897	53,42
420,105	-10,07
420,313	43,18
420,521	-5,97
420,729	-3,93
420,937	-100,18
421,145	51,37
421,353	14,51
421,561	-22,36
421,769	18,6
421,977	16,55
422,185	6,31
422,393	-26,45
422,601	22,7
422,809	10,41
423,017	16,55
423,224	-1,88
423,432	55,47
423,64	-14,17
423,848	47,27
424,056	26,79
424,263	61,61
424,471	22,7
424,679	-32,6
424,887	30,89
425,094	-12,12
425,302	-36,69
425,51	-30,55
425,718	14,51
425,925	10,41
426,133	-32,6
426,341	110,76
426,548	59,56
426,756	22,7
426,964	45,23
427,171	16,55
427,379	20,65
427,586	-5,97
427,794	32,94
428,001	14,51
428,209	59,56
428,417	-51,03
428,624	14,51
428,832	-65,36
429,039	-10,07
429,247	34,99
429,454	-8,02
429,662	28,84
429,869	-5,97
430,076	-96,08
430,284	-48,98
430,491	63,66
430,699	55,47
430,906	20,65
431,114	102,57
431,321	-83,8
431,528	-1,88
431,736	24,75
431,943	-24,4
432,15	-36,69
432,358	-3,93
432,565	51,37
432,772	67,75
432,979	-1,88
433,187	-26,45
433,394	-20,31
433,601	43,18
433,808	32,94
434,016	41,13
434,223	-22,36
434,43	-12,12
434,637	-46,93
434,844	26,79
435,052	-20,31
435,259	65,71
435,466	-3,93
435,673	-59,22
435,88	-26,45
436,087	-26,45
436,294	69,8
436,501	-48,98
436,708	57,51
436,915	88,23
437,122	41,13
437,329	-14,17
437,537	41,13
437,743	30,89
437,95	-130,9
438,157	-20,31
438,364	80,04
438,571	-36,69
438,778	43,18
438,985	-5,97
439,192	28,84
439,399	8,36
439,606	-3,93
439,813	18,6
440,02	-12,12
440,227	-1,88
440,433	20,65
440,64	-14,17
440,847	-46,93
441,054	63,66
441,261	-8,02
441,467	4,27
441,674	-3,93
441,881	96,43
442,088	14,51
442,294	6,31
442,501	-3,93
442,708	2,22
442,914	-34,64
443,121	51,37
443,328	34,99
443,534	14,51
443,741	37,03
443,948	-14,17
444,154	32,94
444,361	30,89
444,568	-3,93
444,774	-51,03
444,981	8,36
445,187	4,27
445,394	34,99
445,6	-1,88
445,807	-42,84
446,013	-40,79
446,22	-10,07
446,426	14,51
446,633	4,27
446,839	2,22
447,046	-3,93
447,252	-55,12
447,459	6,31
447,665	-32,6
447,871	65,71
448,078	34,99
448,284	14,51
448,491	57,51
448,697	12,46
448,903	-10,07
449,11	-18,26
449,316	2,22
449,522	-5,97
449,728	-75,6
449,935	39,08
450,141	24,75
450,347	32,94
450,553	24,75
450,76	-44,88
450,966	22,7
451,172	37,03
451,378	-30,55
451,584	-38,74
451,791	43,18
451,997	26,79
452,203	-5,97
452,409	49,32
452,615	0,17
452,821	10,41
453,027	-5,97
453,233	-3,93
453,44	69,8
453,646	-10,07
453,852	20,65
454,058	-3,93
454,264	47,27
454,47	20,65
454,676	-5,97
454,882	10,41
455,088	-5,97
455,294	-55,12
455,5	49,32
455,705	-34,64
455,911	61,61
456,117	-20,31
456,323	-24,4
456,529	28,84
456,735	8,36
456,941	0,17
457,147	34,99
457,352	20,65
457,558	-5,97
457,764	37,03
457,97	-8,02
458,176	37,03
458,381	-3,93
458,587	32,94
458,793	-12,12
458,999	-3,93
459,204	-3,93
459,41	-26,45
459,616	84,14
459,821	28,84
460,027	26,79
460,233	71,85
460,438	4,27
460,644	43,18
460,85	16,55
461,055	34,99
461,261	22,7
461,466	43,18
461,672	12,46
461,878	-71,51
462,083	39,08
462,289	59,56
462,494	43,18
462,7	-5,97
462,905	18,6
463,111	14,51
463,316	18,6
463,522	14,51
463,727	4,27
463,932	-38,74
464,138	12,46
464,343	10,41
464,549	20,65
464,754	59,56
464,959	0,17
465,165	75,95
465,37	0,17
465,575	59,56
465,781	67,75
465,986	-3,93
466,191	-44,88
466,397	4,27
466,602	26,79
466,807	-36,69
467,012	-22,36
467,218	-24,4
467,423	-16,21
467,628	30,89
467,833	2,22
468,038	-10,07
468,244	-8,02
468,449	16,55
468,654	4,27
468,859	-38,74
469,064	8,36
469,269	10,41
469,474	20,65
469,679	-55,12
469,885	6,31
470,09	39,08
470,295	51,37
470,5	18,6
470,705	18,6
470,91	51,37
471,115	-22,36
471,32	22,7
471,525	12,46
471,73	-36,69
471,935	37,03
472,139	6,31
472,344	12,46
472,549	10,41
472,754	22,7
472,959	14,51
473,164	22,7
473,369	2,22
473,574	12,46
473,778	28,84
473,983	-12,12
474,188	-22,36
474,393	0,17
474,598	34,99
474,802	39,08
475,007	100,52
475,212	-79,7
475,417	39,08
475,621	-3,93
475,826	37,03
476,031	2,22
476,235	-34,64
476,44	-20,31
476,645	63,66
476,849	18,6
477,054	12,46
477,259	53,42
477,463	34,99
477,668	47,27
477,872	0,17
478,077	14,51
478,282	26,79
478,486	-22,36
478,691	-20,31
478,895	84,14
479,1	59,56
479,304	-5,97
479,509	0,17
479,713	-18,26
479,918	4,27
480,122	20,65
480,326	34,99
480,531	-16,21
480,735	53,42
480,94	-59,22
481,144	6,31
481,348	-38,74
481,553	6,31
481,757	-59,22
481,961	-20,31
482,166	53,42
482,37	-24,4
482,574	-14,17
482,778	-28,5
482,983	-30,55
483,187	-22,36
483,391	-83,8
483,595	-30,55
483,8	-10,07
484,004	30,89
484,208	4,27
484,412	53,42
484,616	67,75
484,821	57,51
485,025	2,22
485,229	-10,07
485,433	26,79
485,637	18,6
485,841	84,14
486,045	51,37
486,249	32,94
486,453	69,8
486,657	67,75
486,861	51,37
487,065	-44,88
487,269	24,75
487,473	67,75
487,677	4,27
487,881	12,46
488,085	-1,88
488,289	28,84
488,493	12,46
488,697	41,13
488,901	-8,02
489,105	20,65
489,309	6,31
489,512	2,22
489,716	24,75
489,92	-48,98
490,124	-12,12
490,328	-20,31
490,531	-3,93
490,735	55,47
490,939	-10,07
491,143	-12,12
491,346	41,13
491,55	41,13
491,754	-10,07
491,958	8,36
492,161	16,55
492,365	-14,17
492,569	86,19
492,772	67,75
492,976	0,17
493,18	63,66
493,383	-1,88
493,587	-44,88
493,79	4,27
493,994	2,22
494,197	53,42
494,401	26,79
494,605	-14,17
494,808	39,08
495,012	67,75
495,215	32,94
495,419	10,41
495,622	-10,07
495,825	18,6
496,029	2,22
496,232	-14,17
496,436	-3,93
496,639	-3,93
496,843	-12,12
497,046	28,84
497,249	20,65
497,453	34,99
497,656	-46,93
497,859	10,41
498,063	63,66
498,266	18,6
498,469	26,79
498,673	34,99
498,876	6,31
499,079	-1,88
499,282	63,66
499,485	-3,93
499,689	14,51
499,892	14,51
500,095	10,41
500,298	20,65
500,501	20,65
500,705	-40,79
500,908	-20,31
501,111	2,22
501,314	26,79
501,517	41,13
501,72	-22,36
501,923	-3,93
502,126	32,94
502,329	-46,93
502,532	6,31
502,735	-3,93
502,938	22,7
503,141	10,41
503,344	-1,88
503,547	-3,93
503,75	75,95
503,953	-55,12
504,156	125,1
504,359	18,6
504,562	43,18
504,765	57,51
504,968	20,65
505,17	-55,12
505,373	45,23
505,576	-44,88
505,779	-30,55
505,982	53,42
506,185	-44,88
506,387	-34,64
506,59	28,84
506,793	-28,5
506,996	4,27
507,198	8,36
507,401	34,99
507,604	-14,17
507,807	80,04
508,009	8,36
508,212	-14,17
508,415	41,13
508,617	-20,31
508,82	6,31
509,022	59,56
509,225	45,23
509,428	-5,97
509,63	-57,17
509,833	63,66
510,035	8,36
510,238	18,6
510,44	2,22
510,643	-1,88
510,845	-36,69
511,048	-65,36
511,25	34,99
511,453	26,79
511,655	37,03
511,858	2,22
512,06	61,61
512,262	-24,4
512,465	51,37
512,667	96,43
512,87	-1,88
513,072	2,22
513,274	-14,17
513,477	43,18
513,679	-79,7
513,881	-20,31
514,084	14,51
514,286	26,79
514,488	53,42
514,69	63,66
514,893	-3,93
515,095	-34,64
515,297	-28,5
515,499	92,33
515,701	28,84
515,904	77,99
516,106	65,71
516,308	61,61
516,51	39,08
516,712	43,18
516,914	20,65
517,116	26,79
517,318	8,36
517,52	-32,6
517,722	34,99
517,925	-75,6
518,127	14,51
518,329	-57,17
518,531	51,37
518,733	34,99
518,935	-40,79
519,136	26,79
519,338	-46,93
519,54	59,56
519,742	-135
519,944	32,94
520,146	-24,4
520,348	-16,21
520,55	47,27
520,752	-22,36
520,954	-36,69
521,155	28,84
521,357	22,7
521,559	10,41
521,761	28,84
521,963	16,55
522,164	102,57
522,366	37,03
522,568	-53,08
522,77	34,99
522,971	12,46
523,173	16,55
523,375	12,46
523,576	34,99
523,778	-61,27
523,98	-12,12
524,181	26,79
524,383	28,84
524,584	10,41
524,786	14,51
524,988	26,79
525,189	-42,84
525,391	26,79
525,592	26,79
525,794	47,27
525,995	20,65
526,197	-26,45
526,398	10,41
526,6	10,41
526,801	-18,26
527,003	-30,55
527,204	61,61
527,406	-1,88
527,607	-79,7
527,808	20,65
528,01	-3,93
528,211	37,03
528,412	22,7
528,614	-10,07
528,815	12,46
529,016	24,75
529,218	-38,74
529,419	39,08
529,62	53,42
529,822	71,85
530,023	63,66
530,224	75,95
530,425	2,22
530,626	61,61
530,828	2,22
531,029	-63,32
531,23	18,6
531,431	37,03
531,632	-71,51
531,833	22,7
532,035	4,27
532,236	67,75
532,437	-3,93
532,638	37,03
532,839	-28,5
533,04	30,89
533,241	47,27
533,442	10,41
533,643	90,28
533,844	-53,08
534,045	43,18
534,246	-46,93
534,447	49,32
534,648	0,17
534,849	-5,97
535,05	10,41
535,251	-14,17
535,451	-5,97
535,652	4,27
535,853	-30,55
536,054	22,7
536,255	6,31
536,456	-5,97
536,657	51,37
536,857	-14,17
537,058	2,22
537,259	80,04
537,46	65,71
537,66	-34,64
537,861	24,75
538,062	2,22
538,263	0,17
538,463	20,65
538,664	26,79
538,865	-5,97
539,065	10,41
539,266	96,43
539,466	28,84
539,667	26,79
539,868	22,7
540,068	-30,55
540,269	51,37
540,469	123,05
540,67	12,46
540,87	47,27
541,071	-20,31
541,271	43,18
541,472	28,84
541,672	-3,93
541,873	96,43
542,073	-20,31
542,274	10,41
542,474	32,94
542,675	14,51
542,875	43,18
543,075	-38,74
543,276	-28,5
543,476	-1,88
543,676	28,84
543,877	84,14
544,077	63,66
544,277	-22,36
544,478	-16,21
544,678	47,27
544,878	-63,32
545,078	20,65
545,279	61,61
545,479	47,27
545,679	-18,26
545,879	84,14
546,079	63,66
546,28	28,84
546,48	-14,17
546,68	-30,55
546,88	84,14
547,08	24,75
547,28	73,9
547,48	-12,12
547,68	34,99
547,88	34,99
548,081	26,79
548,281	-1,88
548,481	-94,04
548,681	10,41
548,881	-16,21
549,081	-12,12
549,28	-38,74
549,48	0,17
549,68	-5,97
549,88	94,38
550,08	-38,74
550,28	4,27
550,48	86,19
550,68	-1,88
550,88	-44,88
551,08	-40,79
551,279	-1,88
551,479	0,17
551,679	-44,88
551,879	28,84
552,079	75,95
552,278	30,89
552,478	34,99
552,678	6,31
552,878	-3,93
553,077	-3,93
553,277	47,27
553,477	39,08
553,676	24,75
553,876	39,08
554,076	2,22
554,275	0,17
554,475	20,65
554,674	26,79
554,874	30,89
555,074	55,47
555,273	45,23
555,473	114,86
555,672	-51,03
555,872	57,51
556,071	16,55
556,271	10,41
556,47	100,52
556,67	34,99
556,869	67,75
557,068	110,76
557,268	12,46
557,467	6,31
557,667	8,36
557,866	-36,69
558,065	34,99
558,265	20,65
558,464	45,23
558,663	-20,31
558,863	43,18
559,062	55,47
559,261	-38,74
559,461	-30,55
559,66	16,55
559,859	59,56
560,058	20,65
560,258	26,79
560,457	49,32
560,656	51,37
560,855	86,19
561,054	22,7
561,253	28,84
561,453	104,62
561,652	69,8
561,851	106,67
562,05	45,23
562,249	-5,97
562,448	106,67
562,647	22,7
562,846	55,47
563,045	159,91
563,244	133,29
563,443	135,34
563,642	2,22
563,841	98,47
564,04	94,38
564,239	94,38
564,438	75,95
564,637	-12,12
564,836	90,28
565,035	67,75
565,234	-20,31
565,432	86,19
565,631	153,77
565,83	141,48
566,029	104,62
566,228	96,43
566,427	84,14
566,625	26,79
566,824	69,8
567,023	53,42
567,222	73,9
567,42	34,99
567,619	151,72
567,818	143,53
568,016	100,52
568,215	135,34
568,414	112,81
568,612	178,34
568,811	200,87
569,01	127,14
569,208	161,96
569,407	186,54
569,605	186,54
569,804	194,73
570,002	209,06
570,201	192,68
570,4	331,94
570,598	350,37
570,797	403,62
570,995	440,48
571,193	424,1
571,392	577,7
571,59	645,28
571,789	632,99
571,987	733,34
572,186	932
572,384	893,09
572,582	1190,04
572,781	1333,4
572,979	1487
573,177	1747,09
573,376	2150,54
573,574	2640
573,772	3106,94
573,971	3721,33
574,169	4196,46
574,367	5105,76
574,565	6262,86
574,763	7694,39
574,962	9250,85
575,16	11409,4
575,358	13623,26
575,556	16052,15
575,754	18980,75
575,952	22292,31
576,151	26046,24
576,349	29581,03
576,547	33664,68
576,745	37250,67
576,943	40265,28
577,141	43474,45
577,339	45790,7
577,537	47982,03
577,735	49925,55
577,933	51109,28
578,131	52864,39
578,329	53605,75
578,527	54154,61
578,725	55205,22
578,923	56139,09
579,121	55741,78
579,319	56585,55
579,516	57326,91
579,714	57568,57
579,912	57541,95
580,11	57812,28
580,308	58551,6
580,506	59188,52
580,704	58166,58
580,901	59907,35
581,099	60079,38
581,297	60009,75
581,495	59759,9
581,692	60644,62
581,89	60257,56
582,088	60765,45
582,285	60650,77
582,483	61224,2
582,681	60896,52
582,878	60470,54
583,076	60339,47
583,274	60058,9
583,471	58570,03
583,669	57988,41
583,866	55840,09
584,064	54777,19
584,262	51412,38
584,459	49628,6
584,657	46020,08
584,854	42843,68
585,052	38145,64
585,249	35024,53
585,447	31030,99
585,644	27477,77
585,841	24274,74
586,039	21129,06
586,236	17901,47
586,434	15531,97
586,631	13283,3
586,828	11329,53
587,026	9578,52
587,223	8095,79
587,42	6821,95
587,618	5859,41
587,815	4974,69
588,012	4098,16
588,21	3655,79
588,407	3137,66
588,604	2558,08
588,801	2271,37
588,999	1853,58
589,196	1718,42
589,393	1472,66
589,59	1243,29
589,787	1071,26
589,984	960,67
590,182	829,6
590,379	733,34
590,576	655,52
590,773	567,46
590,97	428,2
591,167	518,31
591,364	481,44
591,561	401,57
591,758	407,72
591,955	290,98
592,152	338,09
592,349	227,5
592,546	233,64
592,743	250,02
592,94	231,59
593,137	151,72
593,334	213,16
593,531	184,49
593,727	153,77
593,924	149,67
594,121	159,91
594,318	166,06
594,515	75,95
594,712	114,86
594,908	116,9
595,105	75,95
595,302	121
595,499	125,1
595,696	71,85
595,892	39,08
596,089	116,9
596,286	-5,97
596,482	61,61
596,679	77,99
596,876	127,14
597,072	55,47
597,269	41,13
597,466	12,46
597,662	96,43
597,859	88,23
598,055	100,52
598,252	43,18
598,448	71,85
598,645	59,56
598,841	96,43
599,038	30,89
599,234	84,14
599,431	92,33
599,627	-14,17
599,824	80,04
600,02	118,95
600,217	49,32
600,413	100,52
600,609	26,79
600,806	102,57
601,002	90,28
601,198	32,94
601,395	67,75
601,591	-1,88
601,787	86,19
601,984	-42,84
602,18	-30,55
602,376	57,51
602,572	94,38
602,769	2,22
602,965	6,31
603,161	51,37
603,357	-5,97
603,553	45,23
603,75	100,52
603,946	55,47
604,142	43,18
604,338	59,56
604,534	24,75
604,73	57,51
604,926	67,75
605,122	69,8
605,318	-36,69
605,514	77,99
605,71	37,03
605,906	26,79
606,102	26,79
606,298	-18,26
606,494	2,22
606,69	2,22
606,886	-5,97
607,082	34,99
607,278	-94,04
607,474	55,47
607,67	-20,31
607,866	-20,31
608,062	12,46
608,257	39,08
608,453	-20,31
608,649	2,22
608,845	30,89
609,041	30,89
609,236	-38,74
609,432	2,22
609,628	-32,6
609,824	2,22
610,019	2,22
610,215	41,13
610,411	26,79
610,606	43,18
610,802	-42,84
610,998	49,32
611,193	28,84
611,389	53,42
611,584	-12,12
611,78	30,89
611,976	59,56
612,171	0,17
612,367	12,46
612,562	-12,12
612,758	61,61
612,953	14,51
613,149	24,75
613,344	2,22
613,539	-28,5
613,735	-1,88
613,93	-10,07
614,126	-20,31
614,321	-26,45
614,517	18,6
614,712	-85,84
614,907	43,18
615,103	-48,98
615,298	77,99
615,493	26,79
615,688	-42,84
615,884	51,37
616,079	34,99
616,274	-8,02
616,47	-12,12
616,665	37,03
616,86	86,19
617,055	-30,55
617,25	-38,74
617,445	37,03
617,641	12,46
617,836	-5,97
618,031	-5,97
618,226	43,18
618,421	22,7
618,616	-30,55
618,811	18,6
619,006	2,22
619,201	90,28
619,396	82,09
619,591	6,31
619,786	22,7
619,981	8,36
620,176	-20,31
620,371	26,79
620,566	-46,93
620,761	-14,17
620,956	10,41
621,151	34,99
621,346	4,27
621,541	32,94
621,735	-34,64
621,93	77,99
622,125	43,18
622,32	28,84
622,515	53,42
622,709	6,31
622,904	30,89
623,099	80,04
623,294	-1,88
623,488	84,14
623,683	67,75
623,878	-16,21
624,072	49,32
624,267	43,18
624,462	-1,88
624,656	45,23
624,851	37,03
625,046	-3,93
625,24	43,18
625,435	45,23
625,629	37,03
625,824	4,27
626,018	82,09
626,213	20,65
626,407	-5,97
626,602	-8,02
626,796	67,75
626,991	28,84
627,185	-34,64
627,38	34,99
627,574	-12,12
627,768	28,84
627,963	10,41
628,157	-18,26
628,352	-55,12
628,546	24,75
628,74	12,46
628,935	61,61
629,129	-22,36
629,323	18,6
629,517	-14,17
629,712	-3,93
629,906	37,03
630,1	28,84
630,294	-1,88
630,489	67,75
630,683	26,79
630,877	6,31
631,071	-10,07
631,265	43,18
631,459	26,79
631,653	16,55
631,848	-28,5
632,042	-24,4
632,236	41,13
632,43	51,37
632,624	-32,6
632,818	30,89
633,012	14,51
633,206	71,85
633,4	30,89
633,594	4,27
633,788	49,32
633,982	20,65
634,176	-22,36
634,369	-12,12
634,563	30,89
634,757	-12,12
634,951	0,17
635,145	20,65
635,339	-51,03
635,533	10,41
635,726	4,27
635,92	28,84
636,114	14,51
636,308	-16,21
636,501	-44,88
636,695	26,79
636,889	-32,6
637,083	69,8
637,276	6,31
637,47	-20,31
637,664	47,27
637,857	-32,6
638,051	-14,17
638,244	34,99
638,438	20,65
638,632	-12,12
638,825	20,65
639,019	4,27
639,212	-12,12
639,406	-8,02
639,599	34,99
639,793	45,23
639,986	16,55
640,18	30,89
640,373	18,6
640,567	-40,79
640,76	-28,5
640,954	39,08
641,147	43,18
641,34	-22,36
641,534	-8,02
641,727	30,89
641,92	16,55
642,114	57,51
642,307	108,71
642,5	45,23
642,694	4,27
642,887	34,99
643,08	8,36
643,273	6,31
643,467	34,99
643,66	-42,84
643,853	18,6
644,046	37,03
644,239	-22,36
644,432	-10,07
644,626	-22,36
644,819	51,37
645,012	34,99
645,205	34,99
645,398	6,31
645,591	-26,45
645,784	-85,84
645,977	8,36
646,17	-22,36
646,363	75,95
646,556	-32,6
646,749	59,56
646,942	-63,32
647,135	71,85
647,328	18,6
647,521	-34,64
647,714	22,7
647,907	71,85
648,099	18,6
648,292	61,61
648,485	47,27
648,678	55,47
648,871	-38,74
649,064	43,18
649,256	-14,17
649,449	-38,74
649,642	-8,02
649,835	53,42
650,027	14,51
650,22	-42,84
650,413	-73,56
650,605	-3,93
650,798	-28,5
650,991	-14,17
651,183	14,51
651,376	-3,93
651,568	18,6
651,761	-3,93
651,954	45,23
652,146	-34,64
652,339	-28,5
652,531	43,18
652,724	-59,22
652,916	88,23
653,109	22,7
653,301	-3,93
653,494	-8,02
653,686	41,13
653,879	59,56
654,071	-32,6
654,263	16,55
654,456	-3,93
654,648	-1,88
654,84	-40,79
655,033	-14,17
655,225	53,42
655,417	10,41
655,61	6,31
655,802	-5,97
655,994	24,75
656,186	18,6
656,379	26,79
656,571	-16,21
656,763	10,41
656,955	12,46
657,148	14,51
657,34	-3,93
657,532	67,75
657,724	-1,88
657,916	92,33
658,108	16,55
658,3	-46,93
658,492	6,31
658,684	57,51
658,876	-5,97
659,068	47,27
659,26	2,22
659,452	47,27
659,644	26,79
659,836	12,46
660,028	12,46
660,22	6,31
660,412	14,51
660,604	14,51
660,796	39,08
660,988	16,55
661,18	12,46
661,372	-61,27
661,563	18,6
661,755	-12,12
661,947	-30,55
662,139	18,6
662,331	12,46
662,522	-16,21
662,714	-55,12
662,906	20,65
663,097	0,17
663,289	34,99
663,481	6,31
663,673	-46,93
663,864	-14,17
664,056	69,8
664,247	-61,27
664,439	14,51
664,631	39,08
664,822	22,7
665,014	-57,17
665,205	-3,93
665,397	-77,65
665,588	-22,36
665,78	49,32
665,971	84,14
666,163	57,51
666,354	10,41
666,546	-40,79
666,737	43,18
666,929	-1,88
667,12	-51,03
667,311	59,56
667,503	43,18
667,694	49,32
667,885	-10,07
668,077	-30,55
668,268	-42,84
668,459	20,65
668,651	8,36
668,842	-30,55
669,033	22,7
669,224	-26,45
669,416	75,95
669,607	-34,64
669,798	88,23
669,989	2,22
670,18	65,71
670,371	4,27
670,563	-14,17
670,754	59,56
670,945	-12,12
671,136	26,79
671,327	12,46
671,518	37,03
671,709	37,03
671,9	6,31
672,091	30,89
672,282	-5,97
672,473	0,17
672,664	-38,74
672,855	10,41
673,046	34,99
673,237	14,51
673,428	55,47
673,619	18,6
673,809	32,94
674	47,27
674,191	65,71
674,382	0,17
674,573	75,95
674,764	39,08
674,954	80,04
675,145	0,17
675,336	-1,88
675,527	67,75
675,717	-3,93
675,908	14,51
676,099	51,37
676,289	8,36
676,48	-34,64
676,671	18,6
676,861	10,41
677,052	39,08
677,243	2,22
677,433	-28,5
677,624	4,27
677,814	39,08
678,005	-14,17
678,195	8,36
678,386	-36,69
678,576	-28,5
678,767	0,17
678,957	18,6
679,148	22,7
679,338	32,94
679,529	26,79
679,719	-5,97
679,909	2,22
680,1	20,65
680,29	-14,17
680,481	-18,26
680,671	-10,07
680,861	24,75
681,052	-46,93
681,242	-20,31
681,432	-14,17
681,622	-26,45
681,813	-10,07
682,003	-14,17
682,193	12,46
682,383	-12,12
682,573	-8,02
682,764	90,28
682,954	-3,93
683,144	-14,17
683,334	-71,51
683,524	22,7
683,714	-18,26
683,904	-8,02
684,094	-51,03
684,284	18,6
684,474	-26,45
684,664	45,23
684,854	47,27
685,044	-36,69
685,234	20,65
685,424	63,66
685,614	-3,93
685,804	-53,08
685,994	-30,55
686,184	2,22
686,374	2,22
686,564	26,79
686,753	-22,36
686,943	-16,21
687,133	-5,97
687,323	-20,31
687,513	-42,84
687,702	-8,02
687,892	2,22
688,082	2,22
688,272	-20,31
688,461	34,99
688,651	55,47
688,841	6,31
689,03	24,75
689,22	14,51
689,41	8,36
689,599	55,47
689,789	-12,12
689,979	37,03
690,168	-18,26
690,358	37,03
690,547	-14,17
690,737	-1,88
690,926	4,27
691,116	57,51
691,305	-38,74
691,495	18,6
691,684	18,6
691,874	-12,12
692,063	-20,31
692,252	10,41
692,442	-30,55
692,631	-51,03
692,82	-46,93
693,01	-40,79
693,199	24,75
693,388	34,99
693,578	-24,4
693,767	-30,55
693,956	57,51
694,146	45,23
694,335	-5,97
694,524	24,75
694,713	6,31
694,902	84,14
695,092	-79,7
695,281	49,32
695,47	-5,97
695,659	22,7
695,848	-10,07
696,037	24,75
696,226	28,84
696,415	-22,36
696,604	65,71
696,793	14,51
696,982	-1,88
697,171	6,31
697,36	39,08
697,549	45,23
697,738	8,36
697,927	18,6
698,116	-1,88
698,305	-26,45
698,494	20,65
698,683	2,22
698,872	-51,03
699,061	20,65
699,25	-30,55
699,438	-65,36
699,627	2,22
699,816	-28,5
700,005	-22,36
700,193	14,51
700,382	34,99
700,571	-22,36
700,76	-102,23
700,948	-53,08
701,137	20,65
701,326	18,6
701,514	-36,69
701,703	43,18
701,892	6,31
702,08	-14,17
702,269	-20,31
702,457	28,84
702,646	-5,97
702,834	37,03
703,023	14,51
703,212	-30,55
703,4	43,18
703,589	-53,08
703,777	-1,88
703,965	8,36
704,154	-22,36
704,342	14,51
704,531	-67,41
704,719	84,14
704,907	-36,69
705,096	-3,93
705,284	-46,93
705,472	-53,08
705,661	-5,97
705,849	-5,97
706,037	43,18
706,226	-51,03
706,414	-65,36
706,602	-30,55
706,79	-1,88
706,979	18,6
707,167	10,41
707,355	32,94
707,543	18,6
707,731	18,6
707,919	10,41
708,107	-10,07
708,296	2,22
708,484	-18,26
708,672	-71,51
708,86	-30,55
709,048	12,46
709,236	-3,93
709,424	-34,64
709,612	-22,36
709,8	53,42
709,988	37,03
710,176	49,32
710,364	6,31
710,551	2,22
710,739	32,94
710,927	-5,97
711,115	-40,79
711,303	-5,97
711,491	6,31
711,679	-8,02
711,866	20,65
712,054	-5,97
712,242	32,94
712,43	-22,36
712,617	6,31
712,805	26,79
712,993	-44,88
713,181	2,22
713,368	-46,93
713,556	34,99
713,744	-61,27
713,931	-22,36
714,119	84,14
714,306	-59,22
714,494	41,13
714,682	-5,97
714,869	-34,64
715,057	30,89
715,244	26,79
715,432	-16,21
715,619	-22,36
715,807	-26,45
715,994	65,71
716,182	-34,64
716,369	125,1
716,556	2,22
716,744	43,18
716,931	-51,03
717,119	2,22
717,306	-14,17
717,493	-53,08
717,681	41,13
717,868	-59,22
718,055	53,42
718,242	53,42
718,43	-26,45
718,617	26,79
718,804	-20,31
718,991	61,61
719,179	-10,07
719,366	43,18
719,553	-22,36
719,74	-22,36
719,927	-24,4
720,114	-10,07
720,301	14,51
720,488	-51,03
720,676	26,79
720,863	-5,97
721,05	24,75
721,237	8,36
721,424	2,22
721,611	-61,27
721,798	-34,64
721,985	4,27
722,172	-55,12
722,358	-36,69
722,545	-26,45
722,732	-12,12
722,919	-1,88
723,106	-5,97
723,293	45,23
723,48	10,41
723,667	43,18
723,853	22,7
724,04	-55,12
724,227	-46,93
724,414	28,84
724,6	37,03
724,787	-34,64
724,974	-26,45
725,161	-55,12
725,347	20,65
725,534	59,56
725,72	-28,5
725,907	43,18
726,094	2,22
726,28	-3,93
726,467	96,43
726,653	10,41
726,84	37,03
727,027	8,36
727,213	14,51
727,4	8,36
727,586	26,79
727,773	39,08
727,959	20,65
728,145	43,18
728,332	18,6
728,518	67,75
728,705	4,27
728,891	14,51
729,077	-36,69
729,264	-44,88
729,45	30,89
729,636	0,17
729,823	-38,74
730,009	-36,69
730,195	12,46
730,382	28,84
730,568	-100,18
730,754	-57,17
730,94	16,55
731,126	-24,4
731,313	6,31
731,499	-51,03
731,685	18,6
731,871	-55,12
732,057	-20,31
732,243	26,79
732,429	-5,97
732,615	-20,31
732,801	49,32
732,987	-36,69
733,173	-63,32
733,359	-34,64
733,545	-12,12
733,731	10,41
733,917	-14,17
734,103	-71,51
734,289	16,55
734,475	-3,93
734,661	-18,26
734,847	-44,88
735,033	12,46
735,219	-12,12
735,404	2,22
735,59	-42,84
735,776	-55,12
735,962	-14,17
736,148	24,75
736,333	43,18
736,519	12,46
736,705	-46,93
736,89	47,27
737,076	-63,32
737,262	2,22
737,447	22,7
737,633	-26,45
737,819	-28,5
738,004	45,23
738,19	-22,36
738,375	-55,12
738,561	18,6
738,747	-28,5
738,932	12,46
739,118	53,42
739,303	2,22
739,489	-26,45
739,674	6,31
739,859	-46,93
740,045	-30,55
740,23	4,27
740,416	18,6
740,601	-26,45
740,786	55,47
740,972	-30,55
741,157	16,55
741,342	-18,26
741,528	-51,03
741,713	-12,12
741,898	49,32
742,084	47,27
742,269	28,84
742,454	57,51
742,639	49,32
742,824	-22,36
743,01	12,46
743,195	-38,74
743,38	-14,17
743,565	-3,93
743,75	14,51
743,935	10,41
744,12	59,56
744,305	-12,12
744,49	-18,26
744,675	20,65
744,86	59,56
745,045	-30,55
745,23	32,94
745,415	77,99
745,6	41,13
745,785	34,99
745,97	53,42
746,155	0,17
746,34	37,03
746,525	84,14
746,71	4,27
746,895	51,37
747,079	-104,28
747,264	0,17
747,449	-42,84
747,634	-30,55
747,819	-14,17
748,003	-14,17
748,188	-36,69
748,373	8,36
748,557	-5,97
748,742	-5,97
748,927	-12,12
749,111	-12,12
749,296	39,08
749,481	10,41
749,665	49,32
749,85	-57,17
750,034	-30,55
750,219	18,6
750,404	-108,37
750,588	75,95
750,773	-104,28
750,957	30,89
751,141	24,75
751,326	-18,26
751,51	-14,17
751,695	45,23
751,879	0,17
752,064	-59,22
752,248	-30,55
752,432	69,8
752,617	30,89
752,801	-3,93
752,985	2,22
753,17	26,79
753,354	-69,46
753,538	53,42
753,722	-38,74
753,907	-40,79
754,091	37,03
754,275	14,51
754,459	-38,74
754,643	-20,31
754,828	-46,93
755,012	71,85
755,196	2,22
755,38	-71,51
755,564	-42,84
755,748	43,18
755,932	-3,93
756,116	61,61
756,3	-10,07
756,484	4,27
756,668	-14,17
756,852	-26,45
757,036	51,37
757,22	28,84
757,404	26,79
757,588	-1,88
757,772	-32,6
757,956	75,95
758,14	-40,79
758,323	26,79
758,507	55,47
758,691	-59,22
758,875	-22,36
759,059	12,46
759,242	-5,97
759,426	-3,93
759,61	20,65
759,794	-3,93
759,977	-3,93
760,161	-40,79
760,345	-5,97
760,528	39,08
760,712	-14,17
760,895	14,51
761,079	-16,21
761,263	10,41
761,446	8,36
761,63	43,18
761,813	6,31
761,997	-16,21
762,18	6,31
762,364	53,42
762,547	24,75
762,731	18,6
762,914	24,75
763,098	26,79
763,281	-38,74
763,464	-59,22
763,648	-36,69
763,831	67,75
764,015	16,55
764,198	12,46
764,381	0,17
764,564	28,84
764,748	-22,36
764,931	71,85
765,114	-18,26
765,297	47,27
765,481	80,04
765,664	-30,55
765,847	59,56
766,03	8,36
766,213	-20,31
766,397	-30,55
766,58	-59,22
766,763	20,65
766,946	-69,46
767,129	45,23
767,312	-36,69
767,495	14,51
767,678	-30,55
767,861	12,46
768,044	-51,03
768,227	-34,64
768,41	-3,93
768,593	-36,69
768,776	12,46
768,959	-20,31
769,142	-32,6
769,324	-20,31
769,507	8,36
769,69	-22,36
769,873	34,99
770,056	-42,84
770,239	4,27
770,421	71,85
770,604	-38,74
770,787	53,42
770,97	10,41
771,152	20,65
771,335	51,37
771,518	-10,07
771,7	-46,93
771,883	-55,12
772,066	-55,12
772,248	-20,31
772,431	28,84
772,613	-1,88
772,796	18,6
772,978	-14,17
773,161	22,7
773,343	-34,64
773,526	-14,17
773,708	45,23
773,891	0,17
774,073	-16,21
774,256	-18,26
774,438	-22,36
774,621	-73,56
774,803	18,6
774,985	92,33
775,168	-36,69
775,35	18,6
775,532	67,75
775,715	22,7
775,897	22,7
776,079	-16,21
776,261	-5,97
776,444	-30,55
776,626	-5,97
776,808	-22,36
776,99	-10,07
777,173	-16,21
777,355	-53,08
777,537	-1,88
777,719	20,65
777,901	41,13
778,083	2,22
778,265	6,31
778,447	2,22
778,629	18,6
778,811	71,85
778,993	16,55
779,175	14,51
779,357	-22,36
779,539	-22,36
779,721	2,22
779,903	-12,12
780,085	12,46
780,267	67,75
780,449	47,27
780,631	59,56
780,812	84,14
780,994	47,27
781,176	-38,74
781,358	12,46
781,54	2,22
781,721	22,7
781,903	51,37
782,085	-71,51
782,267	-46,93
782,448	34,99
782,63	-14,17
782,812	26,79
782,993	-1,88
783,175	-85,84
783,357	-22,36
783,538	34,99
783,72	8,36
783,901	-30,55
784,083	-30,55
784,264	-34,64
784,446	-53,08
784,627	100,52
784,809	2,22
784,99	37,03
785,172	18,6
785,353	-71,51
785,535	-40,79
785,716	22,7
785,897	6,31
786,079	45,23
786,26	-30,55
786,441	-63,32
786,623	-48,98
786,804	34,99
786,985	-30,55
787,167	45,23
787,348	4,27
787,529	16,55
787,71	-3,93
787,891	45,23
788,073	26,79
788,254	-36,69
788,435	20,65
788,616	-26,45
788,797	28,84
788,978	84,14
789,159	39,08
789,34	28,84
789,522	-69,46
789,703	30,89
789,884	-16,21
790,065	-20,31
790,246	32,94
790,427	-8,02
790,607	-18,26
790,788	55,47
790,969	-5,97
791,15	16,55
791,331	0,17
791,512	45,23
791,693	73,9
791,874	2,22
792,054	18,6
792,235	-14,17
792,416	-1,88
792,597	63,66
792,778	-5,97
792,958	2,22
793,139	30,89
793,32	-42,84
793,5	16,55
793,681	6,31
793,862	-40,79
794,042	20,65
794,223	2,22
794,404	10,41
794,584	-79,7
794,765	2,22
794,945	-30,55
795,126	88,23
795,306	-28,5
795,487	12,46
795,667	6,31
795,848	28,84
796,028	-8,02
796,209	4,27
796,389	8,36
796,57	47,27
796,75	75,95
796,93	2,22
797,111	-28,5
797,291	-3,93
797,471	34,99
797,652	6,31
797,832	16,55
798,012	-5,97
798,192	-57,17
798,373	-14,17
798,553	28,84
798,733	92,33
798,913	28,84
799,093	2,22
799,274	-94,04
799,454	20,65
799,634	84,14
799,814	67,75
799,994	-28,5
800,174	-12,12
800,354	22,7
800,534	14,51
800,714	-28,5
800,894	43,18
801,074	-26,45
801,254	-10,07
801,434	-3,93
801,614	45,23
801,794	12,46
801,974	84,14
802,154	-30,55
802,334	-5,97
802,514	55,47
802,693	4,27
802,873	-5,97
803,053	41,13
803,233	-34,64
803,413	-32,6
803,592	-5,97
803,772	53,42
803,952	14,51
804,131	32,94
804,311	-12,12
804,491	-3,93
804,67	-8,02
804,85	6,31
805,03	-3,93
805,209	-5,97
805,389	-59,22
805,568	30,89
805,748	-20,31
805,928	18,6
806,107	-46,93
806,287	51,37
806,466	34,99
806,646	32,94
806,825	-63,32
807,004	67,75
807,184	-46,93
807,363	84,14
807,543	-16,21
807,722	12,46
807,901	-3,93
808,081	18,6
808,26	51,37
808,439	8,36
808,619	8,36
808,798	16,55
808,977	2,22
809,156	2,22
809,336	47,27
809,515	30,89
809,694	-3,93
809,873	-46,93
810,052	-12,12
810,231	57,51
810,411	-53,08
810,59	24,75
810,769	30,89
810,948	-8,02
811,127	-34,64
811,306	-20,31
811,485	-3,93
811,664	-16,21
811,843	-57,17
812,022	28,84
812,201	2,22
812,38	-28,5
812,559	-5,97
812,737	55,47
812,916	-22,36
813,095	14,51
813,274	20,65
813,453	30,89
813,632	-36,69
813,811	14,51
813,989	-1,88
814,168	30,89
814,347	28,84
814,526	47,27
814,704	41,13
814,883	26,79
815,062	-26,45
815,24	37,03
815,419	-3,93
815,598	-14,17
815,776	-38,74
815,955	-20,31
816,133	22,7
816,312	90,28
816,49	18,6
816,669	-51,03
816,847	30,89
817,026	12,46
817,204	-14,17
817,383	10,41
817,561	108,71
817,74	-48,98
817,918	-55,12
818,097	14,51
818,275	4,27
818,453	65,71
818,632	-20,31
818,81	-22,36
818,988	12,46
819,167	20,65
819,345	-30,55
819,523	-12,12
819,701	-83,8
819,879	12,46
820,058	-26,45
820,236	30,89
820,414	-20,31
820,592	51,37
820,77	-10,07
820,948	-22,36
821,127	-100,18
821,305	39,08
821,483	-71,51
821,661	-22,36
821,839	-28,5
822,017	-63,32
822,195	0,17
822,373	10,41
822,551	-46,93
822,729	-5,97
822,907	-5,97
823,085	-14,17
823,262	-30,55
823,44	-1,88
823,618	12,46
823,796	-55,12
823,974	98,47
824,152	16,55
824,329	-44,88
824,507	18,6
824,685	12,46
824,863	55,47
825,04	10,41
825,218	26,79
825,396	-71,51
825,574	-16,21
825,751	-12,12
825,929	26,79
826,107	39,08
826,284	14,51
826,462	51,37
826,639	6,31
826,817	-30,55
826,994	-30,55
827,172	22,7
827,349	-26,45
827,527	-32,6
827,704	18,6
827,882	12,46
828,059	37,03
828,237	12,46
828,414	39,08
828,591	-14,17
828,769	12,46
828,946	43,18
829,124	-22,36
829,301	34,99
829,478	57,51
829,655	4,27
829,833	4,27
830,01	39,08
830,187	20,65
830,364	-22,36
830,542	-18,26
830,719	24,75
830,896	30,89
831,073	4,27
831,25	-40,79
831,427	-16,21
831,604	43,18
831,782	-14,17
831,959	8,36
832,136	51,37
832,313	65,71
832,49	-55,12
832,667	-10,07
832,844	6,31
833,021	28,84
833,198	12,46
833,374	34,99
833,551	2,22
833,728	-38,74
833,905	-20,31
834,082	2,22
834,259	-22,36
834,436	-12,12
834,612	12,46
834,789	18,6
834,966	8,36
835,143	18,6
835,319	-55,12
835,496	10,41
835,673	6,31
835,85	16,55
836,026	-67,41
836,203	-14,17
836,38	-34,64
836,556	-5,97
836,733	28,84
836,909	16,55
837,086	20,65
837,262	-44,88
837,439	20,65
837,616	-3,93
837,792	-42,84
837,968	10,41
838,145	-30,55
838,321	67,75
838,498	-44,88
838,674	96,43
838,851	-42,84
839,027	59,56
839,203	26,79
839,38	8,36
839,556	14,51
839,732	4,27
839,909	12,46
840,085	47,27
840,261	-1,88
840,437	2,22
840,614	-14,17
840,79	-16,21
840,966	28,84
841,142	2,22
841,318	-38,74
841,494	43,18
841,671	-36,69
841,847	-40,79
842,023	-61,27
842,199	-18,26
842,375	16,55
842,551	16,55
842,727	14,51
842,903	-24,4
843,079	-22,36
843,255	37,03
843,431	-22,36
843,607	55,47
843,783	-38,74
843,959	-51,03
844,134	-24,4
844,31	34,99
844,486	-3,93
844,662	-44,88
844,838	22,7
845,013	43,18
845,189	-24,4
845,365	-22,36
845,541	26,79
845,716	41,13
845,892	-55,12
846,068	34,99
846,244	-81,75
846,419	12,46
846,595	2,22
846,77	-46,93
846,946	-10,07
847,122	2,22
847,297	0,17
847,473	-28,5
847,648	-16,21
847,824	110,76
847,999	-10,07
848,175	-12,12
848,35	-59,22
848,526	67,75
848,701	-22,36
848,876	-14,17
849,052	-1,88
849,227	0,17
849,403	67,75
849,578	-38,74
849,753	2,22
849,929	63,66
850,104	10,41
850,279	0,17
850,454	-3,93
850,63	51,37
850,805	8,36
850,98	0,17
851,155	2,22
851,33	-14,17
851,505	75,95
851,681	-30,55
851,856	2,22
852,031	12,46
852,206	-5,97
852,381	-20,31
852,556	-55,12
852,731	26,79
852,906	-20,31
853,081	-1,88
853,256	-34,64
853,431	-5,97
853,606	49,32
853,781	-18,26
853,956	45,23
854,131	-46,93
854,305	41,13
854,48	10,41
854,655	37,03
854,83	22,7
855,005	-1,88
855,18	-26,45
855,354	18,6
855,529	53,42
855,704	-16,21
855,879	53,42
856,053	-3,93
856,228	10,41
856,403	22,7
856,577	24,75
856,752	14,51
856,926	37,03
857,101	-18,26
857,276	-1,88
857,45	-12,12
857,625	-8,02
857,799	-8,02
857,974	18,6
858,148	-57,17
858,323	-38,74
858,497	8,36
858,672	14,51
858,846	-75,6
859,02	47,27
859,195	-3,93
859,369	-18,26
859,543	18,6
859,718	-8,02
859,892	-26,45
860,066	12,46
860,241	-22,36
860,415	49,32
860,589	-46,93
860,763	-3,93
860,938	20,65
861,112	2,22
861,286	-10,07
861,46	-14,17
861,634	32,94
861,808	0,17
861,982	4,27
862,157	-8,02
862,331	39,08
862,505	26,79
862,679	-18,26
862,853	6,31
863,027	55,47
863,201	-20,31
863,375	4,27
863,549	26,79
863,722	-3,93
863,896	-32,6
864,07	-102,23
864,244	47,27
864,418	37,03
864,592	-81,75
864,766	2,22
864,939	-14,17
865,113	-59,22
865,287	41,13
865,461	-20,31
865,634	28,84
865,808	-96,08
865,982	45,23
866,156	-5,97
866,329	6,31
866,503	-53,08
866,676	-53,08
866,85	-26,45
867,024	-34,64
867,197	-12,12
867,371	-14,17
867,544	-28,5
867,718	22,7
867,891	30,89
868,065	24,75
868,238	-22,36
868,412	53,42
868,585	-30,55
868,759	-85,84
868,932	51,37
869,105	18,6
869,279	-20,31
869,452	45,23
869,625	10,41
869,799	-34,64
869,972	-22,36
870,145	-16,21
870,319	43,18
870,492	20,65
870,665	2,22
870,838	-14,17
871,011	43,18
871,185	-3,93
871,358	12,46
871,531	69,8
871,704	71,85
871,877	-18,26
872,05	-28,5
872,223	8,36
872,396	-75,6
872,569	2,22
872,742	0,17
872,915	-3,93
873,088	-12,12
873,261	-75,6
873,434	4,27
873,607	30,89
873,78	18,6
873,953	2,22
874,126	32,94
874,299	-24,4
874,471	-51,03
874,644	10,41
874,817	-18,26
874,99	-14,17
875,163	-10,07
875,335	0,17
875,508	-63,32
875,681	80,04
875,853	-30,55
876,026	-53,08
876,199	-12,12
876,371	75,95
876,544	2,22
876,717	86,19
876,889	-67,41
877,062	-3,93
877,234	-10,07
877,407	6,31
877,579	10,41
877,752	26,79
877,924	-22,36
878,097	-30,55
878,269	-5,97
878,442	-34,64
878,614	-73,56
878,786	22,7
878,959	-22,36
879,131	6,31
879,303	-12,12
879,476	-20,31
879,648	37,03
879,82	18,6
879,993	-16,21
880,165	-30,55
880,337	18,6
880,509	-28,5
880,681	-20,31
880,854	-69,46
881,026	-1,88
881,198	37,03
881,37	20,65
881,542	0,17
881,714	18,6
881,886	-18,26
882,058	-5,97
882,23	16,55
882,402	-16,21
882,574	-57,17
882,746	-10,07
882,918	-18,26
883,09	45,23
883,262	-28,5
883,434	-16,21
883,606	18,6
883,778	4,27
883,95	102,57
884,122	26,79
884,293	-20,31
884,465	-24,4
884,637	28,84
884,809	37,03
884,98	24,75
885,152	69,8
885,324	4,27
885,496	-14,17
885,667	-28,5
885,839	-1,88
886,011	-42,84
886,182	-18,26
886,354	-1,88
886,525	-38,74
886,697	22,7
886,869	-38,74
887,04	-42,84
887,212	-14,17
887,383	0,17
887,555	10,41
887,726	-71,51
887,897	47,27
888,069	-42,84
888,24	-61,27
888,412	-42,84
888,583	47,27
888,754	-22,36
888,926	26,79
889,097	30,89
889,268	2,22
889,44	10,41
889,611	-20,31
889,782	37,03
889,953	-18,26
890,125	14,51
890,296	-14,17
890,467	-22,36
890,638	30,89
890,809	51,37
890,98	-10,07
891,151	6,31
891,323	57,51
891,494	39,08
891,665	12,46
891,836	49,32
892,007	10,41
892,178	34,99
892,349	-10,07
892,52	10,41
892,691	30,89
892,862	32,94
893,032	8,36
893,203	6,31
893,374	12,46
893,545	71,85
893,716	18,6
893,887	-5,97
894,057	-53,08
894,228	8,36
894,399	-16,21
894,57	-20,31
894,74	-46,93
894,911	61,61
895,082	-46,93
895,253	39,08
895,423	-32,6
895,594	-8,02
895,764	34,99
895,935	43,18
896,106	-24,4
896,276	-12,12
896,447	-40,79
896,617	-32,6
896,788	-38,74
896,958	32,94
897,129	51,37
897,299	-20,31
897,47	-61,27
897,64	2,22
897,81	-10,07
897,981	-28,5
898,151	-1,88
898,322	20,65
898,492	6,31
898,662	37,03
898,832	-53,08
899,003	4,27
899,173	28,84
899,343	-24,4
899,513	-34,64
