Data from filtre580_USB4F104151__0__11-53-55-427.txt Node

Date: Wed Apr 15 11:53:55 EDT 2026
User: LaboPhy
Spectrometer: USB4F10415
Trigger mode: 4
Integration Time (sec): 5,000000E-3
Scans to average: 1
Electric dark correction enabled: true
Nonlinearity correction enabled: false
Boxcar width: 0
XAxis mode: Wavelengths
Number of Pixels in Spectrum: 3648
>>>>>Begin Spectral Data<<<<<
178,204	5,63
178,424	5,63
178,644	5,63
178,864	-43,52
179,084	13,82
179,304	54,78
179,524	-2,56
179,744	11,78
179,964	9,73
180,184	-33,28
180,404	46,59
180,624	7,68
180,844	-35,33
181,064	-12,8
181,283	-37,38
181,503	-45,57
181,723	36,35
181,943	44,54
182,163	54,78
182,383	-12,8
182,602	-14,85
182,822	22,02
183,042	32,26
183,262	-16,9
183,482	46,59
183,701	32,26
183,921	46,59
184,141	9,73
184,361	-0,51
184,58	3,58
184,8	36,35
185,02	-16,9
185,239	60,93
185,459	36,35
185,679	38,4
185,898	-23,04
186,118	-43,52
186,338	13,82
186,557	7,68
186,777	52,74
186,997	5,63
187,216	-45,57
187,436	11,78
187,655	69,12
187,875	38,4
188,095	-27,14
188,314	-25,09
188,534	52,74
188,753	17,92
188,973	-25,09
189,192	48,64
189,412	56,83
189,631	5,63
189,851	97,79
190,07	48,64
190,29	-18,94
190,509	3,58
190,729	42,5
190,948	71,17
191,168	48,64
191,387	-2,56
191,607	-4,61
191,826	52,74
192,045	1,54
192,265	65,02
192,484	26,11
192,704	11,78
192,923	42,5
193,142	69,12
193,362	11,78
193,581	-33,28
193,8	24,06
194,02	5,63
194,239	15,87
194,458	22,02
194,678	19,97
194,897	15,87
195,116	24,06
195,335	52,74
195,555	-2,56
195,774	5,63
195,993	32,26
196,212	-12,8
196,432	15,87
196,651	40,45
196,87	48,64
197,089	56,83
197,308	-16,9
197,528	58,88
197,747	-25,09
197,966	40,45
198,185	7,68
198,404	77,31
198,623	-12,8
198,842	69,12
199,062	7,68
199,281	93,69
199,5	79,36
199,719	-35,33
199,938	3,58
200,157	22,02
200,376	38,4
200,595	1,54
200,814	52,74
201,033	54,78
201,252	7,68
201,471	-18,94
201,69	15,87
201,909	15,87
202,128	5,63
202,347	28,16
202,566	28,16
202,785	67,07
203,004	7,68
203,223	46,59
203,442	-10,75
203,661	58,88
203,879	40,45
204,098	22,02
204,317	-4,61
204,536	-4,61
204,755	-8,7
204,974	28,16
205,193	62,98
205,411	34,3
205,63	42,5
205,849	19,97
206,068	15,87
206,287	28,16
206,505	40,45
206,724	32,26
206,943	9,73
207,162	-4,61
207,381	1,54
207,599	-33,28
207,818	24,06
208,037	-33,28
208,255	-37,38
208,474	77,31
208,693	-20,99
208,911	26,11
209,13	7,68
209,349	-16,9
209,567	24,06
209,786	122,37
210,005	44,54
210,223	26,11
210,442	48,64
210,661	54,78
210,879	22,02
211,098	48,64
211,316	42,5
211,535	60,93
211,753	77,31
211,972	50,69
212,191	71,17
212,409	19,97
212,628	-66,05
212,846	3,58
213,065	-8,7
213,283	-4,61
213,502	-8,7
213,72	46,59
213,938	-2,56
214,157	19,97
214,375	15,87
214,594	52,74
214,812	-39,42
215,031	54,78
215,249	38,4
215,467	-45,57
215,686	-12,8
215,904	79,36
216,122	-64
216,341	38,4
216,559	7,68
216,778	69,12
216,996	60,93
217,214	36,35
217,432	17,92
217,651	-27,14
217,869	-23,04
218,087	-2,56
218,306	-39,42
218,524	40,45
218,742	-37,38
218,96	19,97
219,179	9,73
219,397	26,11
219,615	-23,04
219,833	-88,57
220,051	42,5
220,27	46,59
220,488	36,35
220,706	65,02
220,924	3,58
221,142	-4,61
221,36	5,63
221,578	44,54
221,796	44,54
222,015	36,35
222,233	-41,47
222,451	52,74
222,669	-10,75
222,887	-2,56
223,105	22,02
223,323	69,12
223,541	-18,94
223,759	56,83
223,977	22,02
224,195	38,4
224,413	7,68
224,631	-23,04
224,849	-27,14
225,067	19,97
225,285	7,68
225,503	-37,38
225,721	65,02
225,939	3,58
226,157	32,26
226,375	38,4
226,592	69,12
226,81	3,58
227,028	28,16
227,246	19,97
227,464	3,58
227,682	46,59
227,9	56,83
228,117	93,69
228,335	42,5
228,553	-33,28
228,771	-33,28
228,989	13,82
229,206	-6,66
229,424	-29,18
229,642	48,64
229,86	13,82
230,077	7,68
230,295	11,78
230,513	38,4
230,731	19,97
230,948	-23,04
231,166	48,64
231,384	26,11
231,601	22,02
231,819	11,78
232,037	-8,7
232,254	-8,7
232,472	-53,76
232,689	-45,57
232,907	1,54
233,125	40,45
233,342	1,54
233,56	24,06
233,777	99,84
233,995	32,26
234,213	62,98
234,43	30,21
234,648	22,02
234,865	11,78
235,083	40,45
235,3	-12,8
235,518	-8,7
235,735	-12,8
235,953	54,78
236,17	62,98
236,388	-20,99
236,605	44,54
236,822	60,93
237,04	19,97
237,257	60,93
237,475	28,16
237,692	5,63
237,909	-0,51
238,127	103,93
238,344	-0,51
238,562	19,97
238,779	-14,85
238,996	15,87
239,214	42,5
239,431	65,02
239,648	17,92
239,865	44,54
240,083	44,54
240,3	62,98
240,517	-29,18
240,735	44,54
240,952	-12,8
241,169	-18,94
241,386	40,45
241,603	3,58
241,821	17,92
242,038	17,92
242,255	26,11
242,472	7,68
242,689	-41,47
242,907	38,4
243,124	36,35
243,341	36,35
243,558	-41,47
243,775	22,02
243,992	-78,33
244,209	5,63
244,426	-8,7
244,643	60,93
244,86	-8,7
245,078	22,02
245,295	19,97
245,512	46,59
245,729	24,06
245,946	-2,56
246,163	13,82
246,38	40,45
246,597	-23,04
246,814	36,35
247,031	-12,8
247,248	-23,04
247,464	-12,8
247,681	-33,28
247,898	42,5
248,115	-18,94
248,332	-117,25
248,549	-16,9
248,766	5,63
248,983	-27,14
249,2	40,45
249,417	42,5
249,633	-6,66
249,85	22,02
250,067	-4,61
250,284	73,21
250,501	-6,66
250,717	-18,94
250,934	3,58
251,151	28,16
251,368	-27,14
251,585	36,35
251,801	-51,71
252,018	44,54
252,235	-23,04
252,451	15,87
252,668	24,06
252,885	-4,61
253,102	5,63
253,318	-16,9
253,535	19,97
253,752	19,97
253,968	28,16
254,185	40,45
254,401	-20,99
254,618	-10,75
254,835	52,74
255,051	24,06
255,268	-27,14
255,484	11,78
255,701	65,02
255,917	54,78
256,134	-41,47
256,351	54,78
256,567	-25,09
256,784	11,78
257	60,93
257,217	19,97
257,433	3,58
257,65	-0,51
257,866	-10,75
258,082	-4,61
258,299	32,26
258,515	42,5
258,732	56,83
258,948	48,64
259,165	40,45
259,381	-4,61
259,597	30,21
259,814	79,36
260,03	56,83
260,246	-12,8
260,463	38,4
260,679	89,6
260,895	62,98
261,112	-39,42
261,328	75,26
261,544	-25,09
261,761	3,58
261,977	-29,18
262,193	17,92
262,409	62,98
262,626	-4,61
262,842	-49,66
263,058	-18,94
263,274	62,98
263,49	-8,7
263,707	26,11
263,923	13,82
264,139	30,21
264,355	52,74
264,571	-0,51
264,787	32,26
265,004	83,45
265,22	1,54
265,436	13,82
265,652	44,54
265,868	-35,33
266,084	-2,56
266,3	44,54
266,516	-33,28
266,732	24,06
266,948	19,97
267,164	-39,42
267,38	9,73
267,596	-8,7
267,812	9,73
268,028	77,31
268,244	-47,62
268,46	54,78
268,676	-53,76
268,892	85,5
269,108	-33,28
269,324	11,78
269,54	32,26
269,756	-8,7
269,972	44,54
270,188	-31,23
270,403	-4,61
270,619	-35,33
270,835	-2,56
271,051	103,93
271,267	3,58
271,483	17,92
271,698	-64
271,914	69,12
272,13	24,06
272,346	-12,8
272,562	-25,09
272,777	3,58
272,993	-45,57
273,209	19,97
273,425	44,54
273,64	19,97
273,856	19,97
274,072	9,73
274,287	-43,52
274,503	19,97
274,719	-33,28
274,934	36,35
275,15	54,78
275,366	5,63
275,581	42,5
275,797	11,78
276,012	-25,09
276,228	46,59
276,444	-4,61
276,659	-23,04
276,875	-12,8
277,09	-37,38
277,306	-49,66
277,521	-14,85
277,737	-72,19
277,952	42,5
278,168	50,69
278,383	44,54
278,599	58,88
278,814	-2,56
279,03	-49,66
279,245	28,16
279,461	-2,56
279,676	-20,99
279,892	32,26
280,107	24,06
280,322	7,68
280,538	-14,85
280,753	36,35
280,969	-8,7
281,184	44,54
281,399	69,12
281,615	24,06
281,83	-35,33
282,045	-29,18
282,26	7,68
282,476	32,26
282,691	-6,66
282,906	22,02
283,122	79,36
283,337	40,45
283,552	7,68
283,767	-2,56
283,983	26,11
284,198	34,3
284,413	15,87
284,628	7,68
284,843	19,97
285,058	22,02
285,274	5,63
285,489	32,26
285,704	97,79
285,919	34,3
286,134	-25,09
286,349	-33,28
286,564	32,26
286,779	-14,85
286,995	-12,8
287,21	1,54
287,425	44,54
287,64	69,12
287,855	19,97
288,07	-41,47
288,285	52,74
288,5	56,83
288,715	52,74
288,93	36,35
289,145	-33,28
289,36	7,68
289,575	-10,75
289,79	13,82
290,004	7,68
290,219	19,97
290,434	7,68
290,649	40,45
290,864	-18,94
291,079	40,45
291,294	-18,94
291,509	-59,9
291,724	-16,9
291,938	7,68
292,153	52,74
292,368	48,64
292,583	19,97
292,798	11,78
293,012	95,74
293,227	28,16
293,442	-2,56
293,657	-57,86
293,871	48,64
294,086	44,54
294,301	52,74
294,516	54,78
294,73	62,98
294,945	36,35
295,16	103,93
295,374	-4,61
295,589	26,11
295,804	-20,99
296,018	17,92
296,233	24,06
296,447	-31,23
296,662	-20,99
296,877	52,74
297,091	56,83
297,306	38,4
297,52	32,26
297,735	85,5
297,949	-47,62
298,164	44,54
298,378	7,68
298,593	52,74
298,807	7,68
299,022	-2,56
299,236	34,3
299,451	32,26
299,665	36,35
299,88	85,5
300,094	40,45
300,309	38,4
300,523	24,06
300,737	38,4
300,952	62,98
301,166	22,02
301,381	11,78
301,595	54,78
301,809	-4,61
302,024	69,12
302,238	50,69
302,452	58,88
302,667	-2,56
302,881	69,12
303,095	24,06
303,309	38,4
303,524	-27,14
303,738	24,06
303,952	13,82
304,166	22,02
304,381	7,68
304,595	3,58
304,809	77,31
305,023	26,11
305,237	28,16
305,452	-39,42
305,666	54,78
305,88	48,64
306,094	67,07
306,308	62,98
306,522	32,26
306,736	3,58
306,95	67,07
307,164	32,26
307,379	22,02
307,593	58,88
307,807	34,3
308,021	69,12
308,235	60,93
308,449	3,58
308,663	1,54
308,877	11,78
309,091	44,54
309,305	32,26
309,519	-16,9
309,733	30,21
309,947	5,63
310,161	3,58
310,374	28,16
310,588	42,5
310,802	13,82
311,016	48,64
311,23	46,59
311,444	101,89
311,658	34,3
311,872	28,16
312,085	38,4
312,299	30,21
312,513	28,16
312,727	97,79
312,941	-4,61
313,154	17,92
313,368	-2,56
313,582	28,16
313,796	-57,86
314,009	36,35
314,223	11,78
314,437	-2,56
314,651	93,69
314,864	58,88
315,078	52,74
315,292	22,02
315,505	34,3
315,719	15,87
315,933	44,54
316,146	1,54
316,36	-55,81
316,573	30,21
316,787	24,06
317,001	110,08
317,214	-10,75
317,428	-16,9
317,641	-6,66
317,855	44,54
318,068	-18,94
318,282	11,78
318,495	65,02
318,709	-29,18
318,922	11,78
319,136	38,4
319,349	-14,85
319,563	134,65
319,776	67,07
319,99	93,69
320,203	60,93
320,417	-2,56
320,63	11,78
320,843	-25,09
321,057	-27,14
321,27	65,02
321,483	32,26
321,697	65,02
321,91	46,59
322,124	120,32
322,337	-2,56
322,55	89,6
322,763	103,93
322,977	36,35
323,19	-29,18
323,403	-18,94
323,617	87,55
323,83	-35,33
324,043	46,59
324,256	30,21
324,469	-59,9
324,683	30,21
324,896	13,82
325,109	-4,61
325,322	19,97
325,535	-39,42
325,748	71,17
325,962	15,87
326,175	99,84
326,388	-10,75
326,601	48,64
326,814	15,87
327,027	15,87
327,24	42,5
327,453	-53,76
327,666	-20,99
327,879	-12,8
328,092	3,58
328,305	17,92
328,518	-2,56
328,731	-0,51
328,944	40,45
329,157	5,63
329,37	13,82
329,583	83,45
329,796	-4,61
330,009	-2,56
330,222	3,58
330,435	17,92
330,648	71,17
330,861	36,35
331,073	32,26
331,286	60,93
331,499	-27,14
331,712	-18,94
331,925	69,12
332,138	5,63
332,35	-10,75
332,563	-41,47
332,776	65,02
332,989	32,26
333,202	54,78
333,414	-31,23
333,627	52,74
333,84	-2,56
334,053	28,16
334,265	11,78
334,478	44,54
334,691	52,74
334,903	-29,18
335,116	81,41
335,329	-8,7
335,541	7,68
335,754	42,5
335,966	38,4
336,179	15,87
336,392	87,55
336,604	48,64
336,817	38,4
337,029	60,93
337,242	17,92
337,454	48,64
337,667	77,31
337,88	7,68
338,092	22,02
338,305	46,59
338,517	-4,61
338,729	38,4
338,942	13,82
339,154	11,78
339,367	19,97
339,579	50,69
339,792	36,35
340,004	38,4
340,217	46,59
340,429	-35,33
340,641	65,02
340,854	-2,56
341,066	-18,94
341,278	17,92
341,491	13,82
341,703	5,63
341,915	48,64
342,128	-20,99
342,34	26,11
342,552	3,58
342,764	44,54
342,977	-25,09
343,189	60,93
343,401	36,35
343,613	36,35
343,826	69,12
344,038	-45,57
344,25	15,87
344,462	30,21
344,674	-29,18
344,886	28,16
345,099	-29,18
345,311	-10,75
345,523	-25,09
345,735	44,54
345,947	46,59
346,159	67,07
346,371	46,59
346,583	-20,99
346,795	60,93
347,007	-4,61
347,219	19,97
347,431	44,54
347,643	1,54
347,855	-41,47
348,067	75,26
348,279	24,06
348,491	1,54
348,703	79,36
348,915	-59,9
349,127	17,92
349,339	-35,33
349,551	108,03
349,763	3,58
349,975	-6,66
350,187	19,97
350,399	93,69
350,61	95,74
350,822	5,63
351,034	-12,8
351,246	-29,18
351,458	17,92
351,669	46,59
351,881	69,12
352,093	26,11
352,305	-0,51
352,517	60,93
352,728	36,35
352,94	48,64
353,152	11,78
353,363	-4,61
353,575	-35,33
353,787	75,26
353,999	44,54
354,21	-39,42
354,422	40,45
354,633	69,12
354,845	-74,24
355,057	9,73
355,268	-37,38
355,48	38,4
355,692	54,78
355,903	-18,94
356,115	62,98
356,326	40,45
356,538	67,07
356,749	-16,9
356,961	11,78
357,172	-27,14
357,384	-0,51
357,595	15,87
357,807	58,88
358,018	-51,71
358,23	-18,94
358,441	79,36
358,653	28,16
358,864	28,16
359,075	7,68
359,287	-8,7
359,498	9,73
359,709	36,35
359,921	38,4
360,132	87,55
360,344	48,64
360,555	-37,38
360,766	13,82
360,977	13,82
361,189	24,06
361,4	42,5
361,611	-12,8
361,823	58,88
362,034	26,11
362,245	1,54
362,456	-10,75
362,667	36,35
362,879	13,82
363,09	5,63
363,301	28,16
363,512	-2,56
363,723	54,78
363,935	44,54
364,146	52,74
364,357	-51,71
364,568	69,12
364,779	28,16
364,99	26,11
365,201	-18,94
365,412	56,83
365,623	24,06
365,834	15,87
366,045	1,54
366,256	-25,09
366,467	-14,85
366,678	-20,99
366,889	32,26
367,1	15,87
367,311	34,3
367,522	11,78
367,733	17,92
367,944	42,5
368,155	-16,9
368,366	-10,75
368,577	22,02
368,788	-29,18
368,999	38,4
369,209	13,82
369,42	13,82
369,631	54,78
369,842	52,74
370,053	-12,8
370,264	36,35
370,474	-0,51
370,685	48,64
370,896	52,74
371,107	28,16
371,317	-4,61
371,528	54,78
371,739	9,73
371,95	60,93
372,16	52,74
372,371	-14,85
372,582	-0,51
372,792	67,07
373,003	-31,23
373,214	13,82
373,424	69,12
373,635	-10,75
373,846	30,21
374,056	44,54
374,267	17,92
374,477	-16,9
374,688	36,35
374,898	38,4
375,109	22,02
375,319	-20,99
375,53	19,97
375,74	7,68
375,951	46,59
376,161	58,88
376,372	15,87
376,582	-2,56
376,793	65,02
377,003	58,88
377,214	-35,33
377,424	54,78
377,635	11,78
377,845	-45,57
378,055	40,45
378,266	77,31
378,476	-59,9
378,686	13,82
378,897	99,84
379,107	-37,38
379,317	-49,66
379,528	28,16
379,738	79,36
379,948	3,58
380,158	11,78
380,369	79,36
380,579	22,02
380,789	-4,61
380,999	-0,51
381,21	3,58
381,42	108,03
381,63	13,82
381,84	54,78
382,05	24,06
382,261	62,98
382,471	-27,14
382,681	36,35
382,891	13,82
383,101	-2,56
383,311	36,35
383,521	-33,28
383,731	9,73
383,941	22,02
384,151	-47,62
384,361	40,45
384,571	15,87
384,781	19,97
384,991	36,35
385,201	15,87
385,411	-0,51
385,621	24,06
385,831	50,69
386,041	69,12
386,251	-18,94
386,461	3,58
386,671	-23,04
386,881	30,21
387,091	19,97
387,301	-4,61
387,511	5,63
387,72	-47,62
387,93	-8,7
388,14	15,87
388,35	58,88
388,56	-2,56
388,769	81,41
388,979	36,35
389,189	-10,75
389,399	60,93
389,609	7,68
389,818	52,74
390,028	22,02
390,238	-27,14
390,447	-53,76
390,657	71,17
390,867	11,78
391,076	-2,56
391,286	13,82
391,496	67,07
391,705	-45,57
391,915	38,4
392,125	87,55
392,334	91,65
392,544	24,06
392,753	46,59
392,963	32,26
393,172	7,68
393,382	1,54
393,591	112,13
393,801	36,35
394,01	13,82
394,22	-16,9
394,429	42,5
394,639	1,54
394,848	48,64
395,058	52,74
395,267	-12,8
395,477	-43,52
395,686	15,87
395,895	24,06
396,105	11,78
396,314	-33,28
396,524	44,54
396,733	46,59
396,942	-4,61
397,152	44,54
397,361	22,02
397,57	-49,66
397,78	44,54
397,989	5,63
398,198	38,4
398,407	7,68
398,617	40,45
398,826	26,11
399,035	-51,71
399,244	-45,57
399,453	69,12
399,663	42,5
399,872	46,59
400,081	-35,33
400,29	28,16
400,499	-53,76
400,708	36,35
400,917	-12,8
401,127	56,83
401,336	26,11
401,545	3,58
401,754	38,4
401,963	11,78
402,172	-39,42
402,381	28,16
402,59	48,64
402,799	-2,56
403,008	26,11
403,217	-68,09
403,426	69,12
403,635	-8,7
403,844	40,45
404,053	46,59
404,262	22,02
404,471	19,97
404,68	-2,56
404,888	-37,38
405,097	3,58
405,306	40,45
405,515	-10,75
405,724	5,63
405,933	-2,56
406,142	-4,61
406,35	85,5
406,559	77,31
406,768	19,97
406,977	71,17
407,185	44,54
407,394	3,58
407,603	77,31
407,812	38,4
408,02	44,54
408,229	24,06
408,438	7,68
408,646	32,26
408,855	36,35
409,064	69,12
409,272	3,58
409,481	34,3
409,69	-35,33
409,898	44,54
410,107	22,02
410,315	-4,61
410,524	13,82
410,733	69,12
410,941	-4,61
411,15	67,07
411,358	24,06
411,567	44,54
411,775	32,26
411,984	77,31
412,192	24,06
412,401	-14,85
412,609	24,06
412,818	50,69
413,026	-8,7
413,234	-4,61
413,443	46,59
413,651	-27,14
413,86	13,82
414,068	34,3
414,276	71,17
414,485	38,4
414,693	36,35
414,901	19,97
415,11	-25,09
415,318	58,88
415,526	36,35
415,734	13,82
415,943	28,16
416,151	5,63
416,359	5,63
416,567	79,36
416,776	-6,66
416,984	58,88
417,192	54,78
417,4	24,06
417,608	32,26
417,817	85,5
418,025	69,12
418,233	5,63
418,441	-8,7
418,649	58,88
418,857	-10,75
419,065	-29,18
419,273	-37,38
419,481	38,4
419,689	83,45
419,897	75,26
420,105	-20,99
420,313	40,45
420,521	-4,61
420,729	11,78
420,937	28,16
421,145	-6,66
421,353	11,78
421,561	40,45
421,769	48,64
421,977	3,58
422,185	34,3
422,393	-23,04
422,601	36,35
422,809	13,82
423,017	7,68
423,224	-18,94
423,432	36,35
423,64	5,63
423,848	17,92
424,056	-0,51
424,263	-10,75
424,471	26,11
424,679	5,63
424,887	103,93
425,094	81,41
425,302	22,02
425,51	19,97
425,718	-78,33
425,925	50,69
426,133	46,59
426,341	56,83
426,548	22,02
426,756	-4,61
426,964	13,82
427,171	-8,7
427,379	65,02
427,586	95,74
427,794	-16,9
428,001	-29,18
428,209	-51,71
428,417	69,12
428,624	9,73
428,832	28,16
429,039	28,16
429,247	9,73
429,454	-12,8
429,662	30,21
429,869	-12,8
430,076	5,63
430,284	28,16
430,491	5,63
430,699	46,59
430,906	71,17
431,114	44,54
431,321	44,54
431,528	77,31
431,736	22,02
431,943	24,06
432,15	-29,18
432,358	28,16
432,565	7,68
432,772	24,06
432,979	44,54
433,187	9,73
433,394	56,83
433,601	30,21
433,808	9,73
434,016	24,06
434,223	-2,56
434,43	56,83
434,637	-31,23
434,844	28,16
435,052	40,45
435,259	3,58
435,466	52,74
435,673	79,36
435,88	-0,51
436,087	-35,33
436,294	3,58
436,501	-14,85
436,708	36,35
436,915	44,54
437,122	19,97
437,329	11,78
437,537	46,59
437,743	-6,66
437,95	36,35
438,157	71,17
438,364	50,69
438,571	17,92
438,778	1,54
438,985	-12,8
439,192	71,17
439,399	42,5
439,606	73,21
439,813	56,83
440,02	38,4
440,227	7,68
440,433	11,78
440,64	159,23
440,847	32,26
441,054	-18,94
441,261	28,16
441,467	24,06
441,674	54,78
441,881	73,21
442,088	-4,61
442,294	11,78
442,501	-74,24
442,708	48,64
442,914	5,63
443,121	-29,18
443,328	-35,33
443,534	38,4
443,741	-4,61
443,948	60,93
444,154	30,21
444,361	60,93
444,568	19,97
444,774	50,69
444,981	60,93
445,187	-57,86
445,394	15,87
445,6	15,87
445,807	24,06
446,013	28,16
446,22	24,06
446,426	22,02
446,633	48,64
446,839	28,16
447,046	56,83
447,252	52,74
447,459	32,26
447,665	22,02
447,871	-25,09
448,078	1,54
448,284	50,69
448,491	-20,99
448,697	48,64
448,903	-18,94
449,11	30,21
449,316	-35,33
449,522	-16,9
449,728	79,36
449,935	-0,51
450,141	36,35
450,347	60,93
450,553	56,83
450,76	-27,14
450,966	-12,8
451,172	-27,14
451,378	52,74
451,584	9,73
451,791	-20,99
451,997	65,02
452,203	122,37
452,409	34,3
452,615	67,07
452,821	28,16
453,027	-2,56
453,233	-45,57
453,44	34,3
453,646	3,58
453,852	48,64
454,058	30,21
454,264	32,26
454,47	40,45
454,676	69,12
454,882	11,78
455,088	79,36
455,294	24,06
455,5	-20,99
455,705	32,26
455,911	-2,56
456,117	15,87
456,323	11,78
456,529	-35,33
456,735	-8,7
456,941	-16,9
457,147	22,02
457,352	56,83
457,558	9,73
457,764	-25,09
457,97	15,87
458,176	-20,99
458,381	69,12
458,587	-16,9
458,793	22,02
458,999	-94,72
459,204	-37,38
459,41	11,78
459,616	101,89
459,821	62,98
460,027	-10,75
460,233	-0,51
460,438	30,21
460,644	36,35
460,85	75,26
461,055	28,16
461,261	52,74
461,466	-74,24
461,672	126,46
461,878	-10,75
462,083	40,45
462,289	-18,94
462,494	69,12
462,7	75,26
462,905	54,78
463,111	3,58
463,316	-35,33
463,522	-29,18
463,727	50,69
463,932	44,54
464,138	44,54
464,343	46,59
464,549	26,11
464,754	19,97
464,959	34,3
465,165	-27,14
465,37	-2,56
465,575	81,41
465,781	34,3
465,986	11,78
466,191	42,5
466,397	77,31
466,602	36,35
466,807	-16,9
467,012	73,21
467,218	-12,8
467,423	40,45
467,628	28,16
467,833	87,55
468,038	28,16
468,244	32,26
468,449	28,16
468,654	-25,09
468,859	11,78
469,064	32,26
469,269	-57,86
469,474	11,78
469,679	42,5
469,885	67,07
470,09	-4,61
470,295	40,45
470,5	40,45
470,705	22,02
470,91	52,74
471,115	22,02
471,32	1,54
471,525	30,21
471,73	-31,23
471,935	52,74
472,139	28,16
472,344	54,78
472,549	-0,51
472,754	3,58
472,959	-0,51
473,164	46,59
473,369	-33,28
473,574	46,59
473,778	22,02
473,983	36,35
474,188	24,06
474,393	46,59
474,598	71,17
474,802	46,59
475,007	3,58
475,212	36,35
475,417	36,35
475,621	19,97
475,826	11,78
476,031	-12,8
476,235	-39,42
476,44	69,12
476,645	3,58
476,849	44,54
477,054	-25,09
477,259	50,69
477,463	73,21
477,668	40,45
477,872	110,08
478,077	62,98
478,282	-10,75
478,486	28,16
478,691	52,74
478,895	30,21
479,1	19,97
479,304	13,82
479,509	30,21
479,713	28,16
479,918	-59,9
480,122	-78,33
480,326	40,45
480,531	32,26
480,735	-37,38
480,94	-12,8
481,144	3,58
481,348	7,68
481,553	-4,61
481,757	52,74
481,961	-16,9
482,166	-6,66
482,37	-16,9
482,574	44,54
482,778	73,21
482,983	-4,61
483,187	89,6
483,391	19,97
483,595	-57,86
483,8	-29,18
484,004	-0,51
484,208	19,97
484,412	11,78
484,616	24,06
484,821	73,21
485,025	67,07
485,229	24,06
485,433	-68,09
485,637	-43,52
485,841	11,78
486,045	62,98
486,249	38,4
486,453	-6,66
486,657	95,74
486,861	-8,7
487,065	44,54
487,269	-16,9
487,473	28,16
487,677	1,54
487,881	36,35
488,085	40,45
488,289	101,89
488,493	-31,23
488,697	69,12
488,901	19,97
489,105	-8,7
489,309	62,98
489,512	-0,51
489,716	-61,95
489,92	95,74
490,124	75,26
490,328	44,54
490,531	44,54
490,735	-41,47
490,939	85,5
491,143	9,73
491,346	60,93
491,55	19,97
491,754	36,35
491,958	32,26
492,161	28,16
492,365	13,82
492,569	7,68
492,772	50,69
492,976	30,21
493,18	-53,76
493,383	-33,28
493,587	-0,51
493,79	-20,99
493,994	-6,66
494,197	-0,51
494,401	67,07
494,605	-33,28
494,808	24,06
495,012	-10,75
495,215	34,3
495,419	-8,7
495,622	1,54
495,825	-2,56
496,029	-0,51
496,232	19,97
496,436	44,54
496,639	85,5
496,843	75,26
497,046	28,16
497,249	-4,61
497,453	11,78
497,656	36,35
497,859	-6,66
498,063	40,45
498,266	17,92
498,469	-4,61
498,673	3,58
498,876	5,63
499,079	19,97
499,282	36,35
499,485	58,88
499,689	40,45
499,892	5,63
500,095	17,92
500,298	-8,7
500,501	-35,33
500,705	36,35
500,908	108,03
501,111	65,02
501,314	132,61
501,517	-8,7
501,72	36,35
501,923	-33,28
502,126	3,58
502,329	-16,9
502,532	48,64
502,735	34,3
502,938	15,87
503,141	110,08
503,344	3,58
503,547	99,84
503,75	-37,38
503,953	-4,61
504,156	-68,09
504,359	56,83
504,562	-33,28
504,765	32,26
504,968	36,35
505,17	-18,94
505,373	42,5
505,576	-10,75
505,779	28,16
505,982	15,87
506,185	44,54
506,387	22,02
506,59	81,41
506,793	-2,56
506,996	71,17
507,198	44,54
507,401	52,74
507,604	81,41
507,807	32,26
508,009	40,45
508,212	65,02
508,415	42,5
508,617	24,06
508,82	56,83
509,022	1,54
509,225	56,83
509,428	-8,7
509,63	28,16
509,833	56,83
510,035	71,17
510,238	81,41
510,44	19,97
510,643	73,21
510,845	58,88
511,048	44,54
511,25	-41,47
511,453	54,78
511,655	-14,85
511,858	34,3
512,06	1,54
512,262	-35,33
512,465	44,54
512,667	46,59
512,87	48,64
513,072	24,06
513,274	34,3
513,477	62,98
513,679	48,64
513,881	-25,09
514,084	-61,95
514,286	15,87
514,488	-12,8
514,69	7,68
514,893	103,93
515,095	36,35
515,297	-20,99
515,499	-4,61
515,701	11,78
515,904	65,02
516,106	17,92
516,308	52,74
516,51	65,02
516,712	56,83
516,914	-4,61
517,116	1,54
517,318	7,68
517,52	-20,99
517,722	11,78
517,925	52,74
518,127	-86,53
518,329	15,87
518,531	44,54
518,733	60,93
518,935	36,35
519,136	28,16
519,338	-78,33
519,54	40,45
519,742	24,06
519,944	73,21
520,146	-51,71
520,348	-23,04
520,55	42,5
520,752	79,36
520,954	-31,23
521,155	40,45
521,357	46,59
521,559	17,92
521,761	65,02
521,963	65,02
522,164	36,35
522,366	-2,56
522,568	11,78
522,77	-18,94
522,971	11,78
523,173	19,97
523,375	-4,61
523,576	19,97
523,778	1,54
523,98	56,83
524,181	42,5
524,383	58,88
524,584	13,82
524,786	95,74
524,988	83,45
525,189	67,07
525,391	30,21
525,592	48,64
525,794	38,4
525,995	3,58
526,197	73,21
526,398	73,21
526,6	30,21
526,801	81,41
527,003	73,21
527,204	-20,99
527,406	83,45
527,607	62,98
527,808	32,26
528,01	22,02
528,211	-4,61
528,412	-6,66
528,614	22,02
528,815	30,21
529,016	40,45
529,218	1,54
529,419	-0,51
529,62	26,11
529,822	65,02
530,023	40,45
530,224	30,21
530,425	17,92
530,626	36,35
530,828	9,73
531,029	-39,42
531,23	-37,38
531,431	22,02
531,632	89,6
531,833	52,74
532,035	38,4
532,236	-6,66
532,437	-8,7
532,638	5,63
532,839	-8,7
533,04	40,45
533,241	101,89
533,442	67,07
533,643	5,63
533,844	58,88
534,045	36,35
534,246	48,64
534,447	19,97
534,648	58,88
534,849	-29,18
535,05	-16,9
535,251	91,65
535,451	77,31
535,652	54,78
535,853	24,06
536,054	42,5
536,255	36,35
536,456	126,46
536,657	50,69
536,857	-4,61
537,058	42,5
537,259	62,98
537,46	52,74
537,66	5,63
537,861	17,92
538,062	17,92
538,263	38,4
538,463	7,68
538,664	54,78
538,865	-18,94
539,065	40,45
539,266	79,36
539,466	-14,85
539,667	128,51
539,868	-20,99
540,068	-12,8
540,269	-66,05
540,469	77,31
540,67	22,02
540,87	9,73
541,071	-16,9
541,271	44,54
541,472	48,64
541,672	62,98
541,873	5,63
542,073	-4,61
542,274	30,21
542,474	13,82
542,675	-18,94
542,875	-10,75
543,075	46,59
543,276	58,88
543,476	60,93
543,676	46,59
543,877	-41,47
544,077	-35,33
544,277	67,07
544,478	99,84
544,678	-23,04
544,878	112,13
545,078	54,78
545,279	-31,23
545,479	83,45
545,679	44,54
545,879	48,64
546,079	32,26
546,28	34,3
546,48	11,78
546,68	77,31
546,88	38,4
547,08	83,45
547,28	52,74
547,48	91,65
547,68	93,69
547,88	85,5
548,081	-2,56
548,281	54,78
548,481	103,93
548,681	58,88
548,881	87,55
549,081	60,93
549,28	3,58
549,48	-43,52
549,68	77,31
549,88	24,06
550,08	112,13
550,28	69,12
550,48	75,26
550,68	71,17
550,88	46,59
551,08	91,65
551,279	77,31
551,479	7,68
551,679	134,65
551,879	34,3
552,079	40,45
552,278	32,26
552,478	9,73
552,678	-27,14
552,878	142,85
553,077	-8,7
553,277	50,69
553,477	48,64
553,676	-4,61
553,876	1,54
554,076	40,45
554,275	44,54
554,475	22,02
554,674	36,35
554,874	42,5
555,074	-4,61
555,273	28,16
555,473	60,93
555,672	22,02
555,872	-23,04
556,071	99,84
556,271	77,31
556,47	58,88
556,67	7,68
556,869	3,58
557,068	30,21
557,268	48,64
557,467	40,45
557,667	-2,56
557,866	52,74
558,065	32,26
558,265	75,26
558,464	71,17
558,663	60,93
558,863	36,35
559,062	36,35
559,261	46,59
559,461	62,98
559,66	153,09
559,859	67,07
560,058	15,87
560,258	52,74
560,457	62,98
560,656	38,4
560,855	142,85
561,054	46,59
561,253	-29,18
561,453	3,58
561,652	77,31
561,851	81,41
562,05	36,35
562,249	60,93
562,448	91,65
562,647	-0,51
562,846	30,21
563,045	3,58
563,244	28,16
563,443	69,12
563,642	112,13
563,841	75,26
564,04	62,98
564,239	36,35
564,438	81,41
564,637	-12,8
564,836	126,46
565,035	95,74
565,234	79,36
565,432	85,5
565,631	62,98
565,83	30,21
566,029	79,36
566,228	36,35
566,427	132,61
566,625	120,32
566,824	101,89
567,023	62,98
567,222	101,89
567,42	71,17
567,619	151,04
567,818	114,17
568,016	130,56
568,215	65,02
568,414	185,85
568,612	87,55
568,811	167,42
569,01	198,14
569,208	183,81
569,407	200,19
569,605	282,11
569,804	294,4
570,002	278,01
570,201	327,16
570,4	364,03
570,598	376,31
570,797	296,44
570,995	388,6
571,193	488,95
571,392	546,3
571,59	581,11
571,789	720,37
571,987	773,62
572,186	824,82
572,384	1007,09
572,582	1211,89
572,781	1406,44
572,979	1517,03
573,177	1871,33
573,376	2104,8
573,574	2512,35
573,772	3083,73
573,971	3560,91
574,169	4134,34
574,367	5033,4
574,565	6286,75
574,763	7724,43
574,962	9362,8
575,16	11218,26
575,358	13507,89
575,556	15682,83
575,754	19176,67
575,952	22054,06
576,151	26362,99
576,349	29328,45
576,547	33700,86
576,745	36957,13
576,943	40418,2
577,141	42908,53
577,339	45998,91
577,537	48206,62
577,735	50166,53
577,933	51565,29
578,131	53312,21
578,329	53697,23
578,527	54508,22
578,725	55372,47
578,923	56154,79
579,121	55728,81
579,319	56730,27
579,516	57492,11
579,714	57483,92
579,912	57246,36
580,11	58182,28
580,308	58552,96
580,506	59220,6
580,704	58700,42
580,901	59751,02
581,099	59767,41
581,297	59966,06
581,495	59818,61
581,692	61219,42
581,89	59859,57
582,088	61250,14
582,285	60318,31
582,483	61112,92
582,681	61123,16
582,878	60590,69
583,076	59652,72
583,274	60217,96
583,471	58647,17
583,669	58303,11
583,866	56259,24
584,064	54543,04
584,262	51628,78
584,459	49199,89
584,657	45679,43
584,854	42511,22
585,052	37974,97
585,249	35161,06
585,447	31292,45
585,644	27513,95
585,841	24142,99
586,039	21081,28
586,236	18154,73
586,434	15557,91
586,631	13323,57
586,828	11363,67
587,026	9657,71
587,223	8168,84
587,42	6806,94
587,618	5991,84
587,815	4910,52
588,012	4294,08
588,21	3550,67
588,407	3157,46
588,604	2565,59
588,801	2307,55
588,999	2004,45
589,196	1666,53
589,393	1484,27
589,59	1222,13
589,787	1150,45
589,984	978,42
590,182	955,89
590,379	794,1
590,576	640,5
590,773	640,5
590,97	531,96
591,167	480,76
591,364	491
591,561	396,79
591,758	398,84
591,955	353,79
592,152	286,2
592,349	298,49
592,546	278,01
592,743	304,64
592,94	175,61
593,137	189,95
593,334	148,99
593,531	214,52
593,727	167,42
593,924	120,32
594,121	126,46
594,318	134,65
594,515	79,36
594,712	42,5
594,908	167,42
595,105	97,79
595,302	85,5
595,499	183,81
595,696	95,74
595,892	40,45
596,089	144,89
596,286	50,69
596,482	126,46
596,679	142,85
596,876	101,89
597,072	108,03
597,269	103,93
597,466	77,31
597,662	73,21
597,859	69,12
598,055	151,04
598,252	77,31
598,448	42,5
598,645	46,59
598,841	73,21
599,038	54,78
599,234	89,6
599,431	40,45
599,627	85,5
599,824	93,69
600,02	38,4
600,217	-0,51
600,413	69,12
600,609	75,26
600,806	77,31
601,002	38,4
601,198	60,93
601,395	52,74
601,591	71,17
601,787	79,36
601,984	83,45
602,18	3,58
602,376	54,78
602,572	65,02
602,769	48,64
602,965	52,74
603,161	83,45
603,357	-8,7
603,553	54,78
603,75	1,54
603,946	54,78
604,142	-16,9
604,338	54,78
604,534	52,74
604,73	52,74
604,926	22,02
605,122	79,36
605,318	46,59
605,514	22,02
605,71	30,21
605,906	62,98
606,102	24,06
606,298	38,4
606,494	93,69
606,69	28,16
606,886	83,45
607,082	-6,66
607,278	36,35
607,474	24,06
607,67	42,5
607,866	-0,51
608,062	77,31
608,257	32,26
608,453	19,97
608,649	87,55
608,845	11,78
609,041	1,54
609,236	7,68
609,432	99,84
609,628	54,78
609,824	65,02
610,019	87,55
610,215	48,64
610,411	56,83
610,606	30,21
610,802	52,74
610,998	58,88
611,193	22,02
611,389	93,69
611,584	11,78
611,78	36,35
611,976	62,98
612,171	75,26
612,367	65,02
612,562	13,82
612,758	-20,99
612,953	-8,7
613,149	-2,56
613,344	58,88
613,539	71,17
613,735	24,06
613,93	7,68
614,126	46,59
614,321	26,11
614,517	87,55
614,712	62,98
614,907	-45,57
615,103	48,64
615,298	11,78
615,493	79,36
615,688	50,69
615,884	-25,09
616,079	36,35
616,274	67,07
616,47	24,06
616,665	-8,7
616,86	48,64
617,055	3,58
617,25	3,58
617,445	-0,51
617,641	48,64
617,836	73,21
618,031	17,92
618,226	93,69
618,421	26,11
618,616	22,02
618,811	28,16
619,006	46,59
619,201	11,78
619,396	7,68
619,591	48,64
619,786	7,68
619,981	28,16
620,176	52,74
620,371	48,64
620,566	17,92
620,761	-6,66
620,956	24,06
621,151	22,02
621,346	65,02
621,541	-0,51
621,735	36,35
621,93	-29,18
622,125	30,21
622,32	42,5
622,515	24,06
622,709	54,78
622,904	110,08
623,099	40,45
623,294	-4,61
623,488	-31,23
623,683	138,75
623,878	46,59
624,072	11,78
624,267	52,74
624,462	24,06
624,656	60,93
624,851	67,07
625,046	28,16
625,24	52,74
625,435	-8,7
625,629	28,16
625,824	71,17
626,018	13,82
626,213	40,45
626,407	22,02
626,602	19,97
626,796	-2,56
626,991	69,12
627,185	22,02
627,38	30,21
627,574	-4,61
627,768	-8,7
627,963	71,17
628,157	103,93
628,352	62,98
628,546	52,74
628,74	81,41
628,935	13,82
629,129	28,16
629,323	81,41
629,517	87,55
629,712	-6,66
629,906	69,12
630,1	3,58
630,294	-49,66
630,489	54,78
630,683	7,68
630,877	79,36
631,071	36,35
631,265	30,21
631,459	32,26
631,653	26,11
631,848	28,16
632,042	-0,51
632,236	30,21
632,43	75,26
632,624	44,54
632,818	-4,61
633,012	-27,14
633,206	28,16
633,4	36,35
633,594	-27,14
633,788	-25,09
633,982	153,09
634,176	19,97
634,369	46,59
634,563	40,45
634,757	48,64
634,951	91,65
635,145	69,12
635,339	-31,23
635,533	71,17
635,726	38,4
635,92	5,63
636,114	36,35
636,308	101,89
636,501	13,82
636,695	48,64
636,889	44,54
637,083	7,68
637,276	44,54
637,47	19,97
637,664	34,3
637,857	44,54
638,051	11,78
638,244	-27,14
638,438	48,64
638,632	36,35
638,825	22,02
639,019	36,35
639,212	22,02
639,406	52,74
639,599	69,12
639,793	-2,56
639,986	46,59
640,18	46,59
640,373	91,65
640,567	42,5
640,76	-41,47
640,954	-20,99
641,147	-78,33
641,34	56,83
641,534	3,58
641,727	9,73
641,92	5,63
642,114	13,82
642,307	28,16
642,5	44,54
642,694	3,58
642,887	9,73
643,08	28,16
643,273	75,26
643,467	-45,57
643,66	69,12
643,853	22,02
644,046	36,35
644,239	46,59
644,432	56,83
644,626	-4,61
644,819	11,78
645,012	77,31
645,205	101,89
645,398	52,74
645,591	32,26
645,784	30,21
645,977	15,87
646,17	26,11
646,363	40,45
646,556	13,82
646,749	32,26
646,942	7,68
647,135	103,93
647,328	-10,75
647,521	-6,66
647,714	-6,66
647,907	69,12
648,099	-14,85
648,292	9,73
648,485	44,54
648,678	9,73
648,871	24,06
649,064	81,41
649,256	89,6
649,449	-45,57
649,642	26,11
649,835	40,45
650,027	81,41
650,22	142,85
650,413	19,97
650,605	3,58
650,798	5,63
650,991	50,69
651,183	44,54
651,376	-0,51
651,568	73,21
651,761	5,63
651,954	144,89
652,146	34,3
652,339	95,74
652,531	-37,38
652,724	40,45
652,916	11,78
653,109	-6,66
653,301	65,02
653,494	54,78
653,686	17,92
653,879	83,45
654,071	-0,51
654,263	-25,09
654,456	32,26
654,648	40,45
654,84	44,54
655,033	54,78
655,225	-39,42
655,417	28,16
655,61	28,16
655,802	-4,61
655,994	95,74
656,186	73,21
656,379	-20,99
656,571	46,59
656,763	7,68
656,955	5,63
657,148	42,5
657,34	11,78
657,532	42,5
657,724	44,54
657,916	11,78
658,108	-27,14
658,3	11,78
658,492	46,59
658,684	-4,61
658,876	-12,8
659,068	-0,51
659,26	26,11
659,452	112,13
659,644	1,54
659,836	11,78
660,028	-10,75
660,22	-2,56
660,412	5,63
660,604	28,16
660,796	3,58
660,988	67,07
661,18	48,64
661,372	89,6
661,563	-68,09
661,755	40,45
661,947	3,58
662,139	73,21
662,331	54,78
662,522	24,06
662,714	52,74
662,906	30,21
663,097	54,78
663,289	22,02
663,481	-16,9
663,673	-41,47
663,864	19,97
664,056	1,54
664,247	5,63
664,439	15,87
664,631	7,68
664,822	38,4
665,014	69,12
665,205	19,97
665,397	34,3
665,588	-20,99
665,78	32,26
665,971	-18,94
666,163	75,26
666,354	36,35
666,546	85,5
666,737	38,4
666,929	44,54
667,12	-2,56
667,311	-0,51
667,503	87,55
667,694	30,21
667,885	75,26
668,077	58,88
668,268	28,16
668,459	5,63
668,651	-0,51
668,842	42,5
669,033	5,63
669,224	-10,75
669,416	28,16
669,607	3,58
669,798	-20,99
669,989	24,06
670,18	-0,51
670,371	54,78
670,563	7,68
670,754	79,36
670,945	-35,33
671,136	15,87
671,327	87,55
671,518	44,54
671,709	22,02
671,9	-41,47
672,091	24,06
672,282	79,36
672,473	24,06
672,664	-37,38
672,855	-2,56
673,046	-16,9
673,237	-33,28
673,428	34,3
673,619	77,31
673,809	19,97
674	58,88
674,191	11,78
674,382	54,78
674,573	3,58
674,764	30,21
674,954	-18,94
675,145	56,83
675,336	73,21
675,527	19,97
675,717	-0,51
675,908	-39,42
676,099	122,37
676,289	3,58
676,48	42,5
676,671	65,02
676,861	3,58
677,052	38,4
677,243	69,12
677,433	3,58
677,624	36,35
677,814	26,11
678,005	42,5
678,195	46,59
678,386	34,3
678,576	81,41
678,767	17,92
678,957	77,31
679,148	5,63
679,338	13,82
679,529	13,82
679,719	-8,7
679,909	17,92
680,1	-8,7
680,29	36,35
680,481	-61,95
680,671	-35,33
680,861	5,63
681,052	-10,75
681,242	5,63
681,432	1,54
681,622	56,83
681,813	60,93
682,003	24,06
682,193	17,92
682,383	7,68
682,573	54,78
682,764	7,68
682,954	28,16
683,144	44,54
683,334	-12,8
683,524	-2,56
683,714	52,74
683,904	46,59
684,094	44,54
684,284	44,54
684,474	-35,33
684,664	60,93
684,854	38,4
685,044	3,58
685,234	3,58
685,424	-10,75
685,614	3,58
685,804	-0,51
685,994	44,54
686,184	69,12
686,374	44,54
686,564	17,92
686,753	56,83
686,943	77,31
687,133	54,78
687,323	32,26
687,513	13,82
687,702	22,02
687,892	3,58
688,082	3,58
688,272	60,93
688,461	-4,61
688,651	15,87
688,841	58,88
689,03	56,83
689,22	62,98
689,41	-0,51
689,599	24,06
689,789	56,83
689,979	46,59
690,168	40,45
690,358	120,32
690,547	32,26
690,737	40,45
690,926	-0,51
691,116	60,93
691,305	3,58
691,495	56,83
691,684	-37,38
691,874	69,12
692,063	-2,56
692,252	11,78
692,442	13,82
692,631	54,78
692,82	-4,61
693,01	30,21
693,199	75,26
693,388	32,26
693,578	34,3
693,767	22,02
693,956	46,59
694,146	69,12
694,335	5,63
694,524	-16,9
694,713	-37,38
694,902	38,4
695,092	56,83
695,281	-25,09
695,47	-2,56
695,659	-18,94
695,848	-41,47
696,037	69,12
696,226	1,54
696,415	140,8
696,604	36,35
696,793	13,82
696,982	36,35
697,171	-2,56
697,36	-45,57
697,549	81,41
697,738	-35,33
697,927	3,58
698,116	28,16
698,305	77,31
698,494	7,68
698,683	44,54
698,872	67,07
699,061	26,11
699,25	40,45
699,438	-37,38
699,627	-59,9
699,816	-18,94
700,005	28,16
700,193	95,74
700,382	-20,99
700,571	19,97
700,76	17,92
700,948	3,58
701,137	19,97
701,326	24,06
701,514	9,73
701,703	22,02
701,892	58,88
702,08	15,87
702,269	5,63
702,457	11,78
702,646	38,4
702,834	-2,56
703,023	-4,61
703,212	85,5
703,4	-35,33
703,589	65,02
703,777	15,87
703,965	56,83
704,154	-27,14
704,342	15,87
704,531	-4,61
704,719	-20,99
704,907	99,84
705,096	-2,56
705,284	-33,28
705,472	24,06
705,661	40,45
705,849	65,02
706,037	19,97
706,226	44,54
706,414	36,35
706,602	62,98
706,79	-35,33
706,979	85,5
707,167	26,11
707,355	5,63
707,543	-41,47
707,731	-10,75
707,919	-4,61
708,107	32,26
708,296	24,06
708,484	30,21
708,672	-20,99
708,86	112,13
709,048	62,98
709,236	-51,71
709,424	-12,8
709,612	81,41
709,8	-12,8
709,988	22,02
710,176	7,68
710,364	48,64
710,551	-78,33
710,739	22,02
710,927	7,68
711,115	28,16
711,303	1,54
711,491	40,45
711,679	-29,18
711,866	-12,8
712,054	75,26
712,242	44,54
712,43	-16,9
712,617	56,83
712,805	-29,18
712,993	13,82
713,181	30,21
713,368	28,16
713,556	32,26
713,744	32,26
713,931	-23,04
714,119	71,17
714,306	-0,51
714,494	22,02
714,682	75,26
714,869	46,59
715,057	28,16
715,244	67,07
715,432	-27,14
715,619	3,58
715,807	67,07
715,994	52,74
716,182	73,21
716,369	46,59
716,556	42,5
716,744	7,68
716,931	26,11
717,119	9,73
717,306	11,78
717,493	75,26
717,681	36,35
717,868	32,26
718,055	60,93
718,242	-27,14
718,43	36,35
718,617	-10,75
718,804	36,35
718,991	-33,28
719,179	7,68
719,366	-27,14
719,553	-23,04
719,74	-33,28
719,927	38,4
720,114	40,45
720,301	-18,94
720,488	7,68
720,676	-16,9
720,863	32,26
721,05	9,73
721,237	32,26
721,424	24,06
721,611	30,21
721,798	52,74
721,985	-20,99
722,172	28,16
722,358	19,97
722,545	1,54
722,732	28,16
722,919	-10,75
723,106	5,63
723,293	-4,61
723,48	60,93
723,667	60,93
723,853	101,89
724,04	28,16
724,227	48,64
724,414	9,73
724,6	-53,76
724,787	9,73
724,974	32,26
725,161	19,97
725,347	32,26
725,534	-10,75
725,72	54,78
725,907	-23,04
726,094	52,74
726,28	36,35
726,467	30,21
726,653	-10,75
726,84	13,82
727,027	26,11
727,213	85,5
727,4	17,92
727,586	34,3
727,773	-39,42
727,959	48,64
728,145	13,82
728,332	32,26
728,518	-0,51
728,705	44,54
728,891	50,69
729,077	7,68
729,264	-27,14
729,45	19,97
729,636	28,16
729,823	75,26
730,009	11,78
730,195	34,3
730,382	36,35
730,568	11,78
730,754	77,31
730,94	36,35
731,126	52,74
731,313	54,78
731,499	48,64
731,685	65,02
731,871	83,45
732,057	-20,99
732,243	15,87
732,429	-43,52
732,615	50,69
732,801	17,92
732,987	3,58
733,173	44,54
733,359	52,74
733,545	93,69
733,731	56,83
733,917	28,16
734,103	34,3
734,289	-0,51
734,475	28,16
734,661	85,5
734,847	-43,52
735,033	52,74
735,219	-43,52
735,404	19,97
735,59	36,35
735,776	13,82
735,962	32,26
736,148	118,27
736,333	26,11
736,519	24,06
736,705	38,4
736,89	19,97
737,076	7,68
737,262	34,3
737,447	1,54
737,633	-37,38
737,819	-12,8
738,004	32,26
738,19	19,97
738,375	22,02
738,561	32,26
738,747	24,06
738,932	101,89
739,118	17,92
739,303	75,26
739,489	-53,76
739,674	9,73
739,859	11,78
740,045	-29,18
740,23	17,92
740,416	-10,75
740,601	36,35
740,786	73,21
740,972	28,16
741,157	36,35
741,342	24,06
741,528	-25,09
741,713	30,21
741,898	26,11
742,084	36,35
742,269	36,35
742,454	28,16
742,639	11,78
742,824	36,35
743,01	24,06
743,195	-10,75
743,38	-12,8
743,565	34,3
743,75	-10,75
743,935	-39,42
744,12	77,31
744,305	44,54
744,49	46,59
744,675	50,69
744,86	-29,18
745,045	44,54
745,23	116,22
745,415	69,12
745,6	48,64
745,785	62,98
745,97	26,11
746,155	5,63
746,34	28,16
746,525	118,27
746,71	60,93
746,895	-2,56
747,079	-76,29
747,264	-10,75
747,449	-43,52
747,634	85,5
747,819	15,87
748,003	7,68
748,188	22,02
748,373	-12,8
748,557	69,12
748,742	-16,9
748,927	50,69
749,111	105,98
749,296	38,4
749,481	-2,56
749,665	36,35
749,85	-27,14
750,034	24,06
750,219	69,12
750,404	71,17
750,588	58,88
750,773	13,82
750,957	7,68
751,141	-18,94
751,326	19,97
751,51	9,73
751,695	38,4
751,879	-6,66
752,064	103,93
752,248	11,78
752,432	-2,56
752,617	28,16
752,801	13,82
752,985	58,88
753,17	77,31
753,354	75,26
753,538	30,21
753,722	26,11
753,907	65,02
754,091	73,21
754,275	13,82
754,459	-76,29
754,643	71,17
754,828	15,87
755,012	-2,56
755,196	-18,94
755,38	-37,38
755,564	58,88
755,748	77,31
755,932	-29,18
756,116	93,69
756,3	-4,61
756,484	83,45
756,668	17,92
756,852	24,06
757,036	13,82
757,22	9,73
757,404	-14,85
757,588	46,59
757,772	-8,7
757,956	-10,75
758,14	22,02
758,323	126,46
758,507	105,98
758,691	-27,14
758,875	-25,09
759,059	60,93
759,242	-14,85
759,426	11,78
759,61	5,63
759,794	-29,18
759,977	19,97
760,161	67,07
760,345	54,78
760,528	-18,94
760,712	36,35
760,895	56,83
761,079	-27,14
761,263	32,26
761,446	32,26
761,63	17,92
761,813	101,89
761,997	7,68
762,18	-35,33
762,364	13,82
762,547	5,63
762,731	-25,09
762,914	28,16
763,098	9,73
763,281	22,02
763,464	-41,47
763,648	7,68
763,831	-10,75
764,015	85,5
764,198	-33,28
764,381	-90,62
764,564	19,97
764,748	32,26
764,931	56,83
765,114	44,54
765,297	30,21
765,481	30,21
765,664	-0,51
765,847	-16,9
766,03	19,97
766,213	-51,71
766,397	44,54
766,58	-8,7
766,763	13,82
766,946	-4,61
767,129	-55,81
767,312	38,4
767,495	13,82
767,678	38,4
767,861	60,93
768,044	5,63
768,227	60,93
768,41	46,59
768,593	60,93
768,776	22,02
768,959	44,54
769,142	67,07
769,324	48,64
769,507	93,69
769,69	-37,38
769,873	-4,61
770,056	48,64
770,239	48,64
770,421	-16,9
770,604	-0,51
770,787	38,4
770,97	87,55
771,152	93,69
771,335	46,59
771,518	15,87
771,7	46,59
771,883	69,12
772,066	-37,38
772,248	42,5
772,431	5,63
772,613	65,02
772,796	93,69
772,978	36,35
773,161	11,78
773,343	13,82
773,526	-57,86
773,708	11,78
773,891	-29,18
774,073	32,26
774,256	-10,75
774,438	19,97
774,621	-10,75
774,803	71,17
774,985	50,69
775,168	58,88
775,35	34,3
775,532	24,06
775,715	19,97
775,897	93,69
776,079	77,31
776,261	36,35
776,444	15,87
776,626	24,06
776,808	26,11
776,99	-2,56
777,173	32,26
777,355	-23,04
777,537	17,92
777,719	38,4
777,901	24,06
778,083	-33,28
778,265	-18,94
778,447	19,97
778,629	30,21
778,811	71,17
778,993	118,27
779,175	44,54
779,357	28,16
779,539	-8,7
779,721	5,63
779,903	22,02
780,085	22,02
780,267	89,6
780,449	-35,33
780,631	38,4
780,812	7,68
780,994	-16,9
781,176	73,21
781,358	85,5
781,54	-45,57
781,721	3,58
781,903	42,5
782,085	48,64
782,267	-49,66
782,448	-16,9
782,63	22,02
782,812	-66,05
782,993	32,26
783,175	24,06
783,357	-6,66
783,538	56,83
783,72	19,97
783,901	-10,75
784,083	28,16
784,264	3,58
784,446	-20,99
784,627	28,16
784,809	54,78
784,99	-33,28
785,172	71,17
785,353	19,97
785,535	-0,51
785,716	-2,56
785,897	22,02
786,079	26,11
786,26	-4,61
786,441	65,02
786,623	-23,04
786,804	28,16
786,985	54,78
787,167	3,58
787,348	-12,8
787,529	62,98
787,71	77,31
787,891	44,54
788,073	34,3
788,254	87,55
788,435	-4,61
788,616	19,97
788,797	17,92
788,978	42,5
789,159	40,45
789,34	-35,33
789,522	30,21
789,703	17,92
789,884	11,78
790,065	30,21
790,246	62,98
790,427	62,98
790,607	52,74
790,788	38,4
790,969	58,88
791,15	38,4
791,331	13,82
791,512	5,63
791,693	5,63
791,874	46,59
792,054	17,92
792,235	54,78
792,416	19,97
792,597	38,4
792,778	24,06
792,958	-4,61
793,139	75,26
793,32	32,26
793,5	32,26
793,681	-23,04
793,862	13,82
794,042	-35,33
794,223	7,68
794,404	11,78
794,584	52,74
794,765	38,4
794,945	52,74
795,126	-2,56
795,306	65,02
795,487	5,63
795,667	-55,81
795,848	3,58
796,028	17,92
796,209	26,11
796,389	54,78
796,57	50,69
796,75	19,97
796,93	19,97
797,111	-61,95
797,291	19,97
797,471	42,5
797,652	75,26
797,832	50,69
798,012	105,98
798,192	7,68
798,373	52,74
798,553	13,82
798,733	46,59
798,913	15,87
799,093	52,74
799,274	-10,75
799,454	7,68
799,634	60,93
799,814	3,58
799,994	-29,18
800,174	-45,57
800,354	-10,75
800,534	73,21
800,714	32,26
800,894	-12,8
801,074	-35,33
801,254	36,35
801,434	-20,99
801,614	28,16
801,794	54,78
801,974	183,81
802,154	24,06
802,334	3,58
802,514	17,92
802,693	-14,85
802,873	3,58
803,053	85,5
803,233	89,6
803,413	65,02
803,592	85,5
803,772	87,55
803,952	34,3
804,131	-37,38
804,311	-10,75
804,491	-47,62
804,67	54,78
804,85	-37,38
805,03	3,58
805,209	52,74
805,389	-43,52
805,568	19,97
805,748	11,78
805,928	89,6
806,107	-4,61
806,287	52,74
806,466	44,54
806,646	24,06
806,825	28,16
807,004	-10,75
807,184	-90,62
807,363	-0,51
807,543	79,36
807,722	56,83
807,901	-16,9
808,081	-12,8
808,26	22,02
808,439	79,36
808,619	36,35
808,798	52,74
808,977	69,12
809,156	69,12
809,336	-33,28
809,515	36,35
809,694	-43,52
809,873	58,88
810,052	3,58
810,231	-4,61
810,411	34,3
810,59	36,35
810,769	24,06
810,948	60,93
811,127	32,26
811,306	50,69
811,485	48,64
811,664	77,31
811,843	3,58
812,022	116,22
812,201	26,11
812,38	54,78
812,559	-35,33
812,737	11,78
812,916	52,74
813,095	-41,47
813,274	7,68
813,453	-10,75
813,632	11,78
813,811	-4,61
813,989	1,54
814,168	36,35
814,347	-27,14
814,526	32,26
814,704	-20,99
814,883	-29,18
815,062	54,78
815,24	5,63
815,419	-16,9
815,598	44,54
815,776	3,58
815,955	42,5
816,133	11,78
816,312	-8,7
816,49	62,98
816,669	11,78
816,847	44,54
817,026	-18,94
817,204	-14,85
817,383	-12,8
817,561	-37,38
817,74	48,64
817,918	3,58
818,097	46,59
818,275	48,64
818,453	62,98
818,632	-14,85
818,81	118,27
818,988	5,63
819,167	56,83
819,345	-35,33
819,523	85,5
819,701	54,78
819,879	3,58
820,058	32,26
820,236	73,21
820,414	-8,7
820,592	52,74
820,77	52,74
820,948	34,3
821,127	19,97
821,305	48,64
821,483	124,41
821,661	9,73
821,839	-12,8
822,017	48,64
822,195	56,83
822,373	-31,23
822,551	42,5
822,729	11,78
822,907	3,58
823,085	65,02
823,262	56,83
823,44	26,11
823,618	71,17
823,796	11,78
823,974	22,02
824,152	28,16
824,329	1,54
824,507	36,35
824,685	-4,61
824,863	24,06
825,04	71,17
825,218	5,63
825,396	24,06
825,574	36,35
825,751	67,07
825,929	62,98
826,107	19,97
826,284	36,35
826,462	42,5
826,639	19,97
826,817	3,58
826,994	-45,57
827,172	19,97
827,349	52,74
827,527	-8,7
827,704	-35,33
827,882	-6,66
828,059	19,97
828,237	5,63
828,414	-18,94
828,591	-2,56
828,769	11,78
828,946	69,12
829,124	-18,94
829,301	13,82
829,478	32,26
829,655	87,55
829,833	1,54
830,01	52,74
830,187	17,92
830,364	1,54
830,542	32,26
830,719	105,98
830,896	38,4
831,073	30,21
831,25	-25,09
831,427	5,63
831,604	40,45
831,782	-12,8
831,959	3,58
832,136	52,74
832,313	1,54
832,49	-0,51
832,667	69,12
832,844	-4,61
833,021	-14,85
833,198	73,21
833,374	24,06
833,551	-0,51
833,728	-64
833,905	28,16
834,082	36,35
834,259	36,35
834,436	32,26
834,612	-8,7
834,789	54,78
834,966	-6,66
835,143	-2,56
835,319	62,98
835,496	-20,99
835,673	-35,33
835,85	9,73
836,026	13,82
836,203	58,88
836,38	17,92
836,556	28,16
836,733	-14,85
836,909	36,35
837,086	85,5
837,262	-18,94
837,439	3,58
837,616	-35,33
837,792	-20,99
837,968	-0,51
838,145	-20,99
838,321	11,78
838,498	62,98
838,674	71,17
838,851	62,98
839,027	-10,75
839,203	19,97
839,38	-0,51
839,556	22,02
839,732	89,6
839,909	3,58
840,085	7,68
840,261	28,16
840,437	114,17
840,614	38,4
840,79	75,26
840,966	32,26
841,142	48,64
841,318	-18,94
841,494	48,64
841,671	48,64
841,847	11,78
842,023	-8,7
842,199	3,58
842,375	-18,94
842,551	-53,76
842,727	54,78
842,903	28,16
843,079	30,21
843,255	-4,61
843,431	52,74
843,607	48,64
843,783	5,63
843,959	38,4
844,134	-41,47
844,31	110,08
844,486	28,16
844,662	56,83
844,838	5,63
845,013	-10,75
845,189	44,54
845,365	-6,66
845,541	-92,67
845,716	-45,57
845,892	24,06
846,068	34,3
846,244	46,59
846,419	-0,51
846,595	-66,05
846,77	11,78
846,946	-27,14
847,122	40,45
847,297	-14,85
847,473	46,59
847,648	40,45
847,824	56,83
847,999	-20,99
848,175	75,26
848,35	-45,57
848,526	44,54
848,701	-41,47
848,876	50,69
849,052	11,78
849,227	11,78
849,403	-45,57
849,578	-2,56
849,753	13,82
849,929	36,35
850,104	62,98
850,279	77,31
850,454	28,16
850,63	48,64
850,805	-2,56
850,98	19,97
851,155	-2,56
851,33	-35,33
851,505	11,78
851,681	-0,51
851,856	-10,75
852,031	44,54
852,206	-8,7
852,381	5,63
852,556	56,83
852,731	89,6
852,906	-29,18
853,081	30,21
853,256	28,16
853,431	54,78
853,606	-20,99
853,781	67,07
853,956	15,87
854,131	32,26
854,305	-37,38
854,48	52,74
854,655	73,21
854,83	54,78
855,005	-16,9
855,18	-12,8
855,354	46,59
855,529	36,35
855,704	28,16
855,879	50,69
856,053	19,97
856,228	52,74
856,403	-41,47
856,577	54,78
856,752	-18,94
856,926	13,82
857,101	48,64
857,276	-27,14
857,45	5,63
857,625	9,73
857,799	26,11
857,974	22,02
858,148	-12,8
858,323	40,45
858,497	30,21
858,672	-4,61
858,846	62,98
859,02	40,45
859,195	40,45
859,369	11,78
859,543	42,5
859,718	56,83
859,892	11,78
860,066	-39,42
860,241	-57,86
860,415	-12,8
860,589	28,16
860,763	-18,94
860,938	-2,56
861,112	97,79
861,286	-0,51
861,46	3,58
861,634	50,69
861,808	60,93
861,982	48,64
862,157	-12,8
862,331	-4,61
862,505	54,78
862,679	-45,57
862,853	22,02
863,027	-27,14
863,201	58,88
863,375	1,54
863,549	19,97
863,722	-61,95
863,896	99,84
864,07	-29,18
864,244	22,02
864,418	-39,42
864,592	22,02
864,766	-4,61
864,939	11,78
865,113	3,58
865,287	-0,51
865,461	79,36
865,634	42,5
865,808	-27,14
865,982	-0,51
866,156	-51,71
866,329	44,54
866,503	3,58
866,676	24,06
866,85	13,82
867,024	54,78
867,197	50,69
867,371	58,88
867,544	-20,99
867,718	52,74
867,891	32,26
868,065	32,26
868,238	-27,14
868,412	17,92
868,585	62,98
868,759	19,97
868,932	56,83
869,105	11,78
869,279	-8,7
869,452	56,83
869,625	-2,56
869,799	69,12
869,972	-8,7
870,145	89,6
870,319	-12,8
870,492	3,58
870,665	32,26
870,838	1,54
871,011	-16,9
871,185	65,02
871,358	28,16
871,531	13,82
871,704	-6,66
871,877	60,93
872,05	7,68
872,223	46,59
872,396	5,63
872,569	48,64
872,742	-49,66
872,915	3,58
873,088	-37,38
873,261	30,21
873,434	60,93
873,607	-0,51
873,78	73,21
873,953	-12,8
874,126	52,74
874,299	15,87
874,471	101,89
874,644	-41,47
874,817	19,97
874,99	105,98
875,163	-8,7
875,335	-29,18
875,508	-2,56
875,681	62,98
875,853	-20,99
876,026	15,87
876,199	-25,09
876,371	7,68
876,544	-6,66
876,717	36,35
876,889	-6,66
877,062	56,83
877,234	-2,56
877,407	11,78
877,579	46,59
877,752	3,58
877,924	28,16
878,097	28,16
878,269	22,02
878,442	60,93
878,614	-10,75
878,786	79,36
878,959	-53,76
879,131	-27,14
879,303	46,59
879,476	50,69
879,648	3,58
879,82	44,54
879,993	-12,8
880,165	-2,56
880,337	67,07
880,509	-12,8
880,681	-31,23
880,854	-45,57
881,026	73,21
881,198	28,16
881,37	-37,38
881,542	52,74
881,714	65,02
881,886	34,3
882,058	9,73
882,23	83,45
882,402	-80,38
882,574	62,98
882,746	15,87
882,918	7,68
883,09	5,63
883,262	9,73
883,434	28,16
883,606	22,02
883,778	-25,09
883,95	11,78
884,122	-4,61
884,293	11,78
884,465	32,26
884,637	30,21
884,809	-33,28
884,98	17,92
885,152	-10,75
885,324	15,87
885,496	-18,94
885,667	1,54
885,839	-10,75
886,011	15,87
886,182	60,93
886,354	105,98
886,525	-16,9
886,697	85,5
886,869	-68,09
887,04	40,45
887,212	-33,28
887,383	110,08
887,555	5,63
887,726	-35,33
887,897	-2,56
888,069	38,4
888,24	52,74
888,412	40,45
888,583	24,06
888,754	-16,9
888,926	-49,66
889,097	1,54
889,268	7,68
889,44	9,73
889,611	42,5
889,782	-25,09
889,953	-20,99
890,125	28,16
890,296	-4,61
890,467	-29,18
890,638	-55,81
890,809	36,35
890,98	13,82
891,151	-2,56
891,323	54,78
891,494	85,5
891,665	19,97
891,836	-18,94
892,007	52,74
892,178	40,45
892,349	-2,56
892,52	19,97
892,691	11,78
892,862	5,63
893,032	-94,72
893,203	77,31
893,374	48,64
893,545	-37,38
893,716	15,87
893,887	48,64
894,057	26,11
894,228	5,63
894,399	-2,56
894,57	-14,85
894,74	-4,61
894,911	3,58
895,082	44,54
895,253	34,3
895,423	26,11
895,594	36,35
895,764	1,54
895,935	77,31
896,106	19,97
896,276	-0,51
896,447	46,59
896,617	44,54
896,788	-47,62
896,958	-33,28
897,129	-18,94
897,299	-4,61
897,47	79,36
897,64	-4,61
897,81	83,45
897,981	28,16
898,151	38,4
898,322	-23,04
898,492	44,54
898,662	-0,51
898,832	-29,18
899,003	-12,8
899,173	-31,23
899,343	52,74
899,513	32,26
