Data from deuterium_USB4F104151__7__10-57-07-451.txt Node

Date: Wed Apr 15 10:57:07 EDT 2026
User: LaboPhy
Spectrometer: USB4F10415
Trigger mode: 4
Integration Time (sec): 1,000000E-1
Scans to average: 1
Electric dark correction enabled: true
Nonlinearity correction enabled: false
Boxcar width: 0
XAxis mode: Wavelengths
Number of Pixels in Spectrum: 3648
>>>>>Begin Spectral Data<<<<<
178,204	-446,63
178,424	-446,63
178,644	-446,63
178,864	-407,72
179,084	-481,44
179,304	-49,32
179,524	-24,75
179,744	-8,36
179,964	36,69
180,184	89,94
180,404	1,88
180,624	-4,27
180,844	57,17
181,064	-82,09
181,283	5,97
181,503	-67,75
181,723	44,88
181,943	-200,87
182,163	257,87
182,383	-61,61
182,602	-26,79
182,822	210,77
183,042	102,23
183,262	-73,9
183,482	12,12
183,701	61,27
183,921	-51,37
184,141	-129,19
184,361	-4,27
184,58	20,31
184,8	-18,6
185,02	-8,36
185,239	149,33
185,459	-16,55
185,679	83,8
185,898	-108,71
186,118	36,69
186,338	77,65
186,557	26,45
186,777	-100,52
186,997	-55,47
187,216	-67,75
187,436	188,24
187,655	5,97
187,875	44,88
188,095	-41,13
188,314	180,05
188,534	61,27
188,753	-34,99
188,973	147,28
189,192	151,38
189,412	12,12
189,631	32,6
189,851	102,23
190,07	159,57
190,29	-84,14
190,509	-43,18
190,729	36,69
190,948	223,06
191,168	184,15
191,387	22,36
191,607	12,12
191,826	122,71
192,045	36,69
192,265	-26,79
192,484	-4,27
192,704	10,07
192,923	-166,06
193,142	202,58
193,362	98,13
193,581	153,43
193,8	38,74
194,02	73,56
194,239	12,12
194,458	87,89
194,678	-30,89
194,897	77,65
195,116	24,4
195,335	106,32
195,555	42,84
195,774	-55,47
195,993	159,57
196,212	94,04
196,432	-53,42
196,651	-61,61
196,87	79,7
197,089	171,86
197,308	34,64
197,528	53,08
197,747	-102,57
197,966	-10,41
198,185	73,56
198,404	-43,18
198,623	147,28
198,842	151,38
199,062	135
199,281	98,13
199,5	20,31
199,719	32,6
199,938	42,84
200,157	87,89
200,376	67,41
200,595	132,95
200,814	8,02
201,033	-6,31
201,252	135
201,471	57,17
201,69	34,64
201,909	38,74
202,128	161,62
202,347	110,42
202,566	81,75
202,785	-84,14
203,004	30,55
203,223	300,88
203,442	5,97
203,661	-18,6
203,879	79,7
204,098	108,37
204,317	42,84
204,536	30,55
204,755	116,56
204,974	112,47
205,193	-104,62
205,411	198,48
205,63	100,18
205,849	71,51
206,068	-32,94
206,287	-53,42
206,505	110,42
206,724	61,27
206,943	46,93
207,162	12,12
207,381	126,8
207,599	-12,46
207,818	-32,94
208,037	-57,51
208,255	59,22
208,474	24,4
208,693	24,4
208,911	-30,89
209,13	159,57
209,349	139,09
209,567	24,4
209,786	20,31
210,005	89,94
210,223	79,7
210,442	-172,2
210,661	-32,94
210,879	116,56
211,098	16,21
211,316	48,98
211,535	1,88
211,753	57,17
211,972	79,7
212,191	-41,13
212,409	-45,23
212,628	36,69
212,846	-14,51
213,065	-26,79
213,283	71,51
213,502	12,12
213,72	-59,56
213,938	-43,18
214,157	-4,27
214,375	106,32
214,594	-34,99
214,812	32,6
215,031	-0,17
215,249	-75,95
215,467	126,8
215,686	63,32
215,904	-53,42
216,122	28,5
216,341	53,08
216,559	-2,22
216,778	132,95
216,996	118,61
217,214	30,55
217,432	3,93
217,651	-59,56
217,869	63,32
218,087	-18,6
218,306	-24,75
218,524	16,21
218,742	69,46
218,96	112,47
219,179	-94,38
219,397	55,12
219,615	202,58
219,833	169,81
220,051	-37,03
220,27	8,02
220,488	38,74
220,706	83,8
220,924	-24,75
221,142	-10,41
221,36	28,5
221,578	77,65
221,796	14,17
222,015	-20,65
222,233	36,69
222,451	167,76
222,669	-28,84
222,887	87,89
223,105	-51,37
223,323	-2,22
223,541	-10,41
223,759	24,4
223,977	-8,36
224,195	110,42
224,413	112,47
224,631	-32,94
224,849	38,74
225,067	212,82
225,285	-18,6
225,503	-10,41
225,721	-127,14
225,939	30,55
226,157	61,27
226,375	167,76
226,592	30,55
226,81	1,88
227,028	218,96
227,246	112,47
227,464	98,13
227,682	69,46
227,9	77,65
228,117	55,12
228,335	40,79
228,553	71,51
228,771	-12,46
228,989	28,5
229,206	79,7
229,424	-10,41
229,642	-34,99
229,86	-18,6
230,077	85,84
230,295	51,03
230,513	132,95
230,731	143,19
230,948	214,87
231,166	128,85
231,384	-67,75
231,601	-75,95
231,819	130,9
232,037	-2,22
232,254	51,03
232,472	20,31
232,689	-53,42
232,907	73,56
233,125	22,36
233,342	-61,61
233,56	-22,7
233,777	-43,18
233,995	14,17
234,213	46,93
234,43	32,6
234,648	3,93
234,865	14,17
235,083	28,5
235,3	-20,65
235,518	67,41
235,735	81,75
235,953	108,37
236,17	67,41
236,388	-8,36
236,605	12,12
236,822	96,08
237,04	163,67
237,257	48,98
237,475	-53,42
237,692	69,46
237,909	-10,41
238,127	-0,17
238,344	5,97
238,562	8,02
238,779	-4,27
238,996	-26,79
239,214	46,93
239,431	48,98
239,648	-20,65
239,865	69,46
240,083	71,51
240,3	-51,37
240,517	-73,9
240,735	69,46
240,952	120,66
241,169	12,12
241,386	48,98
241,603	28,5
241,821	-63,66
242,038	55,12
242,255	231,25
242,472	24,4
242,689	114,52
242,907	20,31
243,124	55,12
243,341	1,88
243,558	-6,31
243,775	-102,57
243,992	-131,24
244,209	38,74
244,426	104,28
244,643	120,66
244,86	26,45
245,078	155,47
245,295	20,31
245,512	-53,42
245,729	34,64
245,946	102,23
246,163	-28,84
246,38	-26,79
246,597	36,69
246,814	36,69
247,031	-28,84
247,248	-51,37
247,464	106,32
247,681	69,46
247,898	-28,84
248,115	30,55
248,332	22,36
248,549	28,5
248,766	63,32
248,983	63,32
249,2	96,08
249,417	102,23
249,633	-71,85
249,85	46,93
250,067	75,6
250,284	38,74
250,501	48,98
250,717	18,26
250,934	-55,47
251,151	-59,56
251,368	59,22
251,585	48,98
251,801	30,55
252,018	-0,17
252,235	44,88
252,451	-106,67
252,668	-63,66
252,885	48,98
253,102	-16,55
253,318	79,7
253,535	44,88
253,752	-67,75
253,968	-41,13
254,185	-102,57
254,401	94,04
254,618	65,36
254,835	-73,9
255,051	124,76
255,268	24,4
255,484	53,08
255,701	42,84
255,917	-22,7
256,134	-61,61
256,351	38,74
256,567	-92,33
256,784	18,26
257	-16,55
257,217	147,28
257,433	83,8
257,65	-12,46
257,866	143,19
258,082	-37,03
258,299	28,5
258,515	16,21
258,732	63,32
258,948	-59,56
259,165	32,6
259,381	-32,94
259,597	53,08
259,814	18,26
260,03	-41,13
260,246	10,07
260,463	75,6
260,679	151,38
260,895	71,51
261,112	51,03
261,328	-30,89
261,544	-30,89
261,761	67,41
261,977	-73,9
262,193	-71,85
262,409	34,64
262,626	53,08
262,842	8,02
263,058	-12,46
263,274	77,65
263,49	71,51
263,707	114,52
263,923	104,28
264,139	-112,81
264,355	-8,36
264,571	178
264,787	61,27
265,004	118,61
265,22	-59,56
265,436	-18,6
265,652	-16,55
265,868	16,21
266,084	-73,9
266,3	38,74
266,516	-49,32
266,732	89,94
266,948	26,45
267,164	-26,79
267,38	46,93
267,596	-34,99
267,812	173,91
268,028	36,69
268,244	46,93
268,46	46,93
268,676	-73,9
268,892	69,46
269,108	44,88
269,324	-47,27
269,54	-92,33
269,756	18,26
269,972	-102,57
270,188	-26,79
270,403	-71,85
270,619	-67,75
270,835	67,41
271,051	-16,55
271,267	-26,79
271,483	42,84
271,698	46,93
271,914	98,13
272,13	26,45
272,346	-45,23
272,562	-10,41
272,777	98,13
272,993	48,98
273,209	-104,62
273,425	22,36
273,64	-18,6
273,856	98,13
274,072	-84,14
274,287	-61,61
274,503	94,04
274,719	61,27
274,934	-82,09
275,15	-43,18
275,366	16,21
275,581	-45,23
275,797	-10,41
276,012	-4,27
276,228	-4,27
276,444	-16,55
276,659	102,23
276,875	-53,42
277,09	-125,1
277,306	-18,6
277,521	48,98
277,737	65,36
277,952	34,64
278,168	-41,13
278,383	46,93
278,599	65,36
278,814	53,08
279,03	-4,27
279,245	87,89
279,461	12,12
279,676	65,36
279,892	-73,9
280,107	-69,8
280,322	-0,17
280,538	36,69
280,753	-8,36
280,969	34,64
281,184	-16,55
281,399	151,38
281,615	16,21
281,83	-14,51
282,045	-90,28
282,26	-65,71
282,476	42,84
282,691	81,75
282,906	16,21
283,122	145,24
283,337	-22,7
283,552	48,98
283,767	-63,66
283,983	98,13
284,198	-22,7
284,413	20,31
284,628	-86,19
284,843	10,07
285,058	87,89
285,274	55,12
285,489	-96,43
285,704	104,28
285,919	12,12
286,134	36,69
286,349	-37,03
286,564	40,79
286,779	71,51
286,995	-12,46
287,21	-92,33
287,425	10,07
287,64	-73,9
287,855	5,97
288,07	-10,41
288,285	110,42
288,5	91,99
288,715	77,65
288,93	-16,55
289,145	-75,95
289,36	30,55
289,575	-4,27
289,79	110,42
290,004	36,69
290,219	96,08
290,434	-2,22
290,649	18,26
290,864	-37,03
291,079	-18,6
291,294	10,07
291,509	61,27
291,724	10,07
291,938	-71,85
292,153	44,88
292,368	-12,46
292,583	22,36
292,798	126,8
293,012	81,75
293,227	5,97
293,442	53,08
293,657	163,67
293,871	137,04
294,086	85,84
294,301	216,91
294,516	147,28
294,73	38,74
294,945	-71,85
295,16	-18,6
295,374	48,98
295,589	143,19
295,804	-12,46
296,018	38,74
296,233	77,65
296,447	-18,6
296,662	-26,79
296,877	141,14
297,091	61,27
297,306	-10,41
297,52	12,12
297,735	75,6
297,949	40,79
298,164	14,17
298,378	32,6
298,593	-39,08
298,807	12,12
299,022	79,7
299,236	126,8
299,451	-2,22
299,665	-20,65
299,88	-53,42
300,094	51,03
300,309	-4,27
300,523	10,07
300,737	5,97
300,952	42,84
301,166	114,52
301,381	-37,03
301,595	-45,23
301,809	24,4
302,024	1,88
302,238	-41,13
302,452	153,43
302,667	55,12
302,881	122,71
303,095	36,69
303,309	16,21
303,524	-12,46
303,738	-14,51
303,952	-4,27
304,166	94,04
304,381	-149,67
304,595	180,05
304,809	-16,55
305,023	32,6
305,237	61,27
305,452	48,98
305,666	5,97
305,88	20,31
306,094	175,95
306,308	16,21
306,522	57,17
306,736	55,12
306,95	98,13
307,164	36,69
307,379	38,74
307,593	186,19
307,807	32,6
308,021	120,66
308,235	100,18
308,449	-184,49
308,663	-34,99
308,877	184,15
309,091	81,75
309,305	57,17
309,519	-110,76
309,733	204,63
309,947	-114,86
310,161	161,62
310,374	75,6
310,588	151,38
310,802	-24,75
311,016	-61,61
311,23	75,6
311,444	-34,99
311,658	79,7
311,872	153,43
312,085	102,23
312,299	212,82
312,513	151,38
312,727	36,69
312,941	28,5
313,154	12,12
313,368	104,28
313,582	77,65
313,796	51,03
314,009	12,12
314,223	128,85
314,437	-0,17
314,651	87,89
314,864	44,88
315,078	32,6
315,292	-82,09
315,505	-2,22
315,719	102,23
315,933	139,09
316,146	28,5
316,36	-57,51
316,573	69,46
316,787	120,66
317,001	48,98
317,214	-32,94
317,428	102,23
317,641	-28,84
317,855	8,02
318,068	57,17
318,282	-0,17
318,495	225,11
318,709	28,5
318,922	-24,75
319,136	126,8
319,349	77,65
319,563	-61,61
319,776	61,27
319,99	-125,1
320,203	-0,17
320,417	-65,71
320,63	120,66
320,843	143,19
321,057	110,42
321,27	24,4
321,483	118,61
321,697	143,19
321,91	-24,75
322,124	87,89
322,337	61,27
322,55	-63,66
322,763	5,97
322,977	-51,37
323,19	-34,99
323,403	-37,03
323,617	98,13
323,83	87,89
324,043	-47,27
324,256	67,41
324,469	-12,46
324,683	132,95
324,896	16,21
325,109	-45,23
325,322	-82,09
325,535	151,38
325,748	147,28
325,962	22,36
326,175	42,84
326,388	55,12
326,601	126,8
326,814	-12,46
327,027	12,12
327,24	151,38
327,453	-82,09
327,666	155,47
327,879	165,71
328,092	137,04
328,305	96,08
328,518	-2,22
328,731	44,88
328,944	-0,17
329,157	55,12
329,37	-43,18
329,583	178
329,796	167,76
330,009	-34,99
330,222	59,22
330,435	118,61
330,648	-6,31
330,861	44,88
331,073	10,07
331,286	38,74
331,499	42,84
331,712	-2,22
331,925	77,65
332,138	79,7
332,35	141,14
332,563	-4,27
332,776	198,48
332,989	40,79
333,202	5,97
333,414	46,93
333,627	-16,55
333,84	-53,42
334,053	65,36
334,265	-37,03
334,478	96,08
334,691	81,75
334,903	100,18
335,116	-34,99
335,329	65,36
335,541	108,37
335,754	188,24
335,966	-71,85
336,179	20,31
336,392	91,99
336,604	83,8
336,817	126,8
337,029	167,76
337,242	126,8
337,454	89,94
337,667	159,57
337,88	159,57
338,092	128,85
338,305	75,6
338,517	-61,61
338,729	135
338,942	114,52
339,154	-22,7
339,367	-12,46
339,579	128,85
339,792	-24,75
340,004	65,36
340,217	91,99
340,429	38,74
340,641	-61,61
340,854	-16,55
341,066	20,31
341,278	120,66
341,491	169,81
341,703	57,17
341,915	-14,51
342,128	108,37
342,34	102,23
342,552	-32,94
342,764	67,41
342,977	79,7
343,189	110,42
343,401	120,66
343,613	-43,18
343,826	-24,75
344,038	-98,47
344,25	85,84
344,462	14,17
344,674	8,02
344,886	30,55
345,099	87,89
345,311	16,21
345,523	40,79
345,735	-20,65
345,947	118,61
346,159	87,89
346,371	40,79
346,583	34,64
346,795	139,09
347,007	53,08
347,219	57,17
347,431	55,12
347,643	192,34
347,855	14,17
348,067	69,46
348,279	-108,71
348,491	32,6
348,703	145,24
348,915	-4,27
349,127	18,26
349,339	-12,46
349,551	16,21
349,763	112,47
349,975	38,74
350,187	61,27
350,399	130,9
350,61	96,08
350,822	-77,99
351,034	110,42
351,246	137,04
351,458	51,03
351,669	81,75
351,881	116,56
352,093	87,89
352,305	204,63
352,517	85,84
352,728	143,19
352,94	28,5
353,152	77,65
353,363	28,5
353,575	77,65
353,787	98,13
353,999	114,52
354,21	241,49
354,422	-51,37
354,633	79,7
354,845	98,13
355,057	63,32
355,268	71,51
355,48	73,56
355,692	24,4
355,903	122,71
356,115	48,98
356,326	-43,18
356,538	190,29
356,749	44,88
356,961	132,95
357,172	63,32
357,384	30,55
357,595	249,68
357,807	40,79
358,018	24,4
358,23	5,97
358,441	100,18
358,653	32,6
358,864	53,08
359,075	5,97
359,287	69,46
359,498	153,43
359,709	48,98
359,921	81,75
360,132	98,13
360,344	91,99
360,555	8,02
360,766	169,81
360,977	16,21
361,189	161,62
361,4	-32,94
361,611	85,84
361,823	124,76
362,034	61,27
362,245	-65,71
362,456	104,28
362,667	94,04
362,879	53,08
363,09	128,85
363,301	122,71
363,512	85,84
363,723	10,07
363,935	96,08
364,146	63,32
364,357	38,74
364,568	110,42
364,779	-34,99
364,99	132,95
365,201	-45,23
365,412	126,8
365,623	-39,08
365,834	77,65
366,045	104,28
366,256	120,66
366,467	198,48
366,678	145,24
366,889	69,46
367,1	24,4
367,311	178
367,522	55,12
367,733	104,28
367,944	71,51
368,155	85,84
368,366	128,85
368,577	206,67
368,788	184,15
368,999	55,12
369,209	87,89
369,42	216,91
369,631	235,35
369,842	108,37
370,053	57,17
370,264	128,85
370,474	-0,17
370,685	40,79
370,896	110,42
371,107	188,24
371,317	87,89
371,528	71,51
371,739	153,43
371,95	139,09
372,16	91,99
372,371	-0,17
372,582	8,02
372,792	112,47
373,003	63,32
373,214	114,52
373,424	77,65
373,635	5,97
373,846	153,43
374,056	124,76
374,267	104,28
374,477	75,6
374,688	46,93
374,898	114,52
375,109	5,97
375,319	73,56
375,53	30,55
375,74	165,71
375,951	18,26
376,161	102,23
376,372	233,3
376,582	22,36
376,793	104,28
377,003	55,12
377,214	67,41
377,424	71,51
377,635	108,37
377,845	10,07
378,055	141,14
378,266	-34,99
378,476	53,08
378,686	108,37
378,897	169,81
379,107	132,95
379,317	30,55
379,528	-55,47
379,738	186,19
379,948	12,12
380,158	196,43
380,369	32,6
380,579	153,43
380,789	63,32
380,999	67,41
381,21	139,09
381,42	235,35
381,63	42,84
381,84	112,47
382,05	135
382,261	122,71
382,471	175,95
382,681	-39,08
382,891	149,33
383,101	116,56
383,311	-22,7
383,521	-37,03
383,731	135
383,941	137,04
384,151	106,32
384,361	69,46
384,571	73,56
384,781	87,89
384,991	243,54
385,201	153,43
385,411	94,04
385,621	87,89
385,831	89,94
386,041	57,17
386,251	42,84
386,461	143,19
386,671	-4,27
386,881	173,91
387,091	124,76
387,301	192,34
387,511	102,23
387,72	151,38
387,93	169,81
388,14	-61,61
388,35	151,38
388,56	147,28
388,769	165,71
388,979	163,67
389,189	38,74
389,399	96,08
389,609	96,08
389,818	96,08
390,028	120,66
390,238	141,14
390,447	69,46
390,657	20,31
390,867	34,64
391,076	-96,43
391,286	18,26
391,496	36,69
391,705	102,23
391,915	143,19
392,125	53,08
392,334	-45,23
392,544	163,67
392,753	10,07
392,963	-84,14
393,172	98,13
393,382	69,46
393,591	274,26
393,801	16,21
394,01	184,15
394,22	85,84
394,429	36,69
394,639	69,46
394,848	73,56
395,058	116,56
395,267	46,93
395,477	61,27
395,686	188,24
395,895	241,49
396,105	259,92
396,314	42,84
396,524	46,93
396,733	106,32
396,942	180,05
397,152	83,8
397,361	155,47
397,57	143,19
397,78	53,08
397,989	124,76
398,198	235,35
398,407	71,51
398,617	128,85
398,826	104,28
399,035	40,79
399,244	204,63
399,453	30,55
399,663	79,7
399,872	34,64
400,081	-6,31
400,29	218,96
400,499	-20,65
400,708	118,61
400,917	112,47
401,127	71,51
401,336	30,55
401,545	241,49
401,754	135
401,963	55,12
402,172	20,31
402,381	53,08
402,59	46,93
402,799	155,47
403,008	91,99
403,217	3,93
403,426	155,47
403,635	1,88
403,844	5,97
404,053	55,12
404,262	91,99
404,471	216,91
404,68	79,7
404,888	18,26
405,097	89,94
405,306	69,46
405,515	153,43
405,724	65,36
405,933	175,95
406,142	81,75
406,35	145,24
406,559	44,88
406,768	112,47
406,977	157,52
407,185	73,56
407,394	98,13
407,603	32,6
407,812	94,04
408,02	122,71
408,229	114,52
408,438	147,28
408,646	-2,22
408,855	102,23
409,064	139,09
409,272	190,29
409,481	290,64
409,69	257,87
409,898	216,91
410,107	366,42
410,315	347,98
410,524	77,65
410,733	165,71
410,941	178
411,15	225,11
411,358	251,73
411,567	251,73
411,775	38,74
411,984	91,99
412,192	120,66
412,401	36,69
412,609	151,38
412,818	137,04
413,026	126,8
413,234	5,97
413,443	10,07
413,651	-32,94
413,86	8,02
414,068	128,85
414,276	272,21
414,485	44,88
414,693	196,43
414,901	114,52
415,11	110,42
415,318	48,98
415,526	-24,75
415,734	81,75
415,943	85,84
416,151	135
416,359	36,69
416,567	83,8
416,776	87,89
416,984	71,51
417,192	145,24
417,4	3,93
417,608	-49,32
417,817	-57,51
418,025	151,38
418,233	264,02
418,441	-32,94
418,649	10,07
418,857	98,13
419,065	194,39
419,273	-0,17
419,481	14,17
419,689	61,27
419,897	-34,99
420,105	-28,84
420,313	118,61
420,521	161,62
420,729	61,27
420,937	3,93
421,145	-51,37
421,353	118,61
421,561	147,28
421,769	24,4
421,977	-16,55
422,185	100,18
422,393	102,23
422,601	135
422,809	98,13
423,017	94,04
423,224	69,46
423,432	114,52
423,64	120,66
423,848	184,15
424,056	-20,65
424,263	206,67
424,471	63,32
424,679	51,03
424,887	55,12
425,094	89,94
425,302	126,8
425,51	8,02
425,718	75,6
425,925	18,26
426,133	-49,32
426,341	151,38
426,548	71,51
426,756	18,26
426,964	73,56
427,171	-53,42
427,379	38,74
427,586	85,84
427,794	94,04
428,001	85,84
428,209	81,75
428,417	96,08
428,624	77,65
428,832	96,08
429,039	1,88
429,247	-43,18
429,454	-12,46
429,662	135
429,869	55,12
430,076	20,31
430,284	116,56
430,491	171,86
430,699	114,52
430,906	182,1
431,114	22,36
431,321	-10,41
431,528	36,69
431,736	165,71
431,943	210,77
432,15	229,2
432,358	208,72
432,565	462,67
432,772	280,4
432,979	708,43
433,187	702,28
433,394	853,83
433,601	800,59
433,808	1005,38
434,016	1011,53
434,223	1005,38
434,43	892,74
434,637	798,54
434,844	800,59
435,052	663,37
435,259	477,01
435,466	434
435,673	284,5
435,88	218,96
436,087	225,11
436,294	264,02
436,501	178
436,708	38,74
436,915	77,65
437,122	218,96
437,329	-32,94
437,537	10,07
437,743	75,6
437,95	229,2
438,157	112,47
438,364	122,71
438,571	-14,51
438,778	59,22
438,985	104,28
439,192	116,56
439,399	14,17
439,606	32,6
439,813	77,65
440,02	210,77
440,227	194,39
440,433	104,28
440,64	137,04
440,847	-67,75
441,054	44,88
441,261	153,43
441,467	128,85
441,674	-0,17
441,881	104,28
442,088	32,6
442,294	153,43
442,501	120,66
442,708	71,51
442,914	38,74
443,121	102,23
443,328	110,42
443,534	48,98
443,741	63,32
443,948	-37,03
444,154	77,65
444,361	216,91
444,568	61,27
444,774	61,27
444,981	-133,29
445,187	104,28
445,394	40,79
445,6	22,36
445,807	22,36
446,013	32,6
446,22	-98,47
446,426	44,88
446,633	100,18
446,839	143,19
447,046	-61,61
447,252	159,57
447,459	10,07
447,665	1,88
447,871	83,8
448,078	264,02
448,284	130,9
448,491	81,75
448,697	120,66
448,903	79,7
449,11	63,32
449,316	-12,46
449,522	161,62
449,728	110,42
449,935	94,04
450,141	-6,31
450,347	108,37
450,553	67,41
450,76	61,27
450,966	32,6
451,172	3,93
451,378	57,17
451,584	-16,55
451,791	182,1
451,997	85,84
452,203	8,02
452,409	12,12
452,615	116,56
452,821	-37,03
453,027	-37,03
453,233	216,91
453,44	28,5
453,646	-4,27
453,852	65,36
454,058	-51,37
454,264	132,95
454,47	85,84
454,676	-20,65
454,882	28,5
455,088	14,17
455,294	51,03
455,5	83,8
455,705	83,8
455,911	-34,99
456,117	-16,55
456,323	71,51
456,529	57,17
456,735	32,6
456,941	73,56
457,147	38,74
457,352	118,61
457,558	-22,7
457,764	87,89
457,97	-10,41
458,176	46,93
458,381	28,5
458,587	200,53
458,793	126,8
458,999	-61,61
459,204	65,36
459,41	65,36
459,616	83,8
459,821	147,28
460,027	-77,99
460,233	65,36
460,438	161,62
460,644	106,32
460,85	61,27
461,055	180,05
461,261	94,04
461,466	20,31
461,672	55,12
461,878	20,31
462,083	112,47
462,289	-121
462,494	143,19
462,7	114,52
462,905	120,66
463,111	167,76
463,316	139,09
463,522	130,9
463,727	18,26
463,932	110,42
464,138	-4,27
464,343	89,94
464,549	165,71
464,754	178
464,959	114,52
465,165	81,75
465,37	161,62
465,575	73,56
465,781	104,28
465,986	36,69
466,191	28,5
466,397	26,45
466,602	261,97
466,807	79,7
467,012	147,28
467,218	-24,75
467,423	85,84
467,628	26,45
467,833	-20,65
468,038	91,99
468,244	-26,79
468,449	81,75
468,654	26,45
468,859	48,98
469,064	48,98
469,269	55,12
469,474	118,61
469,679	32,6
469,885	22,36
470,09	38,74
470,295	-2,22
470,5	8,02
470,705	135
470,91	69,46
471,115	112,47
471,32	81,75
471,525	157,52
471,73	186,19
471,935	-32,94
472,139	-2,22
472,344	8,02
472,549	-63,66
472,754	110,42
472,959	192,34
473,164	110,42
473,369	104,28
473,574	145,24
473,778	116,56
473,983	85,84
474,188	79,7
474,393	38,74
474,598	-2,22
474,802	147,28
475,007	61,27
475,212	225,11
475,417	-26,79
475,621	173,91
475,826	59,22
476,031	71,51
476,235	38,74
476,44	85,84
476,645	73,56
476,849	32,6
477,054	53,08
477,259	116,56
477,463	151,38
477,668	151,38
477,872	135
478,077	57,17
478,282	67,41
478,486	-8,36
478,691	108,37
478,895	75,6
479,1	87,89
479,304	192,34
479,509	112,47
479,713	163,67
479,918	126,8
480,122	22,36
480,326	71,51
480,531	139,09
480,735	53,08
480,94	20,31
481,144	118,61
481,348	104,28
481,553	83,8
481,757	34,64
481,961	57,17
482,166	167,76
482,37	-16,55
482,574	71,51
482,778	-8,36
482,983	120,66
483,187	200,53
483,391	100,18
483,595	173,91
483,8	403,28
484,004	849,74
484,208	1230,66
484,412	2148,15
484,616	3239,72
484,821	4669,2
485,025	5750,53
485,229	7417,57
485,433	8715,98
485,637	9903,81
485,841	10542,77
486,045	10907,31
486,249	10530,48
486,453	9856,7
486,657	8861,39
486,861	7706,34
487,065	6674,16
487,269	5519,11
487,473	4566,8
487,677	3753,76
487,881	3186,47
488,085	2268,98
488,289	1908,54
488,493	1253,19
488,697	1120,07
488,901	636,75
489,105	479,05
489,309	200,53
489,512	315,22
489,716	313,17
489,92	165,71
490,124	167,76
490,328	235,35
490,531	180,05
490,735	212,82
490,939	-4,27
491,143	171,86
491,346	126,8
491,55	137,04
491,754	94,04
491,958	194,39
492,161	98,13
492,365	130,9
492,569	75,6
492,772	118,61
492,976	167,76
493,18	22,36
493,383	89,94
493,587	130,9
493,79	128,85
493,994	59,22
494,197	94,04
494,401	85,84
494,605	22,36
494,808	143,19
495,012	20,31
495,215	237,39
495,419	204,63
495,622	59,22
495,825	36,69
496,029	83,8
496,232	81,75
496,436	79,7
496,639	120,66
496,843	-37,03
497,046	-61,61
497,249	212,82
497,453	83,8
497,656	34,64
497,859	65,36
498,063	153,43
498,266	116,56
498,469	-51,37
498,673	5,97
498,876	51,03
499,079	12,12
499,282	77,65
499,485	274,26
499,689	85,84
499,892	165,71
500,095	5,97
500,298	63,32
500,501	-26,79
500,705	8,02
500,908	51,03
501,111	-28,84
501,314	147,28
501,517	196,43
501,72	22,36
501,923	-26,79
502,126	69,46
502,329	184,15
502,532	53,08
502,735	14,17
502,938	192,34
503,141	61,27
503,344	-39,08
503,547	147,28
503,75	61,27
503,953	-37,03
504,156	153,43
504,359	55,12
504,562	61,27
504,765	77,65
504,968	83,8
505,17	75,6
505,373	94,04
505,576	143,19
505,779	36,69
505,982	-18,6
506,185	108,37
506,387	48,98
506,59	155,47
506,793	20,31
506,996	116,56
507,198	122,71
507,401	126,8
507,604	141,14
507,807	32,6
508,009	46,93
508,212	135
508,415	-82,09
508,617	-10,41
508,82	48,98
509,022	24,4
509,225	96,08
509,428	20,31
509,63	48,98
509,833	-2,22
510,035	194,39
510,238	106,32
510,44	-55,47
510,643	44,88
510,845	159,57
511,048	194,39
511,25	57,17
511,453	71,51
511,655	81,75
511,858	116,56
512,06	233,3
512,262	51,03
512,465	-0,17
512,667	71,51
512,87	-6,31
513,072	130,9
513,274	155,47
513,477	-57,51
513,679	3,93
513,881	44,88
514,084	-22,7
514,286	85,84
514,488	161,62
514,69	57,17
514,893	30,55
515,095	98,13
515,297	-2,22
515,499	75,6
515,701	-61,61
515,904	137,04
516,106	180,05
516,308	53,08
516,51	173,91
516,712	94,04
516,914	61,27
517,116	8,02
517,318	-49,32
517,52	-47,27
517,722	137,04
517,925	20,31
518,127	16,21
518,329	104,28
518,531	-92,33
518,733	110,42
518,935	-12,46
519,136	126,8
519,338	3,93
519,54	67,41
519,742	-37,03
519,944	159,57
520,146	124,76
520,348	42,84
520,55	132,95
520,752	18,26
520,954	-28,84
521,155	14,17
521,357	12,12
521,559	114,52
521,761	110,42
521,963	118,61
522,164	77,65
522,366	208,72
522,568	130,9
522,77	143,19
522,971	104,28
523,173	28,5
523,375	55,12
523,576	-10,41
523,778	30,55
523,98	32,6
524,181	124,76
524,383	143,19
524,584	-34,99
524,786	-2,22
524,988	-16,55
525,189	-0,17
525,391	57,17
525,592	-39,08
525,794	-86,19
525,995	112,47
526,197	151,38
526,398	233,3
526,6	24,4
526,801	135
527,003	-37,03
527,204	36,69
527,406	89,94
527,607	44,88
527,808	1,88
528,01	36,69
528,211	128,85
528,412	-49,32
528,614	151,38
528,815	122,71
529,016	94,04
529,218	12,12
529,419	20,31
529,62	-47,27
529,822	149,33
530,023	85,84
530,224	28,5
530,425	36,69
530,626	-4,27
530,828	53,08
531,029	-63,66
531,23	48,98
531,431	-2,22
531,632	118,61
531,833	-53,42
532,035	67,41
532,236	48,98
532,437	71,51
532,638	-30,89
532,839	-73,9
533,04	77,65
533,241	139,09
533,442	120,66
533,643	57,17
533,844	-26,79
534,045	12,12
534,246	-4,27
534,447	30,55
534,648	57,17
534,849	77,65
535,05	120,66
535,251	-53,42
535,451	124,76
535,652	-61,61
535,853	-22,7
536,054	87,89
536,255	22,36
536,456	-12,46
536,657	-69,8
536,857	-12,46
537,058	114,52
537,259	-20,65
537,46	28,5
537,66	28,5
537,861	46,93
538,062	145,24
538,263	-157,86
538,463	67,41
538,664	69,46
538,865	-16,55
539,065	118,61
539,266	102,23
539,466	-22,7
539,667	190,29
539,868	79,7
540,068	44,88
540,269	173,91
540,469	38,74
540,67	118,61
540,87	112,47
541,071	-69,8
541,271	110,42
541,472	85,84
541,672	104,28
541,873	40,79
542,073	16,21
542,274	20,31
542,474	89,94
542,675	100,18
542,875	102,23
543,075	-75,95
543,276	126,8
543,476	-4,27
543,676	71,51
543,877	98,13
544,077	3,93
544,277	135
544,478	71,51
544,678	71,51
544,878	42,84
545,078	-8,36
545,279	44,88
545,479	-8,36
545,679	-86,19
545,879	8,02
546,079	57,17
546,28	-59,56
546,48	120,66
546,68	77,65
546,88	67,41
547,08	26,45
547,28	89,94
547,48	-18,6
547,68	81,75
547,88	42,84
548,081	67,41
548,281	-90,28
548,481	3,93
548,681	36,69
548,881	65,36
549,081	30,55
549,28	16,21
549,48	110,42
549,68	141,14
549,88	-16,55
550,08	-86,19
550,28	1,88
550,48	104,28
550,68	100,18
550,88	8,02
551,08	-32,94
551,279	110,42
551,479	94,04
551,679	171,86
551,879	22,36
552,079	46,93
552,278	1,88
552,478	186,19
552,678	44,88
552,878	106,32
553,077	-75,95
553,277	-34,99
553,477	73,56
553,676	104,28
553,876	18,26
554,076	36,69
554,275	75,6
554,475	5,97
554,674	87,89
554,874	20,31
555,074	-0,17
555,273	55,12
555,473	20,31
555,672	-20,65
555,872	89,94
556,071	94,04
556,271	122,71
556,47	40,79
556,67	53,08
556,869	145,24
557,068	34,64
557,268	63,32
557,467	98,13
557,667	130,9
557,866	-26,79
558,065	61,27
558,265	-24,75
558,464	-2,22
558,663	30,55
558,863	30,55
559,062	69,46
559,261	-16,55
559,461	53,08
559,66	65,36
559,859	-32,94
560,058	63,32
560,258	-67,75
560,457	57,17
560,656	167,76
560,855	-94,38
561,054	120,66
561,253	75,6
561,453	59,22
561,652	102,23
561,851	73,56
562,05	30,55
562,249	-53,42
562,448	91,99
562,647	-108,71
562,846	18,26
563,045	128,85
563,244	24,4
563,443	42,84
563,642	28,5
563,841	73,56
564,04	61,27
564,239	-43,18
564,438	-2,22
564,637	-4,27
564,836	18,26
565,035	10,07
565,234	-41,13
565,432	-32,94
565,631	180,05
565,83	122,71
566,029	1,88
566,228	20,31
566,427	175,95
566,625	-20,65
566,824	114,52
567,023	46,93
567,222	-10,41
567,42	-4,27
567,619	85,84
567,818	61,27
568,016	218,96
568,215	69,46
568,414	108,37
568,612	55,12
568,811	-12,46
569,01	87,89
569,208	77,65
569,407	71,51
569,605	102,23
569,804	65,36
570,002	182,1
570,201	-61,61
570,4	161,62
570,598	114,52
570,797	96,08
570,995	48,98
571,193	73,56
571,392	55,12
571,59	20,31
571,789	167,76
571,987	120,66
572,186	221,01
572,384	1,88
572,582	89,94
572,781	180,05
572,979	3,93
573,177	57,17
573,376	147,28
573,574	178
573,772	53,08
573,971	53,08
574,169	28,5
574,367	118,61
574,565	135
574,763	114,52
574,962	108,37
575,16	112,47
575,358	14,17
575,556	94,04
575,754	112,47
575,952	155,47
576,151	139,09
576,349	145,24
576,547	-8,36
576,745	104,28
576,943	122,71
577,141	188,24
577,339	16,21
577,537	161,62
577,735	145,24
577,933	75,6
578,131	3,93
578,329	298,83
578,527	104,28
578,725	167,76
578,923	-16,55
579,121	214,87
579,319	-100,52
579,516	124,76
579,714	339,79
579,912	137,04
580,11	71,51
580,308	106,32
580,506	14,17
580,704	10,07
580,901	81,75
581,099	274,26
581,297	104,28
581,495	153,43
581,692	87,89
581,89	280,4
582,088	184,15
582,285	114,52
582,483	32,6
582,681	104,28
582,878	73,56
583,076	128,85
583,274	196,43
583,471	282,45
583,669	89,94
583,866	81,75
584,064	126,8
584,262	55,12
584,459	94,04
584,657	71,51
584,854	110,42
585,052	87,89
585,249	141,14
585,447	147,28
585,644	22,36
585,841	182,1
586,039	182,1
586,236	143,19
586,434	100,18
586,631	-4,27
586,828	40,79
587,026	143,19
587,223	-4,27
587,42	26,45
587,618	67,41
587,815	186,19
588,012	108,37
588,21	30,55
588,407	159,57
588,604	112,47
588,801	94,04
588,999	130,9
589,196	137,04
589,393	3,93
589,59	122,71
589,787	98,13
589,984	71,51
590,182	126,8
590,379	-12,46
590,576	14,17
590,773	59,22
590,97	83,8
591,167	85,84
591,364	130,9
591,561	-26,79
591,758	159,57
591,955	153,43
592,152	91,99
592,349	16,21
592,546	128,85
592,743	18,26
592,94	36,69
593,137	81,75
593,334	198,48
593,531	106,32
593,727	91,99
593,924	79,7
594,121	85,84
594,318	55,12
594,515	151,38
594,712	216,91
594,908	104,28
595,105	-77,99
595,302	128,85
595,499	94,04
595,696	241,49
595,892	-10,41
596,089	141,14
596,286	18,26
596,482	147,28
596,679	116,56
596,876	96,08
597,072	69,46
597,269	-0,17
597,466	94,04
597,662	-45,23
597,859	77,65
598,055	53,08
598,252	108,37
598,448	135
598,645	124,76
598,841	71,51
599,038	212,82
599,234	182,1
599,431	110,42
599,627	89,94
599,824	30,55
600,02	32,6
600,217	-8,36
600,413	61,27
600,609	98,13
600,806	378,7
601,002	143,19
601,198	8,02
601,395	157,52
601,591	122,71
601,787	85,84
601,984	161,62
602,18	135
602,376	12,12
602,572	94,04
602,769	180,05
602,965	98,13
603,161	175,95
603,357	102,23
603,553	178
603,75	-28,84
603,946	143,19
604,142	104,28
604,338	261,97
604,534	26,45
604,73	108,37
604,926	28,5
605,122	147,28
605,318	36,69
605,514	186,19
605,71	75,6
605,906	135
606,102	-20,65
606,298	171,86
606,494	171,86
606,69	194,39
606,886	102,23
607,082	46,93
607,278	26,45
607,474	126,8
607,67	186,19
607,866	-16,55
608,062	159,57
608,257	161,62
608,453	-20,65
608,649	36,69
608,845	-28,84
609,041	-26,79
609,236	79,7
609,432	171,86
609,628	114,52
609,824	212,82
610,019	46,93
610,215	44,88
610,411	175,95
610,606	233,3
610,802	38,74
610,998	30,55
611,193	151,38
611,389	12,12
611,584	96,08
611,78	-22,7
611,976	3,93
612,171	173,91
612,367	141,14
612,562	59,22
612,758	12,12
612,953	-53,42
613,149	16,21
613,344	143,19
613,539	16,21
613,735	48,98
613,93	75,6
614,126	108,37
614,321	53,08
614,517	167,76
614,712	141,14
614,907	233,3
615,103	87,89
615,298	102,23
615,493	-4,27
615,688	-12,46
615,884	159,57
616,079	116,56
616,274	112,47
616,47	30,55
616,665	-26,79
616,86	-10,41
617,055	36,69
617,25	-26,79
617,445	75,6
617,641	116,56
617,836	55,12
618,031	1,88
618,226	51,03
618,421	137,04
618,616	24,4
618,811	5,97
619,006	3,93
619,201	163,67
619,396	59,22
619,591	-67,75
619,786	120,66
619,981	196,43
620,176	30,55
620,371	65,36
620,566	100,18
620,761	67,41
620,956	-51,37
621,151	139,09
621,346	77,65
621,541	-86,19
621,735	126,8
621,93	34,64
622,125	30,55
622,32	-49,32
622,515	-57,51
622,709	132,95
622,904	165,71
623,099	16,21
623,294	89,94
623,488	94,04
623,683	75,6
623,878	38,74
624,072	149,33
624,267	-12,46
624,462	8,02
624,656	18,26
624,851	61,27
625,046	16,21
625,24	-55,47
625,435	20,31
625,629	73,56
625,824	202,58
626,018	3,93
626,213	114,52
626,407	24,4
626,602	110,42
626,796	-22,7
626,991	110,42
627,185	12,12
627,38	36,69
627,574	124,76
627,768	71,51
627,963	126,8
628,157	44,88
628,352	22,36
628,546	44,88
628,74	-41,13
628,935	77,65
629,129	59,22
629,323	173,91
629,517	-59,56
629,712	28,5
629,906	-73,9
630,1	126,8
630,294	102,23
630,489	91,99
630,683	79,7
630,877	-12,46
631,071	116,56
631,265	63,32
631,459	75,6
631,653	34,64
631,848	57,17
632,042	130,9
632,236	-28,84
632,43	192,34
632,624	22,36
632,818	73,56
633,012	118,61
633,206	53,08
633,4	-12,46
633,594	102,23
633,788	69,46
633,982	89,94
634,176	188,24
634,369	61,27
634,563	36,69
634,757	-86,19
634,951	94,04
635,145	126,8
635,339	28,5
635,533	104,28
635,726	141,14
635,92	26,45
636,114	-43,18
636,308	-20,65
636,501	85,84
636,695	139,09
636,889	-4,27
637,083	178
637,276	12,12
637,47	-16,55
637,664	73,56
637,857	42,84
638,051	75,6
638,244	167,76
638,438	55,12
638,632	282,45
638,825	-28,84
639,019	139,09
639,212	36,69
639,406	137,04
639,599	69,46
639,793	77,65
639,986	44,88
640,18	132,95
640,373	-14,51
640,567	-37,03
640,76	44,88
640,954	85,84
641,147	44,88
641,34	32,6
641,534	79,7
641,727	132,95
641,92	77,65
642,114	79,7
642,307	-10,41
642,5	120,66
642,694	8,02
642,887	59,22
643,08	245,59
643,273	118,61
643,467	24,4
643,66	48,98
643,853	-108,71
644,046	104,28
644,239	128,85
644,432	16,21
644,626	-49,32
644,819	26,45
645,012	44,88
645,205	175,95
645,398	221,01
645,591	34,64
645,784	-0,17
645,977	59,22
646,17	67,41
646,363	87,89
646,556	55,12
646,749	16,21
646,942	28,5
647,135	118,61
647,328	110,42
647,521	94,04
647,714	73,56
647,907	102,23
648,099	-39,08
648,292	100,18
648,485	-14,51
648,678	34,64
648,871	-20,65
649,064	63,32
649,256	-110,76
649,449	12,12
649,642	-67,75
649,835	20,31
650,027	36,69
650,22	112,47
650,413	77,65
650,605	85,84
650,798	71,51
650,991	96,08
651,183	55,12
651,376	110,42
651,568	126,8
651,761	63,32
651,954	221,01
652,146	161,62
652,339	259,92
652,531	239,44
652,724	73,56
652,916	104,28
653,109	-75,95
653,301	284,5
653,494	216,91
653,686	198,48
653,879	347,98
654,071	280,4
654,263	229,2
654,456	640,84
654,648	2215,73
654,84	6723,31
655,033	15310,44
655,225	26187,21
655,417	37600,54
655,61	48065,66
655,802	56263,67
655,994	60890,04
656,186	62770,07
656,379	60185,53
656,571	56417,27
656,763	50236,5
656,955	45931,67
657,148	41520,35
657,34	37795,09
657,532	33899,86
657,724	30391,69
657,916	26944,95
658,108	23059,96
658,3	19351,09
658,492	16176,73
658,684	13162,12
658,876	10847,92
659,068	8615,63
659,26	6696,69
659,452	4929,29
659,644	3725,08
659,836	2717,48
660,028	1742,65
660,22	1220,42
660,412	984,9
660,604	747,34
660,796	599,88
660,988	565,07
661,18	331,6
661,372	352,08
661,563	261,97
661,755	192,34
661,947	130,9
662,139	155,47
662,331	147,28
662,522	124,76
662,714	53,08
662,906	5,97
663,097	102,23
663,289	120,66
663,481	-41,13
663,673	171,86
663,864	57,17
664,056	85,84
664,247	38,74
664,439	106,32
664,631	167,76
664,822	69,46
665,014	98,13
665,205	94,04
665,397	30,55
665,588	81,75
665,78	3,93
665,971	20,31
666,163	38,74
666,354	22,36
666,546	-10,41
666,737	94,04
666,929	61,27
667,12	67,41
667,311	53,08
667,503	12,12
667,694	112,47
667,885	77,65
668,077	135
668,268	-59,56
668,459	94,04
668,651	120,66
668,842	-20,65
669,033	-94,38
669,224	-30,89
669,416	296,78
669,607	1,88
669,798	3,93
669,989	118,61
670,18	-20,65
670,371	149,33
670,563	-82,09
670,754	96,08
670,945	94,04
671,136	128,85
671,327	71,51
671,518	137,04
671,709	163,67
671,9	77,65
672,091	184,15
672,282	61,27
672,473	16,21
672,664	-57,51
672,855	77,65
673,046	63,32
673,237	71,51
673,428	-18,6
673,619	42,84
673,809	-12,46
674	98,13
674,191	40,79
674,382	28,5
674,573	-37,03
674,764	-4,27
674,954	53,08
675,145	-0,17
675,336	-37,03
675,527	-4,27
675,717	12,12
675,908	-49,32
676,099	-47,27
676,289	77,65
676,48	-123,05
676,671	8,02
676,861	-49,32
677,052	57,17
677,243	-45,23
677,433	-69,8
677,624	44,88
677,814	20,31
678,005	-32,94
678,195	96,08
678,386	12,12
678,576	28,5
678,767	-43,18
678,957	-34,99
679,148	130,9
679,338	132,95
679,529	85,84
679,719	-53,42
679,909	96,08
680,1	53,08
680,29	8,02
680,481	-41,13
680,671	42,84
680,861	-18,6
681,052	87,89
681,242	-114,86
681,432	83,8
681,622	16,21
681,813	-90,28
682,003	28,5
682,193	-121
682,383	108,37
682,573	40,79
682,764	-20,65
682,954	69,46
683,144	65,36
683,334	-34,99
683,524	20,31
683,714	22,36
683,904	28,5
684,094	28,5
684,284	1,88
684,474	69,46
684,664	147,28
684,854	3,93
685,044	-16,55
685,234	44,88
685,424	79,7
685,614	-53,42
685,804	81,75
685,994	61,27
686,184	-45,23
686,374	71,51
686,564	-12,46
686,753	46,93
686,943	-61,61
687,133	5,97
687,323	-20,65
687,513	10,07
687,702	53,08
687,892	10,07
688,082	57,17
688,272	-53,42
688,461	28,5
688,651	235,35
688,841	122,71
689,03	-2,22
689,22	14,17
689,41	28,5
689,599	77,65
689,789	-28,84
689,979	118,61
690,168	32,6
690,358	94,04
690,547	-14,51
690,737	77,65
690,926	100,18
691,116	106,32
691,305	44,88
691,495	135
691,684	-28,84
691,874	-32,94
692,063	8,02
692,252	81,75
692,442	65,36
692,631	-4,27
692,82	83,8
693,01	-8,36
693,199	30,55
693,388	137,04
693,578	22,36
693,767	120,66
693,956	151,38
694,146	-57,51
694,335	128,85
694,524	28,5
694,713	87,89
694,902	8,02
695,092	-123,05
695,281	53,08
695,47	-47,27
695,659	3,93
695,848	48,98
696,037	-34,99
696,226	110,42
696,415	10,07
696,604	42,84
696,793	83,8
696,982	28,5
697,171	210,77
697,36	-26,79
697,549	98,13
697,738	-100,52
697,927	-47,27
698,116	32,6
698,305	46,93
698,494	-16,55
698,683	28,5
698,872	218,96
699,061	-18,6
699,25	12,12
699,438	79,7
699,627	20,31
699,816	145,24
700,005	-143,53
700,193	12,12
700,382	67,41
700,571	44,88
700,76	118,61
700,948	98,13
701,137	65,36
701,326	77,65
701,514	-26,79
701,703	40,79
701,892	5,97
702,08	169,81
702,269	-92,33
702,457	-24,75
702,646	20,31
702,834	-4,27
703,023	71,51
703,212	137,04
703,4	40,79
703,589	24,4
703,777	1,88
703,965	-77,99
704,154	53,08
704,342	-110,76
704,531	-39,08
704,719	5,97
704,907	120,66
705,096	-51,37
705,284	-94,38
705,472	38,74
705,661	57,17
705,849	67,41
706,037	77,65
706,226	-39,08
706,414	44,88
706,602	-32,94
706,79	149,33
706,979	-77,99
707,167	48,98
707,355	-149,67
707,543	30,55
707,731	-20,65
707,919	-30,89
708,107	18,26
708,296	-98,47
708,484	-71,85
708,672	-28,84
708,86	145,24
709,048	20,31
709,236	-112,81
709,424	16,21
709,612	-4,27
709,8	-75,95
709,988	-20,65
710,176	98,13
710,364	208,72
710,551	-30,89
710,739	-6,31
710,927	-84,14
711,115	34,64
711,303	38,74
711,491	104,28
711,679	44,88
711,866	89,94
712,054	-4,27
712,242	24,4
712,43	59,22
712,617	-65,71
712,805	65,36
712,993	12,12
713,181	-30,89
713,368	46,93
713,556	20,31
713,744	59,22
713,931	198,48
714,119	57,17
714,306	-43,18
714,494	14,17
714,682	55,12
714,869	-57,51
715,057	-45,23
715,244	-90,28
715,432	53,08
715,619	-51,37
715,807	-32,94
715,994	-20,65
716,182	55,12
716,369	42,84
716,556	26,45
716,744	-51,37
716,931	-51,37
717,119	81,75
717,306	85,84
717,493	30,55
717,681	-57,51
717,868	-71,85
718,055	-4,27
718,242	10,07
718,43	-24,75
718,617	36,69
718,804	14,17
718,991	151,38
719,179	-8,36
719,366	32,6
719,553	5,97
719,74	-82,09
719,927	-16,55
720,114	-8,36
720,301	-84,14
720,488	-26,79
720,676	-108,71
720,863	38,74
721,05	42,84
721,237	44,88
721,424	53,08
721,611	5,97
721,798	-45,23
721,985	-82,09
722,172	-45,23
722,358	-34,99
722,545	1,88
722,732	114,52
722,919	75,6
723,106	28,5
723,293	48,98
723,48	-4,27
723,667	-77,99
723,853	151,38
724,04	128,85
724,227	61,27
724,414	40,79
724,6	77,65
724,787	143,19
724,974	122,71
725,161	-41,13
725,347	-106,67
725,534	-14,51
725,72	-12,46
725,907	67,41
726,094	46,93
726,28	-88,23
726,467	12,12
726,653	-77,99
726,84	188,24
727,027	169,81
727,213	-61,61
727,4	-16,55
727,586	-53,42
727,773	-16,55
727,959	-41,13
728,145	34,64
728,332	-24,75
728,518	-67,75
728,705	79,7
728,891	16,21
729,077	38,74
729,264	-30,89
729,45	-86,19
729,636	28,5
729,823	-80,04
730,009	87,89
730,195	-0,17
730,382	75,6
730,568	-92,33
730,754	-20,65
730,94	10,07
731,126	-0,17
731,313	36,69
731,499	16,21
731,685	51,03
731,871	12,12
732,057	-6,31
732,243	141,14
732,429	69,46
732,615	141,14
732,801	12,12
732,987	32,6
733,173	102,23
733,359	-82,09
733,545	26,45
733,731	20,31
733,917	106,32
734,103	-10,41
734,289	71,51
734,475	3,93
734,661	194,39
734,847	10,07
735,033	3,93
735,219	145,24
735,404	-80,04
735,59	24,4
735,776	-75,95
735,962	85,84
736,148	65,36
736,333	34,64
736,519	-30,89
736,705	10,07
736,89	30,55
737,076	10,07
737,262	-8,36
737,447	-59,56
737,633	36,69
737,819	59,22
738,004	38,74
738,19	-20,65
738,375	-16,55
738,561	61,27
738,747	12,12
738,932	-73,9
739,118	137,04
739,303	112,47
739,489	55,12
739,674	-82,09
739,859	-86,19
740,045	100,18
740,23	36,69
740,416	-174,25
740,601	30,55
740,786	48,98
740,972	-41,13
741,157	5,97
741,342	-86,19
741,528	-49,32
741,713	130,9
741,898	-51,37
742,084	-16,55
742,269	-51,37
742,454	12,12
742,639	53,08
742,824	-28,84
743,01	116,56
743,195	141,14
743,38	36,69
743,565	-16,55
743,75	-20,65
743,935	30,55
744,12	77,65
744,305	-63,66
744,49	-30,89
744,675	-18,6
744,86	-0,17
745,045	77,65
745,23	3,93
745,415	-0,17
745,6	75,6
745,785	-39,08
745,97	55,12
746,155	30,55
746,34	71,51
746,525	3,93
746,71	12,12
746,895	53,08
747,079	-57,51
747,264	32,6
747,449	38,74
747,634	32,6
747,819	65,36
748,003	18,26
748,188	-14,51
748,373	77,65
748,557	53,08
748,742	22,36
748,927	36,69
749,111	40,79
749,296	-6,31
749,481	38,74
749,665	44,88
749,85	-20,65
750,034	30,55
750,219	-26,79
750,404	-18,6
750,588	30,55
750,773	-20,65
750,957	83,8
751,141	-75,95
751,326	63,32
751,51	-88,23
751,695	-49,32
751,879	46,93
752,064	196,43
752,248	32,6
752,432	79,7
752,617	114,52
752,801	53,08
752,985	-49,32
753,17	159,57
753,354	-26,79
753,538	20,31
753,722	26,45
753,907	12,12
754,091	-86,19
754,275	69,46
754,459	-135,34
754,643	-55,47
754,828	3,93
755,012	55,12
755,196	-67,75
755,38	44,88
755,564	-57,51
755,748	-69,8
755,932	77,65
756,116	104,28
756,3	-84,14
756,484	-63,66
756,668	104,28
756,852	-106,67
757,036	69,46
757,22	44,88
757,404	-2,22
757,588	-94,38
757,772	-20,65
757,956	-41,13
758,14	100,18
758,323	-12,46
758,507	85,84
758,691	-43,18
758,875	153,43
759,059	216,91
759,242	-10,41
759,426	-20,65
759,61	-61,61
759,794	-73,9
759,977	73,56
760,161	243,54
760,345	198,48
760,528	32,6
760,712	48,98
760,895	61,27
761,079	-4,27
761,263	-14,51
761,446	-73,9
761,63	-12,46
761,813	48,98
761,997	-106,67
762,18	16,21
762,364	-4,27
762,547	-86,19
762,731	-53,42
762,914	24,4
763,098	3,93
763,281	-53,42
763,464	-4,27
763,648	-37,03
763,831	69,46
764,015	-55,47
764,198	14,17
764,381	55,12
764,564	-10,41
764,748	5,97
764,931	-26,79
765,114	-32,94
765,297	46,93
765,481	-24,75
765,664	-28,84
765,847	8,02
766,03	112,47
766,213	-12,46
766,397	38,74
766,58	-75,95
766,763	38,74
766,946	-75,95
767,129	-28,84
767,312	-96,43
767,495	75,6
767,678	42,84
767,861	-67,75
768,044	28,5
768,227	10,07
768,41	89,94
768,593	-39,08
768,776	65,36
768,959	-43,18
769,142	89,94
769,324	36,69
769,507	14,17
769,69	51,03
769,873	16,21
770,056	188,24
770,239	-30,89
770,421	104,28
770,604	1,88
770,787	53,08
770,97	1,88
771,152	-6,31
771,335	67,41
771,518	-116,9
771,7	18,26
771,883	151,38
772,066	22,36
772,248	44,88
772,431	12,12
772,613	63,32
772,796	-32,94
772,978	20,31
773,161	175,95
773,343	-53,42
773,526	-8,36
773,708	-94,38
773,891	-141,48
774,073	-16,55
774,256	-37,03
774,438	118,61
774,621	-65,71
774,803	104,28
774,985	-53,42
775,168	102,23
775,35	12,12
775,532	110,42
775,715	-18,6
775,897	65,36
776,079	3,93
776,261	137,04
776,444	284,5
776,626	470,86
776,808	587,6
776,99	675,66
777,173	927,56
777,355	847,69
777,537	962,37
777,719	945,99
777,901	827,21
778,083	671,56
778,265	540,49
778,447	589,64
778,629	511,82
778,811	513,87
778,993	454,48
779,175	458,57
779,357	247,63
779,539	218,96
779,721	153,43
779,903	233,3
780,085	87,89
780,267	151,38
780,449	94,04
780,631	85,84
780,812	135
780,994	12,12
781,176	14,17
781,358	-20,65
781,54	-12,46
781,721	79,7
781,903	124,76
782,085	-45,23
782,267	34,64
782,448	-55,47
782,63	-26,79
782,812	3,93
782,993	126,8
783,175	-10,41
783,357	12,12
783,538	-16,55
783,72	-65,71
783,901	12,12
784,083	-0,17
784,264	12,12
784,446	26,45
784,627	-30,89
784,809	22,36
784,99	-59,56
785,172	8,02
785,353	-26,79
785,535	24,4
785,716	-100,52
785,897	-135,34
786,079	-0,17
786,26	5,97
786,441	-59,56
786,623	-86,19
786,804	-51,37
786,985	16,21
787,167	28,5
787,348	-67,75
787,529	-45,23
787,71	143,19
787,891	94,04
788,073	-8,36
788,254	-73,9
788,435	104,28
788,616	-49,32
788,797	-43,18
788,978	-12,46
789,159	-71,85
789,34	26,45
789,522	20,31
789,703	73,56
789,884	67,41
790,065	36,69
790,246	135
790,427	-16,55
790,607	91,99
790,788	132,95
790,969	-67,75
791,15	-16,55
791,331	-98,47
791,512	5,97
791,693	-45,23
791,874	-26,79
792,054	149,33
792,235	126,8
792,416	-112,81
792,597	-55,47
792,778	51,03
792,958	3,93
793,139	18,26
793,32	-118,95
793,5	-59,56
793,681	63,32
793,862	36,69
794,042	16,21
794,223	-125,1
794,404	-61,61
794,584	-182,44
794,765	40,79
794,945	-28,84
795,126	57,17
795,306	53,08
795,487	-16,55
795,667	-133,29
795,848	5,97
796,028	-24,75
796,209	67,41
796,389	173,91
796,57	-43,18
796,75	-57,51
796,93	46,93
797,111	-90,28
797,291	-18,6
797,471	8,02
797,652	-53,42
797,832	-63,66
798,012	65,36
798,192	-110,76
798,373	-84,14
798,553	53,08
798,733	18,26
798,913	-135,34
799,093	-20,65
799,274	-41,13
799,454	-4,27
799,634	18,26
799,814	44,88
799,994	44,88
800,174	24,4
800,354	59,22
800,534	-147,62
800,714	-10,41
800,894	-71,85
801,074	-112,81
801,254	-75,95
801,434	81,75
801,614	18,26
801,794	-37,03
801,974	1972,02
802,154	-24,75
802,334	159,57
802,514	26,45
802,693	-4,27
802,873	-121
803,053	48,98
803,233	36,69
803,413	32,6
803,592	-28,84
803,772	-129,19
803,952	-41,13
804,131	-84,14
804,311	75,6
804,491	120,66
804,67	-47,27
804,85	-102,57
805,03	57,17
805,209	44,88
805,389	-55,47
805,568	-6,31
805,748	-55,47
805,928	-28,84
806,107	87,89
806,287	32,6
806,466	59,22
806,646	-53,42
806,825	-69,8
807,004	-75,95
807,184	-2,22
807,363	5,97
807,543	110,42
807,722	-53,42
807,901	126,8
808,081	22,36
808,26	-145,58
808,439	69,46
808,619	-26,79
808,798	-41,13
808,977	51,03
809,156	116,56
809,336	-18,6
809,515	63,32
809,694	-104,62
809,873	-20,65
810,052	-59,56
810,231	79,7
810,411	34,64
810,59	77,65
810,769	65,36
810,948	22,36
811,127	-77,99
811,306	12,12
811,485	3,93
811,664	73,56
811,843	-49,32
812,022	75,6
812,201	-65,71
812,38	65,36
812,559	-18,6
812,737	5,97
812,916	-104,62
813,095	-125,1
813,274	77,65
813,453	44,88
813,632	34,64
813,811	14,17
813,989	-75,95
814,168	-43,18
814,347	-110,76
814,526	8,02
814,704	91,99
814,883	108,37
815,062	-108,71
815,24	-20,65
815,419	-69,8
815,598	-8,36
815,776	-153,77
815,955	79,7
816,133	-198,82
816,312	28,5
816,49	-86,19
816,669	-28,84
816,847	3,93
817,026	63,32
817,204	-61,61
817,383	-73,9
817,561	-63,66
817,74	40,79
817,918	42,84
818,097	-59,56
818,275	-22,7
818,453	57,17
818,632	3,93
818,81	16,21
818,988	-14,51
819,167	-47,27
819,345	-22,7
819,523	-92,33
819,701	-32,94
819,879	14,17
820,058	-2,22
820,236	-4,27
820,414	-65,71
820,592	-18,6
820,77	-69,8
820,948	-20,65
821,127	-51,37
821,305	-41,13
821,483	-37,03
821,661	89,94
821,839	-37,03
822,017	-61,61
822,195	-12,46
822,373	83,8
822,551	8,02
822,729	46,93
822,907	-41,13
823,085	16,21
823,262	1,88
823,44	-26,79
823,618	-28,84
823,796	-43,18
823,974	-80,04
824,152	-57,51
824,329	-24,75
824,507	-24,75
824,685	-2,22
824,863	26,45
825,04	1,88
825,218	36,69
825,396	-86,19
825,574	-16,55
825,751	-55,47
825,929	44,88
826,107	-73,9
826,284	63,32
826,462	3,93
826,639	-108,71
826,817	-59,56
826,994	-51,37
827,172	-8,36
827,349	77,65
827,527	14,17
827,704	1,88
827,882	114,52
828,059	-90,28
828,237	-98,47
828,414	87,89
828,591	-157,86
828,769	-59,56
828,946	28,5
829,124	34,64
829,301	149,33
829,478	-69,8
829,655	55,12
829,833	44,88
830,01	-190,63
830,187	48,98
830,364	-26,79
830,542	-34,99
830,719	128,85
830,896	16,21
831,073	-4,27
831,25	20,31
831,427	24,4
831,604	3,93
831,782	-57,51
831,959	118,61
832,136	-20,65
832,313	-20,65
832,49	-59,56
832,667	61,27
832,844	-24,75
833,021	46,93
833,198	-10,41
833,374	3,93
833,551	57,17
833,728	-51,37
833,905	18,26
834,082	-121
834,259	63,32
834,436	65,36
834,612	-92,33
834,789	120,66
834,966	-16,55
835,143	-37,03
835,319	-53,42
835,496	3,93
835,673	3,93
835,85	145,24
836,026	-8,36
836,203	55,12
836,38	-57,51
836,556	-12,46
836,733	-61,61
836,909	122,71
837,086	-16,55
837,262	-51,37
837,439	-39,08
837,616	-6,31
837,792	-24,75
837,968	-45,23
838,145	-176,3
838,321	-28,84
838,498	38,74
838,674	40,79
838,851	14,17
839,027	-135,34
839,203	-4,27
839,38	30,55
839,556	-100,52
839,732	132,95
839,909	-28,84
840,085	22,36
840,261	-84,14
840,437	-41,13
840,614	-149,67
840,79	-24,75
840,966	100,18
841,142	44,88
841,318	-75,95
841,494	28,5
841,671	63,32
841,847	18,26
842,023	-63,66
842,199	-10,41
842,375	55,12
842,551	-116,9
842,727	-59,56
842,903	137,04
843,079	22,36
843,255	143,19
843,431	-86,19
843,607	163,67
843,783	-49,32
843,959	218,96
844,134	175,95
844,31	399,18
844,486	247,63
844,662	212,82
844,838	255,83
845,013	376,66
845,189	298,83
845,365	169,81
845,541	169,81
845,716	126,8
845,892	120,66
846,068	22,36
846,244	20,31
846,419	120,66
846,595	40,79
846,77	44,88
846,946	186,19
847,122	26,45
847,297	65,36
847,473	145,24
847,648	-100,52
847,824	94,04
847,999	-86,19
848,175	-16,55
848,35	-10,41
848,526	-34,99
848,701	98,13
848,876	51,03
849,052	69,46
849,227	-69,8
849,403	40,79
849,578	-49,32
849,753	48,98
849,929	69,46
850,104	-71,85
850,279	18,26
850,454	-2,22
850,63	57,17
850,805	118,61
850,98	-4,27
851,155	55,12
851,33	1,88
851,505	-135,34
851,681	110,42
851,856	-49,32
852,031	-18,6
852,206	42,84
852,381	-53,42
852,556	53,08
852,731	3,93
852,906	5,97
853,081	32,6
853,256	98,13
853,431	-67,75
853,606	-65,71
853,781	-55,47
853,956	-217,26
854,131	16,21
854,305	-92,33
854,48	-67,75
854,655	-12,46
854,83	-8,36
855,005	-127,14
855,18	38,74
855,354	-12,46
855,529	34,64
855,704	63,32
855,879	118,61
856,053	-84,14
856,228	-16,55
856,403	-49,32
856,577	30,55
856,752	-71,85
856,926	-51,37
857,101	3,93
857,276	-86,19
857,45	1,88
857,625	5,97
857,799	30,55
857,974	61,27
858,148	-118,95
858,323	48,98
858,497	-12,46
858,672	-24,75
858,846	-71,85
859,02	89,94
859,195	-135,34
859,369	-98,47
859,543	-0,17
859,718	-30,89
859,892	12,12
860,066	1,88
860,241	3,93
860,415	-116,9
860,589	-84,14
860,763	-26,79
860,938	-82,09
861,112	53,08
861,286	30,55
861,46	89,94
861,634	5,97
861,808	67,41
861,982	-49,32
862,157	-94,38
862,331	-45,23
862,505	-92,33
862,679	-77,99
862,853	-12,46
863,027	-61,61
863,201	157,52
863,375	-49,32
863,549	5,97
863,722	-20,65
863,896	53,08
864,07	-82,09
864,244	18,26
864,418	12,12
864,592	34,64
864,766	44,88
864,939	57,17
865,113	-96,43
865,287	130,9
865,461	-98,47
865,634	-0,17
865,808	-53,42
865,982	-61,61
866,156	-84,14
866,329	-80,04
866,503	65,36
866,676	96,08
866,85	-63,66
867,024	-88,23
867,197	-14,51
867,371	-45,23
867,544	65,36
867,718	-102,57
867,891	46,93
868,065	-94,38
868,238	36,69
868,412	24,4
868,585	-20,65
868,759	10,07
868,932	-30,89
869,105	-55,47
869,279	-18,6
869,452	-67,75
869,625	1,88
869,799	-98,47
869,972	-65,71
870,145	-67,75
870,319	79,7
870,492	-84,14
870,665	-84,14
870,838	-65,71
871,011	-131,24
871,185	-100,52
871,358	-65,71
871,531	-73,9
871,704	-98,47
871,877	3,93
872,05	-55,47
872,223	-168,1
872,396	-8,36
872,569	34,64
872,742	-80,04
872,915	30,55
873,088	-100,52
873,261	-118,95
873,434	16,21
873,607	-86,19
873,78	48,98
873,953	-166,06
874,126	36,69
874,299	-12,46
874,471	-65,71
874,644	-0,17
874,817	75,6
874,99	79,7
875,163	-4,27
875,335	-47,27
875,508	-34,99
875,681	28,5
875,853	-104,62
876,026	14,17
876,199	83,8
876,371	28,5
876,544	-49,32
876,717	46,93
876,889	-92,33
877,062	-30,89
877,234	-69,8
877,407	-28,84
877,579	-63,66
877,752	-71,85
877,924	-0,17
878,097	38,74
878,269	16,21
878,442	-26,79
878,614	42,84
878,786	-59,56
878,959	-0,17
879,131	-4,27
879,303	-123,05
879,476	-18,6
879,648	1,88
879,82	38,74
879,993	-26,79
880,165	24,4
880,337	-155,82
880,509	-0,17
880,681	-110,76
880,854	-16,55
881,026	46,93
881,198	75,6
881,37	-22,7
881,542	-41,13
881,714	-20,65
881,886	-28,84
882,058	-26,79
882,23	-4,27
882,402	-110,76
882,574	51,03
882,746	55,12
882,918	65,36
883,09	67,41
883,262	-18,6
883,434	-34,99
883,606	-106,67
883,778	59,22
883,95	106,32
884,122	-88,23
884,293	22,36
884,465	-24,75
884,637	98,13
884,809	-75,95
884,98	-4,27
885,152	-8,36
885,324	71,51
885,496	-69,8
885,667	-55,47
885,839	-20,65
886,011	91,99
886,182	28,5
886,354	77,65
886,525	14,17
886,697	-6,31
886,869	-90,28
887,04	-84,14
887,212	108,37
887,383	184,15
887,555	44,88
887,726	-32,94
887,897	-102,57
888,069	-69,8
888,24	63,32
888,412	42,84
888,583	36,69
888,754	30,55
888,926	-49,32
889,097	-75,95
889,268	-104,62
889,44	22,36
889,611	-125,1
889,782	-53,42
889,953	-149,67
890,125	112,47
890,296	-77,99
890,467	36,69
890,638	-92,33
890,809	22,36
890,98	-45,23
891,151	44,88
891,323	59,22
891,494	-45,23
891,665	-12,46
891,836	-71,85
892,007	-0,17
892,178	32,6
892,349	-55,47
892,52	-53,42
892,691	-59,56
892,862	-88,23
893,032	-141,48
893,203	-28,84
893,374	-34,99
893,545	83,8
893,716	-71,85
893,887	36,69
894,057	-82,09
894,228	-84,14
894,399	-10,41
894,57	48,98
894,74	-14,51
894,911	91,99
895,082	-65,71
895,253	-127,14
895,423	1,88
895,594	36,69
895,764	-37,03
895,935	-98,47
896,106	-0,17
896,276	-32,94
896,447	14,17
896,617	-63,66
896,788	-65,71
896,958	-71,85
897,129	-69,8
897,299	-51,37
897,47	57,17
897,64	69,46
897,81	-110,76
897,981	-57,51
898,151	-75,95
898,322	-18,6
898,492	32,6
898,662	-118,95
898,832	-80,04
899,003	-57,51
899,173	-2,22
899,343	-61,61
899,513	-69,8
