Data from deuterium_USB4F104151__12__10-57-07-495.txt Node

Date: Wed Apr 15 10:57:07 EDT 2026
User: LaboPhy
Spectrometer: USB4F10415
Trigger mode: 4
Integration Time (sec): 1,000000E-1
Scans to average: 1
Electric dark correction enabled: true
Nonlinearity correction enabled: false
Boxcar width: 0
XAxis mode: Wavelengths
Number of Pixels in Spectrum: 3648
>>>>>Begin Spectral Data<<<<<
178,204	-460,62
178,424	-460,62
178,644	-460,62
178,864	-470,86
179,084	-436,05
179,304	-24,4
179,524	6,31
179,744	32,94
179,964	-3,93
180,184	49,32
180,404	63,66
180,624	-8,02
180,844	-1,88
181,064	-128,85
181,283	22,7
181,503	-26,45
181,723	18,6
181,943	-8,02
182,163	153,77
182,383	20,65
182,602	-1,88
182,822	213,16
183,042	135,34
183,262	-34,64
183,482	-8,02
183,701	39,08
183,921	57,51
184,141	-22,36
184,361	37,03
184,58	32,94
184,8	90,28
185,02	-20,31
185,239	176,3
185,459	116,9
185,679	135,34
185,898	-87,89
186,118	98,47
186,338	75,95
186,557	55,47
186,777	-1,88
186,997	-38,74
187,216	-14,17
187,436	213,16
187,655	59,56
187,875	73,9
188,095	32,94
188,314	147,62
188,534	139,43
188,753	-59,22
188,973	159,91
189,192	73,9
189,412	-12,12
189,631	20,65
189,851	86,19
190,07	149,67
190,29	-51,03
190,509	-46,93
190,729	10,41
190,948	121
191,168	180,39
191,387	51,37
191,607	37,03
191,826	116,9
192,045	63,66
192,265	-89,94
192,484	106,67
192,704	18,6
192,923	34,99
193,142	178,34
193,362	96,43
193,581	82,09
193,8	69,8
194,02	137,38
194,239	26,79
194,458	14,51
194,678	26,79
194,897	0,17
195,116	75,95
195,335	110,76
195,555	90,28
195,774	75,95
195,993	121
196,212	55,47
196,432	24,75
196,651	51,37
196,87	30,89
197,089	260,26
197,308	63,66
197,528	133,29
197,747	-8,02
197,966	47,27
198,185	139,43
198,404	2,22
198,623	110,76
198,842	47,27
199,062	116,9
199,281	143,53
199,5	55,47
199,719	100,52
199,938	88,23
200,157	55,47
200,376	82,09
200,595	182,44
200,814	-57,17
201,033	51,37
201,252	153,77
201,471	8,36
201,69	10,41
201,909	-10,07
202,128	125,1
202,347	157,86
202,566	39,08
202,785	-130,9
203,004	39,08
203,223	323,75
203,442	53,42
203,661	6,31
203,879	65,71
204,098	131,24
204,317	49,32
204,536	80,04
204,755	198,82
204,974	149,67
205,193	-40,79
205,411	172,2
205,63	153,77
205,849	86,19
206,068	12,46
206,287	22,7
206,505	153,77
206,724	61,61
206,943	-8,02
207,162	-38,74
207,381	67,75
207,599	47,27
207,818	39,08
208,037	16,55
208,255	-67,41
208,474	59,56
208,693	65,71
208,911	-75,6
209,13	63,66
209,349	98,47
209,567	118,95
209,786	114,86
210,005	125,1
210,223	51,37
210,442	-128,85
210,661	-53,08
210,879	43,18
211,098	24,75
211,316	47,27
211,535	112,81
211,753	57,51
211,972	55,47
212,191	-30,55
212,409	39,08
212,628	100,52
212,846	39,08
213,065	-1,88
213,283	141,48
213,502	49,32
213,72	98,47
213,938	22,7
214,157	34,99
214,375	106,67
214,594	49,32
214,812	84,14
215,031	32,94
215,249	47,27
215,467	106,67
215,686	39,08
215,904	131,24
216,122	47,27
216,341	159,91
216,559	32,94
216,778	80,04
216,996	139,43
217,214	55,47
217,432	-3,93
217,651	-20,31
217,869	-5,97
218,087	59,56
218,306	-14,17
218,524	84,14
218,742	45,23
218,96	116,9
219,179	18,6
219,397	59,56
219,615	276,65
219,833	80,04
220,051	39,08
220,27	8,36
220,488	137,38
220,706	75,95
220,924	-75,6
221,142	-34,64
221,36	53,42
221,578	41,13
221,796	14,51
222,015	55,47
222,233	37,03
222,451	207,02
222,669	-77,65
222,887	47,27
223,105	-12,12
223,323	-32,6
223,541	-38,74
223,759	47,27
223,977	18,6
224,195	147,62
224,413	75,95
224,631	96,43
224,849	141,48
225,067	194,73
225,285	-28,5
225,503	-59,22
225,721	-132,95
225,939	47,27
226,157	-16,21
226,375	151,72
226,592	26,79
226,81	55,47
227,028	73,9
227,246	112,81
227,464	63,66
227,682	82,09
227,9	96,43
228,117	-51,03
228,335	-8,02
228,553	55,47
228,771	20,65
228,989	49,32
229,206	73,9
229,424	116,9
229,642	-71,51
229,86	-132,95
230,077	147,62
230,295	77,99
230,513	49,32
230,731	147,62
230,948	231,59
231,166	180,39
231,384	39,08
231,601	-5,97
231,819	235,69
232,037	43,18
232,254	-59,22
232,472	71,85
232,689	-26,45
232,907	106,67
233,125	57,51
233,342	59,56
233,56	43,18
233,777	-1,88
233,995	34,99
234,213	67,75
234,43	71,85
234,648	-42,84
234,865	39,08
235,083	28,84
235,3	12,46
235,518	121
235,735	90,28
235,953	110,76
236,17	112,81
236,388	2,22
236,605	82,09
236,822	73,9
237,04	47,27
237,257	88,23
237,475	26,79
237,692	82,09
237,909	116,9
238,127	90,28
238,344	100,52
238,562	12,46
238,779	-10,07
238,996	-20,31
239,214	61,61
239,431	77,99
239,648	-14,17
239,865	34,99
240,083	112,81
240,3	63,66
240,517	12,46
240,735	14,51
240,952	118,95
241,169	133,29
241,386	82,09
241,603	16,55
241,821	-24,4
242,038	153,77
242,255	184,49
242,472	-42,84
242,689	69,8
242,907	90,28
243,124	-34,64
243,341	8,36
243,558	-34,64
243,775	-40,79
243,992	-16,21
244,209	137,38
244,426	149,67
244,643	127,14
244,86	108,71
245,078	88,23
245,295	86,19
245,512	73,9
245,729	34,99
245,946	8,36
246,163	69,8
246,38	16,55
246,597	61,61
246,814	8,36
247,031	24,75
247,248	53,42
247,464	24,75
247,681	63,66
247,898	98,47
248,115	71,85
248,332	-16,21
248,549	88,23
248,766	235,69
248,983	90,28
249,2	90,28
249,417	137,38
249,633	-57,17
249,85	90,28
250,067	26,79
250,284	24,75
250,501	61,61
250,717	43,18
250,934	0,17
251,151	32,94
251,368	86,19
251,585	32,94
251,801	6,31
252,018	16,55
252,235	82,09
252,451	-38,74
252,668	51,37
252,885	143,53
253,102	51,37
253,318	39,08
253,535	-14,17
253,752	24,75
253,968	-30,55
254,185	-51,03
254,401	16,55
254,618	129,19
254,835	-32,6
255,051	71,85
255,268	96,43
255,484	47,27
255,701	32,94
255,917	49,32
256,134	8,36
256,351	-14,17
256,567	-91,99
256,784	-24,4
257	-124,76
257,217	137,38
257,433	18,6
257,65	98,47
257,866	131,24
258,082	-122,71
258,299	-48,98
258,515	8,36
258,732	-30,55
258,948	26,79
259,165	18,6
259,381	18,6
259,597	98,47
259,814	-16,21
260,03	84,14
260,246	0,17
260,463	149,67
260,679	145,58
260,895	22,7
261,112	39,08
261,328	37,03
261,544	-8,02
261,761	151,72
261,977	-14,17
262,193	-14,17
262,409	96,43
262,626	43,18
262,842	14,51
263,058	-30,55
263,274	161,96
263,49	65,71
263,707	94,38
263,923	149,67
264,139	-10,07
264,355	63,66
264,571	147,62
264,787	-16,21
265,004	172,2
265,22	49,32
265,436	-24,4
265,652	-63,32
265,868	80,04
266,084	-40,79
266,3	-5,97
266,516	-71,51
266,732	39,08
266,948	71,85
267,164	12,46
267,38	133,29
267,596	45,23
267,812	200,87
268,028	-1,88
268,244	-8,02
268,46	37,03
268,676	22,7
268,892	106,67
269,108	39,08
269,324	-67,41
269,54	-32,6
269,756	121
269,972	-24,4
270,188	-14,17
270,403	-124,76
270,619	-36,69
270,835	51,37
271,051	61,61
271,267	77,99
271,483	-1,88
271,698	125,1
271,914	53,42
272,13	34,99
272,346	59,56
272,562	10,41
272,777	106,67
272,993	14,51
273,209	34,99
273,425	96,43
273,64	-85,84
273,856	102,57
274,072	-44,88
274,287	-3,93
274,503	63,66
274,719	82,09
274,934	-34,64
275,15	-34,64
275,366	14,51
275,581	-77,65
275,797	84,14
276,012	104,62
276,228	45,23
276,444	55,47
276,659	65,71
276,875	-44,88
277,09	22,7
277,306	28,84
277,521	22,7
277,737	61,61
277,952	10,41
278,168	71,85
278,383	63,66
278,599	80,04
278,814	77,99
279,03	73,9
279,245	168,1
279,461	63,66
279,676	49,32
279,892	-24,4
280,107	-40,79
280,322	-30,55
280,538	104,62
280,753	-1,88
280,969	92,33
281,184	10,41
281,399	159,91
281,615	18,6
281,83	37,03
282,045	-110,42
282,26	-1,88
282,476	98,47
282,691	127,14
282,906	61,61
283,122	53,42
283,337	-44,88
283,552	80,04
283,767	-1,88
283,983	145,58
284,198	75,95
284,413	98,47
284,628	-114,52
284,843	10,41
285,058	16,55
285,274	-18,26
285,489	-12,12
285,704	166,06
285,919	16,55
286,134	-3,93
286,349	135,34
286,564	-30,55
286,779	141,48
286,995	30,89
287,21	-135
287,425	88,23
287,64	-20,31
287,855	118,95
288,07	-79,7
288,285	170,15
288,5	123,05
288,715	198,82
288,93	45,23
289,145	-30,55
289,36	84,14
289,575	-63,32
289,79	108,71
290,004	2,22
290,219	151,72
290,434	73,9
290,649	22,7
290,864	-55,12
291,079	10,41
291,294	53,42
291,509	59,56
291,724	61,61
291,938	57,51
292,153	51,37
292,368	71,85
292,583	45,23
292,798	22,7
293,012	67,75
293,227	45,23
293,442	47,27
293,657	137,38
293,871	77,99
294,086	67,75
294,301	198,82
294,516	125,1
294,73	69,8
294,945	6,31
295,16	20,65
295,374	139,43
295,589	104,62
295,804	63,66
296,018	73,9
296,233	129,19
296,447	37,03
296,662	-8,02
296,877	135,34
297,091	131,24
297,306	26,79
297,52	4,27
297,735	112,81
297,949	-8,02
298,164	80,04
298,378	69,8
298,593	-59,22
298,807	0,17
299,022	65,71
299,236	170,15
299,451	92,33
299,665	88,23
299,88	18,6
300,094	137,38
300,309	63,66
300,523	121
300,737	8,36
300,952	18,6
301,166	102,57
301,381	61,61
301,595	0,17
301,809	41,13
302,024	6,31
302,238	-24,4
302,452	-10,07
302,667	14,51
302,881	80,04
303,095	133,29
303,309	37,03
303,524	6,31
303,738	-59,22
303,952	-20,31
304,166	6,31
304,381	-108,37
304,595	129,19
304,809	-42,84
305,023	-18,26
305,237	-94,04
305,452	-3,93
305,666	75,95
305,88	100,52
306,094	30,89
306,308	82,09
306,522	129,19
306,736	96,43
306,95	166,06
307,164	-16,21
307,379	-16,21
307,593	121
307,807	63,66
308,021	141,48
308,235	39,08
308,449	-75,6
308,663	102,57
308,877	243,88
309,091	32,94
309,305	159,91
309,519	-104,28
309,733	100,52
309,947	-132,95
310,161	53,42
310,374	86,19
310,588	211,11
310,802	34,99
311,016	8,36
311,23	141,48
311,444	-34,64
311,658	51,37
311,872	172,2
312,085	114,86
312,299	266,41
312,513	219,3
312,727	47,27
312,941	32,94
313,154	63,66
313,368	71,85
313,582	41,13
313,796	112,81
314,009	-20,31
314,223	102,57
314,437	6,31
314,651	112,81
314,864	88,23
315,078	67,75
315,292	-96,08
315,505	118,95
315,719	80,04
315,933	82,09
316,146	-1,88
316,36	18,6
316,573	71,85
316,787	129,19
317,001	39,08
317,214	-5,97
317,428	88,23
317,641	-18,26
317,855	12,46
318,068	100,52
318,282	149,67
318,495	192,68
318,709	143,53
318,922	41,13
319,136	94,38
319,349	190,63
319,563	32,94
319,776	110,76
319,99	-44,88
320,203	125,1
320,417	92,33
320,63	131,24
320,843	155,82
321,057	123,05
321,27	6,31
321,483	84,14
321,697	141,48
321,91	57,51
322,124	69,8
322,337	96,43
322,55	67,75
322,763	112,81
322,977	22,7
323,19	2,22
323,403	80,04
323,617	47,27
323,83	133,29
324,043	82,09
324,256	75,95
324,469	-87,89
324,683	133,29
324,896	4,27
325,109	47,27
325,322	-124,76
325,535	118,95
325,748	161,96
325,962	-18,26
326,175	45,23
326,388	127,14
326,601	92,33
326,814	43,18
327,027	34,99
327,24	192,68
327,453	-89,94
327,666	37,03
327,879	184,49
328,092	127,14
328,305	73,9
328,518	-22,36
328,731	-32,6
328,944	32,94
329,157	94,38
329,37	14,51
329,583	221,35
329,796	161,96
330,009	49,32
330,222	84,14
330,435	129,19
330,648	-65,36
330,861	20,65
331,073	84,14
331,286	139,43
331,499	51,37
331,712	18,6
331,925	28,84
332,138	65,71
332,35	133,29
332,563	22,7
332,776	129,19
332,989	-24,4
333,202	-16,21
333,414	37,03
333,627	118,95
333,84	114,86
334,053	80,04
334,265	65,71
334,478	96,43
334,691	80,04
334,903	47,27
335,116	41,13
335,329	155,82
335,541	65,71
335,754	200,87
335,966	82,09
336,179	-8,02
336,392	121
336,604	100,52
336,817	155,82
337,029	131,24
337,242	18,6
337,454	82,09
337,667	59,56
337,88	129,19
338,092	145,58
338,305	131,24
338,517	112,81
338,729	112,81
338,942	184,49
339,154	-26,45
339,367	65,71
339,579	61,61
339,792	8,36
340,004	104,62
340,217	-26,45
340,429	121
340,641	12,46
340,854	-69,46
341,066	39,08
341,278	170,15
341,491	104,62
341,703	153,77
341,915	32,94
342,128	145,58
342,34	92,33
342,552	41,13
342,764	90,28
342,977	26,79
343,189	82,09
343,401	49,32
343,613	-30,55
343,826	57,51
344,038	16,55
344,25	110,76
344,462	10,41
344,674	123,05
344,886	14,51
345,099	47,27
345,311	207,02
345,523	84,14
345,735	-67,41
345,947	131,24
346,159	121
346,371	110,76
346,583	41,13
346,795	190,63
347,007	20,65
347,219	104,62
347,431	69,8
347,643	186,54
347,855	22,7
348,067	131,24
348,279	-65,36
348,491	88,23
348,703	125,1
348,915	100,52
349,127	84,14
349,339	30,89
349,551	51,37
349,763	102,57
349,975	-1,88
350,187	188,58
350,399	139,43
350,61	106,67
350,822	49,32
351,034	75,95
351,246	32,94
351,458	145,58
351,669	98,47
351,881	116,9
352,093	106,67
352,305	65,71
352,517	86,19
352,728	129,19
352,94	41,13
353,152	104,62
353,363	-14,17
353,575	127,14
353,787	141,48
353,999	153,77
354,21	229,54
354,422	77,99
354,633	55,47
354,845	84,14
355,057	77,99
355,268	47,27
355,48	100,52
355,692	-51,03
355,903	65,71
356,115	22,7
356,326	-87,89
356,538	219,3
356,749	104,62
356,961	194,73
357,172	88,23
357,384	4,27
357,595	252,07
357,807	49,32
358,018	61,61
358,23	147,62
358,441	204,97
358,653	98,47
358,864	94,38
359,075	-30,55
359,287	98,47
359,498	129,19
359,709	104,62
359,921	139,43
360,132	137,38
360,344	143,53
360,555	112,81
360,766	67,75
360,977	37,03
361,189	106,67
361,4	88,23
361,611	153,77
361,823	164,01
362,034	45,23
362,245	-20,31
362,456	84,14
362,667	145,58
362,879	39,08
363,09	188,58
363,301	121
363,512	127,14
363,723	26,79
363,935	59,56
364,146	164,01
364,357	67,75
364,568	114,86
364,779	-32,6
364,99	209,06
365,201	67,75
365,412	104,62
365,623	-36,69
365,834	170,15
366,045	180,39
366,256	55,47
366,467	172,2
366,678	104,62
366,889	63,66
367,1	86,19
367,311	190,63
367,522	94,38
367,733	84,14
367,944	211,11
368,155	26,79
368,366	106,67
368,577	186,54
368,788	137,38
368,999	88,23
369,209	100,52
369,42	266,41
369,631	260,26
369,842	143,53
370,053	34,99
370,264	178,34
370,474	6,31
370,685	118,95
370,896	88,23
371,107	170,15
371,317	80,04
371,528	55,47
371,739	215,21
371,95	188,58
372,16	139,43
372,371	18,6
372,582	45,23
372,792	118,95
373,003	116,9
373,214	86,19
373,424	106,67
373,635	59,56
373,846	196,78
374,056	127,14
374,267	202,92
374,477	114,86
374,688	55,47
374,898	57,51
375,109	98,47
375,319	139,43
375,53	159,91
375,74	114,86
375,951	86,19
376,161	190,63
376,372	106,67
376,582	59,56
376,793	190,63
377,003	10,41
377,214	84,14
377,424	106,67
377,635	39,08
377,845	-8,02
378,055	204,97
378,266	61,61
378,476	14,51
378,686	110,76
378,897	121
379,107	82,09
379,317	96,43
379,528	55,47
379,738	137,38
379,948	-3,93
380,158	145,58
380,369	118,95
380,579	137,38
380,789	98,47
380,999	186,54
381,21	166,06
381,42	293,03
381,63	112,81
381,84	159,91
382,05	90,28
382,261	188,58
382,471	100,52
382,681	28,84
382,891	190,63
383,101	100,52
383,311	18,6
383,521	-1,88
383,731	121
383,941	129,19
384,151	110,76
384,361	112,81
384,571	135,34
384,781	59,56
384,991	235,69
385,201	243,88
385,411	227,5
385,621	73,9
385,831	125,1
386,041	77,99
386,251	67,75
386,461	164,01
386,671	26,79
386,881	94,38
387,091	49,32
387,301	131,24
387,511	104,62
387,72	157,86
387,93	211,11
388,14	12,46
388,35	151,72
388,56	202,92
388,769	170,15
388,979	92,33
389,189	37,03
389,399	63,66
389,609	159,91
389,818	118,95
390,028	192,68
390,238	180,39
390,447	8,36
390,657	73,9
390,867	65,71
391,076	8,36
391,286	166,06
391,496	22,7
391,705	63,66
391,915	174,25
392,125	184,49
392,334	104,62
392,544	239,78
392,753	71,85
392,963	-8,02
393,172	104,62
393,382	8,36
393,591	241,83
393,801	28,84
394,01	170,15
394,22	114,86
394,429	75,95
394,639	34,99
394,848	104,62
395,058	96,43
395,267	65,71
395,477	194,73
395,686	159,91
395,895	282,79
396,105	266,41
396,314	172,2
396,524	24,75
396,733	211,11
396,942	213,16
397,152	202,92
397,361	176,3
397,57	123,05
397,78	127,14
397,989	131,24
398,198	325,8
398,407	164,01
398,617	127,14
398,826	57,51
399,035	139,43
399,244	166,06
399,453	96,43
399,663	198,82
399,872	96,43
400,081	30,89
400,29	147,62
400,499	51,37
400,708	168,1
400,917	41,13
401,127	141,48
401,336	39,08
401,545	229,54
401,754	178,34
401,963	170,15
402,172	71,85
402,381	6,31
402,59	63,66
402,799	73,9
403,008	135,34
403,217	47,27
403,426	137,38
403,635	20,65
403,844	53,42
404,053	39,08
404,262	71,85
404,471	106,67
404,68	49,32
404,888	88,23
405,097	45,23
405,306	84,14
405,515	147,62
405,724	65,71
405,933	153,77
406,142	155,82
406,35	194,73
406,559	61,61
406,768	145,58
406,977	241,83
407,185	65,71
407,394	168,1
407,603	-61,27
407,812	88,23
408,02	243,88
408,229	196,78
408,438	71,85
408,646	-5,97
408,855	194,73
409,064	262,31
409,272	200,87
409,481	362,66
409,69	264,36
409,898	254,12
410,107	231,59
410,315	221,35
410,524	213,16
410,733	252,07
410,941	276,65
411,15	254,12
411,358	127,14
411,567	217,26
411,775	155,82
411,984	202,92
412,192	202,92
412,401	71,85
412,609	252,07
412,818	178,34
413,026	57,51
413,234	53,42
413,443	16,55
413,651	45,23
413,86	26,79
414,068	231,59
414,276	231,59
414,485	4,27
414,693	88,23
414,901	198,82
415,11	116,9
415,318	47,27
415,526	98,47
415,734	88,23
415,943	149,67
416,151	170,15
416,359	63,66
416,567	67,75
416,776	223,4
416,984	39,08
417,192	159,91
417,4	32,94
417,608	-16,21
417,817	43,18
418,025	102,57
418,233	155,82
418,441	22,7
418,649	39,08
418,857	57,51
419,065	164,01
419,273	-3,93
419,481	118,95
419,689	73,9
419,897	125,1
420,105	16,55
420,313	168,1
420,521	104,62
420,729	264,36
420,937	-46,93
421,145	8,36
421,353	188,58
421,561	180,39
421,769	139,43
421,977	67,75
422,185	149,67
422,393	39,08
422,601	182,44
422,809	90,28
423,017	73,9
423,224	65,71
423,432	170,15
423,64	55,47
423,848	116,9
424,056	-57,17
424,263	147,62
424,471	30,89
424,679	180,39
424,887	-26,45
425,094	118,95
425,302	131,24
425,51	-42,84
425,718	61,61
425,925	-1,88
426,133	-61,27
426,341	217,26
426,548	39,08
426,756	22,7
426,964	47,27
427,171	65,71
427,379	57,51
427,586	32,94
427,794	102,57
428,001	73,9
428,209	32,94
428,417	182,44
428,624	20,65
428,832	127,14
429,039	86,19
429,247	100,52
429,454	67,75
429,662	178,34
429,869	145,58
430,076	86,19
430,284	112,81
430,491	221,35
430,699	116,9
430,906	245,93
431,114	80,04
431,321	16,55
431,528	39,08
431,736	75,95
431,943	196,78
432,15	299,17
432,358	356,52
432,565	463,01
432,772	241,83
432,979	514,21
433,187	688,29
433,394	835,74
433,601	913,56
433,808	985,24
434,016	960,67
434,223	888,99
434,43	923,8
434,637	827,55
434,844	712,86
435,052	534,69
435,259	532,64
435,466	436,39
435,673	327,85
435,88	321,7
436,087	282,79
436,294	215,21
436,501	131,24
436,708	73,9
436,915	135,34
437,122	188,58
437,329	51,37
437,537	59,56
437,743	49,32
437,95	196,78
438,157	131,24
438,364	92,33
438,571	22,7
438,778	153,77
438,985	39,08
439,192	164,01
439,399	88,23
439,606	96,43
439,813	143,53
440,02	106,67
440,227	229,54
440,433	98,47
440,64	161,96
440,847	30,89
441,054	180,39
441,261	217,26
441,467	178,34
441,674	41,13
441,881	133,29
442,088	80,04
442,294	82,09
442,501	186,54
442,708	151,72
442,914	37,03
443,121	88,23
443,328	157,86
443,534	194,73
443,741	30,89
443,948	14,51
444,154	131,24
444,361	227,5
444,568	94,38
444,774	59,56
444,981	39,08
445,187	202,92
445,394	82,09
445,6	0,17
445,807	82,09
446,013	34,99
446,22	-34,64
446,426	14,51
446,633	141,48
446,839	268,45
447,046	26,79
447,252	123,05
447,459	77,99
447,665	43,18
447,871	102,57
448,078	145,58
448,284	14,51
448,491	75,95
448,697	104,62
448,903	114,86
449,11	8,36
449,316	16,55
449,522	182,44
449,728	161,96
449,935	121
450,141	82,09
450,347	229,54
450,553	143,53
450,76	96,43
450,966	65,71
451,172	22,7
451,378	84,14
451,584	73,9
451,791	176,3
451,997	53,42
452,203	41,13
452,409	153,77
452,615	108,71
452,821	112,81
453,027	-34,64
453,233	153,77
453,44	41,13
453,646	-20,31
453,852	96,43
454,058	8,36
454,264	147,62
454,47	188,58
454,676	102,57
454,882	77,99
455,088	131,24
455,294	-1,88
455,5	116,9
455,705	88,23
455,911	71,85
456,117	55,47
456,323	24,75
456,529	84,14
456,735	8,36
456,941	53,42
457,147	149,67
457,352	104,62
457,558	49,32
457,764	174,25
457,97	18,6
458,176	47,27
458,381	14,51
458,587	137,38
458,793	108,71
458,999	-20,31
459,204	104,62
459,41	28,84
459,616	94,38
459,821	127,14
460,027	6,31
460,233	123,05
460,438	114,86
460,644	57,51
460,85	141,48
461,055	123,05
461,261	86,19
461,466	41,13
461,672	-63,32
461,878	37,03
462,083	100,52
462,289	6,31
462,494	53,42
462,7	137,38
462,905	12,46
463,111	110,76
463,316	118,95
463,522	237,74
463,727	106,67
463,932	59,56
464,138	106,67
464,343	135,34
464,549	129,19
464,754	202,92
464,959	84,14
465,165	18,6
465,37	92,33
465,575	37,03
465,781	61,61
465,986	-14,17
466,191	12,46
466,397	47,27
466,602	215,21
466,807	80,04
467,012	51,37
467,218	90,28
467,423	71,85
467,628	123,05
467,833	2,22
468,038	41,13
468,244	-24,4
468,449	43,18
468,654	55,47
468,859	26,79
469,064	63,66
469,269	37,03
469,474	151,72
469,679	211,11
469,885	133,29
470,09	-75,6
470,295	-1,88
470,5	41,13
470,705	104,62
470,91	94,38
471,115	207,02
471,32	43,18
471,525	227,5
471,73	192,68
471,935	-24,4
472,139	-18,26
472,344	8,36
472,549	10,41
472,754	145,58
472,959	133,29
473,164	53,42
473,369	90,28
473,574	178,34
473,778	106,67
473,983	137,38
474,188	170,15
474,393	80,04
474,598	47,27
474,802	18,6
475,007	108,71
475,212	235,69
475,417	67,75
475,621	161,96
475,826	-10,07
476,031	104,62
476,235	65,71
476,44	116,9
476,645	121
476,849	20,65
477,054	47,27
477,259	84,14
477,463	213,16
477,668	241,83
477,872	192,68
478,077	121
478,282	4,27
478,486	100,52
478,691	49,32
478,895	116,9
479,1	186,54
479,304	194,73
479,509	71,85
479,713	219,3
479,918	182,44
480,122	88,23
480,326	100,52
480,531	59,56
480,735	123,05
480,94	53,42
481,144	196,78
481,348	121
481,553	125,1
481,757	53,42
481,961	34,99
482,166	110,76
482,37	49,32
482,574	247,97
482,778	-18,26
482,983	151,72
483,187	30,89
483,391	170,15
483,595	215,21
483,8	467,11
484,004	913,56
484,208	1284,25
484,412	2087,05
484,616	3184,76
484,821	4489,32
485,025	6006,86
485,229	7473,21
485,433	8732,71
485,637	9895,96
485,841	10457,1
486,045	10901,51
486,249	10721,29
486,453	10010,64
486,657	8935,46
486,861	7663,67
487,065	6445,13
487,269	5472,34
487,473	4337,77
487,677	3653,75
487,881	3270,78
488,085	2246,79
488,289	1878,16
488,493	1378,45
488,697	1159,32
488,901	719,01
489,105	493,73
489,309	256,17
489,512	448,68
489,716	239,78
489,92	153,77
490,124	166,06
490,328	233,64
490,531	174,25
490,735	252,07
490,939	67,75
491,143	121
491,346	155,82
491,55	98,47
491,754	71,85
491,958	82,09
492,161	176,3
492,365	106,67
492,569	71,85
492,772	182,44
492,976	121
493,18	98,47
493,383	47,27
493,587	63,66
493,79	100,52
493,994	-48,98
494,197	84,14
494,401	145,58
494,605	30,89
494,808	118,95
495,012	59,56
495,215	311,46
495,419	176,3
495,622	75,95
495,825	82,09
496,029	63,66
496,232	153,77
496,436	123,05
496,639	112,81
496,843	139,43
497,046	51,37
497,249	178,34
497,453	67,75
497,656	14,51
497,859	92,33
498,063	106,67
498,266	198,82
498,469	-79,7
498,673	-32,6
498,876	18,6
499,079	63,66
499,282	53,42
499,485	286,89
499,689	116,9
499,892	71,85
500,095	-18,26
500,298	73,9
500,501	-44,88
500,705	135,34
500,908	86,19
501,111	-1,88
501,314	170,15
501,517	192,68
501,72	6,31
501,923	114,86
502,126	-14,17
502,329	137,38
502,532	149,67
502,735	243,88
502,938	145,58
503,141	75,95
503,344	20,65
503,547	256,17
503,75	-18,26
503,953	2,22
504,156	57,51
504,359	82,09
504,562	-22,36
504,765	108,71
504,968	118,95
505,17	53,42
505,373	202,92
505,576	139,43
505,779	26,79
505,982	-14,17
506,185	82,09
506,387	57,51
506,59	170,15
506,793	82,09
506,996	141,48
507,198	198,82
507,401	227,5
507,604	159,91
507,807	18,6
508,009	75,95
508,212	129,19
508,415	96,43
508,617	41,13
508,82	34,99
509,022	157,86
509,225	67,75
509,428	-51,03
509,63	88,23
509,833	63,66
510,035	209,06
510,238	145,58
510,44	59,56
510,643	71,85
510,845	143,53
511,048	174,25
511,25	45,23
511,453	55,47
511,655	61,61
511,858	168,1
512,06	252,07
512,262	18,6
512,465	43,18
512,667	106,67
512,87	-24,4
513,072	178,34
513,274	100,52
513,477	16,55
513,679	59,56
513,881	57,51
514,084	39,08
514,286	125,1
514,488	123,05
514,69	4,27
514,893	96,43
515,095	-14,17
515,297	84,14
515,499	149,67
515,701	0,17
515,904	71,85
516,106	190,63
516,308	104,62
516,51	102,57
516,712	100,52
516,914	112,81
517,116	59,56
517,318	-8,02
517,52	118,95
517,722	116,9
517,925	71,85
518,127	112,81
518,329	180,39
518,531	-100,18
518,733	125,1
518,935	49,32
519,136	145,58
519,338	-26,45
519,54	121
519,742	127,14
519,944	225,45
520,146	92,33
520,348	88,23
520,55	204,97
520,752	20,65
520,954	104,62
521,155	37,03
521,357	90,28
521,559	127,14
521,761	135,34
521,963	149,67
522,164	77,99
522,366	49,32
522,568	121
522,77	229,54
522,971	69,8
523,173	75,95
523,375	153,77
523,576	-3,93
523,778	57,51
523,98	118,95
524,181	112,81
524,383	118,95
524,584	32,94
524,786	133,29
524,988	-18,26
525,189	53,42
525,391	143,53
525,592	-44,88
525,794	0,17
525,995	106,67
526,197	153,77
526,398	215,21
526,6	161,96
526,801	116,9
527,003	-81,75
527,204	98,47
527,406	86,19
527,607	67,75
527,808	51,37
528,01	-22,36
528,211	139,43
528,412	-20,31
528,614	84,14
528,815	145,58
529,016	188,58
529,218	61,61
529,419	73,9
529,62	-22,36
529,822	125,1
530,023	61,61
530,224	198,82
530,425	157,86
530,626	90,28
530,828	30,89
531,029	-34,64
531,23	180,39
531,431	6,31
531,632	164,01
531,833	8,36
532,035	145,58
532,236	10,41
532,437	180,39
532,638	43,18
532,839	-10,07
533,04	164,01
533,241	143,53
533,442	137,38
533,643	82,09
533,844	12,46
534,045	-1,88
534,246	22,7
534,447	12,46
534,648	8,36
534,849	116,9
535,05	88,23
535,251	14,51
535,451	133,29
535,652	22,7
535,853	34,99
536,054	41,13
536,255	71,85
536,456	73,9
536,657	88,23
536,857	112,81
537,058	157,86
537,259	34,99
537,46	22,7
537,66	30,89
537,861	4,27
538,062	110,76
538,263	-10,07
538,463	92,33
538,664	174,25
538,865	53,42
539,065	4,27
539,266	82,09
539,466	14,51
539,667	147,62
539,868	26,79
540,068	80,04
540,269	147,62
540,469	-8,02
540,67	77,99
540,87	86,19
541,071	-73,56
541,271	125,1
541,472	192,68
541,672	135,34
541,873	100,52
542,073	112,81
542,274	67,75
542,474	172,2
542,675	143,53
542,875	55,47
543,075	-20,31
543,276	26,79
543,476	22,7
543,676	131,24
543,877	114,86
544,077	155,82
544,277	217,26
544,478	6,31
544,678	98,47
544,878	57,51
545,078	57,51
545,279	71,85
545,479	41,13
545,679	-38,74
545,879	59,56
546,079	51,37
546,28	-61,27
546,48	82,09
546,68	166,06
546,88	20,65
547,08	92,33
547,28	133,29
547,48	-102,23
547,68	137,38
547,88	39,08
548,081	96,43
548,281	-57,17
548,481	82,09
548,681	51,37
548,881	135,34
549,081	129,19
549,28	80,04
549,48	112,81
549,68	129,19
549,88	18,6
550,08	0,17
550,28	14,51
550,48	127,14
550,68	69,8
550,88	30,89
551,08	-3,93
551,279	155,82
551,479	24,75
551,679	98,47
551,879	53,42
552,079	75,95
552,278	86,19
552,478	229,54
552,678	88,23
552,878	98,47
553,077	4,27
553,277	59,56
553,477	114,86
553,676	159,91
553,876	94,38
554,076	8,36
554,275	121
554,475	10,41
554,674	45,23
554,874	102,57
555,074	-18,26
555,273	8,36
555,473	49,32
555,672	57,51
555,872	63,66
556,071	88,23
556,271	194,73
556,47	41,13
556,67	37,03
556,869	75,95
557,068	32,94
557,268	75,95
557,467	80,04
557,667	125,1
557,866	71,85
558,065	84,14
558,265	-59,22
558,464	-73,56
558,663	88,23
558,863	108,71
559,062	80,04
559,261	-32,6
559,461	55,47
559,66	43,18
559,859	6,31
560,058	-26,45
560,258	-67,41
560,457	73,9
560,656	139,43
560,855	-65,36
561,054	157,86
561,253	59,56
561,453	16,55
561,652	96,43
561,851	80,04
562,05	26,79
562,249	-26,45
562,448	67,75
562,647	34,99
562,846	102,57
563,045	96,43
563,244	71,85
563,443	98,47
563,642	90,28
563,841	14,51
564,04	114,86
564,239	96,43
564,438	57,51
564,637	-96,08
564,836	55,47
565,035	71,85
565,234	43,18
565,432	104,62
565,631	55,47
565,83	94,38
566,029	-51,03
566,228	71,85
566,427	149,67
566,625	-100,18
566,824	155,82
567,023	18,6
567,222	116,9
567,42	57,51
567,619	73,9
567,818	71,85
568,016	301,22
568,215	30,89
568,414	270,5
568,612	53,42
568,811	106,67
569,01	141,48
569,208	-26,45
569,407	92,33
569,605	168,1
569,804	61,61
570,002	178,34
570,201	47,27
570,4	129,19
570,598	47,27
570,797	94,38
570,995	24,75
571,193	153,77
571,392	147,62
571,59	32,94
571,789	219,3
571,987	116,9
572,186	192,68
572,384	96,43
572,582	82,09
572,781	264,36
572,979	53,42
573,177	100,52
573,376	137,38
573,574	164,01
573,772	133,29
573,971	71,85
574,169	59,56
574,367	96,43
574,565	98,47
574,763	106,67
574,962	153,77
575,16	145,58
575,358	45,23
575,556	151,72
575,754	80,04
575,952	108,71
576,151	106,67
576,349	202,92
576,547	12,46
576,745	145,58
576,943	161,96
577,141	143,53
577,339	34,99
577,537	178,34
577,735	194,73
577,933	170,15
578,131	51,37
578,329	260,26
578,527	80,04
578,725	198,82
578,923	55,47
579,121	176,3
579,319	-87,89
579,516	28,84
579,714	305,32
579,912	139,43
580,11	59,56
580,308	121
580,506	180,39
580,704	147,62
580,901	112,81
581,099	213,16
581,297	184,49
581,495	198,82
581,692	159,91
581,89	315,56
582,088	258,21
582,285	186,54
582,483	110,76
582,681	139,43
582,878	110,76
583,076	196,78
583,274	77,99
583,471	288,93
583,669	135,34
583,866	20,65
584,064	84,14
584,262	59,56
584,459	61,61
584,657	245,93
584,854	80,04
585,052	194,73
585,249	168,1
585,447	110,76
585,644	37,03
585,841	198,82
586,039	159,91
586,236	190,63
586,434	12,46
586,631	116,9
586,828	34,99
587,026	73,9
587,223	30,89
587,42	24,75
587,618	129,19
587,815	272,55
588,012	127,14
588,21	133,29
588,407	121
588,604	170,15
588,801	39,08
588,999	96,43
589,196	102,57
589,393	22,7
589,59	123,05
589,787	129,19
589,984	45,23
590,182	114,86
590,379	-28,5
590,576	84,14
590,773	49,32
590,97	57,51
591,167	161,96
591,364	170,15
591,561	145,58
591,758	219,3
591,955	176,3
592,152	82,09
592,349	112,81
592,546	69,8
592,743	61,61
592,94	125,1
593,137	176,3
593,334	256,17
593,531	213,16
593,727	161,96
593,924	82,09
594,121	90,28
594,318	47,27
594,515	137,38
594,712	217,26
594,908	211,11
595,105	34,99
595,302	147,62
595,499	112,81
595,696	200,87
595,892	-24,4
596,089	182,44
596,286	108,71
596,482	217,26
596,679	227,5
596,876	20,65
597,072	141,48
597,269	112,81
597,466	131,24
597,662	69,8
597,859	96,43
598,055	63,66
598,252	94,38
598,448	141,48
598,645	127,14
598,841	161,96
599,038	223,4
599,234	145,58
599,431	143,53
599,627	86,19
599,824	135,34
600,02	71,85
600,217	106,67
600,413	145,58
600,609	71,85
600,806	379,04
601,002	131,24
601,198	-73,56
601,395	176,3
601,591	137,38
601,787	75,95
601,984	178,34
602,18	63,66
602,376	129,19
602,572	180,39
602,769	151,72
602,965	100,52
603,161	139,43
603,357	127,14
603,553	233,64
603,75	37,03
603,946	153,77
604,142	129,19
604,338	227,5
604,534	161,96
604,73	104,62
604,926	98,47
605,122	141,48
605,318	-22,36
605,514	153,77
605,71	110,76
605,906	127,14
606,102	28,84
606,298	182,44
606,494	196,78
606,69	250,02
606,886	106,67
607,082	24,75
607,278	90,28
607,474	114,86
607,67	92,33
607,866	2,22
608,062	127,14
608,257	133,29
608,453	39,08
608,649	57,51
608,845	84,14
609,041	-48,98
609,236	129,19
609,432	98,47
609,628	118,95
609,824	174,25
610,019	69,8
610,215	106,67
610,411	198,82
610,606	268,45
610,802	10,41
610,998	77,99
611,193	147,62
611,389	-32,6
611,584	133,29
611,78	0,17
611,976	73,9
612,171	252,07
612,367	164,01
612,562	80,04
612,758	133,29
612,953	22,7
613,149	61,61
613,344	51,37
613,539	-10,07
613,735	159,91
613,93	121
614,126	0,17
614,321	88,23
614,517	260,26
614,712	172,2
614,907	217,26
615,103	207,02
615,298	69,8
615,493	-30,55
615,688	82,09
615,884	176,3
616,079	6,31
616,274	94,38
616,47	-24,4
616,665	14,51
616,86	16,55
617,055	18,6
617,25	-106,32
617,445	102,57
617,641	75,95
617,836	12,46
618,031	8,36
618,226	123,05
618,421	133,29
618,616	39,08
618,811	82,09
619,006	8,36
619,201	145,58
619,396	51,37
619,591	8,36
619,786	123,05
619,981	100,52
620,176	129,19
620,371	8,36
620,566	26,79
620,761	143,53
620,956	157,86
621,151	22,7
621,346	137,38
621,541	-36,69
621,735	159,91
621,93	26,79
622,125	-51,03
622,32	16,55
622,515	-55,12
622,709	108,71
622,904	127,14
623,099	123,05
623,294	96,43
623,488	75,95
623,683	59,56
623,878	22,7
624,072	200,87
624,267	-79,7
624,462	30,89
624,656	-20,31
624,851	94,38
625,046	18,6
625,24	49,32
625,435	67,75
625,629	67,75
625,824	227,5
626,018	18,6
626,213	84,14
626,407	-3,93
626,602	96,43
626,796	57,51
626,991	151,72
627,185	34,99
627,38	14,51
627,574	137,38
627,768	108,71
627,963	-26,45
628,157	118,95
628,352	18,6
628,546	-5,97
628,74	121
628,935	-12,12
629,129	-10,07
629,323	176,3
629,517	-14,17
629,712	8,36
629,906	28,84
630,1	178,34
630,294	106,67
630,489	106,67
630,683	-5,97
630,877	131,24
631,071	131,24
631,265	67,75
631,459	104,62
631,653	102,57
631,848	80,04
632,042	131,24
632,236	-26,45
632,43	14,51
632,624	28,84
632,818	-3,93
633,012	114,86
633,206	92,33
633,4	53,42
633,594	164,01
633,788	49,32
633,982	123,05
634,176	164,01
634,369	28,84
634,563	30,89
634,757	-5,97
634,951	121
635,145	161,96
635,339	73,9
635,533	145,58
635,726	-36,69
635,92	59,56
636,114	-53,08
636,308	-75,6
636,501	6,31
636,695	225,45
636,889	-34,64
637,083	94,38
637,276	30,89
637,47	-67,41
637,664	88,23
637,857	26,79
638,051	88,23
638,244	143,53
638,438	80,04
638,632	164,01
638,825	45,23
639,019	221,35
639,212	-1,88
639,406	71,85
639,599	61,61
639,793	84,14
639,986	92,33
640,18	123,05
640,373	-3,93
640,567	86,19
640,76	118,95
640,954	110,76
641,147	92,33
641,34	16,55
641,534	80,04
641,727	151,72
641,92	106,67
642,114	100,52
642,307	41,13
642,5	166,06
642,694	51,37
642,887	131,24
643,08	139,43
643,273	164,01
643,467	59,56
643,66	30,89
643,853	34,99
644,046	204,97
644,239	151,72
644,432	55,47
644,626	32,94
644,819	57,51
645,012	104,62
645,205	112,81
645,398	172,2
645,591	82,09
645,784	-53,08
645,977	-48,98
646,17	86,19
646,363	65,71
646,556	-12,12
646,749	0,17
646,942	166,06
647,135	94,38
647,328	34,99
647,521	2,22
647,714	108,71
647,907	172,2
648,099	18,6
648,292	168,1
648,485	67,75
648,678	43,18
648,871	49,32
649,064	145,58
649,256	-59,22
649,449	57,51
649,642	41,13
649,835	80,04
650,027	8,36
650,22	164,01
650,413	84,14
650,605	202,92
650,798	24,75
650,991	39,08
651,183	73,9
651,376	247,97
651,568	188,58
651,761	141,48
651,954	116,9
652,146	69,8
652,339	219,3
652,531	215,21
652,724	108,71
652,916	92,33
653,109	14,51
653,301	290,98
653,494	200,87
653,686	235,69
653,879	223,4
654,071	264,36
654,263	217,26
654,456	594,08
654,648	2304,14
654,84	6705,22
655,033	15198,15
655,225	26160,92
655,417	37480,05
655,61	47738,32
655,802	56134,99
655,994	60622,09
656,186	62532,85
656,379	59774,23
656,571	56223,06
656,763	49999,28
656,955	45463,03
657,148	41594,42
657,34	37682,8
657,532	33476,27
657,724	30013,15
657,916	27076,37
658,108	23273,29
658,3	19384,19
658,492	16056,25
658,684	13203,43
658,876	10975,24
659,068	8871,97
659,26	6651,97
659,452	5099,61
659,644	3715,19
659,836	2691,2
660,028	1812,62
660,22	1263,77
660,412	1015,96
660,604	768,16
660,796	577,7
660,988	542,88
661,18	415,91
661,372	350,37
661,563	260,26
661,755	366,76
661,947	147,62
662,139	135,34
662,331	145,58
662,522	204,97
662,714	22,7
662,906	116,9
663,097	159,91
663,289	55,47
663,481	67,75
663,673	147,62
663,864	65,71
664,056	129,19
664,247	94,38
664,439	131,24
664,631	137,38
664,822	96,43
665,014	114,86
665,205	94,38
665,397	57,51
665,588	123,05
665,78	49,32
665,971	133,29
666,163	34,99
666,354	108,71
666,546	30,89
666,737	112,81
666,929	71,85
667,12	49,32
667,311	88,23
667,503	77,99
667,694	112,81
667,885	55,47
668,077	112,81
668,268	-32,6
668,459	116,9
668,651	123,05
668,842	88,23
669,033	45,23
669,224	-26,45
669,416	270,5
669,607	61,61
669,798	-16,21
669,989	110,76
670,18	75,95
670,371	80,04
670,563	24,75
670,754	198,82
670,945	143,53
671,136	170,15
671,327	8,36
671,518	161,96
671,709	112,81
671,9	112,81
672,091	172,2
672,282	88,23
672,473	100,52
672,664	8,36
672,855	39,08
673,046	55,47
673,237	118,95
673,428	-3,93
673,619	86,19
673,809	-10,07
674	80,04
674,191	86,19
674,382	-1,88
674,573	123,05
674,764	43,18
674,954	116,9
675,145	14,51
675,336	59,56
675,527	-32,6
675,717	24,75
675,908	71,85
676,099	6,31
676,289	26,79
676,48	0,17
676,671	73,9
676,861	24,75
677,052	39,08
677,243	59,56
677,433	-98,13
677,624	166,06
677,814	57,51
678,005	20,65
678,195	164,01
678,386	-1,88
678,576	104,62
678,767	-112,47
678,957	0,17
679,148	32,94
679,338	184,49
679,529	14,51
679,719	-1,88
679,909	190,63
680,1	80,04
680,29	14,51
680,481	-108,37
680,671	51,37
680,861	41,13
681,052	37,03
681,242	-18,26
681,432	24,75
681,622	69,8
681,813	-79,7
682,003	92,33
682,193	-8,02
682,383	47,27
682,573	-5,97
682,764	-55,12
682,954	10,41
683,144	178,34
683,334	2,22
683,524	-20,31
683,714	45,23
683,904	88,23
684,094	88,23
684,284	32,94
684,474	118,95
684,664	12,46
684,854	18,6
685,044	49,32
685,234	49,32
685,424	-1,88
685,614	4,27
685,804	145,58
685,994	16,55
686,184	-34,64
686,374	51,37
686,564	57,51
686,753	-36,69
686,943	34,99
687,133	-18,26
687,323	4,27
687,513	20,65
687,702	-8,02
687,892	-10,07
688,082	129,19
688,272	82,09
688,461	24,75
688,651	145,58
688,841	55,47
689,03	8,36
689,22	8,36
689,41	69,8
689,599	28,84
689,789	-16,21
689,979	131,24
690,168	-67,41
690,358	133,29
690,547	-26,45
690,737	-3,93
690,926	47,27
691,116	57,51
691,305	110,76
691,495	186,54
691,684	-46,93
691,874	-34,64
692,063	106,67
692,252	108,71
692,442	84,14
692,631	-3,93
692,82	-1,88
693,01	-38,74
693,199	-14,17
693,388	-1,88
693,578	39,08
693,767	75,95
693,956	92,33
694,146	-16,21
694,335	71,85
694,524	16,55
694,713	94,38
694,902	30,89
695,092	4,27
695,281	123,05
695,47	57,51
695,659	49,32
695,848	53,42
696,037	-83,8
696,226	102,57
696,415	-5,97
696,604	92,33
696,793	194,73
696,982	-30,55
697,171	133,29
697,36	8,36
697,549	59,56
697,738	-100,18
697,927	-8,02
698,116	-139,09
698,305	80,04
698,494	24,75
698,683	-3,93
698,872	301,22
699,061	127,14
699,25	30,89
699,438	30,89
699,627	-28,5
699,816	178,34
700,005	-59,22
700,193	39,08
700,382	116,9
700,571	55,47
700,76	102,57
700,948	84,14
701,137	116,9
701,326	96,43
701,514	-71,51
701,703	121
701,892	53,42
702,08	196,78
702,269	4,27
702,457	-26,45
702,646	47,27
702,834	57,51
703,023	94,38
703,212	108,71
703,4	96,43
703,589	-5,97
703,777	-73,56
703,965	30,89
704,154	-10,07
704,342	-73,56
704,531	-18,26
704,719	102,57
704,907	116,9
705,096	4,27
705,284	-40,79
705,472	112,81
705,661	94,38
705,849	90,28
706,037	135,34
706,226	96,43
706,414	82,09
706,602	30,89
706,79	133,29
706,979	-53,08
707,167	0,17
707,355	-44,88
707,543	73,9
707,731	90,28
707,919	61,61
708,107	-38,74
708,296	0,17
708,484	-75,6
708,672	61,61
708,86	86,19
709,048	84,14
709,236	-87,89
709,424	39,08
709,612	14,51
709,8	-22,36
709,988	32,94
710,176	92,33
710,364	143,53
710,551	28,84
710,739	32,94
710,927	-36,69
711,115	-32,6
711,303	123,05
711,491	123,05
711,679	22,7
711,866	28,84
712,054	-63,32
712,242	43,18
712,43	182,44
712,617	10,41
712,805	116,9
712,993	10,41
713,181	-91,99
713,368	149,67
713,556	10,41
713,744	34,99
713,931	209,06
714,119	59,56
714,306	-5,97
714,494	-48,98
714,682	57,51
714,869	-18,26
715,057	18,6
715,244	-106,32
715,432	98,47
715,619	-1,88
715,807	-18,26
715,994	-8,02
716,182	2,22
716,369	39,08
716,556	26,79
716,744	-71,51
716,931	-63,32
717,119	88,23
717,306	4,27
717,493	30,89
717,681	-20,31
717,868	-38,74
718,055	80,04
718,242	-42,84
718,43	-28,5
718,617	67,75
718,804	-57,17
718,991	73,9
719,179	59,56
719,366	59,56
719,553	53,42
719,74	18,6
719,927	-30,55
720,114	-67,41
720,301	-48,98
720,488	-108,37
720,676	-44,88
720,863	94,38
721,05	170,15
721,237	84,14
721,424	39,08
721,611	37,03
721,798	-51,03
721,985	-8,02
722,172	-51,03
722,358	-59,22
722,545	137,38
722,732	84,14
722,919	37,03
723,106	14,51
723,293	26,79
723,48	55,47
723,667	-65,36
723,853	63,66
724,04	-16,21
724,227	98,47
724,414	28,84
724,6	30,89
724,787	112,81
724,974	184,49
725,161	41,13
725,347	-96,08
725,534	22,7
725,72	88,23
725,907	69,8
726,094	133,29
726,28	-73,56
726,467	14,51
726,653	-59,22
726,84	143,53
727,027	194,73
727,213	-22,36
727,4	82,09
727,586	39,08
727,773	69,8
727,959	-75,6
728,145	82,09
728,332	18,6
728,518	4,27
728,705	24,75
728,891	26,79
729,077	28,84
729,264	30,89
729,45	14,51
729,636	51,37
729,823	-5,97
730,009	45,23
730,195	45,23
730,382	123,05
730,568	2,22
730,754	75,95
730,94	30,89
731,126	-8,02
731,313	8,36
731,499	-8,02
731,685	12,46
731,871	20,65
732,057	-5,97
732,243	10,41
732,429	106,67
732,615	116,9
732,801	-3,93
732,987	57,51
733,173	2,22
733,359	-53,08
733,545	-24,4
733,731	65,71
733,917	71,85
734,103	147,62
734,289	26,79
734,475	4,27
734,661	184,49
734,847	39,08
735,033	43,18
735,219	75,95
735,404	-10,07
735,59	-28,5
735,776	57,51
735,962	63,66
736,148	129,19
736,333	155,82
736,519	8,36
736,705	16,55
736,89	49,32
737,076	-16,21
737,262	-24,4
737,447	-77,65
737,633	-85,84
737,819	112,81
738,004	-22,36
738,19	22,7
738,375	57,51
738,561	88,23
738,747	22,7
738,932	-157,52
739,118	190,63
739,303	112,81
739,489	16,55
739,674	-1,88
739,859	-65,36
740,045	73,9
740,23	90,28
740,416	-48,98
740,601	6,31
740,786	39,08
740,972	-20,31
741,157	-81,75
741,342	-59,22
741,528	10,41
741,713	100,52
741,898	20,65
742,084	82,09
742,269	-8,02
742,454	32,94
742,639	45,23
742,824	14,51
743,01	100,52
743,195	137,38
743,38	-16,21
743,565	90,28
743,75	55,47
743,935	22,7
744,12	82,09
744,305	-22,36
744,49	22,7
744,675	-57,17
744,86	-14,17
745,045	65,71
745,23	88,23
745,415	-14,17
745,6	121
745,785	-16,21
745,97	69,8
746,155	55,47
746,34	135,34
746,525	24,75
746,71	104,62
746,895	-147,28
747,079	-135
747,264	39,08
747,449	133,29
747,634	92,33
747,819	80,04
748,003	20,65
748,188	-20,31
748,373	106,67
748,557	63,66
748,742	65,71
748,927	67,75
749,111	-8,02
749,296	41,13
749,481	121
749,665	26,79
749,85	4,27
750,034	32,94
750,219	61,61
750,404	-28,5
750,588	155,82
750,773	24,75
750,957	61,61
751,141	14,51
751,326	65,71
751,51	8,36
751,695	-44,88
751,879	-1,88
752,064	161,96
752,248	53,42
752,432	125,1
752,617	137,38
752,801	164,01
752,985	-46,93
753,17	145,58
753,354	45,23
753,538	149,67
753,722	-48,98
753,907	12,46
754,091	-18,26
754,275	137,38
754,459	-108,37
754,643	-83,8
754,828	69,8
755,012	77,99
755,196	-14,17
755,38	100,52
755,564	-57,17
755,748	32,94
755,932	127,14
756,116	161,96
756,3	100,52
756,484	18,6
756,668	100,52
756,852	-51,03
757,036	-65,36
757,22	-26,45
757,404	47,27
757,588	2,22
757,772	47,27
757,956	34,99
758,14	100,52
758,323	14,51
758,507	45,23
758,691	30,89
758,875	127,14
759,059	145,58
759,242	-10,07
759,426	-3,93
759,61	106,67
759,794	32,94
759,977	96,43
760,161	229,54
760,345	104,62
760,528	106,67
760,712	57,51
760,895	43,18
761,079	43,18
761,263	-65,36
761,446	22,7
761,63	26,79
761,813	133,29
761,997	-73,56
762,18	6,31
762,364	41,13
762,547	-69,46
762,731	14,51
762,914	88,23
763,098	26,79
763,281	-22,36
763,464	-10,07
763,648	82,09
763,831	-42,84
764,015	-24,4
764,198	94,38
764,381	-36,69
764,564	73,9
764,748	137,38
764,931	71,85
765,114	18,6
765,297	47,27
765,481	-77,65
765,664	32,94
765,847	20,65
766,03	22,7
766,213	-30,55
766,397	92,33
766,58	-32,6
766,763	88,23
766,946	6,31
767,129	16,55
767,312	26,79
767,495	41,13
767,678	-38,74
767,861	168,1
768,044	24,75
768,227	4,27
768,41	18,6
768,593	41,13
768,776	32,94
768,959	-20,31
769,142	202,92
769,324	22,7
769,507	8,36
769,69	-22,36
769,873	-22,36
770,056	186,54
770,239	24,75
770,421	65,71
770,604	51,37
770,787	104,62
770,97	-8,02
771,152	-63,32
771,335	86,19
771,518	-67,41
771,7	80,04
771,883	125,1
772,066	34,99
772,248	53,42
772,431	108,71
772,613	55,47
772,796	43,18
772,978	32,94
773,161	77,99
773,343	-14,17
773,526	39,08
773,708	-42,84
773,891	-75,6
774,073	51,37
774,256	-55,12
774,438	112,81
774,621	-57,17
774,803	32,94
774,985	32,94
775,168	84,14
775,35	-38,74
775,532	90,28
775,715	-51,03
775,897	16,55
776,079	69,8
776,261	190,63
776,444	266,41
776,626	387,24
776,808	589,99
776,99	682,14
777,173	911,52
777,355	921,76
777,537	1003,68
777,719	934,04
777,901	776,35
778,083	604,32
778,265	651,42
778,447	686,24
778,629	424,1
778,811	579,75
778,993	432,29
779,175	485,54
779,357	413,86
779,539	221,35
779,721	247,97
779,903	274,6
780,085	131,24
780,267	153,77
780,449	82,09
780,631	188,58
780,812	90,28
780,994	18,6
781,176	0,17
781,358	41,13
781,54	32,94
781,721	104,62
781,903	51,37
782,085	-44,88
782,267	104,62
782,448	-122,71
782,63	14,51
782,812	20,65
782,993	127,14
783,175	24,75
783,357	-59,22
783,538	98,47
783,72	-16,21
783,901	41,13
784,083	65,71
784,264	59,56
784,446	-94,04
784,627	-59,22
784,809	26,79
784,99	-81,75
785,172	18,6
785,353	-38,74
785,535	71,85
785,716	47,27
785,897	-22,36
786,079	-65,36
786,26	82,09
786,441	41,13
786,623	-96,08
786,804	0,17
786,985	20,65
787,167	84,14
787,348	-55,12
787,529	6,31
787,71	86,19
787,891	63,66
788,073	-32,6
788,254	-67,41
788,435	186,54
788,616	26,79
788,797	-46,93
788,978	61,61
789,159	-20,31
789,34	82,09
789,522	-24,4
789,703	-69,46
789,884	-3,93
790,065	65,71
790,246	155,82
790,427	-20,31
790,607	133,29
790,788	57,51
790,969	-51,03
791,15	80,04
791,331	39,08
791,512	-122,71
791,693	-75,6
791,874	-38,74
792,054	202,92
792,235	98,47
792,416	-116,56
792,597	-5,97
792,778	61,61
792,958	82,09
793,139	77,99
793,32	22,7
793,5	-69,46
793,681	92,33
793,862	51,37
794,042	-57,17
794,223	-141,14
794,404	-53,08
794,584	-73,56
794,765	-5,97
794,945	-42,84
795,126	26,79
795,306	108,71
795,487	-1,88
795,667	22,7
795,848	73,9
796,028	-26,45
796,209	24,75
796,389	88,23
796,57	22,7
796,75	-59,22
796,93	30,89
797,111	-51,03
797,291	20,65
797,471	57,51
797,652	22,7
797,832	-34,64
798,012	88,23
798,192	-38,74
798,373	-51,03
798,553	-22,36
798,733	125,1
798,913	-14,17
799,093	-59,22
799,274	28,84
799,454	65,71
799,634	184,49
799,814	49,32
799,994	-5,97
800,174	71,85
800,354	-16,21
800,534	-169,81
800,714	125,1
800,894	-73,56
801,074	-65,36
801,254	34,99
801,434	131,24
801,614	-67,41
801,794	-83,8
801,974	1826,96
802,154	-26,45
802,334	59,56
802,514	-36,69
802,693	24,75
802,873	4,27
803,053	131,24
803,233	-1,88
803,413	-8,02
803,592	-8,02
803,772	-55,12
803,952	2,22
804,131	-118,61
804,311	92,33
804,491	164,01
804,67	-110,42
804,85	-104,28
805,03	123,05
805,209	34,99
805,389	16,55
805,568	-14,17
805,748	-1,88
805,928	28,84
806,107	67,75
806,287	96,43
806,466	73,9
806,646	-3,93
806,825	-16,21
807,004	-51,03
807,184	-1,88
807,363	6,31
807,543	49,32
807,722	-73,56
807,901	139,43
808,081	49,32
808,26	-108,37
808,439	30,89
808,619	24,75
808,798	-10,07
808,977	-1,88
809,156	69,8
809,336	-61,27
809,515	88,23
809,694	-48,98
809,873	-24,4
810,052	65,71
810,231	80,04
810,411	63,66
810,59	114,86
810,769	37,03
810,948	45,23
811,127	-180,05
811,306	-28,5
811,485	-14,17
811,664	204,97
811,843	18,6
812,022	-24,4
812,201	10,41
812,38	34,99
812,559	-36,69
812,737	34,99
812,916	-65,36
813,095	-63,32
813,274	30,89
813,453	34,99
813,632	-20,31
813,811	147,62
813,989	-120,66
814,168	2,22
814,347	-100,18
814,526	-59,22
814,704	151,72
814,883	147,62
815,062	-57,17
815,24	30,89
815,419	-48,98
815,598	34,99
815,776	-98,13
815,955	32,94
816,133	-85,84
816,312	6,31
816,49	-46,93
816,669	-61,27
816,847	-48,98
817,026	-16,21
817,204	-83,8
817,383	-63,32
817,561	-79,7
817,74	-26,45
817,918	22,7
818,097	-16,21
818,275	39,08
818,453	92,33
818,632	26,79
818,81	8,36
818,988	22,7
819,167	-36,69
819,345	-22,36
819,523	-81,75
819,701	47,27
819,879	47,27
820,058	-18,26
820,236	-63,32
820,414	-46,93
820,592	41,13
820,77	-5,97
820,948	-46,93
821,127	-5,97
821,305	-1,88
821,483	-42,84
821,661	77,99
821,839	86,19
822,017	16,55
822,195	-34,64
822,373	8,36
822,551	4,27
822,729	65,71
822,907	-79,7
823,085	73,9
823,262	41,13
823,44	-57,17
823,618	-59,22
823,796	-1,88
823,974	-20,31
824,152	-98,13
824,329	24,75
824,507	0,17
824,685	92,33
824,863	65,71
825,04	4,27
825,218	67,75
825,396	-22,36
825,574	8,36
825,751	47,27
825,929	2,22
826,107	-145,24
826,284	-20,31
826,462	-8,02
826,639	-48,98
826,817	-65,36
826,994	26,79
827,172	-96,08
827,349	96,43
827,527	24,75
827,704	41,13
827,882	86,19
828,059	47,27
828,237	-10,07
828,414	102,57
828,591	-182,1
828,769	0,17
828,946	-38,74
829,124	51,37
829,301	92,33
829,478	30,89
829,655	49,32
829,833	-57,17
830,01	-94,04
830,187	-59,22
830,364	-96,08
830,542	18,6
830,719	174,25
830,896	8,36
831,073	47,27
831,25	16,55
831,427	39,08
831,604	-18,26
831,782	-14,17
831,959	28,84
832,136	-28,5
832,313	82,09
832,49	32,94
832,667	-22,36
832,844	4,27
833,021	141,48
833,198	-10,07
833,374	26,79
833,551	-40,79
833,728	-12,12
833,905	65,71
834,082	-108,37
834,259	-10,07
834,436	84,14
834,612	-51,03
834,789	161,96
834,966	-8,02
835,143	59,56
835,319	-32,6
835,496	106,67
835,673	-1,88
835,85	2,22
836,026	71,85
836,203	84,14
836,38	-53,08
836,556	-75,6
836,733	-5,97
836,909	153,77
837,086	-10,07
837,262	-91,99
837,439	-1,88
837,616	-1,88
837,792	-28,5
837,968	30,89
838,145	-77,65
838,321	20,65
838,498	24,75
838,674	94,38
838,851	-20,31
839,027	8,36
839,203	-44,88
839,38	16,55
839,556	-30,55
839,732	55,47
839,909	22,7
840,085	14,51
840,261	-40,79
840,437	34,99
840,614	-24,4
840,79	94,38
840,966	8,36
841,142	6,31
841,318	-38,74
841,494	59,56
841,671	125,1
841,847	-135
842,023	-65,36
842,199	-48,98
842,375	73,9
842,551	-108,37
842,727	-59,22
842,903	174,25
843,079	-79,7
843,255	114,86
843,431	-51,03
843,607	102,57
843,783	-94,04
843,959	176,3
844,134	297,13
844,31	395,43
844,486	258,21
844,662	250,02
844,838	360,61
845,013	280,74
845,189	290,98
845,365	211,11
845,541	233,64
845,716	178,34
845,892	213,16
846,068	67,75
846,244	-8,02
846,419	106,67
846,595	57,51
846,77	-1,88
846,946	129,19
847,122	118,95
847,297	82,09
847,473	164,01
847,648	-85,84
847,824	77,99
847,999	-40,79
848,175	63,66
848,35	61,61
848,526	209,06
848,701	59,56
848,876	159,91
849,052	43,18
849,227	16,55
849,403	41,13
849,578	-32,6
849,753	-18,26
849,929	37,03
850,104	-130,9
850,279	14,51
850,454	-3,93
850,63	77,99
850,805	37,03
850,98	18,6
851,155	32,94
851,33	45,23
851,505	-65,36
851,681	143,53
851,856	-57,17
852,031	12,46
852,206	90,28
852,381	-100,18
852,556	0,17
852,731	28,84
852,906	59,56
853,081	-10,07
853,256	123,05
853,431	-1,88
853,606	-10,07
853,781	-44,88
853,956	-135
854,131	71,85
854,305	-59,22
854,48	-18,26
854,655	-24,4
854,83	-106,32
855,005	86,19
855,18	55,47
855,354	-24,4
855,529	80,04
855,704	-1,88
855,879	43,18
856,053	-42,84
856,228	57,51
856,403	-5,97
856,577	49,32
856,752	-65,36
856,926	-3,93
857,101	98,47
857,276	-63,32
857,45	12,46
857,625	104,62
857,799	-1,88
857,974	94,38
858,148	-126,8
858,323	37,03
858,497	2,22
858,672	-59,22
858,846	-14,17
859,02	55,47
859,195	-28,5
859,369	-55,12
859,543	-16,21
859,718	-16,21
859,892	55,47
860,066	55,47
860,241	-57,17
860,415	-8,02
860,589	14,51
860,763	114,86
860,938	8,36
861,112	57,51
861,286	-42,84
861,46	90,28
861,634	55,47
861,808	125,1
861,982	30,89
862,157	-128,85
862,331	-32,6
862,505	-120,66
862,679	-100,18
862,853	16,55
863,027	-16,21
863,201	186,54
863,375	-94,04
863,549	90,28
863,722	32,94
863,896	63,66
864,07	-53,08
864,244	-38,74
864,418	61,61
864,592	-100,18
864,766	-28,5
864,939	20,65
865,113	18,6
865,287	125,1
865,461	-34,64
865,634	8,36
865,808	-10,07
865,982	-20,31
866,156	-98,13
866,329	-14,17
866,503	55,47
866,676	61,61
866,85	67,75
867,024	-51,03
867,197	22,7
867,371	41,13
867,544	-14,17
867,718	-124,76
867,891	104,62
868,065	-135
868,238	-32,6
868,412	106,67
868,585	-18,26
868,759	-57,17
868,932	-5,97
869,105	-75,6
869,279	53,42
869,452	-114,52
869,625	153,77
869,799	-14,17
869,972	-63,32
870,145	-104,28
870,319	114,86
870,492	-77,65
870,665	32,94
870,838	-63,32
871,011	-130,9
871,185	8,36
871,358	-34,64
871,531	114,86
871,704	10,41
871,877	49,32
872,05	-104,28
872,223	-10,07
872,396	80,04
872,569	100,52
872,742	-132,95
872,915	96,43
873,088	-55,12
873,261	-34,64
873,434	123,05
873,607	22,7
873,78	82,09
873,953	-149,33
874,126	-18,26
874,299	53,42
874,471	-42,84
874,644	-87,89
874,817	12,46
874,99	139,43
875,163	-51,03
875,335	39,08
875,508	22,7
875,681	108,71
875,853	-53,08
876,026	20,65
876,199	14,51
876,371	63,66
876,544	-38,74
876,717	6,31
876,889	-16,21
877,062	-46,93
877,234	-91,99
877,407	-32,6
877,579	-12,12
877,752	-38,74
877,924	43,18
878,097	47,27
878,269	2,22
878,442	118,95
878,614	137,38
878,786	22,7
878,959	34,99
879,131	-18,26
879,303	-81,75
879,476	8,36
879,648	84,14
879,82	49,32
879,993	14,51
880,165	49,32
880,337	-89,94
880,509	82,09
880,681	-124,76
880,854	32,94
881,026	14,51
881,198	270,5
881,37	-10,07
881,542	8,36
881,714	-42,84
881,886	-14,17
882,058	22,7
882,23	18,6
882,402	-18,26
882,574	45,23
882,746	112,81
882,918	104,62
883,09	8,36
883,262	-65,36
883,434	18,6
883,606	0,17
883,778	-73,56
883,95	100,52
884,122	65,71
884,293	8,36
884,465	69,8
884,637	67,75
884,809	-24,4
884,98	49,32
885,152	8,36
885,324	80,04
885,496	-61,27
885,667	-106,32
885,839	-73,56
886,011	98,47
886,182	-10,07
886,354	69,8
886,525	14,51
886,697	18,6
886,869	-42,84
887,04	-42,84
887,212	88,23
887,383	137,38
887,555	22,7
887,726	-75,6
887,897	-61,27
888,069	32,94
888,24	127,14
888,412	10,41
888,583	-18,26
888,754	43,18
888,926	-110,42
889,097	-89,94
889,268	-122,71
889,44	2,22
889,611	-48,98
889,782	-65,36
889,953	-73,56
890,125	32,94
890,296	-48,98
890,467	-40,79
890,638	0,17
890,809	32,94
890,98	26,79
891,151	-36,69
891,323	118,95
891,494	-3,93
891,665	-20,31
891,836	39,08
892,007	-57,17
892,178	53,42
892,349	69,8
892,52	-108,37
892,691	24,75
892,862	-44,88
893,032	-69,46
893,203	-48,98
893,374	65,71
893,545	149,67
893,716	-20,31
893,887	55,47
894,057	-48,98
894,228	39,08
894,399	-30,55
894,57	49,32
894,74	26,79
894,911	22,7
895,082	-81,75
895,253	-53,08
895,423	-67,41
895,594	24,75
895,764	63,66
895,935	-141,14
896,106	75,95
896,276	-51,03
896,447	51,37
896,617	-59,22
896,788	-96,08
896,958	24,75
897,129	-22,36
897,299	-34,64
897,47	88,23
897,64	118,95
897,81	-1,88
897,981	30,89
898,151	-42,84
898,322	-24,4
898,492	-8,02
898,662	-87,89
898,832	-22,36
899,003	-48,98
899,173	34,99
899,343	-106,32
899,513	-44,88
