Data from deuterium_USB4F104151__15__10-57-07-518.txt Node

Date: Wed Apr 15 10:57:07 EDT 2026
User: LaboPhy
Spectrometer: USB4F10415
Trigger mode: 4
Integration Time (sec): 1,000000E-1
Scans to average: 1
Electric dark correction enabled: true
Nonlinearity correction enabled: false
Boxcar width: 0
XAxis mode: Wavelengths
Number of Pixels in Spectrum: 3648
>>>>>Begin Spectral Data<<<<<
178,204	-418,64
178,424	-418,64
178,644	-418,64
178,864	-441,17
179,084	-443,21
179,304	-39,76
179,524	-17,24
179,744	-19,29
179,964	70,83
180,184	21,67
180,404	25,77
180,624	-99,16
180,844	-43,86
181,064	-47,96
181,283	93,35
181,503	-35,67
181,723	91,31
181,943	-148,31
182,163	160,94
182,383	17,58
182,602	-2,9
182,822	162,98
183,042	50,35
183,262	25,77
183,482	-2,9
183,701	27,82
183,921	64,68
184,141	-52,05
184,361	60,59
184,58	38,06
184,8	52,39
185,02	-80,72
185,239	76,97
185,459	56,49
185,679	56,49
185,898	-113,49
186,118	11,43
186,338	60,59
186,557	115,88
186,777	-80,72
186,997	-37,72
187,216	23,72
187,436	150,7
187,655	54,44
187,875	177,32
188,095	13,48
188,314	81,07
188,534	76,97
188,753	-70,48
188,973	189,61
189,192	183,46
189,412	-17,24
189,631	7,34
189,851	46,25
190,07	226,47
190,29	-68,44
190,509	-47,96
190,729	-23,38
190,948	107,69
191,168	150,7
191,387	-0,85
191,607	-17,24
191,826	99,5
192,045	-19,29
192,265	-54,1
192,484	113,83
192,704	81,07
192,923	-131,92
193,142	185,51
193,362	177,32
193,581	33,96
193,8	23,72
194,02	66,73
194,239	7,34
194,458	25,77
194,678	-47,96
194,897	-58,2
195,116	48,3
195,335	62,63
195,555	79,02
195,774	27,82
195,993	93,35
196,212	99,5
196,432	-35,67
196,651	-25,43
196,87	54,44
197,089	169,13
197,308	60,59
197,528	25,77
197,747	-41,81
197,966	46,25
198,185	87,21
198,404	-66,39
198,623	124,07
198,842	89,26
199,062	54,44
199,281	48,3
199,5	107,69
199,719	128,17
199,938	72,87
200,157	1,19
200,376	64,68
200,595	68,78
200,814	56,49
201,033	-19,29
201,252	142,5
201,471	15,53
201,69	52,39
201,909	7,34
202,128	113,83
202,347	99,5
202,566	-25,43
202,785	-109,4
203,004	-62,29
203,223	267,43
203,442	-43,86
203,661	-54,1
203,879	29,87
204,098	152,74
204,317	-74,58
204,536	68,78
204,755	119,98
204,974	115,88
205,193	-27,48
205,411	113,83
205,63	150,7
205,849	119,98
206,068	-31,57
206,287	-33,62
206,505	224,42
206,724	-76,63
206,943	-7
207,162	33,96
207,381	5,29
207,599	46,25
207,818	-2,9
208,037	-45,91
208,255	95,4
208,474	97,45
208,693	81,07
208,911	-21,33
209,13	23,72
209,349	1,19
209,567	81,07
209,786	13,48
210,005	122,02
210,223	-27,48
210,442	-70,48
210,661	-47,96
210,879	25,77
211,098	13,48
211,316	-58,2
211,535	48,3
211,753	95,4
211,972	29,87
212,191	83,11
212,409	29,87
212,628	54,44
212,846	-52,05
213,065	-76,63
213,283	68,78
213,502	21,67
213,72	44,2
213,938	-43,86
214,157	-66,39
214,375	81,07
214,594	27,82
214,812	113,83
215,031	-43,86
215,249	128,17
215,467	44,2
215,686	19,63
215,904	48,3
216,122	-50
216,341	119,98
216,559	36,01
216,778	79,02
216,996	154,79
217,214	-0,85
217,432	-15,19
217,651	-68,44
217,869	54,44
218,087	29,87
218,306	-7
218,524	70,83
218,742	-4,95
218,96	93,35
219,179	17,58
219,397	46,25
219,615	238,76
219,833	23,72
220,051	48,3
220,27	60,59
220,488	115,88
220,706	15,53
220,924	-68,44
221,142	-56,15
221,36	-0,85
221,578	62,63
221,796	-113,49
222,015	17,58
222,233	42,15
222,451	119,98
222,669	-23,38
222,887	97,45
223,105	58,54
223,323	70,83
223,541	-131,92
223,759	9,39
223,977	54,44
224,195	226,47
224,413	91,31
224,631	58,54
224,849	68,78
225,067	257,19
225,285	-76,63
225,503	13,48
225,721	-150,36
225,939	115,88
226,157	9,39
226,375	175,27
226,592	11,43
226,81	13,48
227,028	128,17
227,246	89,26
227,464	91,31
227,682	128,17
227,9	17,58
228,117	54,44
228,335	46,25
228,553	150,7
228,771	19,63
228,989	-4,95
229,206	17,58
229,424	62,63
229,642	-4,95
229,86	15,53
230,077	201,9
230,295	1,19
230,513	89,26
230,731	54,44
230,948	130,22
231,166	148,65
231,384	-70,48
231,601	-39,76
231,819	193,7
232,037	-45,91
232,254	-66,39
232,472	72,87
232,689	-17,24
232,907	175,27
233,125	-15,19
233,342	-43,86
233,56	33,96
233,777	-11,09
233,995	3,24
234,213	89,26
234,43	33,96
234,648	52,39
234,865	-15,19
235,083	79,02
235,3	72,87
235,518	99,5
235,735	99,5
235,953	81,07
236,17	72,87
236,388	-11,09
236,605	85,16
236,822	33,96
237,04	89,26
237,257	-41,81
237,475	-90,96
237,692	54,44
237,909	83,11
238,127	-35,67
238,344	56,49
238,562	-9,05
238,779	-50
238,996	-35,67
239,214	-27,48
239,431	169,13
239,648	62,63
239,865	31,91
240,083	89,26
240,3	29,87
240,517	-45,91
240,735	48,3
240,952	128,17
241,169	54,44
241,386	23,72
241,603	42,15
241,821	5,29
242,038	11,43
242,255	136,36
242,472	-101,2
242,689	74,92
242,907	38,06
243,124	11,43
243,341	-7
243,558	-66,39
243,775	-90,96
243,992	-35,67
244,209	76,97
244,426	95,4
244,643	103,59
244,86	27,82
245,078	33,96
245,295	99,5
245,512	85,16
245,729	-99,16
245,946	29,87
246,163	31,91
246,38	-2,9
246,597	3,24
246,814	44,2
247,031	81,07
247,248	-45,91
247,464	72,87
247,681	62,63
247,898	54,44
248,115	13,48
248,332	-66,39
248,549	113,83
248,766	181,42
248,983	130,22
249,2	72,87
249,417	81,07
249,633	-11,09
249,85	50,35
250,067	68,78
250,284	-21,33
250,501	52,39
250,717	42,15
250,934	-150,36
251,151	44,2
251,368	29,87
251,585	46,25
251,801	70,83
252,018	-99,16
252,235	109,74
252,451	-17,24
252,668	52,39
252,885	-35,67
253,102	97,45
253,318	-2,9
253,535	-9,05
253,752	-13,14
253,968	-103,25
254,185	-50
254,401	7,34
254,618	66,73
254,835	-58,2
255,051	52,39
255,268	79,02
255,484	-33,62
255,701	44,2
255,917	83,11
256,134	-29,52
256,351	-33,62
256,567	-52,05
256,784	29,87
257	-64,34
257,217	107,69
257,433	136,36
257,65	-0,85
257,866	156,84
258,082	-70,48
258,299	11,43
258,515	21,67
258,732	50,35
258,948	-70,48
259,165	40,11
259,381	-64,34
259,597	76,97
259,814	-54,1
260,03	9,39
260,246	15,53
260,463	109,74
260,679	177,32
260,895	56,49
261,112	132,26
261,328	54,44
261,544	-58,2
261,761	85,16
261,977	29,87
262,193	-52,05
262,409	5,29
262,626	19,63
262,842	-19,29
263,058	-35,67
263,274	119,98
263,49	38,06
263,707	91,31
263,923	91,31
264,139	-74,58
264,355	11,43
264,571	64,68
264,787	-21,33
265,004	46,25
265,22	-54,1
265,436	-31,57
265,652	15,53
265,868	54,44
266,084	-33,62
266,3	-31,57
266,516	-58,2
266,732	56,49
266,948	-13,14
267,164	46,25
267,38	95,4
267,596	13,48
267,812	201,9
268,028	25,77
268,244	15,53
268,46	-23,38
268,676	29,87
268,892	70,83
269,108	-35,67
269,324	-56,15
269,54	-50
269,756	85,16
269,972	-27,48
270,188	5,29
270,403	-47,96
270,619	-66,39
270,835	85,16
271,051	46,25
271,267	-11,09
271,483	40,11
271,698	95,4
271,914	79,02
272,13	31,91
272,346	-15,19
272,562	64,68
272,777	171,18
272,993	5,29
273,209	-50
273,425	99,5
273,64	-117,59
273,856	25,77
274,072	-2,9
274,287	-21,33
274,503	68,78
274,719	38,06
274,934	17,58
275,15	-99,16
275,366	64,68
275,581	-19,29
275,797	-17,24
276,012	23,72
276,228	-66,39
276,444	7,34
276,659	-29,52
276,875	-58,2
277,09	-15,19
277,306	-33,62
277,521	81,07
277,737	83,11
277,952	15,53
278,168	7,34
278,383	-17,24
278,599	46,25
278,814	33,96
279,03	76,97
279,245	130,22
279,461	-52,05
279,676	128,17
279,892	-93,01
280,107	-105,3
280,322	-78,68
280,538	46,25
280,753	-9,05
280,969	-29,52
281,184	-27,48
281,399	132,26
281,615	19,63
281,83	74,92
282,045	-78,68
282,26	-86,87
282,476	-68,44
282,691	89,26
282,906	107,69
283,122	36,01
283,337	-39,76
283,552	33,96
283,767	-17,24
283,983	113,83
284,198	-23,38
284,413	13,48
284,628	-103,25
284,843	-2,9
285,058	76,97
285,274	-39,76
285,489	-0,85
285,704	46,25
285,919	-31,57
286,134	95,4
286,349	62,63
286,564	-37,72
286,779	87,21
286,995	-17,24
287,21	-76,63
287,425	113,83
287,64	-31,57
287,855	54,44
288,07	-64,34
288,285	50,35
288,5	93,35
288,715	81,07
288,93	50,35
289,145	-7
289,36	95,4
289,575	-41,81
289,79	33,96
290,004	21,67
290,219	154,79
290,434	-19,29
290,649	-90,96
290,864	-23,38
291,079	-4,95
291,294	66,73
291,509	72,87
291,724	-25,43
291,938	-93,01
292,153	85,16
292,368	-43,86
292,583	29,87
292,798	56,49
293,012	3,24
293,227	64,68
293,442	-23,38
293,657	58,54
293,871	136,36
294,086	60,59
294,301	181,42
294,516	93,35
294,73	97,45
294,945	-35,67
295,16	117,93
295,374	117,93
295,589	136,36
295,804	-7
296,018	99,5
296,233	103,59
296,447	91,31
296,662	-101,2
296,877	85,16
297,091	152,74
297,306	5,29
297,52	11,43
297,735	142,5
297,949	79,02
298,164	31,91
298,378	-15,19
298,593	-15,19
298,807	21,67
299,022	40,11
299,236	115,88
299,451	15,53
299,665	33,96
299,88	-9,05
300,094	33,96
300,309	-11,09
300,523	19,63
300,737	-17,24
300,952	62,63
301,166	5,29
301,381	-4,95
301,595	19,63
301,809	11,43
302,024	15,53
302,238	-19,29
302,452	83,11
302,667	-2,9
302,881	19,63
303,095	54,44
303,309	27,82
303,524	-25,43
303,738	-41,81
303,952	21,67
304,166	68,78
304,381	-93,01
304,595	105,64
304,809	-41,81
305,023	36,01
305,237	-50
305,452	44,2
305,666	115,88
305,88	60,59
306,094	107,69
306,308	-17,24
306,522	60,59
306,736	130,22
306,95	85,16
307,164	-13,14
307,379	-9,05
307,593	101,55
307,807	173,22
308,021	83,11
308,235	95,4
308,449	-117,59
308,663	68,78
308,877	197,8
309,091	54,44
309,305	93,35
309,519	-90,96
309,733	148,65
309,947	-95,06
310,161	74,92
310,374	66,73
310,588	119,98
310,802	-68,44
311,016	-25,43
311,23	85,16
311,444	-62,29
311,658	31,91
311,872	68,78
312,085	91,31
312,299	232,62
312,513	140,46
312,727	29,87
312,941	-19,29
313,154	40,11
313,368	130,22
313,582	52,39
313,796	91,31
314,009	36,01
314,223	70,83
314,437	56,49
314,651	119,98
314,864	-33,62
315,078	25,77
315,292	-23,38
315,505	72,87
315,719	95,4
315,933	128,17
316,146	-54,1
316,36	48,3
316,573	119,98
316,787	97,45
317,001	-4,95
317,214	19,63
317,428	74,92
317,641	-56,15
317,855	72,87
318,068	66,73
318,282	109,74
318,495	230,57
318,709	117,93
318,922	46,25
319,136	115,88
319,349	156,84
319,563	-52,05
319,776	62,63
319,99	-41,81
320,203	117,93
320,417	-21,33
320,63	111,78
320,843	93,35
321,057	40,11
321,27	-11,09
321,483	85,16
321,697	175,27
321,91	33,96
322,124	1,19
322,337	50,35
322,55	33,96
322,763	-9,05
322,977	46,25
323,19	11,43
323,403	58,54
323,617	107,69
323,83	152,74
324,043	27,82
324,256	113,83
324,469	-72,53
324,683	101,55
324,896	146,6
325,109	13,48
325,322	-78,68
325,535	89,26
325,748	119,98
325,962	-2,9
326,175	70,83
326,388	93,35
326,601	122,02
326,814	52,39
327,027	-25,43
327,24	105,64
327,453	-45,91
327,666	46,25
327,879	50,35
328,092	38,06
328,305	99,5
328,518	13,48
328,731	3,24
328,944	13,48
329,157	85,16
329,37	7,34
329,583	122,02
329,796	132,26
330,009	-58,2
330,222	101,55
330,435	154,79
330,648	97,45
330,861	79,02
331,073	40,11
331,286	46,25
331,499	29,87
331,712	9,39
331,925	62,63
332,138	-56,15
332,35	103,59
332,563	-43,86
332,776	124,07
332,989	-97,11
333,202	7,34
333,414	54,44
333,627	50,35
333,84	-62,29
334,053	54,44
334,265	29,87
334,478	50,35
334,691	85,16
334,903	83,11
335,116	-2,9
335,329	122,02
335,541	9,39
335,754	175,27
335,966	-29,52
336,179	40,11
336,392	56,49
336,604	23,72
336,817	189,61
337,029	29,87
337,242	5,29
337,454	138,41
337,667	-4,95
337,88	226,47
338,092	138,41
338,305	-9,05
338,517	-99,16
338,729	111,78
338,942	154,79
339,154	-52,05
339,367	-45,91
339,579	64,68
339,792	-50
340,004	68,78
340,217	54,44
340,429	154,79
340,641	-60,24
340,854	-43,86
341,066	105,64
341,278	111,78
341,491	240,81
341,703	74,92
341,915	-31,57
342,128	130,22
342,34	38,06
342,552	38,06
342,764	56,49
342,977	56,49
343,189	-0,85
343,401	128,17
343,613	-68,44
343,826	66,73
344,038	-19,29
344,25	79,02
344,462	5,29
344,674	38,06
344,886	-47,96
345,099	56,49
345,311	179,37
345,523	-13,14
345,735	-21,33
345,947	107,69
346,159	21,67
346,371	97,45
346,583	21,67
346,795	212,14
347,007	70,83
347,219	132,26
347,431	38,06
347,643	122,02
347,855	-54,1
348,067	113,83
348,279	-82,77
348,491	50,35
348,703	60,59
348,915	15,53
349,127	-84,82
349,339	48,3
349,551	-17,24
349,763	126,12
349,975	79,02
350,187	148,65
350,399	222,38
350,61	122,02
350,822	50,35
351,034	46,25
351,246	1,19
351,458	91,31
351,669	132,26
351,881	81,07
352,093	199,85
352,305	142,5
352,517	87,21
352,728	171,18
352,94	158,89
353,152	74,92
353,363	3,24
353,575	81,07
353,787	201,9
353,999	117,93
354,21	216,23
354,422	-23,38
354,633	27,82
354,845	68,78
355,057	38,06
355,268	103,59
355,48	154,79
355,692	66,73
355,903	93,35
356,115	-7
356,326	-101,2
356,538	140,46
356,749	25,77
356,961	146,6
357,172	31,91
357,384	-58,2
357,595	263,33
357,807	-27,48
358,018	31,91
358,23	83,11
358,441	167,08
358,653	95,4
358,864	70,83
359,075	-15,19
359,287	97,45
359,498	91,31
359,709	156,84
359,921	54,44
360,132	17,58
360,344	3,24
360,555	15,53
360,766	29,87
360,977	89,26
361,189	122,02
361,4	-2,9
361,611	162,98
361,823	99,5
362,034	76,97
362,245	-72,53
362,456	13,48
362,667	87,21
362,879	-0,85
363,09	93,35
363,301	25,77
363,512	89,26
363,723	31,91
363,935	19,63
364,146	177,32
364,357	-66,39
364,568	97,45
364,779	-60,24
364,99	197,8
365,201	74,92
365,412	99,5
365,623	-74,58
365,834	148,65
366,045	66,73
366,256	103,59
366,467	167,08
366,678	29,87
366,889	103,59
367,1	-41,81
367,311	146,6
367,522	48,3
367,733	50,35
367,944	58,54
368,155	66,73
368,366	134,31
368,577	119,98
368,788	228,52
368,999	44,2
369,209	66,73
369,42	240,81
369,631	271,53
369,842	150,7
370,053	46,25
370,264	124,07
370,474	-41,81
370,685	124,07
370,896	66,73
371,107	144,55
371,317	146,6
371,528	33,96
371,739	265,38
371,95	156,84
372,16	156,84
372,371	-9,05
372,582	31,91
372,792	132,26
373,003	87,21
373,214	95,4
373,424	179,37
373,635	38,06
373,846	99,5
374,056	74,92
374,267	111,78
374,477	111,78
374,688	17,58
374,898	60,59
375,109	109,74
375,319	76,97
375,53	203,94
375,74	81,07
375,951	54,44
376,161	105,64
376,372	195,75
376,582	101,55
376,793	126,12
377,003	44,2
377,214	44,2
377,424	134,31
377,635	62,63
377,845	17,58
378,055	183,46
378,266	3,24
378,476	29,87
378,686	58,54
378,897	50,35
379,107	113,83
379,317	38,06
379,528	-17,24
379,738	136,36
379,948	56,49
380,158	162,98
380,369	160,94
380,579	68,78
380,789	-2,9
380,999	103,59
381,21	175,27
381,42	210,09
381,63	117,93
381,84	109,74
382,05	68,78
382,261	154,79
382,471	191,66
382,681	50,35
382,891	171,18
383,101	31,91
383,311	11,43
383,521	-27,48
383,731	132,26
383,941	89,26
384,151	122,02
384,361	33,96
384,571	111,78
384,781	103,59
384,991	240,81
385,201	177,32
385,411	138,41
385,621	150,7
385,831	31,91
386,041	48,3
386,251	25,77
386,461	68,78
386,671	70,83
386,881	66,73
387,091	175,27
387,301	111,78
387,511	105,64
387,72	79,02
387,93	138,41
388,14	46,25
388,35	89,26
388,56	150,7
388,769	134,31
388,979	93,35
389,189	19,63
389,399	115,88
389,609	119,98
389,818	62,63
390,028	113,83
390,238	148,65
390,447	36,01
390,657	101,55
390,867	83,11
391,076	-27,48
391,286	101,55
391,496	-35,67
391,705	48,3
391,915	142,5
392,125	126,12
392,334	87,21
392,544	148,65
392,753	38,06
392,963	-37,72
393,172	111,78
393,382	31,91
393,591	113,83
393,801	68,78
394,01	136,36
394,22	177,32
394,429	115,88
394,639	23,72
394,848	101,55
395,058	109,74
395,267	-13,14
395,477	105,64
395,686	54,44
395,895	242,85
396,105	320,68
396,314	113,83
396,524	140,46
396,733	64,68
396,942	152,74
397,152	181,42
397,361	199,85
397,57	197,8
397,78	132,26
397,989	208,04
398,198	242,85
398,407	122,02
398,617	62,63
398,826	87,21
399,035	38,06
399,244	126,12
399,453	74,92
399,663	17,58
399,872	87,21
400,081	72,87
400,29	160,94
400,499	15,53
400,708	134,31
400,917	19,63
401,127	-7
401,336	-25,43
401,545	253,09
401,754	85,16
401,963	165,03
402,172	64,68
402,381	9,39
402,59	13,48
402,799	83,11
403,008	156,84
403,217	132,26
403,426	107,69
403,635	15,53
403,844	91,31
404,053	31,91
404,262	29,87
404,471	230,57
404,68	89,26
404,888	64,68
405,097	40,11
405,306	87,21
405,515	156,84
405,724	40,11
405,933	124,07
406,142	119,98
406,35	181,42
406,559	19,63
406,768	130,22
406,977	179,37
407,185	103,59
407,394	126,12
407,603	7,34
407,812	58,54
408,02	146,6
408,229	56,49
408,438	126,12
408,646	-45,91
408,855	171,18
409,064	251,05
409,272	160,94
409,481	236,71
409,69	136,36
409,898	175,27
410,107	210,09
410,315	322,73
410,524	154,79
410,733	292,01
410,941	150,7
411,15	281,77
411,358	234,66
411,567	242,85
411,775	89,26
411,984	15,53
412,192	91,31
412,401	101,55
412,609	134,31
412,818	185,51
413,026	70,83
413,234	52,39
413,443	68,78
413,651	56,49
413,86	44,2
414,068	46,25
414,276	210,09
414,485	-0,85
414,693	187,56
414,901	267,43
415,11	50,35
415,318	64,68
415,526	115,88
415,734	101,55
415,943	60,59
416,151	128,17
416,359	21,67
416,567	54,44
416,776	113,83
416,984	42,15
417,192	236,71
417,4	-11,09
417,608	-13,14
417,817	31,91
418,025	72,87
418,233	171,18
418,441	-29,52
418,649	-25,43
418,857	119,98
419,065	144,55
419,273	31,91
419,481	79,02
419,689	83,11
419,897	-43,86
420,105	-29,52
420,313	171,18
420,521	185,51
420,729	81,07
420,937	-21,33
421,145	-47,96
421,353	85,16
421,561	169,13
421,769	19,63
421,977	56,49
422,185	111,78
422,393	9,39
422,601	113,83
422,809	68,78
423,017	56,49
423,224	83,11
423,432	218,28
423,64	13,48
423,848	97,45
424,056	-31,57
424,263	103,59
424,471	-43,86
424,679	93,35
424,887	-11,09
425,094	119,98
425,302	5,29
425,51	48,3
425,718	44,2
425,925	23,72
426,133	17,58
426,341	201,9
426,548	66,73
426,756	-2,9
426,964	54,44
427,171	-68,44
427,379	31,91
427,586	58,54
427,794	13,48
428,001	117,93
428,209	1,19
428,417	193,7
428,624	95,4
428,832	101,55
429,039	76,97
429,247	3,24
429,454	9,39
429,662	187,56
429,869	54,44
430,076	-7
430,284	160,94
430,491	115,88
430,699	15,53
430,906	185,51
431,114	19,63
431,321	44,2
431,528	160,94
431,736	89,26
431,943	171,18
432,15	292,01
432,358	337,06
432,565	423,08
432,772	271,53
432,979	695,46
433,187	726,18
433,394	844,96
433,601	814,24
433,808	1010,84
434,016	994,46
434,223	984,22
434,43	867,49
434,637	877,73
434,844	763,04
435,052	597,15
435,259	517,28
435,466	400,55
435,673	322,73
435,88	210,09
436,087	267,43
436,294	273,57
436,501	138,41
436,708	111,78
436,915	62,63
437,122	68,78
437,329	-54,1
437,537	29,87
437,743	-0,85
437,95	167,08
438,157	119,98
438,364	79,02
438,571	81,07
438,778	187,56
438,985	46,25
439,192	142,5
439,399	-4,95
439,606	142,5
439,813	105,64
440,02	181,42
440,227	201,9
440,433	130,22
440,64	70,83
440,847	13,48
441,054	122,02
441,261	177,32
441,467	5,29
441,674	-0,85
441,881	132,26
442,088	11,43
442,294	9,39
442,501	132,26
442,708	124,07
442,914	21,67
443,121	56,49
443,328	103,59
443,534	89,26
443,741	66,73
443,948	-35,67
444,154	27,82
444,361	242,85
444,568	76,97
444,774	19,63
444,981	-45,91
445,187	191,66
445,394	87,21
445,6	9,39
445,807	99,5
446,013	25,77
446,22	-172,88
446,426	44,2
446,633	134,31
446,839	189,61
447,046	-62,29
447,252	175,27
447,459	9,39
447,665	11,43
447,871	117,93
448,078	72,87
448,284	109,74
448,491	117,93
448,697	156,84
448,903	74,92
449,11	91,31
449,316	-19,29
449,522	62,63
449,728	81,07
449,935	66,73
450,141	21,67
450,347	156,84
450,553	99,5
450,76	76,97
450,966	31,91
451,172	107,69
451,378	-23,38
451,584	46,25
451,791	87,21
451,997	107,69
452,203	1,19
452,409	181,42
452,615	119,98
452,821	33,96
453,027	25,77
453,233	144,55
453,44	23,72
453,646	13,48
453,852	128,17
454,058	-70,48
454,264	130,22
454,47	148,65
454,676	40,11
454,882	107,69
455,088	44,2
455,294	11,43
455,5	-11,09
455,705	203,94
455,911	-19,29
456,117	95,4
456,323	-21,33
456,529	62,63
456,735	13,48
456,941	107,69
457,147	91,31
457,352	191,66
457,558	-27,48
457,764	122,02
457,97	-2,9
458,176	97,45
458,381	1,19
458,587	173,22
458,793	136,36
458,999	-0,85
459,204	-43,86
459,41	64,68
459,616	105,64
459,821	62,63
460,027	-43,86
460,233	107,69
460,438	128,17
460,644	56,49
460,85	91,31
461,055	140,46
461,261	148,65
461,466	-45,91
461,672	38,06
461,878	-15,19
462,083	146,6
462,289	-23,38
462,494	-52,05
462,7	156,84
462,905	23,72
463,111	150,7
463,316	253,09
463,522	220,33
463,727	31,91
463,932	79,02
464,138	66,73
464,343	29,87
464,549	162,98
464,754	128,17
464,959	93,35
465,165	19,63
465,37	76,97
465,575	1,19
465,781	5,29
465,986	64,68
466,191	-19,29
466,397	130,22
466,602	173,22
466,807	109,74
467,012	140,46
467,218	97,45
467,423	54,44
467,628	13,48
467,833	-52,05
468,038	79,02
468,244	-52,05
468,449	-35,67
468,654	162,98
468,859	25,77
469,064	15,53
469,269	31,91
469,474	46,25
469,679	142,5
469,885	46,25
470,09	-50
470,295	60,59
470,5	76,97
470,705	136,36
470,91	3,24
471,115	144,55
471,32	62,63
471,525	130,22
471,73	171,18
471,935	58,54
472,139	64,68
472,344	21,67
472,549	15,53
472,754	44,2
472,959	97,45
473,164	66,73
473,369	66,73
473,574	195,75
473,778	58,54
473,983	70,83
474,188	156,84
474,393	-11,09
474,598	46,25
474,802	11,43
475,007	17,58
475,212	183,46
475,417	9,39
475,621	115,88
475,826	31,91
476,031	-2,9
476,235	40,11
476,44	-31,57
476,645	52,39
476,849	29,87
477,054	-0,85
477,259	46,25
477,463	113,83
477,668	193,7
477,872	142,5
478,077	-7
478,282	-23,38
478,486	122,02
478,691	31,91
478,895	5,29
479,1	87,21
479,304	111,78
479,509	50,35
479,713	165,03
479,918	89,26
480,122	103,59
480,326	38,06
480,531	81,07
480,735	95,4
480,94	50,35
481,144	122,02
481,348	83,11
481,553	136,36
481,757	31,91
481,961	56,49
482,166	99,5
482,37	66,73
482,574	87,21
482,778	93,35
482,983	189,61
483,187	113,83
483,391	66,73
483,595	214,18
483,8	439,46
484,004	834,72
484,208	1229,98
484,412	2018,44
484,616	3169,4
484,821	4353,13
485,025	5909,58
485,229	7386,17
485,433	8596,52
485,637	9819,16
485,841	10550,28
486,045	11047,94
486,249	10593,29
486,453	9896,98
486,657	9083,94
486,861	7742,52
487,065	6597,7
487,269	5440,6
487,473	4387,94
487,677	3634,29
487,881	3165,31
488,085	2303,11
488,289	1825,93
488,493	1305,75
488,697	1082,52
488,901	619,68
489,105	408,74
489,309	292,01
489,512	330,92
489,716	93,35
489,92	150,7
490,124	136,36
490,328	283,81
490,531	76,97
490,735	158,89
490,939	70,83
491,143	62,63
491,346	173,22
491,55	-41,81
491,754	95,4
491,958	83,11
492,161	146,6
492,365	68,78
492,569	31,91
492,772	42,15
492,976	152,74
493,18	117,93
493,383	83,11
493,587	103,59
493,79	152,74
493,994	31,91
494,197	72,87
494,401	205,99
494,605	87,21
494,808	103,59
495,012	91,31
495,215	197,8
495,419	146,6
495,622	56,49
495,825	60,59
496,029	68,78
496,232	205,99
496,436	103,59
496,639	23,72
496,843	83,11
497,046	17,58
497,249	181,42
497,453	79,02
497,656	-9,05
497,859	56,49
498,063	95,4
498,266	140,46
498,469	23,72
498,673	29,87
498,876	15,53
499,079	-2,9
499,282	60,59
499,485	275,62
499,689	109,74
499,892	185,51
500,095	5,29
500,298	50,35
500,501	-23,38
500,705	17,58
500,908	89,26
501,111	42,15
501,314	89,26
501,517	179,37
501,72	5,29
501,923	1,19
502,126	21,67
502,329	103,59
502,532	89,26
502,735	128,17
502,938	122,02
503,141	97,45
503,344	-0,85
503,547	122,02
503,75	-11,09
503,953	-31,57
504,156	91,31
504,359	-13,14
504,562	-58,2
504,765	38,06
504,968	117,93
505,17	138,41
505,373	130,22
505,576	40,11
505,779	58,54
505,982	33,96
506,185	62,63
506,387	-21,33
506,59	87,21
506,793	83,11
506,996	-19,29
507,198	66,73
507,401	160,94
507,604	160,94
507,807	85,16
508,009	101,55
508,212	140,46
508,415	-21,33
508,617	58,54
508,82	79,02
509,022	-2,9
509,225	62,63
509,428	70,83
509,63	70,83
509,833	5,29
510,035	277,67
510,238	79,02
510,44	-21,33
510,643	99,5
510,845	152,74
511,048	171,18
511,25	-25,43
511,453	105,64
511,655	105,64
511,858	140,46
512,06	144,55
512,262	74,92
512,465	97,45
512,667	40,11
512,87	-29,52
513,072	148,65
513,274	89,26
513,477	15,53
513,679	38,06
513,881	91,31
514,084	17,58
514,286	124,07
514,488	40,11
514,69	-13,14
514,893	-7
515,095	29,87
515,297	-47,96
515,499	134,31
515,701	3,24
515,904	105,64
516,106	220,33
516,308	193,7
516,51	56,49
516,712	111,78
516,914	23,72
517,116	21,67
517,318	1,19
517,52	68,78
517,722	46,25
517,925	117,93
518,127	7,34
518,329	146,6
518,531	-105,3
518,733	62,63
518,935	-0,85
519,136	216,23
519,338	9,39
519,54	48,3
519,742	93,35
519,944	160,94
520,146	81,07
520,348	58,54
520,55	148,65
520,752	46,25
520,954	56,49
521,155	11,43
521,357	-7
521,559	136,36
521,761	179,37
521,963	13,48
522,164	56,49
522,366	56,49
522,568	17,58
522,77	150,7
522,971	167,08
523,173	48,3
523,375	101,55
523,576	-29,52
523,778	-25,43
523,98	1,19
524,181	134,31
524,383	152,74
524,584	76,97
524,786	42,15
524,988	31,91
525,189	58,54
525,391	25,77
525,592	-35,67
525,794	-72,53
525,995	107,69
526,197	160,94
526,398	332,97
526,6	31,91
526,801	-7
527,003	-64,34
527,204	29,87
527,406	29,87
527,607	31,91
527,808	68,78
528,01	79,02
528,211	74,92
528,412	-45,91
528,614	113,83
528,815	44,2
529,016	160,94
529,218	50,35
529,419	68,78
529,62	-2,9
529,822	140,46
530,023	54,44
530,224	70,83
530,425	79,02
530,626	15,53
530,828	95,4
531,029	19,63
531,23	128,17
531,431	48,3
531,632	132,26
531,833	-62,29
532,035	44,2
532,236	-37,72
532,437	99,5
532,638	72,87
532,839	-117,59
533,04	97,45
533,241	177,32
533,442	99,5
533,643	74,92
533,844	-47,96
534,045	64,68
534,246	11,43
534,447	-7
534,648	48,3
534,849	158,89
535,05	11,43
535,251	-35,67
535,451	171,18
535,652	44,2
535,853	19,63
536,054	79,02
536,255	-31,57
536,456	87,21
536,657	29,87
536,857	56,49
537,058	105,64
537,259	-15,19
537,46	46,25
537,66	54,44
537,861	42,15
538,062	17,58
538,263	-117,59
538,463	156,84
538,664	-15,19
538,865	-68,44
539,065	64,68
539,266	83,11
539,466	-60,24
539,667	124,07
539,868	124,07
540,068	81,07
540,269	25,77
540,469	62,63
540,67	167,08
540,87	109,74
541,071	11,43
541,271	64,68
541,472	138,41
541,672	142,5
541,873	70,83
542,073	101,55
542,274	1,19
542,474	93,35
542,675	64,68
542,875	64,68
543,075	-72,53
543,276	70,83
543,476	74,92
543,676	62,63
543,877	7,34
544,077	52,39
544,277	144,55
544,478	29,87
544,678	29,87
544,878	-33,62
545,078	87,21
545,279	-39,76
545,479	-21,33
545,679	-52,05
545,879	-74,58
546,079	70,83
546,28	-70,48
546,48	23,72
546,68	160,94
546,88	85,16
547,08	107,69
547,28	132,26
547,48	-58,2
547,68	103,59
547,88	113,83
548,081	113,83
548,281	-136,02
548,481	-56,15
548,681	31,91
548,881	148,65
549,081	70,83
549,28	52,39
549,48	36,01
549,68	68,78
549,88	-11,09
550,08	13,48
550,28	17,58
550,48	193,7
550,68	72,87
550,88	17,58
551,08	54,44
551,279	66,73
551,479	58,54
551,679	181,42
551,879	-17,24
552,079	68,78
552,278	-17,24
552,478	162,98
552,678	74,92
552,878	119,98
553,077	38,06
553,277	1,19
553,477	17,58
553,676	115,88
553,876	48,3
554,076	54,44
554,275	107,69
554,475	5,29
554,674	85,16
554,874	79,02
555,074	15,53
555,273	7,34
555,473	31,91
555,672	-4,95
555,872	111,78
556,071	70,83
556,271	58,54
556,47	38,06
556,67	56,49
556,869	74,92
557,068	-19,29
557,268	93,35
557,467	-2,9
557,667	91,31
557,866	48,3
558,065	52,39
558,265	66,73
558,464	-68,44
558,663	23,72
558,863	27,82
559,062	81,07
559,261	85,16
559,461	81,07
559,66	13,48
559,859	-107,35
560,058	5,29
560,258	-68,44
560,457	-27,48
560,656	144,55
560,855	-11,09
561,054	83,11
561,253	87,21
561,453	-23,38
561,652	7,34
561,851	70,83
562,05	15,53
562,249	-121,68
562,448	52,39
562,647	1,19
562,846	-13,14
563,045	64,68
563,244	36,01
563,443	126,12
563,642	29,87
563,841	50,35
564,04	29,87
564,239	7,34
564,438	89,26
564,637	-105,3
564,836	25,77
565,035	-17,24
565,234	21,67
565,432	19,63
565,631	70,83
565,83	58,54
566,029	-13,14
566,228	66,73
566,427	128,17
566,625	19,63
566,824	119,98
567,023	33,96
567,222	107,69
567,42	-13,14
567,619	122,02
567,818	17,58
568,016	205,99
568,215	74,92
568,414	105,64
568,612	122,02
568,811	13,48
569,01	66,73
569,208	60,59
569,407	156,84
569,605	187,56
569,804	50,35
570,002	160,94
570,201	44,2
570,4	173,22
570,598	48,3
570,797	54,44
570,995	-35,67
571,193	87,21
571,392	79,02
571,59	38,06
571,789	68,78
571,987	181,42
572,186	205,99
572,384	1,19
572,582	38,06
572,781	156,84
572,979	97,45
573,177	134,31
573,376	109,74
573,574	228,52
573,772	74,92
573,971	56,49
574,169	17,58
574,367	146,6
574,565	25,77
574,763	81,07
574,962	15,53
575,16	54,44
575,358	19,63
575,556	152,74
575,754	119,98
575,952	97,45
576,151	87,21
576,349	185,51
576,547	79,02
576,745	56,49
576,943	144,55
577,141	58,54
577,339	-0,85
577,537	144,55
577,735	130,22
577,933	177,32
578,131	7,34
578,329	222,38
578,527	126,12
578,725	189,61
578,923	-4,95
579,121	95,4
579,319	5,29
579,516	66,73
579,714	187,56
579,912	109,74
580,11	21,67
580,308	111,78
580,506	33,96
580,704	11,43
580,901	103,59
581,099	255,14
581,297	115,88
581,495	197,8
581,692	68,78
581,89	201,9
582,088	113,83
582,285	85,16
582,483	111,78
582,681	130,22
582,878	81,07
583,076	203,94
583,274	97,45
583,471	253,09
583,669	199,85
583,866	29,87
584,064	74,92
584,262	54,44
584,459	50,35
584,657	113,83
584,854	70,83
585,052	189,61
585,249	146,6
585,447	189,61
585,644	48,3
585,841	152,74
586,039	117,93
586,236	175,27
586,434	50,35
586,631	29,87
586,828	38,06
587,026	117,93
587,223	48,3
587,42	5,29
587,618	101,55
587,815	257,19
588,012	87,21
588,21	81,07
588,407	97,45
588,604	130,22
588,801	54,44
588,999	48,3
589,196	193,7
589,393	40,11
589,59	169,13
589,787	101,55
589,984	56,49
590,182	89,26
590,379	-21,33
590,576	38,06
590,773	44,2
590,97	117,93
591,167	105,64
591,364	160,94
591,561	17,58
591,758	246,95
591,955	124,07
592,152	148,65
592,349	-19,29
592,546	48,3
592,743	21,67
592,94	81,07
593,137	138,41
593,334	220,33
593,531	210,09
593,727	124,07
593,924	169,13
594,121	79,02
594,318	17,58
594,515	89,26
594,712	179,37
594,908	216,23
595,105	-33,62
595,302	103,59
595,499	228,52
595,696	224,42
595,892	17,58
596,089	173,22
596,286	36,01
596,482	228,52
596,679	107,69
596,876	-17,24
597,072	205,99
597,269	148,65
597,466	146,6
597,662	23,72
597,859	-13,14
598,055	83,11
598,252	91,31
598,448	122,02
598,645	199,85
598,841	144,55
599,038	167,08
599,234	152,74
599,431	128,17
599,627	50,35
599,824	95,4
600,02	74,92
600,217	19,63
600,413	50,35
600,609	70,83
600,806	296,1
601,002	132,26
601,198	81,07
601,395	193,7
601,591	95,4
601,787	234,66
601,984	105,64
602,18	111,78
602,376	66,73
602,572	126,12
602,769	197,8
602,965	99,5
603,161	144,55
603,357	58,54
603,553	111,78
603,75	42,15
603,946	91,31
604,142	91,31
604,338	289,96
604,534	76,97
604,73	97,45
604,926	74,92
605,122	185,51
605,318	54,44
605,514	105,64
605,71	79,02
605,906	136,36
606,102	36,01
606,298	144,55
606,494	152,74
606,69	119,98
606,886	72,87
607,082	52,39
607,278	15,53
607,474	111,78
607,67	115,88
607,866	-7
608,062	101,55
608,257	156,84
608,453	13,48
608,649	101,55
608,845	-47,96
609,041	-15,19
609,236	70,83
609,432	42,15
609,628	158,89
609,824	128,17
610,019	29,87
610,215	1,19
610,411	201,9
610,606	95,4
610,802	46,25
610,998	81,07
611,193	156,84
611,389	-11,09
611,584	115,88
611,78	-39,76
611,976	62,63
612,171	242,85
612,367	109,74
612,562	38,06
612,758	150,7
612,953	-50
613,149	99,5
613,344	-52,05
613,539	13,48
613,735	54,44
613,93	70,83
614,126	15,53
614,321	117,93
614,517	335,01
614,712	189,61
614,907	208,04
615,103	167,08
615,298	99,5
615,493	-35,67
615,688	-9,05
615,884	101,55
616,079	-29,52
616,274	122,02
616,47	-33,62
616,665	-15,19
616,86	1,19
617,055	60,59
617,25	-62,29
617,445	128,17
617,641	11,43
617,836	-0,85
618,031	31,91
618,226	72,87
618,421	183,46
618,616	56,49
618,811	-9,05
619,006	-7
619,201	52,39
619,396	66,73
619,591	-9,05
619,786	46,25
619,981	46,25
620,176	15,53
620,371	81,07
620,566	58,54
620,761	214,18
620,956	103,59
621,151	93,35
621,346	150,7
621,541	-52,05
621,735	81,07
621,93	97,45
622,125	62,63
622,32	-0,85
622,515	-74,58
622,709	101,55
622,904	54,44
623,099	3,24
623,294	160,94
623,488	74,92
623,683	15,53
623,878	79,02
624,072	152,74
624,267	-72,53
624,462	-19,29
624,656	-21,33
624,851	23,72
625,046	68,78
625,24	21,67
625,435	64,68
625,629	46,25
625,824	169,13
626,018	132,26
626,213	48,3
626,407	87,21
626,602	113,83
626,796	54,44
626,991	122,02
627,185	50,35
627,38	44,2
627,574	167,08
627,768	109,74
627,963	101,55
628,157	29,87
628,352	62,63
628,546	-54,1
628,74	81,07
628,935	-2,9
629,129	17,58
629,323	62,63
629,517	-19,29
629,712	62,63
629,906	7,34
630,1	97,45
630,294	146,6
630,489	9,39
630,683	36,01
630,877	7,34
631,071	150,7
631,265	-21,33
631,459	48,3
631,653	21,67
631,848	122,02
632,042	79,02
632,236	25,77
632,43	173,22
632,624	15,53
632,818	103,59
633,012	136,36
633,206	-43,86
633,4	62,63
633,594	179,37
633,788	54,44
633,982	107,69
634,176	132,26
634,369	48,3
634,563	31,91
634,757	-90,96
634,951	138,41
635,145	162,98
635,339	-19,29
635,533	113,83
635,726	91,31
635,92	1,19
636,114	36,01
636,308	119,98
636,501	27,82
636,695	99,5
636,889	42,15
637,083	85,16
637,276	-66,39
637,47	-74,58
637,664	81,07
637,857	68,78
638,051	17,58
638,244	107,69
638,438	52,39
638,632	232,62
638,825	-70,48
639,019	138,41
639,212	-4,95
639,406	76,97
639,599	-23,38
639,793	-7
639,986	101,55
640,18	197,8
640,373	109,74
640,567	99,5
640,76	113,83
640,954	62,63
641,147	-0,85
641,34	58,54
641,534	87,21
641,727	70,83
641,92	83,11
642,114	-2,9
642,307	27,82
642,5	107,69
642,694	-52,05
642,887	83,11
643,08	113,83
643,273	152,74
643,467	23,72
643,66	11,43
643,853	42,15
644,046	111,78
644,239	54,44
644,432	36,01
644,626	5,29
644,819	5,29
645,012	138,41
645,205	150,7
645,398	205,99
645,591	68,78
645,784	29,87
645,977	-31,57
646,17	46,25
646,363	48,3
646,556	-9,05
646,749	-54,1
646,942	109,74
647,135	138,41
647,328	29,87
647,521	70,83
647,714	115,88
647,907	99,5
648,099	-19,29
648,292	218,28
648,485	87,21
648,678	105,64
648,871	19,63
649,064	97,45
649,256	-33,62
649,449	68,78
649,642	-0,85
649,835	91,31
650,027	23,72
650,22	216,23
650,413	56,49
650,605	177,32
650,798	74,92
650,991	115,88
651,183	134,31
651,376	181,42
651,568	195,75
651,761	85,16
651,954	162,98
652,146	60,59
652,339	210,09
652,531	148,65
652,724	87,21
652,916	40,11
653,109	-13,14
653,301	218,28
653,494	255,14
653,686	271,53
653,879	246,95
654,071	277,67
654,263	275,62
654,456	658,59
654,648	2274,44
654,84	6646,85
655,033	15270,85
655,225	26237,72
655,417	37390,96
655,61	47460,82
655,802	56076,63
655,994	61200,64
656,186	62367,99
656,379	60147,99
656,571	55820,63
656,763	50133,42
656,955	45199,86
657,148	41554,48
657,34	37780,07
657,532	33735,34
657,724	30358,24
657,916	26905,36
658,108	23188,3
658,3	19549,06
658,492	16077,75
658,684	13073,38
658,876	10757,13
659,068	8594,47
659,26	6638,66
659,452	4951,14
659,644	3576,95
659,836	2724,99
660,028	1817,74
660,22	1234,07
660,412	867,49
660,604	679,07
660,796	531,62
660,988	521,38
661,18	335,01
661,372	365,73
661,563	324,77
661,755	226,47
661,947	175,27
662,139	134,31
662,331	165,03
662,522	218,28
662,714	97,45
662,906	122,02
663,097	87,21
663,289	13,48
663,481	-0,85
663,673	105,64
663,864	-45,91
664,056	136,36
664,247	36,01
664,439	140,46
664,631	138,41
664,822	29,87
665,014	95,4
665,205	46,25
665,397	46,25
665,588	85,16
665,78	-35,67
665,971	97,45
666,163	25,77
666,354	169,13
666,546	-0,85
666,737	101,55
666,929	87,21
667,12	5,29
667,311	99,5
667,503	62,63
667,694	-0,85
667,885	113,83
668,077	156,84
668,268	-37,72
668,459	17,58
668,651	56,49
668,842	48,3
669,033	-97,11
669,224	13,48
669,416	289,96
669,607	64,68
669,798	40,11
669,989	115,88
670,18	-11,09
670,371	95,4
670,563	-62,29
670,754	52,39
670,945	136,36
671,136	74,92
671,327	23,72
671,518	111,78
671,709	105,64
671,9	130,22
672,091	193,7
672,282	105,64
672,473	66,73
672,664	-33,62
672,855	44,2
673,046	93,35
673,237	54,44
673,428	87,21
673,619	74,92
673,809	-17,24
674	154,79
674,191	83,11
674,382	19,63
674,573	-21,33
674,764	13,48
674,954	107,69
675,145	-41,81
675,336	-27,48
675,527	5,29
675,717	-29,52
675,908	-58,2
676,099	-25,43
676,289	29,87
676,48	-47,96
676,671	50,35
676,861	-97,11
677,052	58,54
677,243	25,77
677,433	-7
677,624	9,39
677,814	56,49
678,005	-19,29
678,195	74,92
678,386	-31,57
678,576	21,67
678,767	-58,2
678,957	-19,29
679,148	95,4
679,338	128,17
679,529	54,44
679,719	-0,85
679,909	101,55
680,1	81,07
680,29	7,34
680,481	-25,43
680,671	-11,09
680,861	29,87
681,052	-7
681,242	-56,15
681,432	17,58
681,622	17,58
681,813	-64,34
682,003	83,11
682,193	-82,77
682,383	9,39
682,573	-19,29
682,764	-43,86
682,954	42,15
683,144	70,83
683,334	-17,24
683,524	9,39
683,714	15,53
683,904	21,67
684,094	-2,9
684,284	17,58
684,474	107,69
684,664	99,5
684,854	87,21
685,044	-13,14
685,234	3,24
685,424	33,96
685,614	-160,59
685,804	40,11
685,994	66,73
686,184	23,72
686,374	42,15
686,564	38,06
686,753	52,39
686,943	-97,11
687,133	-29,52
687,323	13,48
687,513	95,4
687,702	-7
687,892	-0,85
688,082	109,74
688,272	89,26
688,461	-33,62
688,651	173,22
688,841	115,88
689,03	1,19
689,22	-47,96
689,41	29,87
689,599	99,5
689,789	-60,24
689,979	146,6
690,168	-33,62
690,358	13,48
690,547	158,89
690,737	23,72
690,926	70,83
691,116	36,01
691,305	81,07
691,495	48,3
691,684	-84,82
691,874	-9,05
692,063	-39,76
692,252	99,5
692,442	46,25
692,631	46,25
692,82	-23,38
693,01	-31,57
693,199	23,72
693,388	97,45
693,578	76,97
693,767	103,59
693,956	122,02
694,146	7,34
694,335	-11,09
694,524	-90,96
694,713	1,19
694,902	13,48
695,092	-90,96
695,281	27,82
695,47	-60,24
695,659	-56,15
695,848	-47,96
696,037	-4,95
696,226	154,79
696,415	-13,14
696,604	134,31
696,793	130,22
696,982	-9,05
697,171	201,9
697,36	-13,14
697,549	58,54
697,738	-109,4
697,927	-4,95
698,116	-37,72
698,305	103,59
698,494	93,35
698,683	-39,76
698,872	165,03
699,061	-7
699,25	-58,2
699,438	97,45
699,627	29,87
699,816	107,69
700,005	-80,72
700,193	-11,09
700,382	91,31
700,571	103,59
700,76	56,49
700,948	38,06
701,137	50,35
701,326	93,35
701,514	-60,24
701,703	60,59
701,892	-43,86
702,08	138,41
702,269	29,87
702,457	-41,81
702,646	56,49
702,834	-27,48
703,023	81,07
703,212	79,02
703,4	-35,67
703,589	19,63
703,777	-4,95
703,965	-0,85
704,154	-64,34
704,342	-25,43
704,531	23,72
704,719	97,45
704,907	89,26
705,096	-97,11
705,284	-70,48
705,472	-9,05
705,661	79,02
705,849	48,3
706,037	54,44
706,226	7,34
706,414	54,44
706,602	-58,2
706,79	142,5
706,979	-31,57
707,167	70,83
707,355	-17,24
707,543	-9,05
707,731	48,3
707,919	17,58
708,107	17,58
708,296	-19,29
708,484	-33,62
708,672	-19,29
708,86	7,34
709,048	44,2
709,236	7,34
709,424	5,29
709,612	-35,67
709,8	-60,24
709,988	33,96
710,176	85,16
710,364	113,83
710,551	1,19
710,739	81,07
710,927	-93,01
711,115	-31,57
711,303	50,35
711,491	117,93
711,679	-19,29
711,866	33,96
712,054	-35,67
712,242	48,3
712,43	54,44
712,617	17,58
712,805	54,44
712,993	-11,09
713,181	-168,79
713,368	128,17
713,556	-21,33
713,744	-95,06
713,931	154,79
714,119	72,87
714,306	-84,82
714,494	-37,72
714,682	-23,38
714,869	-82,77
715,057	1,19
715,244	-41,81
715,432	29,87
715,619	-84,82
715,807	-25,43
715,994	-68,44
716,182	42,15
716,369	-4,95
716,556	48,3
716,744	-62,29
716,931	-86,87
717,119	66,73
717,306	68,78
717,493	15,53
717,681	-95,06
717,868	23,72
718,055	68,78
718,242	25,77
718,43	21,67
718,617	152,74
718,804	3,24
718,991	74,92
719,179	62,63
719,366	76,97
719,553	-41,81
719,74	-15,19
719,927	-76,63
720,114	-4,95
720,301	-121,68
720,488	-117,59
720,676	-25,43
720,863	122,02
721,05	154,79
721,237	-33,62
721,424	25,77
721,611	52,39
721,798	-99,16
721,985	-58,2
722,172	-31,57
722,358	-43,86
722,545	19,63
722,732	81,07
722,919	85,16
723,106	-31,57
723,293	-23,38
723,48	-52,05
723,667	-86,87
723,853	99,5
724,04	64,68
724,227	72,87
724,414	-9,05
724,6	38,06
724,787	107,69
724,974	138,41
725,161	15,53
725,347	-54,1
725,534	72,87
725,72	72,87
725,907	81,07
726,094	-9,05
726,28	-25,43
726,467	-2,9
726,653	-138,07
726,84	91,31
727,027	205,99
727,213	-37,72
727,4	-0,85
727,586	79,02
727,773	13,48
727,959	-0,85
728,145	-45,91
728,332	-58,2
728,518	-58,2
728,705	85,16
728,891	38,06
729,077	13,48
729,264	-64,34
729,45	-74,58
729,636	89,26
729,823	-13,14
730,009	99,5
730,195	36,01
730,382	29,87
730,568	-60,24
730,754	50,35
730,94	23,72
731,126	27,82
731,313	54,44
731,499	21,67
731,685	128,17
731,871	7,34
732,057	-60,24
732,243	97,45
732,429	-27,48
732,615	175,27
732,801	50,35
732,987	-23,38
733,173	-27,48
733,359	1,19
733,545	36,01
733,731	-47,96
733,917	152,74
734,103	-7
734,289	-39,76
734,475	-97,11
734,661	152,74
734,847	-11,09
735,033	-56,15
735,219	111,78
735,404	-11,09
735,59	40,11
735,776	-62,29
735,962	13,48
736,148	-9,05
736,333	89,26
736,519	31,91
736,705	23,72
736,89	-43,86
737,076	-11,09
737,262	-56,15
737,447	-43,86
737,633	-21,33
737,819	109,74
738,004	-25,43
738,19	-72,53
738,375	-7
738,561	17,58
738,747	42,15
738,932	-35,67
739,118	93,35
739,303	62,63
739,489	89,26
739,674	-17,24
739,859	-13,14
740,045	38,06
740,23	-64,34
740,416	-191,31
740,601	-29,52
740,786	29,87
740,972	66,73
741,157	-27,48
741,342	-93,01
741,528	-107,35
741,713	113,83
741,898	-27,48
742,084	-35,67
742,269	-13,14
742,454	134,31
742,639	99,5
742,824	54,44
743,01	76,97
743,195	72,87
743,38	-9,05
743,565	-11,09
743,75	15,53
743,935	38,06
744,12	83,11
744,305	-7
744,49	-35,67
744,675	36,01
744,86	23,72
745,045	87,21
745,23	46,25
745,415	54,44
745,6	130,22
745,785	-80,72
745,97	7,34
746,155	33,96
746,34	50,35
746,525	97,45
746,71	91,31
746,895	1,19
747,079	-90,96
747,264	48,3
747,449	109,74
747,634	54,44
747,819	66,73
748,003	7,34
748,188	-33,62
748,373	38,06
748,557	48,3
748,742	25,77
748,927	103,59
749,111	17,58
749,296	29,87
749,481	23,72
749,665	25,77
749,85	-31,57
750,034	56,49
750,219	54,44
750,404	23,72
750,588	-9,05
750,773	-2,9
750,957	93,35
751,141	-25,43
751,326	132,26
751,51	-68,44
751,695	38,06
751,879	-41,81
752,064	160,94
752,248	-2,9
752,432	56,49
752,617	62,63
752,801	29,87
752,985	-56,15
753,17	95,4
753,354	74,92
753,538	95,4
753,722	1,19
753,907	-7
754,091	-15,19
754,275	152,74
754,459	-95,06
754,643	-90,96
754,828	42,15
755,012	-43,86
755,196	-41,81
755,38	81,07
755,564	31,91
755,748	56,49
755,932	5,29
756,116	91,31
756,3	17,58
756,484	13,48
756,668	42,15
756,852	-78,68
757,036	-39,76
757,22	19,63
757,404	11,43
757,588	1,19
757,772	-13,14
757,956	13,48
758,14	117,93
758,323	-119,64
758,507	23,72
758,691	13,48
758,875	89,26
759,059	113,83
759,242	11,43
759,426	48,3
759,61	113,83
759,794	-64,34
759,977	74,92
760,161	220,33
760,345	130,22
760,528	111,78
760,712	25,77
760,895	25,77
761,079	-41,81
761,263	-117,59
761,446	-17,24
761,63	-45,91
761,813	52,39
761,997	-101,2
762,18	89,26
762,364	58,54
762,547	-160,59
762,731	40,11
762,914	-21,33
763,098	-39,76
763,281	54,44
763,464	-93,01
763,648	-9,05
763,831	-39,76
764,015	-15,19
764,198	79,02
764,381	-119,64
764,564	-2,9
764,748	44,2
764,931	54,44
765,114	60,59
765,297	101,55
765,481	-76,63
765,664	-9,05
765,847	-56,15
766,03	48,3
766,213	-47,96
766,397	50,35
766,58	-64,34
766,763	70,83
766,946	11,43
767,129	-15,19
767,312	-45,91
767,495	52,39
767,678	-82,77
767,861	113,83
768,044	-15,19
768,227	-21,33
768,41	-31,57
768,593	13,48
768,776	68,78
768,959	-29,52
769,142	38,06
769,324	66,73
769,507	70,83
769,69	-66,39
769,873	46,25
770,056	162,98
770,239	-62,29
770,421	68,78
770,604	130,22
770,787	62,63
770,97	-15,19
771,152	-101,2
771,335	103,59
771,518	48,3
771,7	99,5
771,883	97,45
772,066	-60,24
772,248	62,63
772,431	81,07
772,613	62,63
772,796	-39,76
772,978	23,72
773,161	46,25
773,343	72,87
773,526	-21,33
773,708	-95,06
773,891	-82,77
774,073	-23,38
774,256	-43,86
774,438	142,5
774,621	-27,48
774,803	87,21
774,985	-105,3
775,168	138,41
775,35	-7
775,532	132,26
775,715	-82,77
775,897	40,11
776,079	-52,05
776,261	162,98
776,444	251,05
776,626	435,36
776,808	554,15
776,99	720,03
777,173	906,4
777,355	939,16
777,537	930,97
777,719	869,53
777,901	734,37
778,083	584,87
778,265	539,81
778,447	656,54
778,629	461,99
778,811	523,43
778,993	500,9
779,175	431,27
779,357	228,52
779,539	199,85
779,721	162,98
779,903	234,66
780,085	197,8
780,267	113,83
780,449	60,59
780,631	128,17
780,812	115,88
780,994	9,39
781,176	-47,96
781,358	-62,29
781,54	-0,85
781,721	93,35
781,903	9,39
782,085	-2,9
782,267	48,3
782,448	-66,39
782,63	27,82
782,812	17,58
782,993	124,07
783,175	42,15
783,357	-90,96
783,538	23,72
783,72	25,77
783,901	66,73
784,083	70,83
784,264	58,54
784,446	-107,35
784,627	-101,2
784,809	62,63
784,99	-88,92
785,172	1,19
785,353	33,96
785,535	91,31
785,716	-68,44
785,897	-70,48
786,079	-21,33
786,26	19,63
786,441	46,25
786,623	-74,58
786,804	-95,06
786,985	48,3
787,167	-11,09
787,348	-60,24
787,529	-7
787,71	99,5
787,891	27,82
788,073	-45,91
788,254	-82,77
788,435	171,18
788,616	25,77
788,797	-35,67
788,978	38,06
789,159	-39,76
789,34	17,58
789,522	29,87
789,703	-33,62
789,884	54,44
790,065	-23,38
790,246	179,37
790,427	-56,15
790,607	152,74
790,788	33,96
790,969	-56,15
791,15	33,96
791,331	-23,38
791,512	-29,52
791,693	-88,92
791,874	25,77
792,054	113,83
792,235	29,87
792,416	-99,16
792,597	-101,2
792,778	107,69
792,958	44,2
793,139	25,77
793,32	1,19
793,5	-35,67
793,681	144,55
793,862	54,44
794,042	1,19
794,223	-50
794,404	-31,57
794,584	-97,11
794,765	17,58
794,945	54,44
795,126	1,19
795,306	117,93
795,487	44,2
795,667	60,59
795,848	40,11
796,028	-41,81
796,209	19,63
796,389	87,21
796,57	-27,48
796,75	15,53
796,93	-64,34
797,111	-144,21
797,291	-64,34
797,471	97,45
797,652	-27,48
797,832	-68,44
798,012	17,58
798,192	-15,19
798,373	-123,73
798,553	-37,72
798,733	29,87
798,913	-109,4
799,093	-17,24
799,274	-25,43
799,454	89,26
799,634	13,48
799,814	83,11
799,994	23,72
800,174	-2,9
800,354	64,68
800,534	-90,96
800,714	1,19
800,894	-127,83
801,074	-168,79
801,254	-47,96
801,434	99,5
801,614	-62,29
801,794	-142,16
801,974	1952,91
802,154	-111,44
802,334	79,02
802,514	-88,92
802,693	-95,06
802,873	-86,87
803,053	79,02
803,233	-0,85
803,413	23,72
803,592	-68,44
803,772	-54,1
803,952	40,11
804,131	-125,78
804,311	29,87
804,491	95,4
804,67	-41,81
804,85	-99,16
805,03	62,63
805,209	107,69
805,389	-88,92
805,568	-37,72
805,748	-50
805,928	-21,33
806,107	11,43
806,287	79,02
806,466	38,06
806,646	-29,52
806,825	-56,15
807,004	-60,24
807,184	-4,95
807,363	-35,67
807,543	15,53
807,722	-93,01
807,901	46,25
808,081	23,72
808,26	-201,55
808,439	19,63
808,619	-23,38
808,798	-60,24
808,977	33,96
809,156	27,82
809,336	23,72
809,515	72,87
809,694	-107,35
809,873	-50
810,052	124,07
810,231	-37,72
810,411	136,36
810,59	21,67
810,769	60,59
810,948	70,83
811,127	-129,88
811,306	9,39
811,485	3,24
811,664	105,64
811,843	-15,19
812,022	-39,76
812,201	-72,53
812,38	-21,33
812,559	-50
812,737	42,15
812,916	-170,83
813,095	-64,34
813,274	-21,33
813,453	27,82
813,632	13,48
813,811	56,49
813,989	-140,12
814,168	29,87
814,347	-43,86
814,526	-37,72
814,704	70,83
814,883	97,45
815,062	-119,64
815,24	13,48
815,419	-29,52
815,598	79,02
815,776	-127,83
815,955	-2,9
816,133	-129,88
816,312	-47,96
816,49	-76,63
816,669	-41,81
816,847	-101,2
817,026	29,87
817,204	-25,43
817,383	9,39
817,561	-80,72
817,74	-19,29
817,918	9,39
818,097	-43,86
818,275	-109,4
818,453	62,63
818,632	62,63
818,81	-93,01
818,988	-50
819,167	-62,29
819,345	-99,16
819,523	-117,59
819,701	44,2
819,879	-0,85
820,058	19,63
820,236	36,01
820,414	19,63
820,592	-113,49
820,77	-41,81
820,948	7,34
821,127	-45,91
821,305	-17,24
821,483	-72,53
821,661	46,25
821,839	-2,9
822,017	-54,1
822,195	-35,67
822,373	66,73
822,551	-11,09
822,729	97,45
822,907	-82,77
823,085	38,06
823,262	-13,14
823,44	-19,29
823,618	-54,1
823,796	54,44
823,974	23,72
824,152	-74,58
824,329	-25,43
824,507	-2,9
824,685	56,49
824,863	-78,68
825,04	-15,19
825,218	46,25
825,396	1,19
825,574	-76,63
825,751	-27,48
825,929	85,16
826,107	-90,96
826,284	46,25
826,462	-13,14
826,639	-41,81
826,817	-35,67
826,994	-11,09
827,172	-74,58
827,349	122,02
827,527	54,44
827,704	-0,85
827,882	27,82
828,059	13,48
828,237	-0,85
828,414	21,67
828,591	-156,5
828,769	-19,29
828,946	-158,55
829,124	1,19
829,301	89,26
829,478	-43,86
829,655	25,77
829,833	-25,43
830,01	-158,55
830,187	79,02
830,364	-39,76
830,542	54,44
830,719	72,87
830,896	81,07
831,073	29,87
831,25	27,82
831,427	38,06
831,604	-15,19
831,782	3,24
831,959	44,2
832,136	-129,88
832,313	-58,2
832,49	-66,39
832,667	-50
832,844	-93,01
833,021	21,67
833,198	9,39
833,374	-58,2
833,551	38,06
833,728	-33,62
833,905	85,16
834,082	-107,35
834,259	15,53
834,436	56,49
834,612	-119,64
834,789	72,87
834,966	7,34
835,143	23,72
835,319	-99,16
835,496	31,91
835,673	58,54
835,85	52,39
836,026	62,63
836,203	95,4
836,38	-80,72
836,556	-66,39
836,733	9,39
836,909	136,36
837,086	-23,38
837,262	-58,2
837,439	36,01
837,616	-127,83
837,792	-11,09
837,968	-31,57
838,145	-125,78
838,321	7,34
838,498	19,63
838,674	23,72
838,851	33,96
839,027	-72,53
839,203	-72,53
839,38	83,11
839,556	-56,15
839,732	31,91
839,909	-68,44
840,085	70,83
840,261	-47,96
840,437	29,87
840,614	27,82
840,79	48,3
840,966	70,83
841,142	44,2
841,318	-33,62
841,494	5,29
841,671	101,55
841,847	-113,49
842,023	-131,92
842,199	-0,85
842,375	66,73
842,551	-111,44
842,727	-138,07
842,903	95,4
843,079	-56,15
843,255	107,69
843,431	-23,38
843,607	46,25
843,783	-23,38
843,959	181,42
844,134	154,79
844,31	398,5
844,486	269,48
844,662	267,43
844,838	277,67
845,013	312,49
845,189	259,24
845,365	228,52
845,541	179,37
845,716	185,51
845,892	175,27
846,068	46,25
846,244	64,68
846,419	146,6
846,595	25,77
846,77	5,29
846,946	152,74
847,122	52,39
847,297	-21,33
847,473	177,32
847,648	-86,87
847,824	62,63
847,999	-76,63
848,175	-35,67
848,35	64,68
848,526	46,25
848,701	89,26
848,876	193,7
849,052	66,73
849,227	-29,52
849,403	-56,15
849,578	-13,14
849,753	-21,33
849,929	15,53
850,104	-60,24
850,279	-31,57
850,454	-15,19
850,63	42,15
850,805	5,29
850,98	-11,09
851,155	-25,43
851,33	40,11
851,505	-41,81
851,681	101,55
851,856	-60,24
852,031	40,11
852,206	-45,91
852,381	-58,2
852,556	-37,72
852,731	72,87
852,906	76,97
853,081	27,82
853,256	132,26
853,431	-29,52
853,606	-27,48
853,781	-76,63
853,956	-176,98
854,131	-88,92
854,305	-68,44
854,48	-25,43
854,655	-35,67
854,83	-7
855,005	-50
855,18	-39,76
855,354	-50
855,529	-7
855,704	-35,67
855,879	115,88
856,053	-52,05
856,228	29,87
856,403	-7
856,577	25,77
856,752	-129,88
856,926	-23,38
857,101	7,34
857,276	-111,44
857,45	46,25
857,625	42,15
857,799	-31,57
857,974	31,91
858,148	-129,88
858,323	-7
858,497	-62,29
858,672	5,29
858,846	-82,77
859,02	-0,85
859,195	-133,97
859,369	48,3
859,543	15,53
859,718	5,29
859,892	31,91
860,066	46,25
860,241	5,29
860,415	-39,76
860,589	-33,62
860,763	-25,43
860,938	-31,57
861,112	58,54
861,286	-66,39
861,46	-35,67
861,634	21,67
861,808	68,78
861,982	-68,44
862,157	-127,83
862,331	-35,67
862,505	-129,88
862,679	-93,01
862,853	29,87
863,027	-115,54
863,201	136,36
863,375	-115,54
863,549	56,49
863,722	23,72
863,896	27,82
864,07	-72,53
864,244	3,24
864,418	-19,29
864,592	33,96
864,766	3,24
864,939	-23,38
865,113	-27,48
865,287	46,25
865,461	-80,72
865,634	-107,35
865,808	-35,67
865,982	29,87
866,156	-148,31
866,329	-93,01
866,503	17,58
866,676	81,07
866,85	17,58
867,024	-0,85
867,197	44,2
867,371	5,29
867,544	46,25
867,718	-158,55
867,891	46,25
868,065	-119,64
868,238	33,96
868,412	25,77
868,585	-2,9
868,759	-72,53
868,932	95,4
869,105	-95,06
869,279	-17,24
869,452	-113,49
869,625	50,35
869,799	-25,43
869,972	-174,93
870,145	-58,2
870,319	36,01
870,492	-13,14
870,665	-25,43
870,838	-62,29
871,011	-121,68
871,185	-4,95
871,358	-52,05
871,531	42,15
871,704	-76,63
871,877	-0,85
872,05	-109,4
872,223	-95,06
872,396	-50
872,569	38,06
872,742	-93,01
872,915	40,11
873,088	-68,44
873,261	-133,97
873,434	13,48
873,607	-21,33
873,78	56,49
873,953	-115,54
874,126	-29,52
874,299	31,91
874,471	-52,05
874,644	-25,43
874,817	33,96
874,99	95,4
875,163	-93,01
875,335	42,15
875,508	-43,86
875,681	58,54
875,853	3,24
876,026	-52,05
876,199	87,21
876,371	50,35
876,544	15,53
876,717	23,72
876,889	19,63
877,062	64,68
877,234	-43,86
877,407	-93,01
877,579	19,63
877,752	-35,67
877,924	38,06
878,097	-39,76
878,269	50,35
878,442	-35,67
878,614	107,69
878,786	-13,14
878,959	-9,05
879,131	7,34
879,303	-117,59
879,476	-15,19
879,648	58,54
879,82	-47,96
879,993	-56,15
880,165	-47,96
880,337	-117,59
880,509	-35,67
880,681	-39,76
880,854	-105,3
881,026	23,72
881,198	99,5
881,37	-21,33
881,542	40,11
881,714	-107,35
881,886	36,01
882,058	31,91
882,23	23,72
882,402	-37,72
882,574	-7
882,746	103,59
882,918	70,83
883,09	-15,19
883,262	-60,24
883,434	-23,38
883,606	-119,64
883,778	-25,43
883,95	169,13
884,122	-35,67
884,293	105,64
884,465	5,29
884,637	81,07
884,809	-101,2
884,98	-33,62
885,152	29,87
885,324	15,53
885,496	-66,39
885,667	17,58
885,839	-27,48
886,011	152,74
886,182	-41,81
886,354	74,92
886,525	38,06
886,697	5,29
886,869	-86,87
887,04	-35,67
887,212	103,59
887,383	187,56
887,555	-33,62
887,726	-70,48
887,897	-52,05
888,069	-39,76
888,24	7,34
888,412	-35,67
888,583	-7
888,754	9,39
888,926	-144,21
889,097	-17,24
889,268	-129,88
889,44	-2,9
889,611	-131,92
889,782	-56,15
889,953	-68,44
890,125	107,69
890,296	-52,05
890,467	-109,4
890,638	-133,97
890,809	-27,48
890,98	-35,67
891,151	87,21
891,323	89,26
891,494	-52,05
891,665	-39,76
891,836	-47,96
892,007	-35,67
892,178	13,48
892,349	-27,48
892,52	-82,77
892,691	48,3
892,862	-39,76
893,032	-66,39
893,203	-41,81
893,374	5,29
893,545	66,73
893,716	-7
893,887	58,54
894,057	-76,63
894,228	-11,09
894,399	-17,24
894,57	29,87
894,74	-27,48
894,911	42,15
895,082	1,19
895,253	-76,63
895,423	-2,9
895,594	31,91
895,764	17,58
895,935	-45,91
896,106	-13,14
896,276	-58,2
896,447	-7
896,617	-76,63
896,788	-84,82
896,958	-11,09
897,129	-13,14
897,299	-84,82
897,47	66,73
897,64	46,25
897,81	-11,09
897,981	-25,43
898,151	-138,07
898,322	42,15
898,492	-31,57
898,662	-25,43
898,832	-23,38
899,003	9,39
899,173	5,29
899,343	-93,01
899,513	-50
