Data from deuterium_USB4F104151__18__10-57-07-540.txt Node

Date: Wed Apr 15 10:57:07 EDT 2026
User: LaboPhy
Spectrometer: USB4F10415
Trigger mode: 4
Integration Time (sec): 1,000000E-1
Scans to average: 1
Electric dark correction enabled: true
Nonlinearity correction enabled: false
Boxcar width: 0
XAxis mode: Wavelengths
Number of Pixels in Spectrum: 3648
>>>>>Begin Spectral Data<<<<<
178,204	-419,49
178,424	-419,49
178,644	-419,49
178,864	-353,96
179,084	-399,01
179,304	-1,71
179,524	-18,09
179,744	10,58
179,964	57,68
180,184	-3,75
180,404	-16,04
180,624	-57
180,844	-59,05
181,064	-28,33
181,283	43,35
181,503	-42,67
181,723	115,03
181,943	-95,91
182,163	233,81
182,383	47,44
182,602	82,26
182,822	139,6
183,042	33,11
183,262	12,63
183,482	-44,71
183,701	55,64
183,921	90,45
184,141	-100,01
184,361	57,68
184,58	100,69
184,8	78,16
185,02	14,68
185,239	137,56
185,459	98,64
185,679	205,14
185,898	-112,3
186,118	115,03
186,338	117,08
186,557	123,22
186,777	-24,23
186,997	22,87
187,216	-9,9
187,436	184,66
187,655	35,16
187,875	104,79
188,095	35,16
188,314	133,46
188,534	102,74
188,753	-22,19
188,973	158,03
189,192	227,67
189,412	-7,85
189,631	84,31
189,851	110,93
190,07	166,23
190,29	-36,52
190,509	-38,57
190,729	16,73
190,948	127,32
191,168	182,61
191,387	106,84
191,607	57,68
191,826	100,69
192,045	63,83
192,265	24,92
192,484	190,8
192,704	18,77
192,923	-67,24
193,142	188,75
193,362	117,08
193,581	186,71
193,8	57,68
194,02	147,8
194,239	61,78
194,458	112,98
194,678	53,59
194,897	0,34
195,116	92,5
195,335	67,92
195,555	108,88
195,774	24,92
195,993	129,36
196,212	115,03
196,432	2,39
196,651	65,88
196,87	51,54
197,089	213,33
197,308	61,78
197,528	39,25
197,747	-7,85
197,966	96,6
198,185	164,18
198,404	6,49
198,623	78,16
198,842	207,19
199,062	43,35
199,281	88,4
199,5	-24,23
199,719	80,21
199,938	53,59
200,157	67,92
200,376	98,64
200,595	143,7
200,814	112,98
201,033	31,06
201,252	178,51
201,471	129,36
201,69	108,88
201,909	47,44
202,128	209,23
202,347	155,99
202,566	96,6
202,785	-116,39
203,004	31,06
203,223	293,2
203,442	29,01
203,661	-83,63
203,879	110,93
204,098	188,75
204,317	43,35
204,536	49,49
204,755	164,18
204,974	164,18
205,193	33,11
205,411	155,99
205,63	155,99
205,849	82,26
206,068	39,25
206,287	-13,99
206,505	170,32
206,724	69,97
206,943	41,3
207,162	-1,71
207,381	125,27
207,599	98,64
207,818	-5,8
208,037	-38,57
208,255	22,87
208,474	6,49
208,693	-18,09
208,911	51,54
209,13	63,83
209,349	117,08
209,567	92,5
209,786	-5,8
210,005	88,4
210,223	108,88
210,442	-110,25
210,661	74,07
210,879	106,84
211,098	39,25
211,316	102,74
211,535	80,21
211,753	160,08
211,972	123,22
212,191	8,53
212,409	-48,81
212,628	55,64
212,846	-52,91
213,065	65,88
213,283	53,59
213,502	74,07
213,72	112,98
213,938	104,79
214,157	57,68
214,375	76,12
214,594	-20,14
214,812	69,97
215,031	-42,67
215,249	16,73
215,467	119,12
215,686	84,31
215,904	90,45
216,122	125,27
216,341	178,51
216,559	115,03
216,778	90,45
216,996	203,09
217,214	51,54
217,432	16,73
217,651	-32,43
217,869	123,22
218,087	96,6
218,306	-38,57
218,524	74,07
218,742	-13,99
218,96	106,84
219,179	-34,47
219,397	24,92
219,615	280,91
219,833	117,08
220,051	-36,52
220,27	96,6
220,488	115,03
220,706	86,36
220,924	-3,75
221,142	-1,71
221,36	141,65
221,578	22,87
221,796	-1,71
222,015	53,59
222,233	98,64
222,451	168,27
222,669	-11,95
222,887	143,7
223,105	22,87
223,323	86,36
223,541	-59,05
223,759	45,4
223,977	47,44
224,195	207,19
224,413	35,16
224,631	72,02
224,849	84,31
225,067	246,1
225,285	-32,43
225,503	-26,28
225,721	-124,58
225,939	158,03
226,157	67,92
226,375	198,99
226,592	-9,9
226,81	55,64
227,028	106,84
227,246	55,64
227,464	24,92
227,682	127,32
227,9	51,54
228,117	88,4
228,335	133,46
228,553	18,77
228,771	29,01
228,989	72,02
229,206	143,7
229,424	33,11
229,642	2,39
229,86	-7,85
230,077	84,31
230,295	112,98
230,513	139,6
230,731	57,68
230,948	207,19
231,166	211,28
231,384	63,83
231,601	29,01
231,819	182,61
232,037	-20,14
232,254	-40,62
232,472	-54,95
232,689	82,26
232,907	110,93
233,125	47,44
233,342	-18,09
233,56	39,25
233,777	92,5
233,995	115,03
234,213	121,17
234,43	67,92
234,648	33,11
234,865	-24,23
235,083	110,93
235,3	53,59
235,518	102,74
235,735	205,14
235,953	125,27
236,17	37,2
236,388	16,73
236,605	112,98
236,822	82,26
237,04	164,18
237,257	96,6
237,475	-128,68
237,692	61,78
237,909	129,36
238,127	6,49
238,344	96,6
238,562	31,06
238,779	-73,39
238,996	12,63
239,214	-18,09
239,431	117,08
239,648	-5,8
239,865	67,92
240,083	106,84
240,3	-54,95
240,517	37,2
240,735	127,32
240,952	129,36
241,169	65,88
241,386	119,12
241,603	-18,09
241,821	-89,77
242,038	119,12
242,255	186,71
242,472	-67,24
242,689	61,78
242,907	115,03
243,124	53,59
243,341	67,92
243,558	51,54
243,775	-44,71
243,992	-44,71
244,209	170,32
244,426	190,8
244,643	59,73
244,86	92,5
245,078	41,3
245,295	80,21
245,512	80,21
245,729	8,53
245,946	131,41
246,163	51,54
246,38	39,25
246,597	108,88
246,814	53,59
247,031	35,16
247,248	57,68
247,464	102,74
247,681	117,08
247,898	20,82
248,115	35,16
248,332	-40,62
248,549	164,18
248,766	246,1
248,983	72,02
249,2	84,31
249,417	162,13
249,633	24,92
249,85	35,16
250,067	92,5
250,284	115,03
250,501	57,68
250,717	51,54
250,934	45,4
251,151	20,82
251,368	35,16
251,585	76,12
251,801	51,54
252,018	-67,24
252,235	133,46
252,451	-91,82
252,668	8,53
252,885	143,7
253,102	108,88
253,318	14,68
253,535	55,64
253,752	80,21
253,968	41,3
254,185	-57
254,401	84,31
254,618	133,46
254,835	22,87
255,051	190,8
255,268	92,5
255,484	74,07
255,701	133,46
255,917	51,54
256,134	43,35
256,351	35,16
256,567	-57
256,784	82,26
257	-130,73
257,217	203,09
257,433	59,73
257,65	47,44
257,866	160,08
258,082	-48,81
258,299	-26,28
258,515	65,88
258,732	102,74
258,948	-34,47
259,165	22,87
259,381	-9,9
259,597	37,2
259,814	-32,43
260,03	76,12
260,246	45,4
260,463	176,47
260,679	192,85
260,895	90,45
261,112	149,84
261,328	37,2
261,544	-26,28
261,761	178,51
261,977	0,34
262,193	4,44
262,409	131,41
262,626	45,4
262,842	-5,8
263,058	6,49
263,274	108,88
263,49	90,45
263,707	47,44
263,923	72,02
264,139	16,73
264,355	63,83
264,571	170,32
264,787	96,6
265,004	106,84
265,22	-13,99
265,436	-26,28
265,652	10,58
265,868	57,68
266,084	-18,09
266,3	4,44
266,516	-32,43
266,732	39,25
266,948	41,3
267,164	35,16
267,38	6,49
267,596	-3,75
267,812	205,14
268,028	39,25
268,244	-5,8
268,46	162,13
268,676	-102,06
268,892	131,41
269,108	16,73
269,324	57,68
269,54	-24,23
269,756	72,02
269,972	-13,99
270,188	-32,43
270,403	-7,85
270,619	63,83
270,835	35,16
271,051	-1,71
271,267	8,53
271,483	-34,47
271,698	149,84
271,914	82,26
272,13	104,79
272,346	59,73
272,562	133,46
272,777	141,65
272,993	35,16
273,209	-48,81
273,425	170,32
273,64	0,34
273,856	67,92
274,072	-20,14
274,287	16,73
274,503	151,89
274,719	139,6
274,934	43,35
275,15	-67,24
275,366	98,64
275,581	76,12
275,797	55,64
276,012	72,02
276,228	41,3
276,444	57,68
276,659	182,61
276,875	20,82
277,09	-1,71
277,306	31,06
277,521	69,97
277,737	96,6
277,952	125,27
278,168	2,39
278,383	29,01
278,599	59,73
278,814	112,98
279,03	-1,71
279,245	170,32
279,461	98,64
279,676	123,22
279,892	-63,15
280,107	-83,63
280,322	43,35
280,538	137,56
280,753	-63,15
280,969	86,36
281,184	59,73
281,399	160,08
281,615	-7,85
281,83	51,54
282,045	-18,09
282,26	59,73
282,476	39,25
282,691	139,6
282,906	106,84
283,122	49,49
283,337	29,01
283,552	121,17
283,767	47,44
283,983	80,21
284,198	43,35
284,413	10,58
284,628	-32,43
284,843	82,26
285,058	72,02
285,274	49,49
285,489	-30,38
285,704	112,98
285,919	-3,75
286,134	-1,71
286,349	74,07
286,564	67,92
286,779	137,56
286,995	26,96
287,21	-95,91
287,425	131,41
287,64	-42,67
287,855	18,77
288,07	-40,62
288,285	203,09
288,5	69,97
288,715	82,26
288,93	57,68
289,145	-34,47
289,36	88,4
289,575	72,02
289,79	106,84
290,004	88,4
290,219	78,16
290,434	-48,81
290,649	-18,09
290,864	16,73
291,079	-13,99
291,294	102,74
291,509	84,31
291,724	-1,71
291,938	-54,95
292,153	65,88
292,368	-20,14
292,583	41,3
292,798	100,69
293,012	51,54
293,227	-7,85
293,442	-32,43
293,657	72,02
293,871	186,71
294,086	57,68
294,301	196,95
294,516	149,84
294,73	94,55
294,945	-3,75
295,16	-38,57
295,374	166,23
295,589	186,71
295,804	4,44
296,018	121,17
296,233	207,19
296,447	67,92
296,662	102,74
296,877	108,88
297,091	106,84
297,306	61,78
297,52	-22,19
297,735	86,36
297,949	26,96
298,164	26,96
298,378	88,4
298,593	-67,24
298,807	-32,43
299,022	88,4
299,236	117,08
299,451	39,25
299,665	22,87
299,88	57,68
300,094	63,83
300,309	100,69
300,523	82,26
300,737	-5,8
300,952	80,21
301,166	90,45
301,381	8,53
301,595	-1,71
301,809	51,54
302,024	51,54
302,238	39,25
302,452	182,61
302,667	145,75
302,881	141,65
303,095	158,03
303,309	16,73
303,524	-24,23
303,738	18,77
303,952	24,92
304,166	155,99
304,381	-87,72
304,595	170,32
304,809	63,83
305,023	43,35
305,237	-22,19
305,452	6,49
305,666	155,99
305,88	55,64
306,094	164,18
306,308	59,73
306,522	74,07
306,736	76,12
306,95	92,5
307,164	55,64
307,379	57,68
307,593	178,51
307,807	151,89
308,021	137,56
308,235	160,08
308,449	-61,1
308,663	76,12
308,877	287,06
309,091	41,3
309,305	86,36
309,519	-34,47
309,733	106,84
309,947	-46,76
310,161	172,37
310,374	168,27
310,588	186,71
310,802	-3,75
311,016	82,26
311,23	108,88
311,444	-32,43
311,658	92,5
311,872	188,75
312,085	141,65
312,299	201,04
312,513	137,56
312,727	104,79
312,941	74,07
313,154	139,6
313,368	145,75
313,582	31,06
313,796	112,98
314,009	-1,71
314,223	174,42
314,437	84,31
314,651	112,98
314,864	55,64
315,078	41,3
315,292	41,3
315,505	80,21
315,719	92,5
315,933	82,26
316,146	-26,28
316,36	22,87
316,573	227,67
316,787	119,12
317,001	137,56
317,214	-40,62
317,428	119,12
317,641	37,2
317,855	2,39
318,068	0,34
318,282	88,4
318,495	201,04
318,709	106,84
318,922	29,01
319,136	235,86
319,349	164,18
319,563	43,35
319,776	155,99
319,99	-24,23
320,203	155,99
320,417	-26,28
320,63	164,18
320,843	231,76
321,057	125,27
321,27	-26,28
321,483	29,01
321,697	198,99
321,91	6,49
322,124	104,79
322,337	110,93
322,55	10,58
322,763	63,83
322,977	20,82
323,19	57,68
323,403	16,73
323,617	88,4
323,83	145,75
324,043	39,25
324,256	6,49
324,469	-87,72
324,683	123,22
324,896	49,49
325,109	51,54
325,322	-20,14
325,535	112,98
325,748	174,42
325,962	76,12
326,175	6,49
326,388	67,92
326,601	170,32
326,814	12,63
327,027	74,07
327,24	174,42
327,453	-32,43
327,666	133,46
327,879	233,81
328,092	26,96
328,305	39,25
328,518	47,44
328,731	35,16
328,944	-30,38
329,157	125,27
329,37	59,73
329,583	217,43
329,796	254,29
330,009	-48,81
330,222	184,66
330,435	65,88
330,648	49,49
330,861	106,84
331,073	65,88
331,286	74,07
331,499	39,25
331,712	82,26
331,925	102,74
332,138	76,12
332,35	117,08
332,563	65,88
332,776	217,43
332,989	10,58
333,202	-28,33
333,414	129,36
333,627	88,4
333,84	63,83
334,053	139,6
334,265	22,87
334,478	18,77
334,691	84,31
334,903	63,83
335,116	102,74
335,329	16,73
335,541	182,61
335,754	317,78
335,966	80,21
336,179	135,51
336,392	104,79
336,604	115,03
336,817	205,14
337,029	82,26
337,242	57,68
337,454	69,97
337,667	106,84
337,88	190,8
338,092	106,84
338,305	129,36
338,517	78,16
338,729	147,8
338,942	198,99
339,154	31,06
339,367	86,36
339,579	155,99
339,792	41,3
340,004	98,64
340,217	31,06
340,429	94,55
340,641	2,39
340,854	-24,23
341,066	55,64
341,278	119,12
341,491	205,14
341,703	112,98
341,915	-7,85
342,128	166,23
342,34	65,88
342,552	8,53
342,764	51,54
342,977	180,56
343,189	59,73
343,401	231,76
343,613	-16,04
343,826	49,49
344,038	18,77
344,25	72,02
344,462	8,53
344,674	133,46
344,886	43,35
345,099	35,16
345,311	155,99
345,523	51,54
345,735	-48,81
345,947	121,17
346,159	182,61
346,371	119,12
346,583	57,68
346,795	248,15
347,007	24,92
347,219	108,88
347,431	121,17
347,643	158,03
347,855	86,36
348,067	203,09
348,279	-40,62
348,491	139,6
348,703	72,02
348,915	10,58
349,127	86,36
349,339	-9,9
349,551	55,64
349,763	205,14
349,975	80,21
350,187	139,6
350,399	219,47
350,61	143,7
350,822	102,74
351,034	106,84
351,246	123,22
351,458	110,93
351,669	170,32
351,881	143,7
352,093	186,71
352,305	205,14
352,517	129,36
352,728	139,6
352,94	100,69
353,152	117,08
353,363	82,26
353,575	133,46
353,787	250,19
353,999	59,73
354,21	211,28
354,422	-7,85
354,633	16,73
354,845	141,65
355,057	176,47
355,268	78,16
355,48	160,08
355,692	12,63
355,903	153,94
356,115	74,07
356,326	-7,85
356,538	268,63
356,749	88,4
356,961	256,34
357,172	141,65
357,384	80,21
357,595	289,1
357,807	33,11
358,018	20,82
358,23	153,94
358,441	182,61
358,653	153,94
358,864	82,26
359,075	80,21
359,287	145,75
359,498	151,89
359,709	158,03
359,921	41,3
360,132	153,94
360,344	55,64
360,555	65,88
360,766	121,17
360,977	29,01
361,189	172,37
361,4	92,5
361,611	209,23
361,823	162,13
362,034	102,74
362,245	-9,9
362,456	104,79
362,667	139,6
362,879	53,59
363,09	174,42
363,301	98,64
363,512	65,88
363,723	14,68
363,935	-5,8
364,146	182,61
364,357	88,4
364,568	106,84
364,779	-5,8
364,99	217,43
365,201	-13,99
365,412	172,37
365,623	-24,23
365,834	203,09
366,045	84,31
366,256	162,13
366,467	153,94
366,678	121,17
366,889	119,12
367,1	31,06
367,311	112,98
367,522	49,49
367,733	145,75
367,944	82,26
368,155	59,73
368,366	90,45
368,577	137,56
368,788	178,51
368,999	33,11
369,209	123,22
369,42	248,15
369,631	354,64
369,842	182,61
370,053	86,36
370,264	176,47
370,474	82,26
370,685	143,7
370,896	74,07
371,107	235,86
371,317	119,12
371,528	123,22
371,739	176,47
371,95	149,84
372,16	102,74
372,371	6,49
372,582	8,53
372,792	172,37
373,003	151,89
373,214	135,51
373,424	180,56
373,635	76,12
373,846	172,37
374,056	129,36
374,267	145,75
374,477	98,64
374,688	-3,75
374,898	108,88
375,109	147,8
375,319	164,18
375,53	135,51
375,74	147,8
375,951	65,88
376,161	110,93
376,372	219,47
376,582	76,12
376,793	59,73
377,003	90,45
377,214	112,98
377,424	229,71
377,635	139,6
377,845	-5,8
378,055	196,95
378,266	49,49
378,476	4,44
378,686	211,28
378,897	90,45
379,107	219,47
379,317	155,99
379,528	47,44
379,738	129,36
379,948	2,39
380,158	242
380,369	129,36
380,579	137,56
380,789	137,56
380,999	155,99
381,21	176,47
381,42	287,06
381,63	78,16
381,84	162,13
382,05	108,88
382,261	211,28
382,471	172,37
382,681	61,78
382,891	174,42
383,101	31,06
383,311	-9,9
383,521	-1,71
383,731	98,64
383,941	127,32
384,151	98,64
384,361	63,83
384,571	131,41
384,781	88,4
384,991	221,52
385,201	264,53
385,411	184,66
385,621	106,84
385,831	164,18
386,041	215,38
386,251	174,42
386,461	72,02
386,671	82,26
386,881	104,79
387,091	80,21
387,301	213,33
387,511	59,73
387,72	160,08
387,93	196,95
388,14	4,44
388,35	96,6
388,56	166,23
388,769	203,09
388,979	96,6
389,189	31,06
389,399	41,3
389,609	158,03
389,818	137,56
390,028	92,5
390,238	143,7
390,447	92,5
390,657	112,98
390,867	65,88
391,076	-36,52
391,286	90,45
391,496	63,83
391,705	123,22
391,915	176,47
392,125	98,64
392,334	45,4
392,544	227,67
392,753	63,83
392,963	-7,85
393,172	49,49
393,382	76,12
393,591	244,05
393,801	96,6
394,01	291,15
394,22	158,03
394,429	155,99
394,639	63,83
394,848	112,98
395,058	160,08
395,267	39,25
395,477	209,23
395,686	92,5
395,895	266,58
396,105	311,63
396,314	119,12
396,524	153,94
396,733	76,12
396,942	248,15
397,152	174,42
397,361	196,95
397,57	149,84
397,78	137,56
397,989	147,8
398,198	270,67
398,407	188,75
398,617	96,6
398,826	164,18
399,035	69,97
399,244	170,32
399,453	80,21
399,663	84,31
399,872	137,56
400,081	72,02
400,29	205,14
400,499	8,53
400,708	198,99
400,917	41,3
401,127	57,68
401,336	16,73
401,545	256,34
401,754	162,13
401,963	178,51
402,172	74,07
402,381	41,3
402,59	22,87
402,799	94,55
403,008	182,61
403,217	104,79
403,426	108,88
403,635	-44,71
403,844	57,68
404,053	43,35
404,262	31,06
404,471	203,09
404,68	155,99
404,888	55,64
405,097	123,22
405,306	127,32
405,515	102,74
405,724	39,25
405,933	172,37
406,142	162,13
406,35	182,61
406,559	104,79
406,768	100,69
406,977	225,62
407,185	137,56
407,394	84,31
407,603	14,68
407,812	162,13
408,02	225,62
408,229	78,16
408,438	119,12
408,646	43,35
408,855	104,79
409,064	217,43
409,272	276,82
409,481	319,82
409,69	176,47
409,898	274,77
410,107	385,36
410,315	248,15
410,524	270,67
410,733	266,58
410,941	242
411,15	293,2
411,358	162,13
411,567	276,82
411,775	147,8
411,984	149,84
412,192	209,23
412,401	59,73
412,609	248,15
412,818	166,23
413,026	180,56
413,234	121,17
413,443	90,45
413,651	-7,85
413,86	-30,38
414,068	170,32
414,276	289,1
414,485	12,63
414,693	260,43
414,901	215,38
415,11	121,17
415,318	84,31
415,526	72,02
415,734	106,84
415,943	49,49
416,151	264,53
416,359	39,25
416,567	102,74
416,776	125,27
416,984	182,61
417,192	188,75
417,4	72,02
417,608	14,68
417,817	22,87
418,025	158,03
418,233	192,85
418,441	37,2
418,649	41,3
418,857	88,4
419,065	194,9
419,273	69,97
419,481	86,36
419,689	31,06
419,897	16,73
420,105	74,07
420,313	90,45
420,521	213,33
420,729	125,27
420,937	100,69
421,145	33,11
421,353	98,64
421,561	215,38
421,769	22,87
421,977	47,44
422,185	65,88
422,393	82,26
422,601	96,6
422,809	117,08
423,017	86,36
423,224	106,84
423,432	143,7
423,64	-7,85
423,848	227,67
424,056	-13,99
424,263	112,98
424,471	67,92
424,679	170,32
424,887	-30,38
425,094	112,98
425,302	174,42
425,51	115,03
425,718	127,32
425,925	80,21
426,133	-13,99
426,341	246,1
426,548	6,49
426,756	45,4
426,964	82,26
427,171	29,01
427,379	96,6
427,586	108,88
427,794	78,16
428,001	94,55
428,209	45,4
428,417	69,97
428,624	53,59
428,832	84,31
429,039	133,46
429,247	90,45
429,454	65,88
429,662	127,32
429,869	170,32
430,076	22,87
430,284	74,07
430,491	143,7
430,699	102,74
430,906	184,66
431,114	100,69
431,321	137,56
431,528	121,17
431,736	160,08
431,943	278,87
432,15	321,87
432,358	358,74
432,565	620,88
432,772	393,55
432,979	721,23
433,187	686,41
433,394	936,26
433,601	825,67
433,808	1083,72
434,016	1016,13
434,223	989,51
434,43	960,84
434,637	784,71
434,844	729,42
435,052	633,16
435,259	461,13
435,466	426,32
435,673	328,02
435,88	342,35
436,087	258,39
436,294	282,96
436,501	166,23
436,708	84,31
436,915	131,41
437,122	164,18
437,329	74,07
437,537	49,49
437,743	143,7
437,95	186,71
438,157	67,92
438,364	41,3
438,571	80,21
438,778	123,22
438,985	112,98
439,192	182,61
439,399	53,59
439,606	131,41
439,813	135,51
440,02	192,85
440,227	223,57
440,433	72,02
440,64	65,88
440,847	-7,85
441,054	162,13
441,261	166,23
441,467	115,03
441,674	151,89
441,881	137,56
442,088	72,02
442,294	215,38
442,501	37,2
442,708	121,17
442,914	180,56
443,121	145,75
443,328	162,13
443,534	121,17
443,741	115,03
443,948	35,16
444,154	121,17
444,361	227,67
444,568	127,32
444,774	51,54
444,981	-50,86
445,187	121,17
445,394	125,27
445,6	47,44
445,807	78,16
446,013	33,11
446,22	-48,81
446,426	96,6
446,633	117,08
446,839	246,1
447,046	24,92
447,252	121,17
447,459	4,44
447,665	37,2
447,871	143,7
448,078	96,6
448,284	100,69
448,491	166,23
448,697	88,4
448,903	135,51
449,11	72,02
449,316	-7,85
449,522	98,64
449,728	168,27
449,935	145,75
450,141	-28,33
450,347	207,19
450,553	137,56
450,76	-7,85
450,966	41,3
451,172	-11,95
451,378	55,64
451,584	127,32
451,791	98,64
451,997	123,22
452,203	63,83
452,409	162,13
452,615	137,56
452,821	41,3
453,027	-5,8
453,233	305,49
453,44	84,31
453,646	104,79
453,852	121,17
454,058	-50,86
454,264	153,94
454,47	43,35
454,676	22,87
454,882	110,93
455,088	80,21
455,294	84,31
455,5	162,13
455,705	168,27
455,911	137,56
456,117	0,34
456,323	53,59
456,529	186,71
456,735	78,16
456,941	110,93
457,147	61,78
457,352	137,56
457,558	59,73
457,764	108,88
457,97	49,49
458,176	102,74
458,381	39,25
458,587	121,17
458,793	211,28
458,999	-38,57
459,204	45,4
459,41	63,83
459,616	80,21
459,821	112,98
460,027	-63,15
460,233	158,03
460,438	211,28
460,644	8,53
460,85	117,08
461,055	182,61
461,261	168,27
461,466	78,16
461,672	-9,9
461,878	41,3
462,083	207,19
462,289	-42,67
462,494	65,88
462,7	139,6
462,905	0,34
463,111	170,32
463,316	213,33
463,522	192,85
463,727	137,56
463,932	76,12
464,138	123,22
464,343	41,3
464,549	239,95
464,754	174,42
464,959	194,9
465,165	84,31
465,37	106,84
465,575	133,46
465,781	88,4
465,986	86,36
466,191	72,02
466,397	78,16
466,602	207,19
466,807	51,54
467,012	158,03
467,218	205,14
467,423	145,75
467,628	90,45
467,833	-3,75
468,038	86,36
468,244	24,92
468,449	106,84
468,654	131,41
468,859	94,55
469,064	65,88
469,269	67,92
469,474	137,56
469,679	158,03
469,885	141,65
470,09	45,4
470,295	31,06
470,5	57,68
470,705	166,23
470,91	78,16
471,115	137,56
471,32	115,03
471,525	205,14
471,73	229,71
471,935	72,02
472,139	8,53
472,344	47,44
472,549	4,44
472,754	162,13
472,959	145,75
473,164	172,37
473,369	172,37
473,574	125,27
473,778	192,85
473,983	227,67
474,188	172,37
474,393	100,69
474,598	119,12
474,802	143,7
475,007	47,44
475,212	227,67
475,417	59,73
475,621	166,23
475,826	-5,8
476,031	57,68
476,235	96,6
476,44	67,92
476,645	63,83
476,849	82,26
477,054	18,77
477,259	16,73
477,463	147,8
477,668	207,19
477,872	190,8
478,077	80,21
478,282	86,36
478,486	102,74
478,691	86,36
478,895	-16,04
479,1	184,66
479,304	217,43
479,509	90,45
479,713	192,85
479,918	145,75
480,122	24,92
480,326	129,36
480,531	143,7
480,735	207,19
480,94	22,87
481,144	198,99
481,348	143,7
481,553	227,67
481,757	121,17
481,961	102,74
482,166	29,01
482,37	43,35
482,574	174,42
482,778	131,41
482,983	192,85
483,187	219,47
483,391	98,64
483,595	252,24
483,8	426,32
484,004	792,91
484,208	1311,04
484,412	2095,41
484,616	3152,17
484,821	4532,5
485,025	5953,79
485,229	7549,15
485,433	8677,58
485,637	9908,41
485,841	10152,12
486,045	10752,18
486,249	10604,72
486,453	10002,62
486,657	8906,96
486,861	7936,22
487,065	6543,6
487,269	5499,14
487,473	4317,46
487,677	3739,93
487,881	3207,46
488,085	2337,07
488,289	1894,71
488,493	1325,38
488,697	1112,39
488,901	672,08
489,105	397,65
489,309	299,34
489,512	344,4
489,716	223,57
489,92	172,37
490,124	151,89
490,328	219,47
490,531	155,99
490,735	239,95
490,939	47,44
491,143	115,03
491,346	106,84
491,55	151,89
491,754	100,69
491,958	100,69
492,161	96,6
492,365	102,74
492,569	110,93
492,772	98,64
492,976	104,79
493,18	78,16
493,383	106,84
493,587	67,92
493,79	182,61
493,994	67,92
494,197	78,16
494,401	225,62
494,605	39,25
494,808	100,69
495,012	139,6
495,215	227,67
495,419	88,4
495,622	76,12
495,825	117,08
496,029	61,78
496,232	151,89
496,436	129,36
496,639	108,88
496,843	18,77
497,046	-28,33
497,249	133,46
497,453	102,74
497,656	-87,72
497,859	106,84
498,063	186,71
498,266	117,08
498,469	10,58
498,673	86,36
498,876	92,5
499,079	24,92
499,282	96,6
499,485	268,63
499,689	63,83
499,892	110,93
500,095	-16,04
500,298	100,69
500,501	31,06
500,705	104,79
500,908	84,31
501,111	51,54
501,314	80,21
501,517	162,13
501,72	112,98
501,923	125,27
502,126	47,44
502,329	174,42
502,532	145,75
502,735	164,18
502,938	188,75
503,141	106,84
503,344	6,49
503,547	223,57
503,75	16,73
503,953	4,44
504,156	84,31
504,359	131,41
504,562	133,46
504,765	74,07
504,968	164,18
505,17	86,36
505,373	137,56
505,576	110,93
505,779	153,94
505,982	-24,23
506,185	127,32
506,387	-30,38
506,59	74,07
506,793	33,11
506,996	47,44
507,198	121,17
507,401	184,66
507,604	211,28
507,807	143,7
508,009	137,56
508,212	137,56
508,415	53,59
508,617	-5,8
508,82	47,44
509,022	47,44
509,225	100,69
509,428	67,92
509,63	84,31
509,833	49,49
510,035	282,96
510,238	164,18
510,44	55,64
510,643	117,08
510,845	172,37
511,048	227,67
511,25	43,35
511,453	104,79
511,655	100,69
511,858	203,09
512,06	235,86
512,262	29,01
512,465	49,49
512,667	76,12
512,87	74,07
513,072	96,6
513,274	147,8
513,477	41,3
513,679	55,64
513,881	110,93
514,084	35,16
514,286	127,32
514,488	151,89
514,69	33,11
514,893	-1,71
515,095	90,45
515,297	-26,28
515,499	104,79
515,701	61,78
515,904	145,75
516,106	186,71
516,308	153,94
516,51	63,83
516,712	129,36
516,914	98,64
517,116	0,34
517,318	108,88
517,52	168,27
517,722	166,23
517,925	45,4
518,127	147,8
518,329	174,42
518,531	76,12
518,733	135,51
518,935	176,47
519,136	100,69
519,338	-50,86
519,54	119,12
519,742	80,21
519,944	127,32
520,146	155,99
520,348	121,17
520,55	108,88
520,752	59,73
520,954	88,4
521,155	14,68
521,357	4,44
521,559	121,17
521,761	147,8
521,963	82,26
522,164	78,16
522,366	180,56
522,568	84,31
522,77	176,47
522,971	125,27
523,173	26,96
523,375	88,4
523,576	65,88
523,778	51,54
523,98	82,26
524,181	149,84
524,383	119,12
524,584	92,5
524,786	72,02
524,988	102,74
525,189	74,07
525,391	166,23
525,592	-16,04
525,794	12,63
525,995	102,74
526,197	112,98
526,398	348,5
526,6	141,65
526,801	90,45
527,003	-3,75
527,204	106,84
527,406	155,99
527,607	147,8
527,808	65,88
528,01	63,83
528,211	186,71
528,412	16,73
528,614	272,72
528,815	192,85
529,016	186,71
529,218	96,6
529,419	88,4
529,62	-13,99
529,822	188,75
530,023	29,01
530,224	121,17
530,425	211,28
530,626	92,5
530,828	33,11
531,029	18,77
531,23	196,95
531,431	33,11
531,632	162,13
531,833	43,35
532,035	90,45
532,236	31,06
532,437	155,99
532,638	82,26
532,839	-1,71
533,04	100,69
533,241	192,85
533,442	61,78
533,643	24,92
533,844	45,4
534,045	121,17
534,246	43,35
534,447	108,88
534,648	51,54
534,849	215,38
535,05	47,44
535,251	88,4
535,451	88,4
535,652	0,34
535,853	67,92
536,054	65,88
536,255	41,3
536,456	149,84
536,657	24,92
536,857	176,47
537,058	160,08
537,259	24,92
537,46	29,01
537,66	63,83
537,861	35,16
538,062	74,07
538,263	12,63
538,463	149,84
538,664	104,79
538,865	80,21
539,065	133,46
539,266	63,83
539,466	-11,95
539,667	194,9
539,868	180,56
540,068	63,83
540,269	110,93
540,469	51,54
540,67	194,9
540,87	145,75
541,071	-48,81
541,271	96,6
541,472	100,69
541,672	139,6
541,873	57,68
542,073	80,21
542,274	94,55
542,474	196,95
542,675	162,13
542,875	82,26
543,075	-69,29
543,276	112,98
543,476	100,69
543,676	112,98
543,877	39,25
544,077	104,79
544,277	227,67
544,478	82,26
544,678	80,21
544,878	59,73
545,078	61,78
545,279	69,97
545,479	-36,52
545,679	49,49
545,879	18,77
546,079	63,83
546,28	-34,47
546,48	141,65
546,68	203,09
546,88	63,83
547,08	55,64
547,28	127,32
547,48	-48,81
547,68	180,56
547,88	151,89
548,081	57,68
548,281	-34,47
548,481	39,25
548,681	39,25
548,881	98,64
549,081	137,56
549,28	92,5
549,48	72,02
549,68	129,36
549,88	55,64
550,08	10,58
550,28	31,06
550,48	147,8
550,68	74,07
550,88	104,79
551,08	65,88
551,279	172,37
551,479	-5,8
551,679	137,56
551,879	24,92
552,079	67,92
552,278	88,4
552,478	227,67
552,678	110,93
552,878	180,56
553,077	24,92
553,277	90,45
553,477	67,92
553,676	110,93
553,876	137,56
554,076	18,77
554,275	104,79
554,475	55,64
554,674	203,09
554,874	26,96
555,074	-9,9
555,273	63,83
555,473	106,84
555,672	14,68
555,872	-16,04
556,071	125,27
556,271	262,48
556,47	108,88
556,67	100,69
556,869	49,49
557,068	-1,71
557,268	55,64
557,467	72,02
557,667	180,56
557,866	110,93
558,065	72,02
558,265	78,16
558,464	-7,85
558,663	96,6
558,863	112,98
559,062	31,06
559,261	18,77
559,461	162,13
559,66	47,44
559,859	-28,33
560,058	82,26
560,258	-42,67
560,457	82,26
560,656	135,51
560,855	2,39
561,054	170,32
561,253	82,26
561,453	112,98
561,652	72,02
561,851	125,27
562,05	-42,67
562,249	-28,33
562,448	104,79
562,647	12,63
562,846	74,07
563,045	43,35
563,244	59,73
563,443	127,32
563,642	76,12
563,841	135,51
564,04	94,55
564,239	29,01
564,438	59,73
564,637	-3,75
564,836	33,11
565,035	43,35
565,234	10,58
565,432	55,64
565,631	112,98
565,83	84,31
566,029	67,92
566,228	10,58
566,427	137,56
566,625	16,73
566,824	166,23
567,023	57,68
567,222	125,27
567,42	98,64
567,619	170,32
567,818	137,56
568,016	319,82
568,215	74,07
568,414	231,76
568,612	98,64
568,811	158,03
569,01	112,98
569,208	117,08
569,407	110,93
569,605	178,51
569,804	20,82
570,002	137,56
570,201	0,34
570,4	205,14
570,598	63,83
570,797	59,73
570,995	151,89
571,193	160,08
571,392	174,42
571,59	84,31
571,789	121,17
571,987	246,1
572,186	299,34
572,384	84,31
572,582	45,4
572,781	198,99
572,979	69,97
573,177	41,3
573,376	153,94
573,574	203,09
573,772	172,37
573,971	24,92
574,169	69,97
574,367	137,56
574,565	115,03
574,763	14,68
574,962	213,33
575,16	80,21
575,358	96,6
575,556	205,14
575,754	145,75
575,952	170,32
576,151	129,36
576,349	162,13
576,547	24,92
576,745	133,46
576,943	166,23
577,141	24,92
577,339	69,97
577,537	168,27
577,735	225,62
577,933	188,75
578,131	49,49
578,329	309,58
578,527	190,8
578,725	237,91
578,923	-32,43
579,121	141,65
579,319	24,92
579,516	88,4
579,714	352,59
579,912	135,51
580,11	18,77
580,308	94,55
580,506	119,12
580,704	84,31
580,901	41,3
581,099	227,67
581,297	192,85
581,495	172,37
581,692	117,08
581,89	313,68
582,088	158,03
582,285	178,51
582,483	115,03
582,681	162,13
582,878	141,65
583,076	162,13
583,274	155,99
583,471	280,91
583,669	82,26
583,866	121,17
584,064	78,16
584,262	65,88
584,459	74,07
584,657	135,51
584,854	194,9
585,052	203,09
585,249	182,61
585,447	172,37
585,644	82,26
585,841	233,81
586,039	74,07
586,236	162,13
586,434	143,7
586,631	100,69
586,828	104,79
587,026	153,94
587,223	-9,9
587,42	-1,71
587,618	143,7
587,815	317,78
588,012	125,27
588,21	117,08
588,407	131,41
588,604	172,37
588,801	49,49
588,999	147,8
589,196	194,9
589,393	35,16
589,59	158,03
589,787	104,79
589,984	168,27
590,182	139,6
590,379	22,87
590,576	92,5
590,773	57,68
590,97	53,59
591,167	209,23
591,364	151,89
591,561	117,08
591,758	213,33
591,955	194,9
592,152	141,65
592,349	78,16
592,546	110,93
592,743	96,6
592,94	215,38
593,137	190,8
593,334	201,04
593,531	233,81
593,727	164,18
593,924	160,08
594,121	47,44
594,318	82,26
594,515	182,61
594,712	246,1
594,908	131,41
595,105	-3,75
595,302	176,47
595,499	223,57
595,696	248,15
595,892	88,4
596,089	209,23
596,286	127,32
596,482	162,13
596,679	184,66
596,876	47,44
597,072	145,75
597,269	135,51
597,466	231,76
597,662	74,07
597,859	39,25
598,055	2,39
598,252	86,36
598,448	153,94
598,645	192,85
598,841	82,26
599,038	233,81
599,234	229,71
599,431	217,43
599,627	100,69
599,824	80,21
600,02	168,27
600,217	51,54
600,413	225,62
600,609	235,86
600,806	401,74
601,002	141,65
601,198	96,6
601,395	205,14
601,591	155,99
601,787	153,94
601,984	162,13
602,18	219,47
602,376	98,64
602,572	155,99
602,769	268,63
602,965	149,84
603,161	235,86
603,357	102,74
603,553	276,82
603,75	0,34
603,946	160,08
604,142	49,49
604,338	297,3
604,534	88,4
604,73	178,51
604,926	121,17
605,122	184,66
605,318	100,69
605,514	151,89
605,71	125,27
605,906	182,61
606,102	106,84
606,298	162,13
606,494	213,33
606,69	196,95
606,886	41,3
607,082	117,08
607,278	49,49
607,474	221,52
607,67	162,13
607,866	-67,24
608,062	137,56
608,257	119,12
608,453	47,44
608,649	135,51
608,845	45,4
609,041	-40,62
609,236	69,97
609,432	129,36
609,628	194,9
609,824	166,23
610,019	88,4
610,215	90,45
610,411	172,37
610,606	262,48
610,802	94,55
610,998	119,12
611,193	112,98
611,389	63,83
611,584	205,14
611,78	-13,99
611,976	37,2
612,171	309,58
612,367	139,6
612,562	18,77
612,758	188,75
612,953	14,68
613,149	125,27
613,344	20,82
613,539	33,11
613,735	135,51
613,93	129,36
614,126	86,36
614,321	110,93
614,517	229,71
614,712	147,8
614,907	151,89
615,103	98,64
615,298	119,12
615,493	31,06
615,688	86,36
615,884	137,56
616,079	26,96
616,274	96,6
616,47	41,3
616,665	-7,85
616,86	72,02
617,055	24,92
617,25	-13,99
617,445	20,82
617,641	41,3
617,836	39,25
618,031	57,68
618,226	186,71
618,421	106,84
618,616	-28,33
618,811	80,21
619,006	74,07
619,201	225,62
619,396	26,96
619,591	6,49
619,786	49,49
619,981	151,89
620,176	121,17
620,371	-18,09
620,566	88,4
620,761	184,66
620,956	88,4
621,151	100,69
621,346	137,56
621,541	10,58
621,735	188,75
621,93	29,01
622,125	41,3
622,32	2,39
622,515	-16,04
622,709	147,8
622,904	149,84
623,099	65,88
623,294	162,13
623,488	100,69
623,683	143,7
623,878	90,45
624,072	162,13
624,267	-24,23
624,462	90,45
624,656	-11,95
624,851	117,08
625,046	82,26
625,24	88,4
625,435	41,3
625,629	63,83
625,824	176,47
626,018	72,02
626,213	168,27
626,407	67,92
626,602	82,26
626,796	-7,85
626,991	225,62
627,185	18,77
627,38	76,12
627,574	149,84
627,768	145,75
627,963	41,3
628,157	14,68
628,352	82,26
628,546	14,68
628,74	90,45
628,935	57,68
629,129	67,92
629,323	102,74
629,517	51,54
629,712	45,4
629,906	92,5
630,1	194,9
630,294	190,8
630,489	121,17
630,683	112,98
630,877	72,02
631,071	137,56
631,265	0,34
631,459	121,17
631,653	129,36
631,848	72,02
632,042	145,75
632,236	18,77
632,43	74,07
632,624	72,02
632,818	39,25
633,012	137,56
633,206	139,6
633,4	112,98
633,594	203,09
633,788	104,79
633,982	180,56
634,176	211,28
634,369	63,83
634,563	88,4
634,757	-91,82
634,951	90,45
635,145	182,61
635,339	121,17
635,533	166,23
635,726	92,5
635,92	90,45
636,114	22,87
636,308	39,25
636,501	-5,8
636,695	153,94
636,889	8,53
637,083	135,51
637,276	20,82
637,47	37,2
637,664	86,36
637,857	98,64
638,051	22,87
638,244	201,04
638,438	59,73
638,632	213,33
638,825	-48,81
639,019	145,75
639,212	94,55
639,406	123,22
639,599	51,54
639,793	88,4
639,986	149,84
640,18	135,51
640,373	145,75
640,567	133,46
640,76	104,79
640,954	162,13
641,147	49,49
641,34	104,79
641,534	100,69
641,727	164,18
641,92	86,36
642,114	149,84
642,307	84,31
642,5	244,05
642,694	-32,43
642,887	178,51
643,08	178,51
643,273	176,47
643,467	14,68
643,66	0,34
643,853	2,39
644,046	129,36
644,239	112,98
644,432	74,07
644,626	0,34
644,819	51,54
645,012	33,11
645,205	127,32
645,398	217,43
645,591	133,46
645,784	-7,85
645,977	14,68
646,17	108,88
646,363	43,35
646,556	63,83
646,749	29,01
646,942	174,42
647,135	145,75
647,328	147,8
647,521	155,99
647,714	57,68
647,907	190,8
648,099	61,78
648,292	227,67
648,485	133,46
648,678	121,17
648,871	-65,19
649,064	123,22
649,256	16,73
649,449	12,63
649,642	-61,1
649,835	76,12
650,027	57,68
650,22	186,71
650,413	65,88
650,605	186,71
650,798	-11,95
650,991	172,37
651,183	158,03
651,376	127,32
651,568	266,58
651,761	139,6
651,954	149,84
652,146	108,88
652,339	229,71
652,531	311,63
652,724	151,89
652,916	117,08
653,109	-57
653,301	178,51
653,494	366,93
653,686	194,9
653,879	356,69
654,071	287,06
654,263	299,34
654,456	653,64
654,648	2167,09
654,84	6813,93
655,033	15202,41
655,225	25782,22
655,417	37150,49
655,61	47943,29
655,802	55875,07
655,994	60945,84
656,186	62463,39
656,379	59229,65
656,571	55805,44
656,763	49819,23
656,955	45592,22
657,148	41361,12
657,34	37635,86
657,532	33671
657,724	30316,42
657,916	26859,45
658,108	22966,26
658,3	19251,25
658,492	16140,38
658,684	13009,04
658,876	10811,57
659,068	8612,05
659,26	6680,82
659,452	5013,77
659,644	3680,54
659,836	2627,89
660,028	1823,03
660,22	1280,32
660,412	999,75
660,604	704,84
660,796	514,38
660,988	573,77
661,18	514,38
661,372	358,74
661,563	334,16
661,755	373,07
661,947	198,99
662,139	158,03
662,331	168,27
662,522	211,28
662,714	121,17
662,906	112,98
663,097	198,99
663,289	112,98
663,481	43,35
663,673	172,37
663,864	90,45
664,056	108,88
664,247	100,69
664,439	184,66
664,631	92,5
664,822	172,37
665,014	217,43
665,205	45,4
665,397	162,13
665,588	76,12
665,78	145,75
665,971	225,62
666,163	84,31
666,354	45,4
666,546	69,97
666,737	31,06
666,929	133,46
667,12	78,16
667,311	110,93
667,503	16,73
667,694	131,41
667,885	86,36
668,077	106,84
668,268	8,53
668,459	104,79
668,651	115,03
668,842	108,88
669,033	8,53
669,224	-9,9
669,416	221,52
669,607	4,44
669,798	20,82
669,989	186,71
670,18	110,93
670,371	125,27
670,563	-34,47
670,754	110,93
670,945	155,99
671,136	127,32
671,327	59,73
671,518	155,99
671,709	213,33
671,9	131,41
672,091	162,13
672,282	115,03
672,473	96,6
672,664	-44,71
672,855	12,63
673,046	133,46
673,237	121,17
673,428	51,54
673,619	184,66
673,809	-5,8
674	121,17
674,191	129,36
674,382	59,73
674,573	0,34
674,764	82,26
674,954	207,19
675,145	20,82
675,336	2,39
675,527	43,35
675,717	37,2
675,908	82,26
676,099	51,54
676,289	47,44
676,48	-20,14
676,671	22,87
676,861	67,92
677,052	24,92
677,243	80,21
677,433	-69,29
677,624	123,22
677,814	67,92
678,005	-13,99
678,195	115,03
678,386	-30,38
678,576	102,74
678,767	-67,24
678,957	8,53
679,148	67,92
679,338	158,03
679,529	82,26
679,719	41,3
679,909	110,93
680,1	88,4
680,29	153,94
680,481	-9,9
680,671	137,56
680,861	61,78
681,052	18,77
681,242	-63,15
681,432	80,21
681,622	-11,95
681,813	-5,8
682,003	-7,85
682,193	-40,62
682,383	43,35
682,573	39,25
682,764	31,06
682,954	35,16
683,144	100,69
683,334	22,87
683,524	-9,9
683,714	149,84
683,904	119,12
684,094	33,11
684,284	31,06
684,474	176,47
684,664	129,36
684,854	78,16
685,044	86,36
685,234	67,92
685,424	100,69
685,614	-85,67
685,804	205,14
685,994	98,64
686,184	35,16
686,374	33,11
686,564	67,92
686,753	33,11
686,943	-42,67
687,133	82,26
687,323	49,49
687,513	96,6
687,702	29,01
687,892	37,2
688,082	145,75
688,272	55,64
688,461	88,4
688,651	205,14
688,841	74,07
689,03	2,39
689,22	24,92
689,41	47,44
689,599	80,21
689,789	2,39
689,979	233,81
690,168	14,68
690,358	82,26
690,547	43,35
690,737	22,87
690,926	0,34
691,116	33,11
691,305	100,69
691,495	155,99
691,684	0,34
691,874	8,53
692,063	63,83
692,252	106,84
692,442	92,5
692,631	6,49
692,82	-7,85
693,01	2,39
693,199	98,64
693,388	74,07
693,578	31,06
693,767	149,84
693,956	20,82
694,146	80,21
694,335	121,17
694,524	39,25
694,713	186,71
694,902	59,73
695,092	49,49
695,281	4,44
695,47	31,06
695,659	41,3
695,848	51,54
696,037	41,3
696,226	153,94
696,415	22,87
696,604	121,17
696,793	125,27
696,982	43,35
697,171	239,95
697,36	-26,28
697,549	67,92
697,738	-97,96
697,927	-32,43
698,116	16,73
698,305	104,79
698,494	14,68
698,683	-34,47
698,872	170,32
699,061	137,56
699,25	59,73
699,438	-20,14
699,627	90,45
699,816	198,99
700,005	-138,92
700,193	24,92
700,382	121,17
700,571	104,79
700,76	88,4
700,948	164,18
701,137	86,36
701,326	108,88
701,514	24,92
701,703	143,7
701,892	110,93
702,08	260,43
702,269	117,08
702,457	31,06
702,646	67,92
702,834	82,26
703,023	115,03
703,212	121,17
703,4	-28,33
703,589	-18,09
703,777	37,2
703,965	2,39
704,154	-11,95
704,342	-42,67
704,531	-11,95
704,719	127,32
704,907	127,32
705,096	-1,71
705,284	41,3
705,472	14,68
705,661	98,64
705,849	-26,28
706,037	244,05
706,226	139,6
706,414	33,11
706,602	-26,28
706,79	74,07
706,979	18,77
707,167	78,16
707,355	18,77
707,543	84,31
707,731	39,25
707,919	86,36
708,107	24,92
708,296	-11,95
708,484	-22,19
708,672	10,58
708,86	57,68
709,048	35,16
709,236	-5,8
709,424	149,84
709,612	96,6
709,8	-38,57
709,988	67,92
710,176	164,18
710,364	74,07
710,551	-40,62
710,739	55,64
710,927	10,58
711,115	41,3
711,303	57,68
711,491	147,8
711,679	8,53
711,866	16,73
712,054	53,59
712,242	164,18
712,43	155,99
712,617	-11,95
712,805	121,17
712,993	47,44
713,181	-28,33
713,368	41,3
713,556	98,64
713,744	22,87
713,931	188,75
714,119	123,22
714,306	47,44
714,494	22,87
714,682	-18,09
714,869	-38,57
715,057	-40,62
715,244	-112,3
715,432	63,83
715,619	-26,28
715,807	-59,05
715,994	6,49
716,182	53,59
716,369	207,19
716,556	133,46
716,744	-7,85
716,931	-89,77
717,119	41,3
717,306	37,2
717,493	51,54
717,681	-16,04
717,868	-16,04
718,055	65,88
718,242	43,35
718,43	45,4
718,617	72,02
718,804	-9,9
718,991	131,41
719,179	16,73
719,366	72,02
719,553	47,44
719,74	65,88
719,927	10,58
720,114	-13,99
720,301	-28,33
720,488	-1,71
720,676	14,68
720,863	84,31
721,05	170,32
721,237	61,78
721,424	129,36
721,611	6,49
721,798	-87,72
721,985	-34,47
722,172	33,11
722,358	-42,67
722,545	112,98
722,732	57,68
722,919	67,92
723,106	143,7
723,293	10,58
723,48	29,01
723,667	16,73
723,853	69,97
724,04	74,07
724,227	100,69
724,414	39,25
724,6	162,13
724,787	121,17
724,974	117,08
725,161	26,96
725,347	-34,47
725,534	8,53
725,72	31,06
725,907	219,47
726,094	76,12
726,28	6,49
726,467	61,78
726,653	-3,75
726,84	172,37
727,027	184,66
727,213	18,77
727,4	12,63
727,586	6,49
727,773	-13,99
727,959	57,68
728,145	72,02
728,332	26,96
728,518	-5,8
728,705	74,07
728,891	14,68
729,077	108,88
729,264	-67,24
729,45	57,68
729,636	65,88
729,823	106,84
730,009	121,17
730,195	10,58
730,382	104,79
730,568	-30,38
730,754	121,17
730,94	-61,1
731,126	29,01
731,313	82,26
731,499	72,02
731,685	145,75
731,871	98,64
732,057	76,12
732,243	137,56
732,429	69,97
732,615	198,99
732,801	78,16
732,987	31,06
733,173	57,68
733,359	-102,06
733,545	106,84
733,731	4,44
733,917	121,17
734,103	63,83
734,289	37,2
734,475	24,92
734,661	170,32
734,847	-18,09
735,033	-26,28
735,219	141,65
735,404	29,01
735,59	31,06
735,776	65,88
735,962	100,69
736,148	67,92
736,333	186,71
736,519	108,88
736,705	57,68
736,89	47,44
737,076	-11,95
737,262	55,64
737,447	106,84
737,633	-52,91
737,819	117,08
738,004	33,11
738,19	18,77
738,375	84,31
738,561	178,51
738,747	47,44
738,932	49,49
739,118	297,3
739,303	112,98
739,489	141,65
739,674	22,87
739,859	-20,14
740,045	72,02
740,23	35,16
740,416	-44,71
740,601	35,16
740,786	43,35
740,972	55,64
741,157	6,49
741,342	-40,62
741,528	-9,9
741,713	137,56
741,898	0,34
742,084	43,35
742,269	65,88
742,454	196,95
742,639	127,32
742,824	35,16
743,01	198,99
743,195	203,09
743,38	-5,8
743,565	2,39
743,75	-22,19
743,935	102,74
744,12	203,09
744,305	-87,72
744,49	63,83
744,675	33,11
744,86	16,73
745,045	106,84
745,23	41,3
745,415	35,16
745,6	104,79
745,785	4,44
745,97	127,32
746,155	86,36
746,34	186,71
746,525	90,45
746,71	135,51
746,895	16,73
747,079	-24,23
747,264	117,08
747,449	33,11
747,634	115,03
747,819	88,4
748,003	-13,99
748,188	-81,58
748,373	92,5
748,557	158,03
748,742	63,83
748,927	90,45
749,111	10,58
749,296	69,97
749,481	82,26
749,665	65,88
749,85	51,54
750,034	92,5
750,219	121,17
750,404	4,44
750,588	57,68
750,773	51,54
750,957	100,69
751,141	74,07
751,326	61,78
751,51	29,01
751,695	33,11
751,879	-9,9
752,064	141,65
752,248	65,88
752,432	217,43
752,617	106,84
752,801	61,78
752,985	-104,11
753,17	155,99
753,354	26,96
753,538	16,73
753,722	-13,99
753,907	98,64
754,091	16,73
754,275	86,36
754,459	-75,43
754,643	47,44
754,828	51,54
755,012	49,49
755,196	-46,76
755,38	151,89
755,564	14,68
755,748	43,35
755,932	121,17
756,116	84,31
756,3	123,22
756,484	86,36
756,668	63,83
756,852	-93,87
757,036	31,06
757,22	29,01
757,404	57,68
757,588	-30,38
757,772	102,74
757,956	37,2
758,14	235,86
758,323	-104,11
758,507	117,08
758,691	14,68
758,875	112,98
759,059	82,26
759,242	65,88
759,426	72,02
759,61	67,92
759,794	-42,67
759,977	121,17
760,161	276,82
760,345	129,36
760,528	143,7
760,712	69,97
760,895	153,94
761,079	2,39
761,263	-18,09
761,446	47,44
761,63	-9,9
761,813	137,56
761,997	-67,24
762,18	16,73
762,364	41,3
762,547	-40,62
762,731	69,97
762,914	78,16
763,098	-11,95
763,281	41,3
763,464	2,39
763,648	76,12
763,831	-46,76
764,015	-30,38
764,198	112,98
764,381	14,68
764,564	47,44
764,748	53,59
764,931	53,59
765,114	88,4
765,297	72,02
765,481	-13,99
765,664	47,44
765,847	69,97
766,03	141,65
766,213	41,3
766,397	57,68
766,58	-9,9
766,763	65,88
766,946	24,92
767,129	59,73
767,312	-61,1
767,495	69,97
767,678	-9,9
767,861	82,26
768,044	-30,38
768,227	-11,95
768,41	45,4
768,593	43,35
768,776	135,51
768,959	39,25
769,142	162,13
769,324	-42,67
769,507	31,06
769,69	22,87
769,873	57,68
770,056	301,39
770,239	59,73
770,421	153,94
770,604	186,71
770,787	8,53
770,97	119,12
771,152	22,87
771,335	67,92
771,518	-73,39
771,7	176,47
771,883	127,32
772,066	-7,85
772,248	37,2
772,431	147,8
772,613	26,96
772,796	61,78
772,978	162,13
773,161	153,94
773,343	63,83
773,526	98,64
773,708	-69,29
773,891	-30,38
774,073	127,32
774,256	8,53
774,438	123,22
774,621	41,3
774,803	76,12
774,985	43,35
775,168	29,01
775,35	43,35
775,532	55,64
775,715	-5,8
775,897	39,25
776,079	65,88
776,261	244,05
776,444	223,57
776,626	498
776,808	684,36
776,99	663,88
777,173	856,39
777,355	862,54
777,537	923,98
777,719	1032,52
777,901	756,04
778,083	629,07
778,265	620,88
778,447	680,27
778,629	504,14
778,811	475,47
778,993	469,33
779,175	608,59
779,357	315,73
779,539	172,37
779,721	235,86
779,903	282,96
780,085	115,03
780,267	153,94
780,449	104,79
780,631	153,94
780,812	186,71
780,994	123,22
781,176	94,55
781,358	8,53
781,54	35,16
781,721	51,54
781,903	147,8
782,085	-9,9
782,267	207,19
782,448	-24,23
782,63	-7,85
782,812	92,5
782,993	149,84
783,175	63,83
783,357	-16,04
783,538	164,18
783,72	18,77
783,901	-7,85
784,083	29,01
784,264	59,73
784,446	12,63
784,627	-91,82
784,809	145,75
784,99	31,06
785,172	51,54
785,353	-30,38
785,535	57,68
785,716	33,11
785,897	-5,8
786,079	26,96
786,26	51,54
786,441	59,73
786,623	-65,19
786,804	-32,43
786,985	6,49
787,167	108,88
787,348	6,49
787,529	51,54
787,71	153,94
787,891	63,83
788,073	29,01
788,254	-34,47
788,435	137,56
788,616	18,77
788,797	-46,76
788,978	20,82
789,159	121,17
789,34	119,12
789,522	24,92
789,703	-16,04
789,884	-32,43
790,065	100,69
790,246	125,27
790,427	108,88
790,607	155,99
790,788	168,27
790,969	2,39
791,15	108,88
791,331	-40,62
791,512	57,68
791,693	14,68
791,874	57,68
792,054	158,03
792,235	153,94
792,416	-1,71
792,597	33,11
792,778	139,6
792,958	51,54
793,139	69,97
793,32	20,82
793,5	-36,52
793,681	104,79
793,862	88,4
794,042	-46,76
794,223	-65,19
794,404	4,44
794,584	-77,48
794,765	-7,85
794,945	65,88
795,126	39,25
795,306	131,41
795,487	-32,43
795,667	24,92
795,848	43,35
796,028	47,44
796,209	18,77
796,389	108,88
796,57	-3,75
796,75	-24,23
796,93	-32,43
797,111	-13,99
797,291	-26,28
797,471	37,2
797,652	74,07
797,832	-11,95
798,012	63,83
798,192	43,35
798,373	-83,63
798,553	33,11
798,733	94,55
798,913	18,77
799,093	49,49
799,274	39,25
799,454	74,07
799,634	117,08
799,814	80,21
799,994	41,3
800,174	65,88
800,354	67,92
800,534	-87,72
800,714	182,61
800,894	-24,23
801,074	33,11
801,254	-40,62
801,434	143,7
801,614	37,2
801,794	-75,43
801,974	1950,01
802,154	22,87
802,334	145,75
802,514	-75,43
802,693	6,49
802,873	18,77
803,053	178,51
803,233	96,6
803,413	-52,91
803,592	8,53
803,772	-69,29
803,952	29,01
804,131	0,34
804,311	31,06
804,491	164,18
804,67	-40,62
804,85	39,25
805,03	45,4
805,209	129,36
805,389	12,63
805,568	2,39
805,748	-46,76
805,928	16,73
806,107	125,27
806,287	4,44
806,466	57,68
806,646	67,92
806,825	16,73
807,004	-57
807,184	104,79
807,363	22,87
807,543	112,98
807,722	-34,47
807,901	141,65
808,081	47,44
808,26	-122,54
808,439	55,64
808,619	14,68
808,798	-5,8
808,977	78,16
809,156	41,3
809,336	-36,52
809,515	100,69
809,694	-13,99
809,873	-13,99
810,052	90,45
810,231	115,03
810,411	108,88
810,59	129,36
810,769	47,44
810,948	14,68
811,127	-95,91
811,306	-69,29
811,485	-46,76
811,664	133,46
811,843	24,92
812,022	41,3
812,201	-1,71
812,38	-32,43
812,559	8,53
812,737	10,58
812,916	-13,99
813,095	-16,04
813,274	59,73
813,453	84,31
813,632	78,16
813,811	174,42
813,989	-18,09
814,168	43,35
814,347	-36,52
814,526	14,68
814,704	196,95
814,883	194,9
815,062	-73,39
815,24	100,69
815,419	6,49
815,598	39,25
815,776	-102,06
815,955	57,68
816,133	-165,54
816,312	-18,09
816,49	-40,62
816,669	86,36
816,847	41,3
817,026	20,82
817,204	49,49
817,383	-57
817,561	-59,05
817,74	14,68
817,918	-20,14
818,097	-28,33
818,275	-3,75
818,453	112,98
818,632	125,27
818,81	-24,23
818,988	-34,47
819,167	-9,9
819,345	-38,57
819,523	26,96
819,701	80,21
819,879	57,68
820,058	55,64
820,236	14,68
820,414	26,96
820,592	-28,33
820,77	-20,14
820,948	-69,29
821,127	2,39
821,305	31,06
821,483	-38,57
821,661	153,94
821,839	67,92
822,017	-52,91
822,195	-65,19
822,373	74,07
822,551	6,49
822,729	59,73
822,907	-1,71
823,085	92,5
823,262	0,34
823,44	-40,62
823,618	-22,19
823,796	67,92
823,974	57,68
824,152	59,73
824,329	-13,99
824,507	-42,67
824,685	129,36
824,863	-28,33
825,04	-13,99
825,218	90,45
825,396	72,02
825,574	-3,75
825,751	92,5
825,929	88,4
826,107	-65,19
826,284	-73,39
826,462	6,49
826,639	-42,67
826,817	-26,28
826,994	-61,1
827,172	-52,91
827,349	98,64
827,527	61,78
827,704	24,92
827,882	108,88
828,059	18,77
828,237	-40,62
828,414	51,54
828,591	-26,28
828,769	29,01
828,946	-5,8
829,124	94,55
829,301	149,84
829,478	-1,71
829,655	96,6
829,833	-30,38
830,01	-112,3
830,187	88,4
830,364	39,25
830,542	92,5
830,719	80,21
830,896	96,6
831,073	41,3
831,25	8,53
831,427	24,92
831,604	-59,05
831,782	-26,28
831,959	14,68
832,136	31,06
832,313	78,16
832,49	-34,47
832,667	26,96
832,844	-26,28
833,021	102,74
833,198	63,83
833,374	-34,47
833,551	31,06
833,728	-11,95
833,905	51,54
834,082	-120,49
834,259	65,88
834,436	88,4
834,612	-44,71
834,789	119,12
834,966	26,96
835,143	72,02
835,319	-24,23
835,496	0,34
835,673	-5,8
835,85	110,93
836,026	39,25
836,203	123,22
836,38	2,39
836,556	57,68
836,733	-48,81
836,909	108,88
837,086	4,44
837,262	-52,91
837,439	31,06
837,616	-91,82
837,792	-79,53
837,968	26,96
838,145	-63,15
838,321	-11,95
838,498	69,97
838,674	31,06
838,851	98,64
839,027	16,73
839,203	-11,95
839,38	117,08
839,556	-44,71
839,732	129,36
839,909	-3,75
840,085	80,21
840,261	-73,39
840,437	57,68
840,614	-1,71
840,79	78,16
840,966	131,41
841,142	63,83
841,318	-9,9
841,494	137,56
841,671	33,11
841,847	-71,34
842,023	-71,34
842,199	35,16
842,375	63,83
842,551	-95,91
842,727	-87,72
842,903	213,33
843,079	-22,19
843,255	106,84
843,431	33,11
843,607	149,84
843,783	-54,95
843,959	274,77
844,134	209,23
844,31	450,89
844,486	268,63
844,662	424,27
844,838	387,41
845,013	383,31
845,189	340,3
845,365	219,47
845,541	194,9
845,716	188,75
845,892	242
846,068	67,92
846,244	153,94
846,419	158,03
846,595	76,12
846,77	43,35
846,946	184,66
847,122	-1,71
847,297	98,64
847,473	227,67
847,648	-13,99
847,824	72,02
847,999	-40,62
848,175	86,36
848,35	127,32
848,526	166,23
848,701	74,07
848,876	119,12
849,052	51,54
849,227	49,49
849,403	24,92
849,578	-61,1
849,753	74,07
849,929	22,87
850,104	-102,06
850,279	51,54
850,454	55,64
850,63	65,88
850,805	-16,04
850,98	49,49
851,155	47,44
851,33	-30,38
851,505	-89,77
851,681	182,61
851,856	-9,9
852,031	112,98
852,206	78,16
852,381	20,82
852,556	-30,38
852,731	26,96
852,906	78,16
853,081	121,17
853,256	178,51
853,431	-54,95
853,606	-26,28
853,781	-52,91
853,956	-71,34
854,131	-1,71
854,305	-34,47
854,48	33,11
854,655	-30,38
854,83	0,34
855,005	80,21
855,18	-5,8
855,354	-38,57
855,529	18,77
855,704	39,25
855,879	-11,95
856,053	-75,43
856,228	35,16
856,403	-44,71
856,577	-9,9
856,752	-106,15
856,926	-28,33
857,101	-28,33
857,276	-9,9
857,45	-3,75
857,625	90,45
857,799	2,39
857,974	47,44
858,148	-102,06
858,323	65,88
858,497	33,11
858,672	-3,75
858,846	-100,01
859,02	65,88
859,195	-61,1
859,369	2,39
859,543	-32,43
859,718	47,44
859,892	72,02
860,066	88,4
860,241	-24,23
860,415	10,58
860,589	-42,67
860,763	-9,9
860,938	80,21
861,112	39,25
861,286	10,58
861,46	-1,71
861,634	8,53
861,808	117,08
861,982	-20,14
862,157	-40,62
862,331	-26,28
862,505	-140,97
862,679	-61,1
862,853	-59,05
863,027	24,92
863,201	133,46
863,375	-46,76
863,549	12,63
863,722	63,83
863,896	65,88
864,07	6,49
864,244	-9,9
864,418	137,56
864,592	31,06
864,766	43,35
864,939	49,49
865,113	-16,04
865,287	22,87
865,461	-91,82
865,634	-13,99
865,808	0,34
865,982	-9,9
866,156	-175,78
866,329	-48,81
866,503	-5,8
866,676	47,44
866,85	100,69
867,024	24,92
867,197	100,69
867,371	80,21
867,544	41,3
867,718	-122,54
867,891	96,6
868,065	-104,11
868,238	18,77
868,412	119,12
868,585	-1,71
868,759	-32,43
868,932	10,58
869,105	-106,15
869,279	16,73
869,452	-73,39
869,625	86,36
869,799	8,53
869,972	-100,01
870,145	6,49
870,319	100,69
870,492	-40,62
870,665	-28,33
870,838	-34,47
871,011	-67,24
871,185	-7,85
871,358	-16,04
871,531	24,92
871,704	-20,14
871,877	-9,9
872,05	16,73
872,223	-81,58
872,396	84,31
872,569	49,49
872,742	-108,2
872,915	39,25
873,088	12,63
873,261	-138,92
873,434	12,63
873,607	-59,05
873,78	65,88
873,953	-5,8
874,126	24,92
874,299	53,59
874,471	-28,33
874,644	47,44
874,817	72,02
874,99	164,18
875,163	-1,71
875,335	-16,04
875,508	12,63
875,681	121,17
875,853	22,87
876,026	-22,19
876,199	164,18
876,371	45,4
876,544	53,59
876,717	98,64
876,889	4,44
877,062	59,73
877,234	-34,47
877,407	-42,67
877,579	47,44
877,752	47,44
877,924	43,35
878,097	51,54
878,269	-1,71
878,442	24,92
878,614	80,21
878,786	14,68
878,959	-30,38
879,131	45,4
879,303	-85,67
879,476	-71,34
879,648	104,79
879,82	26,96
879,993	57,68
880,165	-42,67
880,337	-65,19
880,509	18,77
880,681	4,44
880,854	-9,9
881,026	145,75
881,198	92,5
881,37	43,35
881,542	69,97
881,714	55,64
881,886	-5,8
882,058	14,68
882,23	94,55
882,402	-30,38
882,574	33,11
882,746	102,74
882,918	76,12
883,09	141,65
883,262	12,63
883,434	76,12
883,606	-73,39
883,778	16,73
883,95	151,89
884,122	-16,04
884,293	57,68
884,465	26,96
884,637	125,27
884,809	-22,19
884,98	53,59
885,152	53,59
885,324	55,64
885,496	-40,62
885,667	29,01
885,839	-26,28
886,011	57,68
886,182	84,31
886,354	106,84
886,525	94,55
886,697	16,73
886,869	-69,29
887,04	55,64
887,212	112,98
887,383	184,66
887,555	35,16
887,726	8,53
887,897	-18,09
888,069	31,06
888,24	72,02
888,412	-7,85
888,583	18,77
888,754	-40,62
888,926	-83,63
889,097	-79,53
889,268	-48,81
889,44	135,51
889,611	-106,15
889,782	-69,29
889,953	-81,58
890,125	155,99
890,296	-81,58
890,467	33,11
890,638	-73,39
890,809	24,92
890,98	-106,15
891,151	10,58
891,323	84,31
891,494	18,77
891,665	33,11
891,836	-9,9
892,007	18,77
892,178	106,84
892,349	-32,43
892,52	-59,05
892,691	96,6
892,862	-50,86
893,032	-149,16
893,203	-13,99
893,374	82,26
893,545	192,85
893,716	-63,15
893,887	100,69
894,057	-75,43
894,228	-18,09
894,399	-22,19
894,57	67,92
894,74	-42,67
894,911	49,49
895,082	61,78
895,253	-34,47
895,423	24,92
895,594	184,66
895,764	18,77
895,935	-48,81
896,106	76,12
896,276	-38,57
896,447	16,73
896,617	-79,53
896,788	-42,67
896,958	-26,28
897,129	-87,72
897,299	-32,43
897,47	123,22
897,64	47,44
897,81	22,87
897,981	112,98
898,151	33,11
898,322	-3,75
898,492	100,69
898,662	-81,58
898,832	-11,95
899,003	10,58
899,173	123,22
899,343	-91,82
899,513	-42,67
