Data from deuterium_USB4F104151__1__10-57-07-404.txt Node

Date: Wed Apr 15 10:57:07 EDT 2026
User: LaboPhy
Spectrometer: USB4F10415
Trigger mode: 4
Integration Time (sec): 1,000000E-1
Scans to average: 1
Electric dark correction enabled: true
Nonlinearity correction enabled: false
Boxcar width: 0
XAxis mode: Wavelengths
Number of Pixels in Spectrum: 3648
>>>>>Begin Spectral Data<<<<<
178,204	-428,37
178,424	-428,37
178,644	-428,37
178,864	-479,57
179,084	-436,56
179,304	46,76
179,524	-18,77
179,744	24,23
179,964	34,47
180,184	-8,53
180,404	30,38
180,624	-112,98
180,844	3,75
181,064	-96,6
181,283	30,38
181,503	-16,73
181,723	83,63
181,943	-104,79
182,163	124,58
182,383	5,8
182,602	63,15
182,822	143,02
183,042	26,28
183,262	-90,45
183,482	-47,44
183,701	18,09
183,921	85,67
184,141	-18,77
184,361	42,67
184,58	36,52
184,8	112,3
185,02	-14,68
185,239	130,73
185,459	75,43
185,679	124,58
185,898	-108,88
186,118	24,23
186,338	69,29
186,557	97,96
186,777	-47,44
186,997	-96,6
187,216	-69,97
187,436	149,16
187,655	7,85
187,875	71,34
188,095	67,24
188,314	93,87
188,534	-4,44
188,753	-90,45
188,973	108,2
189,192	161,45
189,412	42,67
189,631	16,04
189,851	28,33
190,07	147,11
190,29	-112,98
190,509	-78,16
190,729	20,14
190,948	192,17
191,168	208,55
191,387	11,95
191,607	-24,92
191,826	116,39
192,045	-16,73
192,265	5,8
192,484	67,24
192,704	3,75
192,923	-115,03
193,142	140,97
193,362	83,63
193,581	165,54
193,8	22,19
194,02	36,52
194,239	48,81
194,458	9,9
194,678	20,14
194,897	-31,06
195,116	75,43
195,335	67,24
195,555	-31,06
195,774	50,86
195,993	171,69
196,212	32,43
196,432	-112,98
196,651	-47,44
196,87	-45,4
197,089	216,74
197,308	59,05
197,528	26,28
197,747	-12,63
197,966	52,91
198,185	81,58
198,404	-14,68
198,623	128,68
198,842	97,96
199,062	69,29
199,281	104,11
199,5	75,43
199,719	-22,87
199,938	34,47
200,157	7,85
200,376	100,01
200,595	108,2
200,814	102,06
201,033	-12,63
201,252	204,46
201,471	61,1
201,69	5,8
201,909	30,38
202,128	157,35
202,347	13,99
202,566	-49,49
202,785	-59,73
203,004	48,81
203,223	269,99
203,442	-72,02
203,661	-102,74
203,879	-16,73
204,098	222,89
204,317	-86,36
204,536	42,67
204,755	151,21
204,974	149,16
205,193	-47,44
205,411	102,06
205,63	93,87
205,849	34,47
206,068	3,75
206,287	-33,11
206,505	157,35
206,724	38,57
206,943	-4,44
207,162	-43,35
207,381	65,19
207,599	28,33
207,818	52,91
208,037	-53,59
208,255	118,44
208,474	134,82
208,693	-22,87
208,911	-29,01
209,13	143,02
209,349	22,19
209,567	79,53
209,786	54,95
210,005	116,39
210,223	-0,34
210,442	-143,7
210,661	61,1
210,879	26,28
211,098	52,91
211,316	7,85
211,535	120,49
211,753	18,09
211,972	-4,44
212,191	-45,4
212,409	-47,44
212,628	120,49
212,846	-53,59
213,065	-47,44
213,283	100,01
213,502	16,04
213,72	1,71
213,938	-8,53
214,157	24,23
214,375	134,82
214,594	44,71
214,812	5,8
215,031	-12,63
215,249	-16,73
215,467	-0,34
215,686	3,75
215,904	89,77
216,122	-22,87
216,341	16,04
216,559	83,63
216,778	130,73
216,996	143,02
217,214	30,38
217,432	-39,25
217,651	-61,78
217,869	91,82
218,087	42,67
218,306	-22,87
218,524	-69,97
218,742	3,75
218,96	108,2
219,179	63,15
219,397	9,9
219,615	272,04
219,833	79,53
220,051	-45,4
220,27	26,28
220,488	95,91
220,706	61,1
220,924	-12,63
221,142	-78,16
221,36	85,67
221,578	52,91
221,796	-12,63
222,015	-6,49
222,233	20,14
222,451	30,38
222,669	-14,68
222,887	97,96
223,105	13,99
223,323	36,52
223,541	24,23
223,759	32,43
223,977	-6,49
224,195	157,35
224,413	95,91
224,631	48,81
224,849	3,75
225,067	204,46
225,285	-24,92
225,503	5,8
225,721	-137,56
225,939	57
226,157	59,05
226,375	233,13
226,592	11,95
226,81	71,34
227,028	102,06
227,246	108,2
227,464	130,73
227,682	63,15
227,9	95,91
228,117	46,76
228,335	143,02
228,553	1,71
228,771	26,28
228,989	75,43
229,206	85,67
229,424	-8,53
229,642	-14,68
229,86	-22,87
230,077	140,97
230,295	11,95
230,513	147,11
230,731	9,9
230,948	112,3
231,166	165,54
231,384	-61,78
231,601	-41,3
231,819	192,17
232,037	-41,3
232,254	-72,02
232,472	9,9
232,689	26,28
232,907	102,06
233,125	40,62
233,342	-0,34
233,56	1,71
233,777	-4,44
233,995	1,71
234,213	116,39
234,43	46,76
234,648	-49,49
234,865	-2,39
235,083	71,34
235,3	91,82
235,518	134,82
235,735	95,91
235,953	40,62
236,17	5,8
236,388	36,52
236,605	65,19
236,822	75,43
237,04	132,78
237,257	13,99
237,475	-20,82
237,692	9,9
237,909	24,23
238,127	42,67
238,344	77,48
238,562	85,67
238,779	-51,54
238,996	-74,07
239,214	24,23
239,431	46,76
239,648	-33,11
239,865	59,05
240,083	59,05
240,3	59,05
240,517	-63,83
240,735	75,43
240,952	73,39
241,169	91,82
241,386	20,14
241,603	20,14
241,821	-55,64
242,038	102,06
242,255	85,67
242,472	-33,11
242,689	100,01
242,907	18,09
243,124	59,05
243,341	-22,87
243,558	-47,44
243,775	-37,2
243,992	-123,22
244,209	-41,3
244,426	61,1
244,643	120,49
244,86	-31,06
245,078	28,33
245,295	57
245,512	22,19
245,729	38,57
245,946	110,25
246,163	54,95
246,38	-31,06
246,597	-20,82
246,814	9,9
247,031	32,43
247,248	-14,68
247,464	75,43
247,681	83,63
247,898	-35,16
248,115	126,63
248,332	-29,01
248,549	159,4
248,766	153,26
248,983	9,9
249,2	73,39
249,417	26,28
249,633	83,63
249,85	34,47
250,067	-45,4
250,284	-51,54
250,501	48,81
250,717	100,01
250,934	-22,87
251,151	26,28
251,368	16,04
251,585	38,57
251,801	38,57
252,018	-67,92
252,235	18,09
252,451	-69,97
252,668	-51,54
252,885	155,3
253,102	-51,54
253,318	-49,49
253,535	-61,78
253,752	1,71
253,968	-76,12
254,185	-51,54
254,401	-10,58
254,618	52,91
254,835	-4,44
255,051	104,11
255,268	52,91
255,484	59,05
255,701	22,19
255,917	114,34
256,134	-63,83
256,351	-102,74
256,567	3,75
256,784	30,38
257	-86,36
257,217	63,15
257,433	93,87
257,65	93,87
257,866	100,01
258,082	-22,87
258,299	-29,01
258,515	-22,87
258,732	-55,64
258,948	-49,49
259,165	34,47
259,381	-88,4
259,597	69,29
259,814	52,91
260,03	20,14
260,246	59,05
260,463	112,3
260,679	112,3
260,895	1,71
261,112	114,34
261,328	18,09
261,544	-41,3
261,761	140,97
261,977	67,24
262,193	-98,64
262,409	112,3
262,626	3,75
262,842	42,67
263,058	3,75
263,274	63,15
263,49	120,49
263,707	110,25
263,923	75,43
264,139	-117,08
264,355	40,62
264,571	38,57
264,787	24,23
265,004	102,06
265,22	9,9
265,436	75,43
265,652	-4,44
265,868	67,24
266,084	-82,26
266,3	-92,5
266,516	18,09
266,732	75,43
266,948	65,19
267,164	-49,49
267,38	46,76
267,596	71,34
267,812	153,26
268,028	50,86
268,244	40,62
268,46	100,01
268,676	32,43
268,892	-14,68
269,108	-0,34
269,324	-10,58
269,54	-96,6
269,756	138,92
269,972	-41,3
270,188	-10,58
270,403	-53,59
270,619	-37,2
270,835	145,06
271,051	26,28
271,267	11,95
271,483	-18,77
271,698	83,63
271,914	59,05
272,13	3,75
272,346	38,57
272,562	18,09
272,777	155,3
272,993	16,04
273,209	-29,01
273,425	147,11
273,64	-88,4
273,856	116,39
274,072	-63,83
274,287	-14,68
274,503	85,67
274,719	87,72
274,934	-80,21
275,15	-55,64
275,366	-10,58
275,581	-51,54
275,797	18,09
276,012	73,39
276,228	59,05
276,444	11,95
276,659	79,53
276,875	-69,97
277,09	18,09
277,306	-31,06
277,521	59,05
277,737	-2,39
277,952	122,54
278,168	-2,39
278,383	-0,34
278,599	22,19
278,814	7,85
279,03	11,95
279,245	75,43
279,461	26,28
279,676	124,58
279,892	-49,49
280,107	-35,16
280,322	-51,54
280,538	149,16
280,753	-49,49
280,969	28,33
281,184	20,14
281,399	75,43
281,615	-102,74
281,83	36,52
282,045	-63,83
282,26	-22,87
282,476	26,28
282,691	85,67
282,906	75,43
283,122	61,1
283,337	3,75
283,552	38,57
283,767	-37,2
283,983	143,02
284,198	42,67
284,413	61,1
284,628	-102,74
284,843	52,91
285,058	3,75
285,274	-45,4
285,489	-96,6
285,704	42,67
285,919	-18,77
286,134	-55,64
286,349	50,86
286,564	-26,96
286,779	67,24
286,995	-41,3
287,21	-119,12
287,425	46,76
287,64	59,05
287,855	79,53
288,07	-55,64
288,285	122,54
288,5	85,67
288,715	75,43
288,93	11,95
289,145	-8,53
289,36	134,82
289,575	-20,82
289,79	132,78
290,004	-61,78
290,219	61,1
290,434	26,28
290,649	34,47
290,864	-76,12
291,079	-37,2
291,294	40,62
291,509	100,01
291,724	-6,49
291,938	11,95
292,153	95,91
292,368	-43,35
292,583	67,24
292,798	128,68
293,012	26,28
293,227	40,62
293,442	-24,92
293,657	50,86
293,871	63,15
294,086	63,15
294,301	224,94
294,516	112,3
294,73	-14,68
294,945	22,19
295,16	9,9
295,374	116,39
295,589	38,57
295,804	-35,16
296,018	-14,68
296,233	28,33
296,447	16,04
296,662	7,85
296,877	89,77
297,091	75,43
297,306	69,29
297,52	-18,77
297,735	126,63
297,949	26,28
298,164	-2,39
298,378	-16,73
298,593	-16,73
298,807	-102,74
299,022	34,47
299,236	151,21
299,451	-31,06
299,665	-8,53
299,88	-53,59
300,094	59,05
300,309	-80,21
300,523	-14,68
300,737	-45,4
300,952	42,67
301,166	30,38
301,381	-6,49
301,595	38,57
301,809	61,1
302,024	-51,54
302,238	-63,83
302,452	108,2
302,667	1,71
302,881	173,74
303,095	157,35
303,309	38,57
303,524	-31,06
303,738	46,76
303,952	-100,69
304,166	54,95
304,381	-186,71
304,595	122,54
304,809	-18,77
305,023	44,71
305,237	-82,26
305,452	5,8
305,666	32,43
305,88	54,95
306,094	124,58
306,308	46,76
306,522	91,82
306,736	52,91
306,95	128,68
307,164	13,99
307,379	-22,87
307,593	100,01
307,807	143,02
308,021	145,06
308,235	-8,53
308,449	13,99
308,663	108,2
308,877	169,64
309,091	24,23
309,305	79,53
309,519	-72,02
309,733	147,11
309,947	-55,64
310,161	22,19
310,374	104,11
310,588	104,11
310,802	-41,3
311,016	65,19
311,23	87,72
311,444	-37,2
311,658	52,91
311,872	140,97
312,085	81,58
312,299	132,78
312,513	91,82
312,727	-22,87
312,941	-31,06
313,154	3,75
313,368	24,23
313,582	93,87
313,796	57
314,009	20,14
314,223	104,11
314,437	1,71
314,651	59,05
314,864	-6,49
315,078	-22,87
315,292	-43,35
315,505	46,76
315,719	140,97
315,933	71,34
316,146	-10,58
316,36	-53,59
316,573	59,05
316,787	59,05
317,001	40,62
317,214	3,75
317,428	24,23
317,641	-67,92
317,855	16,04
318,068	79,53
318,282	42,67
318,495	267,94
318,709	87,72
318,922	20,14
319,136	118,44
319,349	34,47
319,563	-0,34
319,776	57
319,99	-158,03
320,203	61,1
320,417	42,67
320,63	110,25
320,843	75,43
321,057	87,72
321,27	-61,78
321,483	69,29
321,697	134,82
321,91	52,91
322,124	50,86
322,337	95,91
322,55	-59,73
322,763	-18,77
322,977	48,81
323,19	-8,53
323,403	5,8
323,617	100,01
323,83	71,34
324,043	-6,49
324,256	69,29
324,469	9,9
324,683	95,91
324,896	-12,63
325,109	-6,49
325,322	-78,16
325,535	100,01
325,748	138,92
325,962	11,95
326,175	69,29
326,388	32,43
326,601	122,54
326,814	-2,39
327,027	54,95
327,24	57
327,453	-123,22
327,666	59,05
327,879	124,58
328,092	81,58
328,305	42,67
328,518	-0,34
328,731	-57,68
328,944	5,8
329,157	89,77
329,37	34,47
329,583	171,69
329,796	196,26
330,009	-59,73
330,222	157,35
330,435	165,54
330,648	34,47
330,861	52,91
331,073	132,78
331,286	91,82
331,499	59,05
331,712	-14,68
331,925	-10,58
332,138	20,14
332,35	124,58
332,563	-76,12
332,776	143,02
332,989	-26,96
333,202	36,52
333,414	-12,63
333,627	30,38
333,84	-6,49
334,053	-2,39
334,265	-49,49
334,478	46,76
334,691	87,72
334,903	32,43
335,116	-29,01
335,329	20,14
335,541	95,91
335,754	188,07
335,966	5,8
336,179	22,19
336,392	30,38
336,604	48,81
336,817	143,02
337,029	91,82
337,242	-0,34
337,454	110,25
337,667	157,35
337,88	132,78
338,092	44,71
338,305	26,28
338,517	95,91
338,729	79,53
338,942	116,39
339,154	-24,92
339,367	-72,02
339,579	-20,82
339,792	-55,64
340,004	108,2
340,217	9,9
340,429	26,28
340,641	-26,96
340,854	-65,88
341,066	28,33
341,278	85,67
341,491	226,98
341,703	126,63
341,915	-0,34
342,128	85,67
342,34	114,34
342,552	59,05
342,764	136,87
342,977	83,63
343,189	79,53
343,401	77,48
343,613	69,29
343,826	67,24
344,038	26,28
344,25	100,01
344,462	11,95
344,674	87,72
344,886	57
345,099	108,2
345,311	75,43
345,523	11,95
345,735	-45,4
345,947	112,3
346,159	112,3
346,371	108,2
346,583	26,28
346,795	177,83
347,007	30,38
347,219	120,49
347,431	42,67
347,643	216,74
347,855	-0,34
348,067	134,82
348,279	-94,55
348,491	44,71
348,703	46,76
348,915	-18,77
349,127	-31,06
349,339	63,15
349,551	-59,73
349,763	198,31
349,975	5,8
350,187	108,2
350,399	112,3
350,61	106,15
350,822	1,71
351,034	75,43
351,246	-0,34
351,458	124,58
351,669	100,01
351,881	165,54
352,093	167,59
352,305	128,68
352,517	153,26
352,728	169,64
352,94	24,23
353,152	83,63
353,363	5,8
353,575	46,76
353,787	200,36
353,999	104,11
354,21	241,32
354,422	9,9
354,633	85,67
354,845	83,63
355,057	-37,2
355,268	118,44
355,48	134,82
355,692	-63,83
355,903	-0,34
356,115	81,58
356,326	-78,16
356,538	69,29
356,749	93,87
356,961	167,59
357,172	48,81
357,384	-31,06
357,595	261,8
357,807	-49,49
358,018	-18,77
358,23	67,24
358,441	120,49
358,653	85,67
358,864	91,82
359,075	-4,44
359,287	20,14
359,498	128,68
359,709	22,19
359,921	95,91
360,132	104,11
360,344	102,06
360,555	1,71
360,766	81,58
360,977	26,28
361,189	110,25
361,4	32,43
361,611	136,87
361,823	220,84
362,034	73,39
362,245	-31,06
362,456	28,33
362,667	120,49
362,879	13,99
363,09	106,15
363,301	65,19
363,512	67,24
363,723	61,1
363,935	36,52
364,146	102,06
364,357	85,67
364,568	57
364,779	-59,73
364,99	173,74
365,201	-8,53
365,412	63,15
365,623	-29,01
365,834	79,53
366,045	52,91
366,256	-4,44
366,467	77,48
366,678	61,1
366,889	9,9
367,1	-6,49
367,311	192,17
367,522	34,47
367,733	120,49
367,944	104,11
368,155	36,52
368,366	175,78
368,577	89,77
368,788	171,69
368,999	9,9
369,209	44,71
369,42	192,17
369,631	218,79
369,842	87,72
370,053	-37,2
370,264	173,74
370,474	9,9
370,685	149,16
370,896	13,99
371,107	93,87
371,317	91,82
371,528	63,15
371,739	149,16
371,95	52,91
372,16	69,29
372,371	28,33
372,582	42,67
372,792	124,58
373,003	83,63
373,214	140,97
373,424	93,87
373,635	79,53
373,846	153,26
374,056	75,43
374,267	116,39
374,477	69,29
374,688	-12,63
374,898	73,39
375,109	61,1
375,319	89,77
375,53	198,31
375,74	143,02
375,951	67,24
376,161	106,15
376,372	204,46
376,582	-14,68
376,793	32,43
377,003	-4,44
377,214	-22,87
377,424	85,67
377,635	36,52
377,845	28,33
378,055	202,41
378,266	30,38
378,476	65,19
378,686	81,58
378,897	83,63
379,107	71,34
379,317	157,35
379,528	-26,96
379,738	192,17
379,948	-22,87
380,158	130,73
380,369	40,62
380,579	-12,63
380,789	106,15
380,999	159,4
381,21	171,69
381,42	85,67
381,63	34,47
381,84	102,06
382,05	149,16
382,261	177,83
382,471	186,02
382,681	11,95
382,891	132,78
383,101	140,97
383,311	24,23
383,521	79,53
383,731	114,34
383,941	157,35
384,151	108,2
384,361	13,99
384,571	102,06
384,781	143,02
384,991	235,18
385,201	194,22
385,411	42,67
385,621	114,34
385,831	188,07
386,041	44,71
386,251	75,43
386,461	157,35
386,671	-2,39
386,881	155,3
387,091	28,33
387,301	163,5
387,511	54,95
387,72	26,28
387,93	151,21
388,14	3,75
388,35	65,19
388,56	87,72
388,769	188,07
388,979	40,62
389,189	38,57
389,399	3,75
389,609	40,62
389,818	132,78
390,028	52,91
390,238	42,67
390,447	-6,49
390,657	100,01
390,867	-18,77
391,076	-37,2
391,286	87,72
391,496	79,53
391,705	-20,82
391,915	128,68
392,125	106,15
392,334	118,44
392,544	151,21
392,753	97,96
392,963	-67,92
393,172	18,09
393,382	63,15
393,591	288,42
393,801	34,47
394,01	181,93
394,22	116,39
394,429	67,24
394,639	102,06
394,848	124,58
395,058	89,77
395,267	11,95
395,477	159,4
395,686	81,58
395,895	255,65
396,105	269,99
396,314	126,63
396,524	151,21
396,733	87,72
396,942	239,27
397,152	132,78
397,361	206,5
397,57	163,5
397,78	112,3
397,989	132,78
398,198	194,22
398,407	100,01
398,617	81,58
398,826	22,19
399,035	65,19
399,244	179,88
399,453	75,43
399,663	44,71
399,872	118,44
400,081	50,86
400,29	149,16
400,499	18,09
400,708	75,43
400,917	5,8
401,127	116,39
401,336	30,38
401,545	177,83
401,754	159,4
401,963	147,11
402,172	61,1
402,381	-43,35
402,59	83,63
402,799	28,33
403,008	69,29
403,217	83,63
403,426	97,96
403,635	13,99
403,844	-16,73
404,053	32,43
404,262	42,67
404,471	128,68
404,68	65,19
404,888	59,05
405,097	54,95
405,306	71,34
405,515	50,86
405,724	-47,44
405,933	161,45
406,142	52,91
406,35	206,5
406,559	50,86
406,768	52,91
406,977	173,74
407,185	65,19
407,394	85,67
407,603	-59,73
407,812	124,58
408,02	212,65
408,229	87,72
408,438	128,68
408,646	36,52
408,855	95,91
409,064	216,74
409,272	241,32
409,481	247,46
409,69	257,7
409,898	136,87
410,107	269,99
410,315	306,85
410,524	151,21
410,733	239,27
410,941	181,93
411,15	208,55
411,358	214,7
411,567	175,78
411,775	198,31
411,984	138,92
412,192	163,5
412,401	46,76
412,609	233,13
412,818	194,22
413,026	75,43
413,234	26,28
413,443	59,05
413,651	-14,68
413,86	59,05
414,068	151,21
414,276	194,22
414,485	5,8
414,693	75,43
414,901	186,02
415,11	50,86
415,318	67,24
415,526	48,81
415,734	112,3
415,943	122,54
416,151	138,92
416,359	13,99
416,567	46,76
416,776	157,35
416,984	77,48
417,192	249,51
417,4	59,05
417,608	-10,58
417,817	59,05
418,025	124,58
418,233	100,01
418,441	13,99
418,649	-67,92
418,857	79,53
419,065	173,74
419,273	1,71
419,481	75,43
419,689	18,09
419,897	-10,58
420,105	-26,96
420,313	85,67
420,521	206,5
420,729	132,78
420,937	-43,35
421,145	-69,97
421,353	163,5
421,561	198,31
421,769	114,34
421,977	-12,63
422,185	120,49
422,393	59,05
422,601	157,35
422,809	22,19
423,017	30,38
423,224	69,29
423,432	202,41
423,64	26,28
423,848	97,96
424,056	-10,58
424,263	79,53
424,471	13,99
424,679	161,45
424,887	-4,44
425,094	163,5
425,302	140,97
425,51	38,57
425,718	159,4
425,925	46,76
426,133	-45,4
426,341	177,83
426,548	63,15
426,756	71,34
426,964	79,53
427,171	-49,49
427,379	85,67
427,586	52,91
427,794	112,3
428,001	173,74
428,209	42,67
428,417	93,87
428,624	36,52
428,832	48,81
429,039	-6,49
429,247	42,67
429,454	44,71
429,662	134,82
429,869	91,82
430,076	54,95
430,284	134,82
430,491	91,82
430,699	59,05
430,906	249,51
431,114	102,06
431,321	91,82
431,528	61,1
431,736	130,73
431,943	93,87
432,15	222,89
432,358	304,81
432,565	396,96
432,772	269,99
432,979	605,86
433,187	554,66
433,394	880,29
433,601	822,94
433,808	1007,26
434,016	1080,99
434,223	894,62
434,43	904,86
434,637	814,75
434,844	765,6
435,052	571,04
435,259	521,89
435,466	435,88
435,673	292,52
435,88	278,18
436,087	294,57
436,294	274,09
436,501	110,25
436,708	40,62
436,915	87,72
437,122	186,02
437,329	52,91
437,537	26,28
437,743	28,33
437,95	128,68
438,157	30,38
438,364	65,19
438,571	63,15
438,778	138,92
438,985	42,67
439,192	18,09
439,399	75,43
439,606	50,86
439,813	85,67
440,02	114,34
440,227	245,41
440,433	118,44
440,64	91,82
440,847	-37,2
441,054	30,38
441,261	112,3
441,467	130,73
441,674	-47,44
441,881	67,24
442,088	26,28
442,294	169,64
442,501	102,06
442,708	124,58
442,914	11,95
443,121	3,75
443,328	57
443,534	11,95
443,741	67,24
443,948	-35,16
444,154	61,1
444,361	257,7
444,568	36,52
444,774	91,82
444,981	-29,01
445,187	194,22
445,394	52,91
445,6	-94,55
445,807	85,67
446,013	61,1
446,22	-67,92
446,426	28,33
446,633	67,24
446,839	167,59
447,046	-39,25
447,252	130,73
447,459	5,8
447,665	-72,02
447,871	91,82
448,078	140,97
448,284	87,72
448,491	79,53
448,697	50,86
448,903	81,58
449,11	44,71
449,316	-18,77
449,522	63,15
449,728	85,67
449,935	93,87
450,141	75,43
450,347	61,1
450,553	36,52
450,76	40,62
450,966	75,43
451,172	59,05
451,378	61,1
451,584	97,96
451,791	140,97
451,997	48,81
452,203	-12,63
452,409	108,2
452,615	145,06
452,821	32,43
453,027	-47,44
453,233	130,73
453,44	34,47
453,646	-45,4
453,852	30,38
454,058	-61,78
454,264	91,82
454,47	192,17
454,676	63,15
454,882	69,29
455,088	75,43
455,294	26,28
455,5	177,83
455,705	149,16
455,911	26,28
456,117	9,9
456,323	36,52
456,529	73,39
456,735	26,28
456,941	9,9
457,147	91,82
457,352	149,16
457,558	-0,34
457,764	122,54
457,97	-12,63
458,176	108,2
458,381	87,72
458,587	179,88
458,793	48,81
458,999	34,47
459,204	5,8
459,41	-41,3
459,616	61,1
459,821	91,82
460,027	-35,16
460,233	93,87
460,438	140,97
460,644	42,67
460,85	59,05
461,055	3,75
461,261	157,35
461,466	63,15
461,672	48,81
461,878	67,24
462,083	161,45
462,289	-51,54
462,494	3,75
462,7	120,49
462,905	54,95
463,111	124,58
463,316	116,39
463,522	102,06
463,727	26,28
463,932	106,15
464,138	75,43
464,343	112,3
464,549	71,34
464,754	179,88
464,959	190,12
465,165	44,71
465,37	110,25
465,575	110,25
465,781	46,76
465,986	1,71
466,191	71,34
466,397	57
466,602	247,46
466,807	106,15
467,012	48,81
467,218	136,87
467,423	36,52
467,628	79,53
467,833	22,19
468,038	48,81
468,244	-43,35
468,449	13,99
468,654	93,87
468,859	65,19
469,064	93,87
469,269	61,1
469,474	63,15
469,679	194,22
469,885	116,39
470,09	89,77
470,295	46,76
470,5	16,04
470,705	79,53
470,91	42,67
471,115	151,21
471,32	-24,92
471,525	159,4
471,73	153,26
471,935	28,33
472,139	-18,77
472,344	-72,02
472,549	30,38
472,754	104,11
472,959	87,72
473,164	44,71
473,369	97,96
473,574	100,01
473,778	18,09
473,983	153,26
474,188	50,86
474,393	36,52
474,598	7,85
474,802	120,49
475,007	20,14
475,212	181,93
475,417	32,43
475,621	188,07
475,826	26,28
476,031	83,63
476,235	118,44
476,44	-31,06
476,645	91,82
476,849	5,8
477,054	-10,58
477,259	46,76
477,463	163,5
477,668	251,56
477,872	75,43
478,077	26,28
478,282	-31,06
478,486	97,96
478,691	59,05
478,895	87,72
479,1	151,21
479,304	165,54
479,509	79,53
479,713	208,55
479,918	112,3
480,122	13,99
480,326	136,87
480,531	52,91
480,735	77,48
480,94	100,01
481,144	59,05
481,348	130,73
481,553	165,54
481,757	71,34
481,961	13,99
482,166	-12,63
482,37	71,34
482,574	61,1
482,778	67,24
482,983	147,11
483,187	48,81
483,391	126,63
483,595	183,98
483,8	460,45
484,004	847,52
484,208	1255,06
484,412	2188,94
484,616	3176,06
484,821	4548,2
485,025	6073,93
485,229	7458,36
485,433	8666,66
485,637	10108,43
485,841	10436,11
486,045	10993,15
486,249	10767,88
486,453	10087,95
486,657	9188,89
486,861	7720,5
487,065	6602,31
487,269	5639,76
487,473	4343,4
487,677	3825,26
487,881	3225,21
488,085	2315,91
488,289	1775,25
488,493	1320,6
488,697	1009,31
488,901	622,24
489,105	464,55
489,309	331,43
489,512	261,8
489,716	226,98
489,92	140,97
490,124	220,84
490,328	267,94
490,531	114,34
490,735	233,13
490,939	26,28
491,143	93,87
491,346	138,92
491,55	38,57
491,754	85,67
491,958	59,05
492,161	124,58
492,365	57
492,569	130,73
492,772	136,87
492,976	188,07
493,18	67,24
493,383	91,82
493,587	34,47
493,79	132,78
493,994	13,99
494,197	3,75
494,401	85,67
494,605	32,43
494,808	34,47
495,012	106,15
495,215	196,26
495,419	194,22
495,622	5,8
495,825	34,47
496,029	100,01
496,232	171,69
496,436	20,14
496,639	155,3
496,843	59,05
497,046	9,9
497,249	192,17
497,453	102,06
497,656	-65,88
497,859	69,29
498,063	165,54
498,266	83,63
498,469	-26,96
498,673	-14,68
498,876	-20,82
499,079	1,71
499,282	3,75
499,485	198,31
499,689	36,52
499,892	114,34
500,095	79,53
500,298	36,52
500,501	11,95
500,705	30,38
500,908	116,39
501,111	57
501,314	136,87
501,517	145,06
501,72	-18,77
501,923	11,95
502,126	26,28
502,329	181,93
502,532	34,47
502,735	-22,87
502,938	108,2
503,141	145,06
503,344	-0,34
503,547	112,3
503,75	52,91
503,953	-63,83
504,156	108,2
504,359	87,72
504,562	34,47
504,765	26,28
504,968	87,72
505,17	42,67
505,373	104,11
505,576	149,16
505,779	34,47
505,982	-33,11
506,185	89,77
506,387	32,43
506,59	95,91
506,793	44,71
506,996	-31,06
507,198	93,87
507,401	161,45
507,604	151,21
507,807	-8,53
508,009	-0,34
508,212	112,3
508,415	-14,68
508,617	65,19
508,82	52,91
509,022	-0,34
509,225	-2,39
509,428	32,43
509,63	40,62
509,833	-29,01
510,035	188,07
510,238	171,69
510,44	-69,97
510,643	32,43
510,845	65,19
511,048	140,97
511,25	-6,49
511,453	104,11
511,655	124,58
511,858	85,67
512,06	265,89
512,262	-33,11
512,465	26,28
512,667	71,34
512,87	-41,3
513,072	108,2
513,274	122,54
513,477	-18,77
513,679	44,71
513,881	48,81
514,084	-12,63
514,286	97,96
514,488	97,96
514,69	18,09
514,893	-63,83
515,095	-14,68
515,297	-69,97
515,499	110,25
515,701	22,19
515,904	93,87
516,106	110,25
516,308	32,43
516,51	81,58
516,712	81,58
516,914	95,91
517,116	50,86
517,318	-76,12
517,52	-10,58
517,722	71,34
517,925	20,14
518,127	3,75
518,329	175,78
518,531	-100,69
518,733	46,76
518,935	-16,73
519,136	128,68
519,338	-10,58
519,54	63,15
519,742	171,69
519,944	87,72
520,146	40,62
520,348	5,8
520,55	75,43
520,752	28,33
520,954	38,57
521,155	34,47
521,357	5,8
521,559	120,49
521,761	97,96
521,963	108,2
522,164	73,39
522,366	48,81
522,568	44,71
522,77	110,25
522,971	157,35
523,173	-16,73
523,375	112,3
523,576	-33,11
523,778	13,99
523,98	-26,96
524,181	52,91
524,383	85,67
524,584	-22,87
524,786	71,34
524,988	-78,16
525,189	59,05
525,391	67,24
525,592	-47,44
525,794	1,71
525,995	-22,87
526,197	44,71
526,398	247,46
526,6	63,15
526,801	59,05
527,003	-76,12
527,204	-24,92
527,406	67,24
527,607	11,95
527,808	-35,16
528,01	106,15
528,211	106,15
528,412	-72,02
528,614	165,54
528,815	118,44
529,016	91,82
529,218	85,67
529,419	18,09
529,62	13,99
529,822	34,47
530,023	75,43
530,224	38,57
530,425	79,53
530,626	38,57
530,828	28,33
531,029	3,75
531,23	77,48
531,431	-45,4
531,632	140,97
531,833	54,95
532,035	-63,83
532,236	67,24
532,437	138,92
532,638	-98,64
532,839	-22,87
533,04	54,95
533,241	81,58
533,442	7,85
533,643	50,86
533,844	-53,59
534,045	-45,4
534,246	22,19
534,447	-14,68
534,648	30,38
534,849	108,2
535,05	-6,49
535,251	3,75
535,451	157,35
535,652	11,95
535,853	13,99
536,054	71,34
536,255	67,24
536,456	42,67
536,657	7,85
536,857	63,15
537,058	106,15
537,259	1,71
537,46	-20,82
537,66	1,71
537,861	11,95
538,062	-6,49
538,263	-104,79
538,463	59,05
538,664	50,86
538,865	-16,73
539,065	48,81
539,266	118,44
539,466	-78,16
539,667	95,91
539,868	-29,01
540,068	36,52
540,269	28,33
540,469	57
540,67	100,01
540,87	147,11
541,071	3,75
541,271	106,15
541,472	102,06
541,672	140,97
541,873	81,58
542,073	87,72
542,274	85,67
542,474	91,82
542,675	85,67
542,875	7,85
543,075	-39,25
543,276	1,71
543,476	57
543,676	65,19
543,877	-8,53
544,077	97,96
544,277	95,91
544,478	63,15
544,678	18,09
544,878	-16,73
545,078	65,19
545,279	28,33
545,479	32,43
545,679	-10,58
545,879	20,14
546,079	13,99
546,28	-76,12
546,48	75,43
546,68	167,59
546,88	38,57
547,08	128,68
547,28	83,63
547,48	3,75
547,68	106,15
547,88	26,28
548,081	26,28
548,281	-82,26
548,481	-22,87
548,681	79,53
548,881	50,86
549,081	52,91
549,28	87,72
549,48	81,58
549,68	126,63
549,88	50,86
550,08	-45,4
550,28	-18,77
550,48	188,07
550,68	11,95
550,88	75,43
551,08	-12,63
551,279	124,58
551,479	9,9
551,679	112,3
551,879	-20,82
552,079	44,71
552,278	124,58
552,478	169,64
552,678	18,09
552,878	54,95
553,077	-43,35
553,277	40,62
553,477	59,05
553,676	169,64
553,876	69,29
554,076	-14,68
554,275	159,4
554,475	36,52
554,674	20,14
554,874	59,05
555,074	-2,39
555,273	44,71
555,473	5,8
555,672	79,53
555,872	46,76
556,071	42,67
556,271	124,58
556,47	79,53
556,67	13,99
556,869	3,75
557,068	61,1
557,268	-10,58
557,467	-41,3
557,667	81,58
557,866	24,23
558,065	79,53
558,265	54,95
558,464	3,75
558,663	54,95
558,863	83,63
559,062	36,52
559,261	42,67
559,461	81,58
559,66	46,76
559,859	-51,54
560,058	-65,88
560,258	-63,83
560,457	9,9
560,656	200,36
560,855	-59,73
561,054	157,35
561,253	63,15
561,453	71,34
561,652	-29,01
561,851	26,28
562,05	11,95
562,249	-29,01
562,448	42,67
562,647	-43,35
562,846	91,82
563,045	1,71
563,244	46,76
563,443	93,87
563,642	-4,44
563,841	38,57
564,04	57
564,239	18,09
564,438	85,67
564,637	-131,41
564,836	83,63
565,035	5,8
565,234	-43,35
565,432	73,39
565,631	40,62
565,83	3,75
566,029	-98,64
566,228	-61,78
566,427	149,16
566,625	-67,92
566,824	91,82
567,023	11,95
567,222	128,68
567,42	26,28
567,619	-12,63
567,818	22,19
568,016	116,39
568,215	42,67
568,414	118,44
568,612	63,15
568,811	44,71
569,01	44,71
569,208	3,75
569,407	128,68
569,605	83,63
569,804	106,15
570,002	194,22
570,201	-6,49
570,4	183,98
570,598	138,92
570,797	61,1
570,995	5,8
571,193	91,82
571,392	69,29
571,59	-2,39
571,789	183,98
571,987	206,5
572,186	149,16
572,384	46,76
572,582	77,48
572,781	151,21
572,979	-47,44
573,177	124,58
573,376	108,2
573,574	128,68
573,772	26,28
573,971	69,29
574,169	-61,78
574,367	38,57
574,565	36,52
574,763	30,38
574,962	120,49
575,16	140,97
575,358	59,05
575,556	100,01
575,754	77,48
575,952	38,57
576,151	161,45
576,349	91,82
576,547	-39,25
576,745	77,48
576,943	196,26
577,141	83,63
577,339	-4,44
577,537	79,53
577,735	153,26
577,933	165,54
578,131	-26,96
578,329	247,46
578,527	61,1
578,725	151,21
578,923	-2,39
579,121	83,63
579,319	-29,01
579,516	-14,68
579,714	370,34
579,912	188,07
580,11	61,1
580,308	171,69
580,506	89,77
580,704	34,47
580,901	89,77
581,099	208,55
581,297	112,3
581,495	153,26
581,692	102,06
581,89	310,95
582,088	132,78
582,285	161,45
582,483	120,49
582,681	145,06
582,878	140,97
583,076	128,68
583,274	85,67
583,471	296,61
583,669	79,53
583,866	65,19
584,064	81,58
584,262	26,28
584,459	5,8
584,657	81,58
584,854	161,45
585,052	83,63
585,249	114,34
585,447	122,54
585,644	91,82
585,841	206,5
586,039	102,06
586,236	224,94
586,434	38,57
586,631	28,33
586,828	69,29
587,026	151,21
587,223	-2,39
587,42	54,95
587,618	130,73
587,815	208,55
588,012	93,87
588,21	65,19
588,407	159,4
588,604	138,92
588,801	120,49
588,999	34,47
589,196	216,74
589,393	18,09
589,59	95,91
589,787	59,05
589,984	48,81
590,182	102,06
590,379	-16,73
590,576	85,67
590,773	67,24
590,97	42,67
591,167	65,19
591,364	192,17
591,561	28,33
591,758	200,36
591,955	165,54
592,152	26,28
592,349	46,76
592,546	46,76
592,743	28,33
592,94	52,91
593,137	108,2
593,334	153,26
593,531	132,78
593,727	140,97
593,924	106,15
594,121	79,53
594,318	57
594,515	134,82
594,712	247,46
594,908	222,89
595,105	-53,59
595,302	157,35
595,499	167,59
595,696	259,75
595,892	46,76
596,089	188,07
596,286	-10,58
596,482	233,13
596,679	57
596,876	3,75
597,072	149,16
597,269	108,2
597,466	124,58
597,662	151,21
597,859	71,34
598,055	69,29
598,252	177,83
598,448	91,82
598,645	183,98
598,841	116,39
599,038	175,78
599,234	220,84
599,431	143,02
599,627	71,34
599,824	93,87
600,02	40,62
600,217	48,81
600,413	124,58
600,609	89,77
600,806	220,84
601,002	186,02
601,198	-0,34
601,395	145,06
601,591	85,67
601,787	42,67
601,984	132,78
602,18	173,74
602,376	91,82
602,572	145,06
602,769	165,54
602,965	87,72
603,161	222,89
603,357	120,49
603,553	151,21
603,75	-47,44
603,946	38,57
604,142	59,05
604,338	261,8
604,534	30,38
604,73	57
604,926	112,3
605,122	159,4
605,318	59,05
605,514	108,2
605,71	48,81
605,906	194,22
606,102	-4,44
606,298	124,58
606,494	112,3
606,69	251,56
606,886	67,24
607,082	44,71
607,278	36,52
607,474	196,26
607,67	118,44
607,866	-57,68
608,062	200,36
608,257	122,54
608,453	-2,39
608,649	183,98
608,845	44,71
609,041	16,04
609,236	104,11
609,432	132,78
609,628	75,43
609,824	54,95
610,019	-31,06
610,215	30,38
610,411	147,11
610,606	159,4
610,802	-61,78
610,998	59,05
611,193	75,43
611,389	-0,34
611,584	151,21
611,78	9,9
611,976	89,77
612,171	245,41
612,367	136,87
612,562	106,15
612,758	46,76
612,953	-55,64
613,149	-12,63
613,344	79,53
613,539	18,09
613,735	118,44
613,93	83,63
614,126	75,43
614,321	63,15
614,517	204,46
614,712	93,87
614,907	181,93
615,103	147,11
615,298	73,39
615,493	83,63
615,688	3,75
615,884	48,81
616,079	102,06
616,274	34,47
616,47	-29,01
616,665	79,53
616,86	97,96
617,055	-24,92
617,25	-33,11
617,445	16,04
617,641	59,05
617,836	-10,58
618,031	28,33
618,226	50,86
618,421	138,92
618,616	-24,92
618,811	11,95
619,006	-88,4
619,201	157,35
619,396	59,05
619,591	-18,77
619,786	40,62
619,981	77,48
620,176	24,23
620,371	-39,25
620,566	7,85
620,761	138,92
620,956	46,76
621,151	69,29
621,346	71,34
621,541	67,24
621,735	67,24
621,93	-6,49
622,125	42,67
622,32	-22,87
622,515	-110,93
622,709	196,26
622,904	22,19
623,099	83,63
623,294	116,39
623,488	36,52
623,683	138,92
623,878	136,87
624,072	81,58
624,267	-45,4
624,462	1,71
624,656	-47,44
624,851	130,73
625,046	-8,53
625,24	9,9
625,435	24,23
625,629	87,72
625,824	147,11
626,018	69,29
626,213	87,72
626,407	-16,73
626,602	79,53
626,796	-47,44
626,991	110,25
627,185	22,19
627,38	-12,63
627,574	122,54
627,768	114,34
627,963	73,39
628,157	34,47
628,352	-65,88
628,546	-67,92
628,74	-26,96
628,935	1,71
629,129	87,72
629,323	155,3
629,517	-31,06
629,712	120,49
629,906	46,76
630,1	124,58
630,294	134,82
630,489	40,62
630,683	5,8
630,877	-47,44
631,071	108,2
631,265	-61,78
631,459	28,33
631,653	69,29
631,848	34,47
632,042	20,14
632,236	9,9
632,43	118,44
632,624	77,48
632,818	54,95
633,012	190,12
633,206	63,15
633,4	20,14
633,594	157,35
633,788	38,57
633,982	97,96
634,176	212,65
634,369	52,91
634,563	11,95
634,757	-41,3
634,951	124,58
635,145	149,16
635,339	7,85
635,533	104,11
635,726	157,35
635,92	79,53
636,114	5,8
636,308	20,14
636,501	79,53
636,695	42,67
636,889	-51,54
637,083	67,24
637,276	1,71
637,47	-80,21
637,664	22,19
637,857	83,63
638,051	65,19
638,244	75,43
638,438	3,75
638,632	222,89
638,825	-57,68
639,019	159,4
639,212	-55,64
639,406	120,49
639,599	-63,83
639,793	130,73
639,986	34,47
640,18	124,58
640,373	13,99
640,567	71,34
640,76	149,16
640,954	69,29
641,147	-12,63
641,34	28,33
641,534	124,58
641,727	108,2
641,92	57
642,114	42,67
642,307	46,76
642,5	124,58
642,694	7,85
642,887	67,24
643,08	181,93
643,273	108,2
643,467	-2,39
643,66	-31,06
643,853	-4,44
644,046	69,29
644,239	59,05
644,432	3,75
644,626	-35,16
644,819	32,43
645,012	89,77
645,205	57
645,398	153,26
645,591	28,33
645,784	18,09
645,977	24,23
646,17	59,05
646,363	-31,06
646,556	48,81
646,749	26,28
646,942	16,04
647,135	136,87
647,328	75,43
647,521	32,43
647,714	110,25
647,907	145,06
648,099	-18,77
648,292	108,2
648,485	106,15
648,678	85,67
648,871	81,58
649,064	128,68
649,256	-55,64
649,449	5,8
649,642	-29,01
649,835	11,95
650,027	77,48
650,22	136,87
650,413	91,82
650,605	79,53
650,798	36,52
650,991	124,58
651,183	26,28
651,376	132,78
651,568	159,4
651,761	161,45
651,954	263,85
652,146	120,49
652,339	272,04
652,531	206,5
652,724	77,48
652,916	132,78
653,109	13,99
653,301	194,22
653,494	157,35
653,686	206,5
653,879	224,94
654,071	269,99
654,263	308,9
654,456	601,76
654,648	2281,1
654,84	6903,36
655,033	15244,74
655,225	26096,92
655,417	37489,77
655,61	48661,44
655,802	56675,15
655,994	61285,12
656,186	62685,93
656,379	59937,56
656,571	56234,83
656,763	50283,44
656,955	45892,59
657,148	41890,86
657,34	37690,48
657,532	33932,45
657,724	30510,3
657,916	26799,38
658,108	23162,19
658,3	19322,24
658,492	16082,36
658,684	13190,63
658,876	10890,76
659,068	8721,96
659,26	6721,09
659,452	5054,05
659,644	3737,2
659,836	2754,18
660,028	1869,45
660,22	1224,34
660,412	882,33
660,604	683,68
660,796	605,86
660,988	530,08
661,18	468,64
661,372	396,96
661,563	272,04
661,755	179,88
661,947	169,64
662,139	110,25
662,331	126,63
662,522	171,69
662,714	32,43
662,906	81,58
663,097	147,11
663,289	18,09
663,481	-18,77
663,673	177,83
663,864	145,06
664,056	65,19
664,247	36,52
664,439	145,06
664,631	73,39
664,822	132,78
665,014	83,63
665,205	67,24
665,397	61,1
665,588	59,05
665,78	1,71
665,971	118,44
666,163	61,1
666,354	173,74
666,546	-10,58
666,737	28,33
666,929	-2,39
667,12	114,34
667,311	149,16
667,503	36,52
667,694	48,81
667,885	163,5
668,077	61,1
668,268	-45,4
668,459	1,71
668,651	69,29
668,842	48,81
669,033	-63,83
669,224	-96,6
669,416	224,94
669,607	-8,53
669,798	-22,87
669,989	159,4
670,18	59,05
670,371	149,16
670,563	-35,16
670,754	122,54
670,945	124,58
671,136	65,19
671,327	-51,54
671,518	118,44
671,709	116,39
671,9	42,67
672,091	97,96
672,282	87,72
672,473	132,78
672,664	-45,4
672,855	52,91
673,046	110,25
673,237	100,01
673,428	71,34
673,619	34,47
673,809	-12,63
674	165,54
674,191	108,2
674,382	-43,35
674,573	-29,01
674,764	26,28
674,954	85,67
675,145	-59,73
675,336	-8,53
675,527	-22,87
675,717	-29,01
675,908	81,58
676,099	-45,4
676,289	9,9
676,48	36,52
676,671	36,52
676,861	-2,39
677,052	16,04
677,243	-59,73
677,433	9,9
677,624	11,95
677,814	61,1
678,005	-35,16
678,195	93,87
678,386	-31,06
678,576	-0,34
678,767	-80,21
678,957	-10,58
679,148	28,33
679,338	128,68
679,529	50,86
679,719	-20,82
679,909	149,16
680,1	118,44
680,29	87,72
680,481	-100,69
680,671	93,87
680,861	67,24
681,052	-67,92
681,242	-12,63
681,432	93,87
681,622	46,76
681,813	-104,79
682,003	-29,01
682,193	-104,79
682,383	28,33
682,573	-69,97
682,764	-8,53
682,954	48,81
683,144	34,47
683,334	5,8
683,524	-6,49
683,714	52,91
683,904	61,1
684,094	9,9
684,284	-26,96
684,474	157,35
684,664	59,05
684,854	-24,92
685,044	38,57
685,234	1,71
685,424	50,86
685,614	-18,77
685,804	157,35
685,994	36,52
686,184	-43,35
686,374	52,91
686,564	34,47
686,753	54,95
686,943	-55,64
687,133	-61,78
687,323	-8,53
687,513	26,28
687,702	-0,34
687,892	32,43
688,082	108,2
688,272	87,72
688,461	-16,73
688,651	114,34
688,841	44,71
689,03	-67,92
689,22	-84,31
689,41	1,71
689,599	24,23
689,789	-22,87
689,979	124,58
690,168	1,71
690,358	67,24
690,547	38,57
690,737	46,76
690,926	24,23
691,116	38,57
691,305	79,53
691,495	87,72
691,684	-4,44
691,874	-14,68
692,063	-24,92
692,252	91,82
692,442	104,11
692,631	-72,02
692,82	-35,16
693,01	42,67
693,199	-18,77
693,388	-18,77
693,578	11,95
693,767	91,82
693,956	54,95
694,146	-33,11
694,335	61,1
694,524	-59,73
694,713	124,58
694,902	9,9
695,092	-14,68
695,281	69,29
695,47	-14,68
695,659	-4,44
695,848	-31,06
696,037	-72,02
696,226	75,43
696,415	-2,39
696,604	153,26
696,793	24,23
696,982	-22,87
697,171	214,7
697,36	-35,16
697,549	26,28
697,738	-82,26
697,927	-74,07
698,116	-59,73
698,305	30,38
698,494	-6,49
698,683	50,86
698,872	165,54
699,061	5,8
699,25	-63,83
699,438	59,05
699,627	-82,26
699,816	112,3
700,005	-78,16
700,193	1,71
700,382	77,48
700,571	102,06
700,76	61,1
700,948	13,99
701,137	65,19
701,326	69,29
701,514	-55,64
701,703	104,11
701,892	65,19
702,08	192,17
702,269	65,19
702,457	-98,64
702,646	59,05
702,834	36,52
703,023	112,3
703,212	75,43
703,4	32,43
703,589	-84,31
703,777	-37,2
703,965	34,47
704,154	3,75
704,342	44,71
704,531	46,76
704,719	36,52
704,907	128,68
705,096	-41,3
705,284	-55,64
705,472	83,63
705,661	24,23
705,849	-14,68
706,037	91,82
706,226	13,99
706,414	34,47
706,602	-4,44
706,79	83,63
706,979	-24,92
707,167	-20,82
707,355	-119,12
707,543	67,24
707,731	75,43
707,919	3,75
708,107	-2,39
708,296	-80,21
708,484	-112,98
708,672	24,23
708,86	77,48
709,048	42,67
709,236	-110,93
709,424	65,19
709,612	59,05
709,8	-72,02
709,988	61,1
710,176	-10,58
710,364	67,24
710,551	-39,25
710,739	-43,35
710,927	22,19
711,115	3,75
711,303	89,77
711,491	134,82
711,679	-112,98
711,866	114,34
712,054	-162,13
712,242	-16,73
712,43	155,3
712,617	-2,39
712,805	128,68
712,993	9,9
713,181	-61,78
713,368	69,29
713,556	-10,58
713,744	42,67
713,931	196,26
714,119	63,15
714,306	-35,16
714,494	-78,16
714,682	26,28
714,869	-147,8
715,057	-43,35
715,244	-102,74
715,432	63,15
715,619	9,9
715,807	1,71
715,994	9,9
716,182	34,47
716,369	79,53
716,556	5,8
716,744	-57,68
716,931	-135,51
717,119	9,9
717,306	38,57
717,493	-0,34
717,681	-90,45
717,868	-63,83
718,055	9,9
718,242	-18,77
718,43	112,3
718,617	81,58
718,804	-12,63
718,991	108,2
719,179	18,09
719,366	75,43
719,553	36,52
719,74	-49,49
719,927	-41,3
720,114	7,85
720,301	-88,4
720,488	-92,5
720,676	-82,26
720,863	79,53
721,05	120,49
721,237	65,19
721,424	69,29
721,611	93,87
721,798	-104,79
721,985	-29,01
722,172	11,95
722,358	-51,54
722,545	20,14
722,732	-57,68
722,919	91,82
723,106	-22,87
723,293	42,67
723,48	-12,63
723,667	-43,35
723,853	50,86
724,04	46,76
724,227	26,28
724,414	30,38
724,6	18,09
724,787	167,59
724,974	165,54
725,161	9,9
725,347	-72,02
725,534	-45,4
725,72	3,75
725,907	77,48
726,094	89,77
726,28	-37,2
726,467	-18,77
726,653	-137,56
726,84	69,29
727,027	102,06
727,213	9,9
727,4	85,67
727,586	75,43
727,773	46,76
727,959	-2,39
728,145	28,33
728,332	20,14
728,518	9,9
728,705	50,86
728,891	-78,16
729,077	-76,12
729,264	-96,6
729,45	28,33
729,636	46,76
729,823	28,33
730,009	108,2
730,195	-2,39
730,382	50,86
730,568	-45,4
730,754	59,05
730,94	-4,44
731,126	34,47
731,313	83,63
731,499	-39,25
731,685	67,24
731,871	65,19
732,057	3,75
732,243	73,39
732,429	-31,06
732,615	34,47
732,801	118,44
732,987	-29,01
733,173	34,47
733,359	-29,01
733,545	57
733,731	-14,68
733,917	52,91
734,103	7,85
734,289	44,71
734,475	-106,84
734,661	173,74
734,847	-53,59
735,033	-6,49
735,219	-0,34
735,404	-29,01
735,59	-16,73
735,776	-4,44
735,962	-0,34
736,148	-0,34
736,333	73,39
736,519	-14,68
736,705	18,09
736,89	-26,96
737,076	-14,68
737,262	-10,58
737,447	13,99
737,633	71,34
737,819	77,48
738,004	38,57
738,19	-49,49
738,375	26,28
738,561	67,24
738,747	-2,39
738,932	-102,74
739,118	181,93
739,303	102,06
739,489	77,48
739,674	-29,01
739,859	-69,97
740,045	59,05
740,23	87,72
740,416	-108,88
740,601	11,95
740,786	-35,16
740,972	26,28
741,157	-47,44
741,342	-20,82
741,528	-98,64
741,713	50,86
741,898	52,91
742,084	-84,31
742,269	-10,58
742,454	42,67
742,639	18,09
742,824	-24,92
743,01	124,58
743,195	128,68
743,38	34,47
743,565	59,05
743,75	50,86
743,935	100,01
744,12	110,25
744,305	-31,06
744,49	44,71
744,675	5,8
744,86	-6,49
745,045	22,19
745,23	75,43
745,415	-12,63
745,6	140,97
745,785	36,52
745,97	61,1
746,155	104,11
746,34	59,05
746,525	50,86
746,71	104,11
746,895	18,09
747,079	-67,92
747,264	-26,96
747,449	128,68
747,634	132,78
747,819	38,57
748,003	-6,49
748,188	-4,44
748,373	102,06
748,557	42,67
748,742	-45,4
748,927	34,47
749,111	42,67
749,296	18,09
749,481	143,02
749,665	28,33
749,85	3,75
750,034	46,76
750,219	-29,01
750,404	-41,3
750,588	34,47
750,773	-72,02
750,957	13,99
751,141	11,95
751,326	61,1
751,51	-110,93
751,695	1,71
751,879	-14,68
752,064	134,82
752,248	-33,11
752,432	118,44
752,617	50,86
752,801	159,4
752,985	-61,78
753,17	149,16
753,354	5,8
753,538	54,95
753,722	-139,6
753,907	-31,06
754,091	-135,51
754,275	61,1
754,459	-59,73
754,643	-61,78
754,828	73,39
755,012	46,76
755,196	-94,55
755,38	-18,77
755,564	16,04
755,748	50,86
755,932	79,53
756,116	190,12
756,3	73,39
756,484	-45,4
756,668	79,53
756,852	-141,65
757,036	36,52
757,22	61,1
757,404	-72,02
757,588	-37,2
757,772	-0,34
757,956	-18,77
758,14	112,3
758,323	-59,73
758,507	59,05
758,691	-16,73
758,875	46,76
759,059	79,53
759,242	-102,74
759,426	1,71
759,61	57
759,794	9,9
759,977	40,62
760,161	233,13
760,345	169,64
760,528	71,34
760,712	40,62
760,895	75,43
761,079	30,38
761,263	-65,88
761,446	-43,35
761,63	-31,06
761,813	108,2
761,997	-31,06
762,18	32,43
762,364	91,82
762,547	-84,31
762,731	-39,25
762,914	-37,2
763,098	-33,11
763,281	-49,49
763,464	3,75
763,648	13,99
763,831	-86,36
764,015	-51,54
764,198	124,58
764,381	34,47
764,564	34,47
764,748	59,05
764,931	52,91
765,114	-18,77
765,297	44,71
765,481	-63,83
765,664	-53,59
765,847	-55,64
766,03	102,06
766,213	-108,88
766,397	1,71
766,58	-129,36
766,763	34,47
766,946	-20,82
767,129	-14,68
767,312	-69,97
767,495	-41,3
767,678	-88,4
767,861	57
768,044	-26,96
768,227	-20,82
768,41	-51,54
768,593	-35,16
768,776	52,91
768,959	20,14
769,142	54,95
769,324	-47,44
769,507	28,33
769,69	-8,53
769,873	-31,06
770,056	226,98
770,239	-49,49
770,421	165,54
770,604	104,11
770,787	-35,16
770,97	108,2
771,152	-133,46
771,335	7,85
771,518	-51,54
771,7	50,86
771,883	75,43
772,066	-12,63
772,248	-4,44
772,431	153,26
772,613	61,1
772,796	-26,96
772,978	71,34
773,161	112,3
773,343	-31,06
773,526	-55,64
773,708	-33,11
773,891	-143,7
774,073	-29,01
774,256	-67,92
774,438	198,31
774,621	-63,83
774,803	63,15
774,985	11,95
775,168	54,95
775,35	-51,54
775,532	34,47
775,715	-39,25
775,897	100,01
776,079	-12,63
776,261	159,4
776,444	259,75
776,626	442,02
776,808	648,86
776,99	634,53
777,173	849,57
777,355	931,48
777,537	1025,69
777,719	951,96
777,901	798,37
778,083	665,25
778,265	575,14
778,447	722,59
778,629	478,88
778,811	536,23
778,993	452,26
779,175	425,64
779,357	265,89
779,539	149,16
779,721	239,27
779,903	95,91
780,085	67,24
780,267	167,59
780,449	114,34
780,631	116,39
780,812	194,22
780,994	40,62
781,176	7,85
781,358	-63,83
781,54	-4,44
781,721	54,95
781,903	83,63
782,085	-112,98
782,267	85,67
782,448	-102,74
782,63	34,47
782,812	116,39
782,993	38,57
783,175	52,91
783,357	-14,68
783,538	132,78
783,72	-72,02
783,901	-4,44
784,083	50,86
784,264	46,76
784,446	-59,73
784,627	-106,84
784,809	100,01
784,99	-76,12
785,172	26,28
785,353	-39,25
785,535	34,47
785,716	-45,4
785,897	-20,82
786,079	18,09
786,26	46,76
786,441	36,52
786,623	-67,92
786,804	-2,39
786,985	22,19
787,167	9,9
787,348	-65,88
787,529	-51,54
787,71	143,02
787,891	-24,92
788,073	-33,11
788,254	-65,88
788,435	192,17
788,616	18,09
788,797	-129,36
788,978	22,19
789,159	-2,39
789,34	24,23
789,522	63,15
789,703	-33,11
789,884	-47,44
790,065	-2,39
790,246	136,87
790,427	-16,73
790,607	108,2
790,788	-4,44
790,969	-76,12
791,15	69,29
791,331	-26,96
791,512	-104,79
791,693	-84,31
791,874	-18,77
792,054	163,5
792,235	67,24
792,416	-41,3
792,597	-86,36
792,778	7,85
792,958	46,76
793,139	-57,68
793,32	34,47
793,5	-76,12
793,681	42,67
793,862	79,53
794,042	-47,44
794,223	-69,97
794,404	-49,49
794,584	-108,88
794,765	54,95
794,945	34,47
795,126	-47,44
795,306	83,63
795,487	-35,16
795,667	5,8
795,848	-10,58
796,028	20,14
796,209	-43,35
796,389	-49,49
796,57	-69,97
796,75	-39,25
796,93	44,71
797,111	-80,21
797,291	-0,34
797,471	5,8
797,652	-84,31
797,832	-102,74
798,012	128,68
798,192	-76,12
798,373	-72,02
798,553	-12,63
798,733	85,67
798,913	-29,01
799,093	-45,4
799,274	-31,06
799,454	52,91
799,634	83,63
799,814	83,63
799,994	38,57
800,174	9,9
800,354	7,85
800,534	-108,88
800,714	75,43
800,894	-123,22
801,074	-170,32
801,254	-121,17
801,434	91,82
801,614	-67,92
801,794	-18,77
801,974	1871,5
802,154	-80,21
802,334	79,53
802,514	-82,26
802,693	-31,06
802,873	-39,25
803,053	9,9
803,233	95,91
803,413	28,33
803,592	-141,65
803,772	-147,8
803,952	13,99
804,131	-18,77
804,311	-16,73
804,491	50,86
804,67	-96,6
804,85	-72,02
805,03	61,1
805,209	134,82
805,389	-37,2
805,568	-100,69
805,748	1,71
805,928	-20,82
806,107	9,9
806,287	-12,63
806,466	3,75
806,646	1,71
806,825	-53,59
807,004	-20,82
807,184	-20,82
807,363	-6,49
807,543	16,04
807,722	-49,49
807,901	136,87
808,081	1,71
808,26	-123,22
808,439	-63,83
808,619	13,99
808,798	-61,78
808,977	-4,44
809,156	116,39
809,336	36,52
809,515	85,67
809,694	-131,41
809,873	-31,06
810,052	16,04
810,231	93,87
810,411	52,91
810,59	106,15
810,769	50,86
810,948	-14,68
811,127	-207,19
811,306	-6,49
811,485	-43,35
811,664	7,85
811,843	32,43
812,022	-80,21
812,201	-22,87
812,38	-61,78
812,559	-129,36
812,737	-20,82
812,916	-176,47
813,095	-86,36
813,274	81,58
813,453	5,8
813,632	34,47
813,811	40,62
813,989	-78,16
814,168	-39,25
814,347	-104,79
814,526	-6,49
814,704	102,06
814,883	75,43
815,062	-45,4
815,24	52,91
815,419	-168,27
815,598	18,09
815,776	-86,36
815,955	-39,25
816,133	-166,23
816,312	-67,92
816,49	-8,53
816,669	1,71
816,847	-22,87
817,026	59,05
817,204	-94,55
817,383	5,8
817,561	-65,88
817,74	1,71
817,918	-4,44
818,097	-39,25
818,275	-31,06
818,453	36,52
818,632	18,09
818,81	34,47
818,988	-22,87
819,167	-51,54
819,345	20,14
819,523	-67,92
819,701	-33,11
819,879	26,28
820,058	-29,01
820,236	-6,49
820,414	-18,77
820,592	-53,59
820,77	-104,79
820,948	-80,21
821,127	-49,49
821,305	44,71
821,483	-49,49
821,661	65,19
821,839	50,86
822,017	-37,2
822,195	-2,39
822,373	18,09
822,551	1,71
822,729	-16,73
822,907	-59,73
823,085	38,57
823,262	28,33
823,44	-22,87
823,618	-53,59
823,796	-108,88
823,974	-45,4
824,152	16,04
824,329	-14,68
824,507	-51,54
824,685	40,62
824,863	-82,26
825,04	-39,25
825,218	38,57
825,396	18,09
825,574	-37,2
825,751	7,85
825,929	63,15
826,107	1,71
826,284	52,91
826,462	77,48
826,639	-57,68
826,817	-53,59
826,994	-6,49
827,172	-141,65
827,349	7,85
827,527	18,09
827,704	42,67
827,882	50,86
828,059	-47,44
828,237	-96,6
828,414	-12,63
828,591	-174,42
828,769	11,95
828,946	-61,78
829,124	11,95
829,301	69,29
829,478	-82,26
829,655	9,9
829,833	28,33
830,01	-162,13
830,187	-10,58
830,364	20,14
830,542	-35,16
830,719	-12,63
830,896	63,15
831,073	-10,58
831,25	30,38
831,427	42,67
831,604	-63,83
831,782	-94,55
831,959	77,48
832,136	-14,68
832,313	20,14
832,49	-53,59
832,667	-37,2
832,844	-86,36
833,021	59,05
833,198	-43,35
833,374	44,71
833,551	-22,87
833,728	-86,36
833,905	-16,73
834,082	-47,44
834,259	38,57
834,436	69,29
834,612	-57,68
834,789	122,54
834,966	-12,63
835,143	-20,82
835,319	-141,65
835,496	61,1
835,673	-26,96
835,85	26,28
836,026	20,14
836,203	67,24
836,38	-45,4
836,556	-78,16
836,733	-72,02
836,909	85,67
837,086	-133,46
837,262	-110,93
837,439	-39,25
837,616	-22,87
837,792	-2,39
837,968	-10,58
838,145	-209,23
838,321	-53,59
838,498	32,43
838,674	104,11
838,851	77,48
839,027	-39,25
839,203	9,9
839,38	48,81
839,556	-57,68
839,732	110,25
839,909	-4,44
840,085	1,71
840,261	-104,79
840,437	-29,01
840,614	-43,35
840,79	38,57
840,966	-29,01
841,142	-67,92
841,318	-45,4
841,494	9,9
841,671	22,19
841,847	-63,83
842,023	-22,87
842,199	16,04
842,375	108,2
842,551	-115,03
842,727	-10,58
842,903	46,76
843,079	-82,26
843,255	91,82
843,431	-47,44
843,607	46,76
843,783	-29,01
843,959	204,46
844,134	181,93
844,31	396,96
844,486	198,31
844,662	288,42
844,838	298,66
845,013	280,23
845,189	259,75
845,365	276,13
845,541	179,88
845,716	165,54
845,892	177,83
846,068	-22,87
846,244	48,81
846,419	136,87
846,595	61,1
846,77	-4,44
846,946	202,41
847,122	54,95
847,297	-20,82
847,473	177,83
847,648	-29,01
847,824	85,67
847,999	-35,16
848,175	16,04
848,35	83,63
848,526	183,98
848,701	34,47
848,876	91,82
849,052	128,68
849,227	-106,84
849,403	-55,64
849,578	-10,58
849,753	-14,68
849,929	36,52
850,104	-90,45
850,279	-12,63
850,454	-6,49
850,63	-4,44
850,805	77,48
850,98	9,9
851,155	-72,02
851,33	30,38
851,505	-117,08
851,681	83,63
851,856	-119,12
852,031	102,06
852,206	1,71
852,381	-137,56
852,556	-63,83
852,731	42,67
852,906	18,09
853,081	-4,44
853,256	81,58
853,431	-37,2
853,606	-78,16
853,781	-88,4
853,956	-155,99
854,131	77,48
854,305	-51,54
854,48	-4,44
854,655	-104,79
854,83	-96,6
855,005	9,9
855,18	-24,92
855,354	24,23
855,529	-16,73
855,704	-84,31
855,879	102,06
856,053	-92,5
856,228	-4,44
856,403	-59,73
856,577	-31,06
856,752	-88,4
856,926	-29,01
857,101	87,72
857,276	-121,17
857,45	75,43
857,625	83,63
857,799	-4,44
857,974	54,95
858,148	-74,07
858,323	59,05
858,497	-49,49
858,672	-100,69
858,846	-59,73
859,02	73,39
859,195	-121,17
859,369	-78,16
859,543	-4,44
859,718	67,24
859,892	-61,78
860,066	57
860,241	-41,3
860,415	-110,93
860,589	-37,2
860,763	-14,68
860,938	-49,49
861,112	5,8
861,286	-20,82
861,46	-14,68
861,634	-53,59
861,808	32,43
861,982	-33,11
862,157	-80,21
862,331	-10,58
862,505	-35,16
862,679	-98,64
862,853	-80,21
863,027	-49,49
863,201	179,88
863,375	-39,25
863,549	-31,06
863,722	124,58
863,896	32,43
864,07	-190,8
864,244	-47,44
864,418	42,67
864,592	-22,87
864,766	-6,49
864,939	3,75
865,113	-63,83
865,287	38,57
865,461	-86,36
865,634	-49,49
865,808	-26,96
865,982	-104,79
866,156	-41,3
866,329	-160,08
866,503	-20,82
866,676	83,63
866,85	59,05
867,024	-55,64
867,197	75,43
867,371	48,81
867,544	11,95
867,718	-31,06
867,891	71,34
868,065	-162,13
868,238	52,91
868,412	48,81
868,585	-6,49
868,759	-22,87
868,932	-41,3
869,105	-90,45
869,279	-14,68
869,452	-98,64
869,625	52,91
869,799	22,19
869,972	-98,64
870,145	52,91
870,319	28,33
870,492	-33,11
870,665	-63,83
870,838	-151,89
871,011	-162,13
871,185	-72,02
871,358	-39,25
871,531	9,9
871,704	-74,07
871,877	61,1
872,05	-61,78
872,223	-35,16
872,396	-4,44
872,569	-12,63
872,742	-135,51
872,915	-8,53
873,088	-29,01
873,261	-92,5
873,434	32,43
873,607	-8,53
873,78	46,76
873,953	-102,74
874,126	16,04
874,299	50,86
874,471	-16,73
874,644	-55,64
874,817	-6,49
874,99	91,82
875,163	1,71
875,335	65,19
875,508	-43,35
875,681	95,91
875,853	3,75
876,026	-63,83
876,199	40,62
876,371	-14,68
876,544	-37,2
876,717	32,43
876,889	20,14
877,062	91,82
877,234	-22,87
877,407	-94,55
877,579	-29,01
877,752	20,14
877,924	71,34
878,097	-10,58
878,269	20,14
878,442	20,14
878,614	-22,87
878,786	-6,49
878,959	-31,06
879,131	5,8
879,303	-160,08
879,476	5,8
879,648	110,25
879,82	-112,98
879,993	11,95
880,165	-47,44
880,337	-176,47
880,509	-26,96
880,681	-160,08
880,854	-82,26
881,026	59,05
881,198	112,3
881,37	-33,11
881,542	-33,11
881,714	-33,11
881,886	-84,31
882,058	26,28
882,23	59,05
882,402	-82,26
882,574	11,95
882,746	13,99
882,918	59,05
883,09	32,43
883,262	-39,25
883,434	32,43
883,606	-143,7
883,778	-24,92
883,95	134,82
884,122	-45,4
884,293	114,34
884,465	-0,34
884,637	83,63
884,809	-82,26
884,98	61,1
885,152	-22,87
885,324	13,99
885,496	-72,02
885,667	-6,49
885,839	9,9
886,011	44,71
886,182	54,95
886,354	48,81
886,525	59,05
886,697	-22,87
886,869	-104,79
887,04	-53,59
887,212	57
887,383	186,02
887,555	-12,63
887,726	-41,3
887,897	-20,82
888,069	-47,44
888,24	-6,49
888,412	57
888,583	-22,87
888,754	-69,97
888,926	-123,22
889,097	-145,75
889,268	-125,27
889,44	-14,68
889,611	-139,6
889,782	-49,49
889,953	-45,4
890,125	50,86
890,296	-65,88
890,467	-69,97
890,638	-115,03
890,809	-33,11
890,98	-104,79
891,151	-31,06
891,323	59,05
891,494	11,95
891,665	-39,25
891,836	28,33
892,007	18,09
892,178	108,2
892,349	5,8
892,52	-80,21
892,691	28,33
892,862	-49,49
893,032	-112,98
893,203	-35,16
893,374	26,28
893,545	63,15
893,716	-65,88
893,887	30,38
894,057	-92,5
894,228	-31,06
894,399	-57,68
894,57	52,91
894,74	-82,26
894,911	-4,44
895,082	-47,44
895,253	-86,36
895,423	-10,58
895,594	46,76
895,764	79,53
895,935	-57,68
896,106	28,33
896,276	18,09
896,447	5,8
896,617	-125,27
896,788	-67,92
896,958	59,05
897,129	-76,12
897,299	-31,06
897,47	110,25
897,64	9,9
897,81	-55,64
897,981	54,95
898,151	-47,44
898,322	3,75
898,492	-35,16
898,662	-72,02
898,832	-90,45
899,003	-16,73
899,173	-10,58
899,343	-133,46
899,513	-26,96
