Data from deuterium_USB4F104151__13__10-57-07-502.txt Node

Date: Wed Apr 15 10:57:07 EDT 2026
User: LaboPhy
Spectrometer: USB4F10415
Trigger mode: 4
Integration Time (sec): 1,000000E-1
Scans to average: 1
Electric dark correction enabled: true
Nonlinearity correction enabled: false
Boxcar width: 0
XAxis mode: Wavelengths
Number of Pixels in Spectrum: 3648
>>>>>Begin Spectral Data<<<<<
178,204	-420,17
178,424	-420,17
178,644	-420,17
178,864	-436,56
179,084	-489,81
179,304	-41,3
179,524	-33,11
179,744	-49,49
179,964	95,91
180,184	7,85
180,404	77,48
180,624	-51,54
180,844	1,71
181,064	-57,68
181,283	89,77
181,503	-51,54
181,723	11,95
181,943	-178,51
182,163	241,32
182,383	-33,11
182,602	67,24
182,822	157,35
183,042	69,29
183,262	-57,68
183,482	-53,59
183,701	71,34
183,921	75,43
184,141	-67,92
184,361	126,63
184,58	57
184,8	7,85
185,02	-47,44
185,239	97,96
185,459	52,91
185,679	85,67
185,898	-223,57
186,118	63,15
186,338	63,15
186,557	132,78
186,777	-106,84
186,997	13,99
187,216	13,99
187,436	272,04
187,655	20,14
187,875	71,34
188,095	95,91
188,314	175,78
188,534	50,86
188,753	-37,2
188,973	140,97
189,192	106,15
189,412	34,47
189,631	-53,59
189,851	38,57
190,07	202,41
190,29	-47,44
190,509	-96,6
190,729	77,48
190,948	134,82
191,168	237,22
191,387	13,99
191,607	-45,4
191,826	-0,34
192,045	46,76
192,265	-141,65
192,484	36,52
192,704	102,06
192,923	-4,44
193,142	153,26
193,362	147,11
193,581	183,98
193,8	48,81
194,02	38,57
194,239	-24,92
194,458	-22,87
194,678	-49,49
194,897	-0,34
195,116	85,67
195,335	67,24
195,555	28,33
195,774	-39,25
195,993	69,29
196,212	16,04
196,432	61,1
196,651	-35,16
196,87	-51,54
197,089	249,51
197,308	16,04
197,528	36,52
197,747	-139,6
197,966	114,34
198,185	63,15
198,404	-33,11
198,623	26,28
198,842	143,02
199,062	130,73
199,281	102,06
199,5	11,95
199,719	73,39
199,938	32,43
200,157	147,11
200,376	89,77
200,595	93,87
200,814	20,14
201,033	-61,78
201,252	140,97
201,471	32,43
201,69	48,81
201,909	67,24
202,128	97,96
202,347	69,29
202,566	38,57
202,785	-151,89
203,004	-67,92
203,223	288,42
203,442	3,75
203,661	-61,78
203,879	85,67
204,098	198,31
204,317	-29,01
204,536	46,76
204,755	112,3
204,974	140,97
205,193	46,76
205,411	65,19
205,63	50,86
205,849	52,91
206,068	16,04
206,287	-65,88
206,505	163,5
206,724	50,86
206,943	-45,4
207,162	-76,12
207,381	-10,58
207,599	9,9
207,818	61,1
208,037	-35,16
208,255	-31,06
208,474	52,91
208,693	42,67
208,911	-55,64
209,13	140,97
209,349	63,15
209,567	28,33
209,786	24,23
210,005	120,49
210,223	-24,92
210,442	-164,18
210,661	-29,01
210,879	71,34
211,098	7,85
211,316	63,15
211,535	52,91
211,753	16,04
211,972	81,58
212,191	-22,87
212,409	-8,53
212,628	132,78
212,846	54,95
213,065	-4,44
213,283	69,29
213,502	-22,87
213,72	28,33
213,938	89,77
214,157	-0,34
214,375	118,44
214,594	-10,58
214,812	50,86
215,031	-0,34
215,249	26,28
215,467	42,67
215,686	-35,16
215,904	30,38
216,122	97,96
216,341	89,77
216,559	1,71
216,778	22,19
216,996	114,34
217,214	30,38
217,432	-29,01
217,651	-80,21
217,869	28,33
218,087	-16,73
218,306	-53,59
218,524	-14,68
218,742	36,52
218,96	153,26
219,179	-20,82
219,397	36,52
219,615	243,37
219,833	87,72
220,051	-47,44
220,27	71,34
220,488	145,06
220,706	24,23
220,924	-61,78
221,142	-26,96
221,36	40,62
221,578	48,81
221,796	-18,77
222,015	22,19
222,233	38,57
222,451	153,26
222,669	-55,64
222,887	1,71
223,105	13,99
223,323	-53,59
223,541	-69,97
223,759	44,71
223,977	-14,68
224,195	192,17
224,413	85,67
224,631	-16,73
224,849	73,39
225,067	194,22
225,285	9,9
225,503	40,62
225,721	-84,31
225,939	71,34
226,157	11,95
226,375	235,18
226,592	5,8
226,81	-12,63
227,028	122,54
227,246	54,95
227,464	87,72
227,682	36,52
227,9	65,19
228,117	-6,49
228,335	93,87
228,553	46,76
228,771	7,85
228,989	24,23
229,206	134,82
229,424	11,95
229,642	-31,06
229,86	-84,31
230,077	59,05
230,295	81,58
230,513	63,15
230,731	38,57
230,948	104,11
231,166	93,87
231,384	-72,02
231,601	5,8
231,819	171,69
232,037	20,14
232,254	3,75
232,472	-18,77
232,689	-43,35
232,907	11,95
233,125	-24,92
233,342	-76,12
233,56	-0,34
233,777	-76,12
233,995	-43,35
234,213	20,14
234,43	7,85
234,648	28,33
234,865	24,23
235,083	114,34
235,3	48,81
235,518	97,96
235,735	122,54
235,953	7,85
236,17	3,75
236,388	46,76
236,605	5,8
236,822	67,24
237,04	118,44
237,257	-2,39
237,475	-86,36
237,692	-41,3
237,909	93,87
238,127	-29,01
238,344	71,34
238,562	-86,36
238,779	24,23
238,996	-24,92
239,214	11,95
239,431	38,57
239,648	-16,73
239,865	73,39
240,083	85,67
240,3	-26,96
240,517	-0,34
240,735	3,75
240,952	85,67
241,169	22,19
241,386	50,86
241,603	38,57
241,821	-65,88
242,038	54,95
242,255	229,03
242,472	3,75
242,689	46,76
242,907	-14,68
243,124	-4,44
243,341	28,33
243,558	-24,92
243,775	-43,35
243,992	-123,22
244,209	57
244,426	181,93
244,643	32,43
244,86	-8,53
245,078	46,76
245,295	79,53
245,512	-39,25
245,729	-57,68
245,946	147,11
246,163	36,52
246,38	3,75
246,597	138,92
246,814	11,95
247,031	79,53
247,248	-4,44
247,464	83,63
247,681	11,95
247,898	30,38
248,115	16,04
248,332	-37,2
248,549	130,73
248,766	93,87
248,983	95,91
249,2	-26,96
249,417	112,3
249,633	-10,58
249,85	73,39
250,067	-45,4
250,284	61,1
250,501	32,43
250,717	5,8
250,934	1,71
251,151	-0,34
251,368	-49,49
251,585	38,57
251,801	161,45
252,018	-69,97
252,235	136,87
252,451	-119,12
252,668	-10,58
252,885	100,01
253,102	93,87
253,318	-24,92
253,535	-22,87
253,752	-10,58
253,968	16,04
254,185	-90,45
254,401	32,43
254,618	46,76
254,835	-74,07
255,051	26,28
255,268	48,81
255,484	46,76
255,701	38,57
255,917	54,95
256,134	-26,96
256,351	26,28
256,567	-88,4
256,784	77,48
257	-108,88
257,217	20,14
257,433	20,14
257,65	-16,73
257,866	132,78
258,082	9,9
258,299	-51,54
258,515	30,38
258,732	52,91
258,948	7,85
259,165	36,52
259,381	-82,26
259,597	89,77
259,814	24,23
260,03	-49,49
260,246	-10,58
260,463	95,91
260,679	-10,58
260,895	24,23
261,112	71,34
261,328	-22,87
261,544	-104,79
261,761	95,91
261,977	3,75
262,193	-84,31
262,409	40,62
262,626	36,52
262,842	-67,92
263,058	-29,01
263,274	54,95
263,49	54,95
263,707	38,57
263,923	42,67
264,139	-82,26
264,355	-2,39
264,571	171,69
264,787	-2,39
265,004	177,83
265,22	-35,16
265,436	-20,82
265,652	54,95
265,868	102,06
266,084	-92,5
266,3	46,76
266,516	28,33
266,732	108,2
266,948	54,95
267,164	-37,2
267,38	30,38
267,596	28,33
267,812	157,35
268,028	-41,3
268,244	3,75
268,46	65,19
268,676	5,8
268,892	87,72
269,108	36,52
269,324	-20,82
269,54	-102,74
269,756	75,43
269,972	-51,54
270,188	-10,58
270,403	-63,83
270,619	22,19
270,835	57
271,051	28,33
271,267	-104,79
271,483	-119,12
271,698	63,15
271,914	38,57
272,13	52,91
272,346	3,75
272,562	26,28
272,777	167,59
272,993	-51,54
273,209	-10,58
273,425	116,39
273,64	-102,74
273,856	30,38
274,072	-29,01
274,287	-26,96
274,503	130,73
274,719	93,87
274,934	-72,02
275,15	-131,41
275,366	-2,39
275,581	-108,88
275,797	7,85
276,012	28,33
276,228	-53,59
276,444	40,62
276,659	36,52
276,875	-47,44
277,09	61,1
277,306	36,52
277,521	97,96
277,737	18,09
277,952	81,58
278,168	69,29
278,383	-0,34
278,599	13,99
278,814	20,14
279,03	-47,44
279,245	132,78
279,461	-59,73
279,676	136,87
279,892	-18,77
280,107	-24,92
280,322	-74,07
280,538	106,15
280,753	-26,96
280,969	7,85
281,184	5,8
281,399	79,53
281,615	-33,11
281,83	11,95
282,045	-39,25
282,26	-43,35
282,476	-20,82
282,691	42,67
282,906	63,15
283,122	59,05
283,337	-0,34
283,552	116,39
283,767	-29,01
283,983	102,06
284,198	16,04
284,413	5,8
284,628	-61,78
284,843	28,33
285,058	38,57
285,274	11,95
285,489	-76,12
285,704	93,87
285,919	-47,44
286,134	20,14
286,349	1,71
286,564	106,15
286,779	38,57
286,995	-0,34
287,21	-63,83
287,425	46,76
287,64	-78,16
287,855	-2,39
288,07	-121,17
288,285	138,92
288,5	87,72
288,715	40,62
288,93	5,8
289,145	-61,78
289,36	28,33
289,575	13,99
289,79	104,11
290,004	-45,4
290,219	116,39
290,434	-29,01
290,649	-74,07
290,864	40,62
291,079	16,04
291,294	63,15
291,509	3,75
291,724	24,23
291,938	-49,49
292,153	85,67
292,368	20,14
292,583	87,72
292,798	38,57
293,012	114,34
293,227	75,43
293,442	-10,58
293,657	79,53
293,871	104,11
294,086	50,86
294,301	114,34
294,516	97,96
294,73	28,33
294,945	-104,79
295,16	-12,63
295,374	114,34
295,589	153,26
295,804	-12,63
296,018	69,29
296,233	52,91
296,447	104,11
296,662	18,09
296,877	134,82
297,091	36,52
297,306	38,57
297,52	-2,39
297,735	71,34
297,949	153,26
298,164	5,8
298,378	-4,44
298,593	-92,5
298,807	-26,96
299,022	1,71
299,236	110,25
299,451	-6,49
299,665	24,23
299,88	-14,68
300,094	20,14
300,309	36,52
300,523	110,25
300,737	28,33
300,952	91,82
301,166	126,63
301,381	16,04
301,595	-29,01
301,809	26,28
302,024	61,1
302,238	-4,44
302,452	93,87
302,667	28,33
302,881	145,06
303,095	93,87
303,309	50,86
303,524	-47,44
303,738	5,8
303,952	24,23
304,166	110,25
304,381	-180,56
304,595	89,77
304,809	18,09
305,023	44,71
305,237	24,23
305,452	-16,73
305,666	36,52
305,88	48,81
306,094	97,96
306,308	93,87
306,522	81,58
306,736	73,39
306,95	190,12
307,164	26,28
307,379	89,77
307,593	145,06
307,807	54,95
308,021	186,02
308,235	100,01
308,449	-139,6
308,663	-37,2
308,877	208,55
309,091	34,47
309,305	63,15
309,519	-37,2
309,733	134,82
309,947	-78,16
310,161	-8,53
310,374	181,93
310,588	196,26
310,802	-37,2
311,016	65,19
311,23	22,19
311,444	-8,53
311,658	63,15
311,872	83,63
312,085	87,72
312,299	83,63
312,513	52,91
312,727	-2,39
312,941	1,71
313,154	16,04
313,368	-14,68
313,582	102,06
313,796	28,33
314,009	-20,82
314,223	167,59
314,437	-33,11
314,651	118,44
314,864	28,33
315,078	104,11
315,292	-29,01
315,505	24,23
315,719	54,95
315,933	30,38
316,146	-2,39
316,36	-0,34
316,573	151,21
316,787	83,63
317,001	-2,39
317,214	-53,59
317,428	83,63
317,641	-41,3
317,855	-35,16
318,068	61,1
318,282	177,83
318,495	151,21
318,709	91,82
318,922	-53,59
319,136	140,97
319,349	69,29
319,563	-0,34
319,776	28,33
319,99	-110,93
320,203	83,63
320,417	-6,49
320,63	128,68
320,843	151,21
321,057	-22,87
321,27	71,34
321,483	79,53
321,697	124,58
321,91	54,95
322,124	-18,77
322,337	59,05
322,55	-20,82
322,763	3,75
322,977	67,24
323,19	-31,06
323,403	-2,39
323,617	54,95
323,83	71,34
324,043	-26,96
324,256	54,95
324,469	-26,96
324,683	126,63
324,896	69,29
325,109	95,91
325,322	-84,31
325,535	126,63
325,748	63,15
325,962	-41,3
326,175	1,71
326,388	77,48
326,601	147,11
326,814	40,62
327,027	1,71
327,24	200,36
327,453	-102,74
327,666	79,53
327,879	161,45
328,092	126,63
328,305	63,15
328,518	-0,34
328,731	7,85
328,944	-82,26
329,157	136,87
329,37	-37,2
329,583	130,73
329,796	91,82
330,009	-29,01
330,222	100,01
330,435	54,95
330,648	38,57
330,861	73,39
331,073	44,71
331,286	192,17
331,499	59,05
331,712	-4,44
331,925	-22,87
332,138	75,43
332,35	126,63
332,563	13,99
332,776	153,26
332,989	-35,16
333,202	-63,83
333,414	63,15
333,627	48,81
333,84	-43,35
334,053	67,24
334,265	24,23
334,478	-4,44
334,691	42,67
334,903	28,33
335,116	-37,2
335,329	97,96
335,541	110,25
335,754	151,21
335,966	-2,39
336,179	79,53
336,392	61,1
336,604	28,33
336,817	114,34
337,029	147,11
337,242	110,25
337,454	73,39
337,667	97,96
337,88	77,48
338,092	46,76
338,305	128,68
338,517	-57,68
338,729	122,54
338,942	235,18
339,154	-55,64
339,367	-125,27
339,579	97,96
339,792	11,95
340,004	71,34
340,217	77,48
340,429	106,15
340,641	-43,35
340,854	28,33
341,066	32,43
341,278	159,4
341,491	147,11
341,703	7,85
341,915	-2,39
342,128	108,2
342,34	50,86
342,552	-12,63
342,764	91,82
342,977	52,91
343,189	87,72
343,401	22,19
343,613	-137,56
343,826	44,71
344,038	28,33
344,25	102,06
344,462	-2,39
344,674	120,49
344,886	-20,82
345,099	42,67
345,311	20,14
345,523	3,75
345,735	-53,59
345,947	9,9
346,159	54,95
346,371	-4,44
346,583	24,23
346,795	249,51
347,007	18,09
347,219	77,48
347,431	54,95
347,643	147,11
347,855	22,19
348,067	245,41
348,279	13,99
348,491	5,8
348,703	134,82
348,915	147,11
349,127	-18,77
349,339	50,86
349,551	-35,16
349,763	188,07
349,975	28,33
350,187	140,97
350,399	110,25
350,61	104,11
350,822	50,86
351,034	132,78
351,246	69,29
351,458	16,04
351,669	79,53
351,881	100,01
352,093	79,53
352,305	140,97
352,517	44,71
352,728	120,49
352,94	81,58
353,152	134,82
353,363	63,15
353,575	104,11
353,787	251,56
353,999	65,19
354,21	206,5
354,422	-10,58
354,633	-53,59
354,845	69,29
355,057	128,68
355,268	93,87
355,48	151,21
355,692	3,75
355,903	79,53
356,115	-63,83
356,326	20,14
356,538	208,55
356,749	69,29
356,961	200,36
357,172	91,82
357,384	36,52
357,595	345,77
357,807	104,11
358,018	-20,82
358,23	61,1
358,441	134,82
358,653	108,2
358,864	67,24
359,075	-47,44
359,287	110,25
359,498	122,54
359,709	171,69
359,921	102,06
360,132	126,63
360,344	61,1
360,555	3,75
360,766	147,11
360,977	-65,88
361,189	155,3
361,4	-0,34
361,611	143,02
361,823	81,58
362,034	177,83
362,245	11,95
362,456	-4,44
362,667	143,02
362,879	-84,31
363,09	118,44
363,301	75,43
363,512	65,19
363,723	24,23
363,935	22,19
364,146	151,21
364,357	52,91
364,568	116,39
364,779	-29,01
364,99	110,25
365,201	-67,92
365,412	161,45
365,623	-98,64
365,834	130,73
366,045	11,95
366,256	93,87
366,467	126,63
366,678	63,15
366,889	36,52
367,1	32,43
367,311	145,06
367,522	32,43
367,733	155,3
367,944	112,3
368,155	-6,49
368,366	194,22
368,577	116,39
368,788	186,02
368,999	-22,87
369,209	44,71
369,42	261,8
369,631	276,13
369,842	100,01
370,053	46,76
370,264	120,49
370,474	44,71
370,685	54,95
370,896	16,04
371,107	132,78
371,317	50,86
371,528	-10,58
371,739	102,06
371,95	36,52
372,16	100,01
372,371	38,57
372,582	-90,45
372,792	87,72
373,003	22,19
373,214	89,77
373,424	134,82
373,635	-69,97
373,846	151,21
374,056	83,63
374,267	116,39
374,477	202,41
374,688	32,43
374,898	100,01
375,109	30,38
375,319	97,96
375,53	126,63
375,74	143,02
375,951	102,06
376,161	95,91
376,372	167,59
376,582	5,8
376,793	79,53
377,003	5,8
377,214	61,1
377,424	69,29
377,635	5,8
377,845	5,8
378,055	140,97
378,266	-2,39
378,476	126,63
378,686	97,96
378,897	93,87
379,107	104,11
379,317	143,02
379,528	11,95
379,738	200,36
379,948	24,23
380,158	157,35
380,369	93,87
380,579	124,58
380,789	89,77
380,999	106,15
381,21	85,67
381,42	233,13
381,63	-45,4
381,84	130,73
382,05	63,15
382,261	116,39
382,471	196,26
382,681	16,04
382,891	212,65
383,101	-0,34
383,311	-41,3
383,521	54,95
383,731	69,29
383,941	181,93
384,151	83,63
384,361	11,95
384,571	89,77
384,781	106,15
384,991	251,56
385,201	237,22
385,411	61,1
385,621	36,52
385,831	100,01
386,041	77,48
386,251	-12,63
386,461	202,41
386,671	79,53
386,881	44,71
387,091	38,57
387,301	169,64
387,511	59,05
387,72	100,01
387,93	104,11
388,14	-67,92
388,35	54,95
388,56	192,17
388,769	188,07
388,979	79,53
389,189	85,67
389,399	5,8
389,609	124,58
389,818	136,87
390,028	124,58
390,238	95,91
390,447	36,52
390,657	57
390,867	16,04
391,076	11,95
391,286	-47,44
391,496	34,47
391,705	38,57
391,915	183,98
392,125	93,87
392,334	54,95
392,544	200,36
392,753	104,11
392,963	28,33
393,172	89,77
393,382	38,57
393,591	216,74
393,801	-0,34
394,01	200,36
394,22	44,71
394,429	42,67
394,639	44,71
394,848	63,15
395,058	73,39
395,267	91,82
395,477	171,69
395,686	132,78
395,895	251,56
396,105	253,61
396,314	110,25
396,524	104,11
396,733	52,91
396,942	210,6
397,152	110,25
397,361	224,94
397,57	145,06
397,78	120,49
397,989	136,87
398,198	276,13
398,407	71,34
398,617	118,44
398,826	77,48
399,035	-4,44
399,244	161,45
399,453	38,57
399,663	108,2
399,872	26,28
400,081	7,85
400,29	114,34
400,499	3,75
400,708	151,21
400,917	-8,53
401,127	18,09
401,336	-14,68
401,545	120,49
401,754	151,21
401,963	93,87
402,172	50,86
402,381	-47,44
402,59	3,75
402,799	57
403,008	149,16
403,217	73,39
403,426	67,24
403,635	-2,39
403,844	5,8
404,053	102,06
404,262	11,95
404,471	136,87
404,68	69,29
404,888	40,62
405,097	75,43
405,306	36,52
405,515	196,26
405,724	118,44
405,933	138,92
406,142	52,91
406,35	179,88
406,559	85,67
406,768	13,99
406,977	169,64
407,185	104,11
407,394	79,53
407,603	16,04
407,812	120,49
408,02	192,17
408,229	100,01
408,438	102,06
408,646	59,05
408,855	143,02
409,064	210,6
409,272	210,6
409,481	276,13
409,69	138,92
409,898	79,53
410,107	296,61
410,315	358,05
410,524	308,9
410,733	194,22
410,941	108,2
411,15	200,36
411,358	171,69
411,567	194,22
411,775	93,87
411,984	149,16
412,192	110,25
412,401	46,76
412,609	163,5
412,818	190,12
413,026	38,57
413,234	22,19
413,443	54,95
413,651	11,95
413,86	54,95
414,068	106,15
414,276	237,22
414,485	1,71
414,693	161,45
414,901	202,41
415,11	93,87
415,318	100,01
415,526	54,95
415,734	73,39
415,943	61,1
416,151	173,74
416,359	79,53
416,567	126,63
416,776	165,54
416,984	118,44
417,192	147,11
417,4	50,86
417,608	48,81
417,817	22,19
418,025	106,15
418,233	149,16
418,441	-76,12
418,649	-18,77
418,857	36,52
419,065	153,26
419,273	26,28
419,481	54,95
419,689	48,81
419,897	-84,31
420,105	-16,73
420,313	163,5
420,521	147,11
420,729	159,4
420,937	57
421,145	28,33
421,353	128,68
421,561	186,02
421,769	13,99
421,977	11,95
422,185	48,81
422,393	54,95
422,601	95,91
422,809	73,39
423,017	38,57
423,224	38,57
423,432	95,91
423,64	36,52
423,848	106,15
424,056	-20,82
424,263	67,24
424,471	22,19
424,679	114,34
424,887	13,99
425,094	134,82
425,302	79,53
425,51	-35,16
425,718	73,39
425,925	77,48
426,133	13,99
426,341	239,27
426,548	-24,92
426,756	-53,59
426,964	114,34
427,171	-47,44
427,379	112,3
427,586	32,43
427,794	-6,49
428,001	159,4
428,209	108,2
428,417	171,69
428,624	124,58
428,832	40,62
429,039	40,62
429,247	67,24
429,454	110,25
429,662	116,39
429,869	61,1
430,076	104,11
430,284	50,86
430,491	202,41
430,699	-16,73
430,906	206,5
431,114	118,44
431,321	28,33
431,528	134,82
431,736	106,15
431,943	183,98
432,15	292,52
432,358	290,47
432,565	501,41
432,772	317,09
432,979	648,86
433,187	642,72
433,394	837,28
433,601	833,18
433,808	949,92
434,016	1003,16
434,223	851,61
434,43	986,78
434,637	784,03
434,844	716,45
435,052	638,62
435,259	454,31
435,466	300,71
435,673	341,67
435,88	255,65
436,087	229,03
436,294	210,6
436,501	173,74
436,708	7,85
436,915	130,73
437,122	89,77
437,329	28,33
437,537	81,58
437,743	26,28
437,95	61,1
438,157	7,85
438,364	-12,63
438,571	-26,96
438,778	130,73
438,985	87,72
439,192	114,34
439,399	93,87
439,606	32,43
439,813	110,25
440,02	100,01
440,227	136,87
440,433	108,2
440,64	16,04
440,847	26,28
441,054	134,82
441,261	155,3
441,467	36,52
441,674	7,85
441,881	110,25
442,088	-37,2
442,294	79,53
442,501	112,3
442,708	190,12
442,914	61,1
443,121	118,44
443,328	83,63
443,534	91,82
443,741	48,81
443,948	-26,96
444,154	52,91
444,361	208,55
444,568	61,1
444,774	67,24
444,981	-90,45
445,187	71,34
445,394	-4,44
445,6	-4,44
445,807	-4,44
446,013	95,91
446,22	-16,73
446,426	104,11
446,633	52,91
446,839	188,07
447,046	1,71
447,252	87,72
447,459	22,19
447,665	42,67
447,871	140,97
448,078	69,29
448,284	50,86
448,491	97,96
448,697	104,11
448,903	186,02
449,11	-16,73
449,316	20,14
449,522	106,15
449,728	13,99
449,935	69,29
450,141	61,1
450,347	120,49
450,553	126,63
450,76	-8,53
450,966	16,04
451,172	13,99
451,378	52,91
451,584	73,39
451,791	114,34
451,997	102,06
452,203	-24,92
452,409	147,11
452,615	73,39
452,821	18,09
453,027	-63,83
453,233	188,07
453,44	54,95
453,646	104,11
453,852	57
454,058	-37,2
454,264	18,09
454,47	169,64
454,676	18,09
454,882	69,29
455,088	171,69
455,294	73,39
455,5	136,87
455,705	46,76
455,911	-45,4
456,117	-4,44
456,323	11,95
456,529	59,05
456,735	71,34
456,941	-4,44
457,147	69,29
457,352	134,82
457,558	16,04
457,764	108,2
457,97	-26,96
458,176	157,35
458,381	61,1
458,587	140,97
458,793	130,73
458,999	-39,25
459,204	48,81
459,41	-55,64
459,616	46,76
459,821	97,96
460,027	-123,22
460,233	153,26
460,438	102,06
460,644	-6,49
460,85	161,45
461,055	26,28
461,261	85,67
461,466	52,91
461,672	16,04
461,878	44,71
462,083	61,1
462,289	-67,92
462,494	40,62
462,7	149,16
462,905	81,58
463,111	97,96
463,316	126,63
463,522	208,55
463,727	93,87
463,932	26,28
464,138	87,72
464,343	46,76
464,549	91,82
464,754	226,98
464,959	143,02
465,165	-35,16
465,37	145,06
465,575	54,95
465,781	36,52
465,986	36,52
466,191	59,05
466,397	22,19
466,602	200,36
466,807	7,85
467,012	104,11
467,218	40,62
467,423	52,91
467,628	36,52
467,833	57
468,038	71,34
468,244	1,71
468,449	30,38
468,654	69,29
468,859	20,14
469,064	71,34
469,269	11,95
469,474	44,71
469,679	192,17
469,885	22,19
470,09	87,72
470,295	32,43
470,5	28,33
470,705	118,44
470,91	-31,06
471,115	89,77
471,32	122,54
471,525	202,41
471,73	126,63
471,935	71,34
472,139	32,43
472,344	42,67
472,549	67,24
472,754	116,39
472,959	194,22
473,164	69,29
473,369	114,34
473,574	95,91
473,778	22,19
473,983	171,69
474,188	112,3
474,393	30,38
474,598	50,86
474,802	57
475,007	30,38
475,212	204,46
475,417	112,3
475,621	159,4
475,826	-2,39
476,031	93,87
476,235	28,33
476,44	24,23
476,645	-14,68
476,849	20,14
477,054	-4,44
477,259	63,15
477,463	145,06
477,668	249,51
477,872	110,25
478,077	38,57
478,282	-47,44
478,486	102,06
478,691	75,43
478,895	48,81
479,1	177,83
479,304	171,69
479,509	61,1
479,713	231,08
479,918	147,11
480,122	20,14
480,326	85,67
480,531	36,52
480,735	145,06
480,94	143,02
481,144	89,77
481,348	122,54
481,553	147,11
481,757	-16,73
481,961	69,29
482,166	32,43
482,37	50,86
482,574	114,34
482,778	22,19
482,983	192,17
483,187	59,05
483,391	71,34
483,595	132,78
483,8	409,25
484,004	747,17
484,208	1257,11
484,412	2256,52
484,616	3239,55
484,821	4427,37
485,025	5885,52
485,229	7593,53
485,433	8850,98
485,637	9942,55
485,841	10591,75
486,045	10905,09
486,249	10640,9
486,453	10061,33
486,657	8965,67
486,861	7788,08
487,065	6571,59
487,269	5561,94
487,473	4318,82
487,677	3726,96
487,881	3198,59
488,085	2311,82
488,289	1732,24
488,493	1269,4
488,697	1072,79
488,901	636,58
489,105	370,34
489,309	226,98
489,512	274,09
489,716	224,94
489,92	157,35
490,124	130,73
490,328	194,22
490,531	132,78
490,735	183,98
490,939	54,95
491,143	108,2
491,346	155,3
491,55	-26,96
491,754	91,82
491,958	54,95
492,161	100,01
492,365	79,53
492,569	124,58
492,772	124,58
492,976	210,6
493,18	65,19
493,383	77,48
493,587	124,58
493,79	183,98
493,994	44,71
494,197	22,19
494,401	36,52
494,605	44,71
494,808	71,34
495,012	112,3
495,215	202,41
495,419	149,16
495,622	40,62
495,825	65,19
496,029	44,71
496,232	59,05
496,436	30,38
496,639	149,16
496,843	34,47
497,046	61,1
497,249	247,46
497,453	52,91
497,656	-29,01
497,859	95,91
498,063	102,06
498,266	81,58
498,469	-96,6
498,673	44,71
498,876	114,34
499,079	-4,44
499,282	63,15
499,485	231,08
499,689	71,34
499,892	181,93
500,095	-29,01
500,298	116,39
500,501	-92,5
500,705	65,19
500,908	16,04
501,111	-29,01
501,314	108,2
501,517	173,74
501,72	44,71
501,923	77,48
502,126	83,63
502,329	71,34
502,532	155,3
502,735	93,87
502,938	124,58
503,141	50,86
503,344	-63,83
503,547	196,26
503,75	61,1
503,953	-8,53
504,156	61,1
504,359	18,09
504,562	-8,53
504,765	30,38
504,968	126,63
505,17	116,39
505,373	112,3
505,576	104,11
505,779	16,04
505,982	-20,82
506,185	42,67
506,387	24,23
506,59	20,14
506,793	52,91
506,996	77,48
507,198	128,68
507,401	210,6
507,604	116,39
507,807	149,16
508,009	75,43
508,212	124,58
508,415	-35,16
508,617	-43,35
508,82	77,48
509,022	42,67
509,225	69,29
509,428	-18,77
509,63	-29,01
509,833	48,81
510,035	210,6
510,238	110,25
510,44	-82,26
510,643	79,53
510,845	122,54
511,048	175,78
511,25	-22,87
511,453	114,34
511,655	79,53
511,858	214,7
512,06	255,65
512,262	7,85
512,465	61,1
512,667	50,86
512,87	-8,53
513,072	192,17
513,274	65,19
513,477	-0,34
513,679	93,87
513,881	102,06
514,084	-0,34
514,286	171,69
514,488	71,34
514,69	61,1
514,893	-26,96
515,095	3,75
515,297	-26,96
515,499	1,71
515,701	-12,63
515,904	87,72
516,106	169,64
516,308	93,87
516,51	22,19
516,712	38,57
516,914	102,06
517,116	-35,16
517,318	36,52
517,52	7,85
517,722	38,57
517,925	-6,49
518,127	63,15
518,329	167,59
518,531	-39,25
518,733	13,99
518,935	36,52
519,136	132,78
519,338	-45,4
519,54	79,53
519,742	114,34
519,944	112,3
520,146	61,1
520,348	83,63
520,55	165,54
520,752	24,23
520,954	7,85
521,155	126,63
521,357	32,43
521,559	102,06
521,761	77,48
521,963	120,49
522,164	134,82
522,366	61,1
522,568	79,53
522,77	138,92
522,971	46,76
523,173	-18,77
523,375	108,2
523,576	-94,55
523,778	-29,01
523,98	34,47
524,181	151,21
524,383	100,01
524,584	22,19
524,786	-4,44
524,988	20,14
525,189	24,23
525,391	110,25
525,592	-33,11
525,794	-57,68
525,995	38,57
526,197	87,72
526,398	147,11
526,6	122,54
526,801	116,39
527,003	-106,84
527,204	-26,96
527,406	132,78
527,607	26,28
527,808	73,39
528,01	20,14
528,211	179,88
528,412	5,8
528,614	122,54
528,815	93,87
529,016	104,11
529,218	87,72
529,419	50,86
529,62	-100,69
529,822	181,93
530,023	-37,2
530,224	179,88
530,425	143,02
530,626	16,04
530,828	44,71
531,029	-82,26
531,23	167,59
531,431	-35,16
531,632	110,25
531,833	1,71
532,035	-4,44
532,236	-33,11
532,437	118,44
532,638	61,1
532,839	11,95
533,04	38,57
533,241	151,21
533,442	20,14
533,643	40,62
533,844	32,43
534,045	44,71
534,246	22,19
534,447	-61,78
534,648	30,38
534,849	134,82
535,05	-18,77
535,251	-35,16
535,451	132,78
535,652	-39,25
535,853	18,09
536,054	54,95
536,255	20,14
536,456	-24,92
536,657	3,75
536,857	34,47
537,058	65,19
537,259	-8,53
537,46	7,85
537,66	-26,96
537,861	3,75
538,062	-4,44
538,263	-74,07
538,463	124,58
538,664	26,28
538,865	46,76
539,065	89,77
539,266	75,43
539,466	-51,54
539,667	167,59
539,868	13,99
540,068	5,8
540,269	114,34
540,469	63,15
540,67	130,73
540,87	161,45
541,071	-86,36
541,271	143,02
541,472	157,35
541,672	104,11
541,873	75,43
542,073	67,24
542,274	-35,16
542,474	159,4
542,675	16,04
542,875	83,63
543,075	-158,03
543,276	16,04
543,476	50,86
543,676	81,58
543,877	-55,64
544,077	134,82
544,277	126,63
544,478	32,43
544,678	40,62
544,878	18,09
545,078	122,54
545,279	30,38
545,479	13,99
545,679	34,47
545,879	34,47
546,079	85,67
546,28	-131,41
546,48	40,62
546,68	122,54
546,88	57
547,08	77,48
547,28	118,44
547,48	-22,87
547,68	91,82
547,88	-0,34
548,081	36,52
548,281	-90,45
548,481	36,52
548,681	63,15
548,881	71,34
549,081	54,95
549,28	36,52
549,48	87,72
549,68	81,58
549,88	-45,4
550,08	-92,5
550,28	-8,53
550,48	186,02
550,68	93,87
550,88	-8,53
551,08	65,19
551,279	120,49
551,479	11,95
551,679	186,02
551,879	5,8
552,079	67,24
552,278	-14,68
552,478	212,65
552,678	38,57
552,878	145,06
553,077	24,23
553,277	-67,92
553,477	65,19
553,676	87,72
553,876	73,39
554,076	28,33
554,275	22,19
554,475	9,9
554,674	116,39
554,874	3,75
555,074	-41,3
555,273	48,81
555,473	24,23
555,672	-57,68
555,872	42,67
556,071	134,82
556,271	210,6
556,47	13,99
556,67	42,67
556,869	91,82
557,068	-72,02
557,268	61,1
557,467	-2,39
557,667	188,07
557,866	-16,73
558,065	87,72
558,265	87,72
558,464	-20,82
558,663	40,62
558,863	95,91
559,062	22,19
559,261	5,8
559,461	126,63
559,66	-67,92
559,859	-76,12
560,058	-55,64
560,258	-53,59
560,457	11,95
560,656	116,39
560,855	-33,11
561,054	134,82
561,253	85,67
561,453	32,43
561,652	24,23
561,851	87,72
562,05	9,9
562,249	-82,26
562,448	28,33
562,647	-43,35
562,846	-8,53
563,045	54,95
563,244	18,09
563,443	71,34
563,642	69,29
563,841	36,52
564,04	54,95
564,239	48,81
564,438	36,52
564,637	-96,6
564,836	-53,59
565,035	44,71
565,234	-57,68
565,432	97,96
565,631	11,95
565,83	9,9
566,029	-90,45
566,228	20,14
566,427	81,58
566,625	-55,64
566,824	89,77
567,023	-0,34
567,222	42,67
567,42	89,77
567,619	100,01
567,818	16,04
568,016	218,79
568,215	104,11
568,414	122,54
568,612	85,67
568,811	136,87
569,01	91,82
569,208	42,67
569,407	157,35
569,605	65,19
569,804	11,95
570,002	198,31
570,201	18,09
570,4	167,59
570,598	91,82
570,797	67,24
570,995	20,14
571,193	112,3
571,392	93,87
571,59	48,81
571,789	128,68
571,987	196,26
572,186	278,18
572,384	91,82
572,582	81,58
572,781	177,83
572,979	3,75
573,177	143,02
573,376	46,76
573,574	114,34
573,772	26,28
573,971	44,71
574,169	40,62
574,367	110,25
574,565	22,19
574,763	149,16
574,962	177,83
575,16	93,87
575,358	63,15
575,556	104,11
575,754	38,57
575,952	134,82
576,151	132,78
576,349	161,45
576,547	-49,49
576,745	153,26
576,943	57
577,141	120,49
577,339	24,23
577,537	110,25
577,735	202,41
577,933	202,41
578,131	18,09
578,329	306,85
578,527	159,4
578,725	140,97
578,923	-41,3
579,121	229,03
579,319	-20,82
579,516	50,86
579,714	286,37
579,912	143,02
580,11	97,96
580,308	57
580,506	140,97
580,704	38,57
580,901	42,67
581,099	310,95
581,297	161,45
581,495	200,36
581,692	79,53
581,89	153,26
582,088	151,21
582,285	118,44
582,483	118,44
582,681	118,44
582,878	110,25
583,076	136,87
583,274	153,26
583,471	237,22
583,669	91,82
583,866	44,71
584,064	18,09
584,262	52,91
584,459	57
584,657	145,06
584,854	134,82
585,052	169,64
585,249	95,91
585,447	46,76
585,644	134,82
585,841	132,78
586,039	140,97
586,236	169,64
586,434	42,67
586,631	73,39
586,828	42,67
587,026	89,77
587,223	-53,59
587,42	57
587,618	188,07
587,815	233,13
588,012	104,11
588,21	61,1
588,407	118,44
588,604	190,12
588,801	50,86
588,999	65,19
589,196	136,87
589,393	18,09
589,59	38,57
589,787	81,58
589,984	128,68
590,182	122,54
590,379	63,15
590,576	63,15
590,773	38,57
590,97	32,43
591,167	32,43
591,364	151,21
591,561	42,67
591,758	204,46
591,955	157,35
592,152	16,04
592,349	120,49
592,546	5,8
592,743	28,33
592,94	57
593,137	169,64
593,334	196,26
593,531	165,54
593,727	194,22
593,924	122,54
594,121	85,67
594,318	-6,49
594,515	175,78
594,712	188,07
594,908	200,36
595,105	-65,88
595,302	122,54
595,499	28,33
595,696	186,02
595,892	-6,49
596,089	220,84
596,286	5,8
596,482	165,54
596,679	36,52
596,876	32,43
597,072	167,59
597,269	34,47
597,466	22,19
597,662	52,91
597,859	-20,82
598,055	13,99
598,252	112,3
598,448	149,16
598,645	108,2
598,841	147,11
599,038	138,92
599,234	173,74
599,431	132,78
599,627	40,62
599,824	65,19
600,02	87,72
600,217	85,67
600,413	40,62
600,609	59,05
600,806	333,48
601,002	208,55
601,198	-4,44
601,395	93,87
601,591	61,1
601,787	83,63
601,984	159,4
602,18	83,63
602,376	20,14
602,572	171,69
602,769	204,46
602,965	114,34
603,161	138,92
603,357	143,02
603,553	267,94
603,75	89,77
603,946	71,34
604,142	102,06
604,338	245,41
604,534	151,21
604,73	83,63
604,926	-12,63
605,122	194,22
605,318	-6,49
605,514	147,11
605,71	28,33
605,906	138,92
606,102	34,47
606,298	126,63
606,494	269,99
606,69	241,32
606,886	11,95
607,082	122,54
607,278	46,76
607,474	97,96
607,67	108,2
607,866	-33,11
608,062	200,36
608,257	181,93
608,453	-78,16
608,649	106,15
608,845	-29,01
609,041	-29,01
609,236	69,29
609,432	65,19
609,628	46,76
609,824	124,58
610,019	54,95
610,215	28,33
610,411	177,83
610,606	218,79
610,802	54,95
610,998	13,99
611,193	81,58
611,389	-45,4
611,584	130,73
611,78	-18,77
611,976	-6,49
612,171	263,85
612,367	149,16
612,562	11,95
612,758	120,49
612,953	-37,2
613,149	28,33
613,344	34,47
613,539	48,81
613,735	147,11
613,93	24,23
614,126	28,33
614,321	46,76
614,517	165,54
614,712	34,47
614,907	206,5
615,103	147,11
615,298	83,63
615,493	114,34
615,688	-4,44
615,884	110,25
616,079	52,91
616,274	54,95
616,47	-45,4
616,665	-12,63
616,86	13,99
617,055	22,19
617,25	46,76
617,445	38,57
617,641	145,06
617,836	5,8
618,031	-82,26
618,226	145,06
618,421	77,48
618,616	-8,53
618,811	5,8
619,006	-92,5
619,201	212,65
619,396	11,95
619,591	-45,4
619,786	50,86
619,981	167,59
620,176	77,48
620,371	-0,34
620,566	61,1
620,761	140,97
620,956	-0,34
621,151	-49,49
621,346	61,1
621,541	20,14
621,735	89,77
621,93	118,44
622,125	-8,53
622,32	9,9
622,515	-115,03
622,709	112,3
622,904	110,25
623,099	32,43
623,294	114,34
623,488	93,87
623,683	3,75
623,878	91,82
624,072	188,07
624,267	-29,01
624,462	-45,4
624,656	-65,88
624,851	44,71
625,046	-51,54
625,24	-2,39
625,435	13,99
625,629	13,99
625,824	149,16
626,018	44,71
626,213	73,39
626,407	7,85
626,602	20,14
626,796	79,53
626,991	151,21
627,185	7,85
627,38	67,24
627,574	147,11
627,768	126,63
627,963	13,99
628,157	24,23
628,352	44,71
628,546	-61,78
628,74	67,24
628,935	16,04
629,129	-57,68
629,323	71,34
629,517	30,38
629,712	73,39
629,906	-61,78
630,1	108,2
630,294	110,25
630,489	63,15
630,683	-12,63
630,877	36,52
631,071	97,96
631,265	54,95
631,459	28,33
631,653	30,38
631,848	28,33
632,042	65,19
632,236	-0,34
632,43	69,29
632,624	73,39
632,818	124,58
633,012	112,3
633,206	-41,3
633,4	9,9
633,594	67,24
633,788	108,2
633,982	118,44
634,176	186,02
634,369	59,05
634,563	151,21
634,757	-84,31
634,951	85,67
635,145	134,82
635,339	5,8
635,533	143,02
635,726	52,91
635,92	67,24
636,114	24,23
636,308	-4,44
636,501	18,09
636,695	44,71
636,889	-63,83
637,083	93,87
637,276	32,43
637,47	-63,83
637,664	89,77
637,857	36,52
638,051	67,24
638,244	167,59
638,438	77,48
638,632	214,7
638,825	-18,77
639,019	132,78
639,212	30,38
639,406	95,91
639,599	36,52
639,793	44,71
639,986	61,1
640,18	108,2
640,373	-18,77
640,567	52,91
640,76	93,87
640,954	149,16
641,147	-4,44
641,34	44,71
641,534	71,34
641,727	183,98
641,92	118,44
642,114	196,26
642,307	36,52
642,5	36,52
642,694	59,05
642,887	89,77
643,08	95,91
643,273	116,39
643,467	-10,58
643,66	-20,82
643,853	38,57
644,046	-26,96
644,239	77,48
644,432	-16,73
644,626	-49,49
644,819	-4,44
645,012	26,28
645,205	54,95
645,398	202,41
645,591	11,95
645,784	-6,49
645,977	-65,88
646,17	75,43
646,363	118,44
646,556	7,85
646,749	-24,92
646,942	7,85
647,135	147,11
647,328	-24,92
647,521	52,91
647,714	71,34
647,907	48,81
648,099	-10,58
648,292	181,93
648,485	93,87
648,678	83,63
648,871	13,99
649,064	30,38
649,256	-14,68
649,449	65,19
649,642	-33,11
649,835	20,14
650,027	63,15
650,22	153,26
650,413	110,25
650,605	118,44
650,798	28,33
650,991	93,87
651,183	95,91
651,376	126,63
651,568	100,01
651,761	147,11
651,954	192,17
652,146	122,54
652,339	196,26
652,531	249,51
652,724	67,24
652,916	138,92
653,109	48,81
653,301	169,64
653,494	196,26
653,686	206,5
653,879	251,56
654,071	315,05
654,263	302,76
654,456	607,91
654,648	2205,32
654,84	6702,66
655,033	15230,4
655,225	26287,39
655,417	37440,62
655,61	48040,91
655,802	56662,86
655,994	61479,68
656,186	62825,2
656,379	60113,69
656,571	56296,27
656,763	50330,54
656,955	45812,72
657,148	41880,62
657,34	37747,82
657,532	34059,43
657,724	30596,31
657,916	27043,09
658,108	23223,62
658,3	19416,45
658,492	16002,49
658,684	13034,98
658,876	10989,06
659,068	8580,65
659,26	6667,84
659,452	4869,73
659,644	3649,14
659,836	2666,11
660,028	1855,12
660,22	1285,78
660,412	980,64
660,604	628,39
660,796	540,32
660,988	575,14
661,18	437,92
661,372	372,39
661,563	222,89
661,755	310,95
661,947	97,96
662,139	194,22
662,331	114,34
662,522	233,13
662,714	71,34
662,906	102,06
663,097	108,2
663,289	114,34
663,481	-35,16
663,673	118,44
663,864	128,68
664,056	97,96
664,247	11,95
664,439	245,41
664,631	85,67
664,822	81,58
665,014	63,15
665,205	28,33
665,397	120,49
665,588	52,91
665,78	61,1
665,971	95,91
666,163	52,91
666,354	122,54
666,546	69,29
666,737	-20,82
666,929	42,67
667,12	79,53
667,311	124,58
667,503	54,95
667,694	85,67
667,885	46,76
668,077	130,73
668,268	-45,4
668,459	13,99
668,651	77,48
668,842	63,15
669,033	-12,63
669,224	-12,63
669,416	200,36
669,607	3,75
669,798	-47,44
669,989	114,34
670,18	24,23
670,371	87,72
670,563	-102,74
670,754	118,44
670,945	77,48
671,136	112,3
671,327	69,29
671,518	192,17
671,709	157,35
671,9	130,73
672,091	151,21
672,282	73,39
672,473	54,95
672,664	-92,5
672,855	26,28
673,046	132,78
673,237	40,62
673,428	22,19
673,619	132,78
673,809	26,28
674	108,2
674,191	122,54
674,382	-18,77
674,573	57
674,764	-10,58
674,954	85,67
675,145	-26,96
675,336	-26,96
675,527	-57,68
675,717	1,71
675,908	-16,73
676,099	30,38
676,289	75,43
676,48	-69,97
676,671	3,75
676,861	-78,16
677,052	42,67
677,243	-24,92
677,433	-14,68
677,624	95,91
677,814	-8,53
678,005	-6,49
678,195	173,74
678,386	-24,92
678,576	26,28
678,767	-61,78
678,957	3,75
679,148	38,57
679,338	93,87
679,529	63,15
679,719	9,9
679,909	128,68
680,1	28,33
680,29	22,19
680,481	-92,5
680,671	102,06
680,861	-24,92
681,052	-37,2
681,242	-108,88
681,432	30,38
681,622	52,91
681,813	-24,92
682,003	-4,44
682,193	11,95
682,383	22,19
682,573	-74,07
682,764	-24,92
682,954	65,19
683,144	110,25
683,334	-110,93
683,524	-2,39
683,714	-14,68
683,904	102,06
684,094	54,95
684,284	-12,63
684,474	85,67
684,664	57
684,854	71,34
685,044	-33,11
685,234	9,9
685,424	18,09
685,614	-55,64
685,804	65,19
685,994	-8,53
686,184	-69,97
686,374	26,28
686,564	69,29
686,753	-10,58
686,943	-61,78
687,133	-22,87
687,323	5,8
687,513	20,14
687,702	54,95
687,892	11,95
688,082	18,09
688,272	52,91
688,461	-10,58
688,651	175,78
688,841	-8,53
689,03	36,52
689,22	1,71
689,41	24,23
689,599	73,39
689,789	-45,4
689,979	143,02
690,168	-0,34
690,358	-14,68
690,547	34,47
690,737	-26,96
690,926	85,67
691,116	32,43
691,305	54,95
691,495	120,49
691,684	-78,16
691,874	-84,31
692,063	20,14
692,252	24,23
692,442	63,15
692,631	-47,44
692,82	-86,36
693,01	44,71
693,199	16,04
693,388	22,19
693,578	52,91
693,767	81,58
693,956	48,81
694,146	-29,01
694,335	40,62
694,524	3,75
694,713	122,54
694,902	26,28
695,092	-16,73
695,281	83,63
695,47	-61,78
695,659	36,52
695,848	112,3
696,037	-63,83
696,226	140,97
696,415	-39,25
696,604	124,58
696,793	85,67
696,982	22,19
697,171	75,43
697,36	-10,58
697,549	-18,77
697,738	-102,74
697,927	-4,44
698,116	13,99
698,305	163,5
698,494	5,8
698,683	-51,54
698,872	91,82
699,061	28,33
699,25	-37,2
699,438	-29,01
699,627	26,28
699,816	143,02
700,005	-72,02
700,193	-51,54
700,382	143,02
700,571	73,39
700,76	13,99
700,948	114,34
701,137	143,02
701,326	108,2
701,514	-45,4
701,703	48,81
701,892	5,8
702,08	245,41
702,269	65,19
702,457	30,38
702,646	110,25
702,834	-43,35
703,023	100,01
703,212	134,82
703,4	-53,59
703,589	-86,36
703,777	-24,92
703,965	-4,44
704,154	50,86
704,342	-92,5
704,531	54,95
704,719	24,23
704,907	116,39
705,096	-61,78
705,284	-12,63
705,472	20,14
705,661	59,05
705,849	32,43
706,037	89,77
706,226	36,52
706,414	20,14
706,602	-10,58
706,79	73,39
706,979	-20,82
707,167	63,15
707,355	-41,3
707,543	7,85
707,731	112,3
707,919	-82,26
708,107	1,71
708,296	-39,25
708,484	-45,4
708,672	79,53
708,86	120,49
709,048	-12,63
709,236	-41,3
709,424	-33,11
709,612	57
709,8	-139,6
709,988	24,23
710,176	130,73
710,364	42,67
710,551	-29,01
710,739	-43,35
710,927	-31,06
711,115	-29,01
711,303	32,43
711,491	175,78
711,679	-33,11
711,866	100,01
712,054	-20,82
712,242	-20,82
712,43	63,15
712,617	11,95
712,805	118,44
712,993	-45,4
713,181	-117,08
713,368	61,1
713,556	-4,44
713,744	28,33
713,931	140,97
714,119	77,48
714,306	54,95
714,494	-78,16
714,682	5,8
714,869	-96,6
715,057	-29,01
715,244	-84,31
715,432	20,14
715,619	-102,74
715,807	59,05
715,994	-16,73
716,182	22,19
716,369	16,04
716,556	97,96
716,744	-76,12
716,931	-96,6
717,119	9,9
717,306	-69,97
717,493	-2,39
717,681	-41,3
717,868	-94,55
718,055	-10,58
718,242	-39,25
718,43	1,71
718,617	81,58
718,804	-33,11
718,991	169,64
719,179	44,71
719,366	24,23
719,553	-33,11
719,74	11,95
719,927	-0,34
720,114	57
720,301	-35,16
720,488	-78,16
720,676	-90,45
720,863	77,48
721,05	171,69
721,237	-4,44
721,424	3,75
721,611	52,91
721,798	-141,65
721,985	-78,16
722,172	-35,16
722,358	-4,44
722,545	85,67
722,732	16,04
722,919	81,58
723,106	-10,58
723,293	-20,82
723,48	22,19
723,667	-123,22
723,853	126,63
724,04	-69,97
724,227	100,01
724,414	-61,78
724,6	9,9
724,787	192,17
724,974	177,83
725,161	1,71
725,347	-119,12
725,534	-24,92
725,72	20,14
725,907	7,85
726,094	63,15
726,28	-49,49
726,467	-55,64
726,653	-69,97
726,84	126,63
727,027	85,67
727,213	67,24
727,4	1,71
727,586	38,57
727,773	3,75
727,959	61,1
728,145	-35,16
728,332	22,19
728,518	18,09
728,705	140,97
728,891	87,72
729,077	5,8
729,264	-90,45
729,45	-12,63
729,636	54,95
729,823	-29,01
730,009	77,48
730,195	65,19
730,382	87,72
730,568	-16,73
730,754	-55,64
730,94	48,81
731,126	-0,34
731,313	57
731,499	-31,06
731,685	46,76
731,871	11,95
732,057	22,19
732,243	93,87
732,429	-20,82
732,615	151,21
732,801	38,57
732,987	24,23
733,173	24,23
733,359	-2,39
733,545	30,38
733,731	-12,63
733,917	171,69
734,103	-31,06
734,289	7,85
734,475	-65,88
734,661	112,3
734,847	1,71
735,033	-18,77
735,219	20,14
735,404	-0,34
735,59	-16,73
735,776	5,8
735,962	42,67
736,148	13,99
736,333	118,44
736,519	-57,68
736,705	-24,92
736,89	61,1
737,076	30,38
737,262	-61,78
737,447	-74,07
737,633	-57,68
737,819	77,48
738,004	100,01
738,19	38,57
738,375	85,67
738,561	93,87
738,747	-49,49
738,932	-57,68
739,118	171,69
739,303	9,9
739,489	26,28
739,674	-35,16
739,859	-16,73
740,045	106,15
740,23	71,34
740,416	-266,58
740,601	-8,53
740,786	7,85
740,972	-20,82
741,157	-22,87
741,342	-26,96
741,528	-53,59
741,713	120,49
741,898	13,99
742,084	48,81
742,269	-16,73
742,454	-0,34
742,639	54,95
742,824	22,19
743,01	130,73
743,195	169,64
743,38	-2,39
743,565	5,8
743,75	26,28
743,935	75,43
744,12	102,06
744,305	-45,4
744,49	1,71
744,675	9,9
744,86	34,47
745,045	130,73
745,23	-16,73
745,415	-76,12
745,6	108,2
745,785	-108,88
745,97	140,97
746,155	100,01
746,34	59,05
746,525	-2,39
746,71	95,91
746,895	-49,49
747,079	-33,11
747,264	32,43
747,449	44,71
747,634	138,92
747,819	-35,16
748,003	13,99
748,188	-67,92
748,373	89,77
748,557	59,05
748,742	71,34
748,927	22,19
749,111	-0,34
749,296	-86,36
749,481	38,57
749,665	38,57
749,85	18,09
750,034	-16,73
750,219	48,81
750,404	18,09
750,588	46,76
750,773	-49,49
750,957	-39,25
751,141	11,95
751,326	106,15
751,51	-57,68
751,695	-4,44
751,879	-24,92
752,064	132,78
752,248	102,06
752,432	118,44
752,617	13,99
752,801	114,34
752,985	50,86
753,17	104,11
753,354	67,24
753,538	54,95
753,722	-53,59
753,907	-10,58
754,091	-18,77
754,275	-10,58
754,459	32,43
754,643	-20,82
754,828	52,91
755,012	28,33
755,196	-69,97
755,38	-16,73
755,564	-67,92
755,748	132,78
755,932	85,67
756,116	91,82
756,3	77,48
756,484	-10,58
756,668	13,99
756,852	-86,36
757,036	48,81
757,22	-12,63
757,404	-69,97
757,588	1,71
757,772	20,14
757,956	7,85
758,14	167,59
758,323	-12,63
758,507	20,14
758,691	-16,73
758,875	102,06
759,059	183,98
759,242	-6,49
759,426	36,52
759,61	75,43
759,794	-41,3
759,977	108,2
760,161	212,65
760,345	128,68
760,528	112,3
760,712	100,01
760,895	48,81
761,079	77,48
761,263	-69,97
761,446	-26,96
761,63	13,99
761,813	44,71
761,997	-67,92
762,18	-0,34
762,364	128,68
762,547	-121,17
762,731	7,85
762,914	50,86
763,098	48,81
763,281	11,95
763,464	18,09
763,648	-41,3
763,831	44,71
764,015	-102,74
764,198	97,96
764,381	16,04
764,564	-8,53
764,748	-4,44
764,931	18,09
765,114	-37,2
765,297	67,24
765,481	-69,97
765,664	-4,44
765,847	-14,68
766,03	153,26
766,213	-37,2
766,397	32,43
766,58	-86,36
766,763	3,75
766,946	-33,11
767,129	32,43
767,312	-53,59
767,495	-16,73
767,678	-49,49
767,861	20,14
768,044	3,75
768,227	1,71
768,41	-26,96
768,593	65,19
768,776	22,19
768,959	-16,73
769,142	122,54
769,324	-12,63
769,507	-29,01
769,69	-18,77
769,873	-4,44
770,056	212,65
770,239	-29,01
770,421	108,2
770,604	83,63
770,787	52,91
770,97	46,76
771,152	-10,58
771,335	46,76
771,518	-139,6
771,7	120,49
771,883	104,11
772,066	5,8
772,248	24,23
772,431	85,67
772,613	93,87
772,796	11,95
772,978	52,91
773,161	147,11
773,343	-82,26
773,526	-2,39
773,708	-119,12
773,891	-61,78
774,073	-20,82
774,256	-29,01
774,438	159,4
774,621	-84,31
774,803	40,62
774,985	-2,39
775,168	59,05
775,35	-69,97
775,532	100,01
775,715	11,95
775,897	114,34
776,079	5,8
776,261	143,02
776,444	235,18
776,626	478,88
776,808	667,3
776,99	650,91
777,173	859,81
777,355	974,49
777,537	992,92
777,719	958,11
777,901	804,51
778,083	655,01
778,265	581,28
778,447	667,3
778,629	480,93
778,811	530,08
778,993	505,51
779,175	462,5
779,357	313
779,539	186,02
779,721	212,65
779,903	229,03
780,085	124,58
780,267	153,26
780,449	81,58
780,631	181,93
780,812	165,54
780,994	-4,44
781,176	46,76
781,358	20,14
781,54	-0,34
781,721	46,76
781,903	100,01
782,085	7,85
782,267	89,77
782,448	-76,12
782,63	-35,16
782,812	16,04
782,993	77,48
783,175	114,34
783,357	-49,49
783,538	-8,53
783,72	-86,36
783,901	-20,82
784,083	85,67
784,264	54,95
784,446	-69,97
784,627	-108,88
784,809	24,23
784,99	-6,49
785,172	32,43
785,353	11,95
785,535	11,95
785,716	-59,73
785,897	-61,78
786,079	-82,26
786,26	-35,16
786,441	112,3
786,623	-65,88
786,804	-45,4
786,985	40,62
787,167	26,28
787,348	-18,77
787,529	28,33
787,71	114,34
787,891	11,95
788,073	-63,83
788,254	-72,02
788,435	149,16
788,616	-49,49
788,797	20,14
788,978	7,85
789,159	-63,83
789,34	32,43
789,522	34,47
789,703	-10,58
789,884	18,09
790,065	67,24
790,246	179,88
790,427	28,33
790,607	171,69
790,788	102,06
790,969	-29,01
791,15	36,52
791,331	-49,49
791,512	-37,2
791,693	-74,07
791,874	30,38
792,054	175,78
792,235	106,15
792,416	-69,97
792,597	-67,92
792,778	20,14
792,958	52,91
793,139	22,19
793,32	71,34
793,5	-119,12
793,681	93,87
793,862	-59,73
794,042	20,14
794,223	-53,59
794,404	-39,25
794,584	-63,83
794,765	-0,34
794,945	50,86
795,126	93,87
795,306	59,05
795,487	-0,34
795,667	13,99
795,848	9,9
796,028	11,95
796,209	-20,82
796,389	57
796,57	-35,16
796,75	-53,59
796,93	7,85
797,111	-49,49
797,291	5,8
797,471	106,15
797,652	-45,4
797,832	-82,26
798,012	87,72
798,192	-39,25
798,373	-61,78
798,553	-45,4
798,733	30,38
798,913	-47,44
799,093	-20,82
799,274	-0,34
799,454	122,54
799,634	93,87
799,814	30,38
799,994	65,19
800,174	20,14
800,354	-14,68
800,534	-100,69
800,714	112,3
800,894	-65,88
801,074	-22,87
801,254	-51,54
801,434	52,91
801,614	-43,35
801,794	-86,36
801,974	2094,73
802,154	-6,49
802,334	59,05
802,514	-53,59
802,693	-10,58
802,873	-104,79
803,053	52,91
803,233	59,05
803,413	-78,16
803,592	-96,6
803,772	-76,12
803,952	-2,39
804,131	-149,84
804,311	75,43
804,491	71,34
804,67	-84,31
804,85	-108,88
805,03	-20,82
805,209	151,21
805,389	-67,92
805,568	-84,31
805,748	-43,35
805,928	-41,3
806,107	54,95
806,287	46,76
806,466	69,29
806,646	-43,35
806,825	-14,68
807,004	-22,87
807,184	54,95
807,363	38,57
807,543	48,81
807,722	-41,3
807,901	16,04
808,081	28,33
808,26	-123,22
808,439	-35,16
808,619	20,14
808,798	-16,73
808,977	26,28
809,156	77,48
809,336	-24,92
809,515	71,34
809,694	-98,64
809,873	-80,21
810,052	26,28
810,231	73,39
810,411	65,19
810,59	20,14
810,769	30,38
810,948	95,91
811,127	-162,13
811,306	-74,07
811,485	-20,82
811,664	110,25
811,843	-82,26
812,022	22,19
812,201	11,95
812,38	20,14
812,559	-16,73
812,737	18,09
812,916	-0,34
813,095	-41,3
813,274	-41,3
813,453	-53,59
813,632	46,76
813,811	11,95
813,989	-41,3
814,168	-24,92
814,347	-22,87
814,526	-43,35
814,704	36,52
814,883	93,87
815,062	-153,94
815,24	85,67
815,419	-55,64
815,598	-6,49
815,776	-164,18
815,955	-39,25
816,133	-162,13
816,312	3,75
816,49	-119,12
816,669	52,91
816,847	-67,92
817,026	-26,96
817,204	13,99
817,383	-137,56
817,561	-22,87
817,74	-20,82
817,918	73,39
818,097	-74,07
818,275	-69,97
818,453	46,76
818,632	69,29
818,81	-151,89
818,988	-4,44
819,167	5,8
819,345	-51,54
819,523	-4,44
819,701	26,28
819,879	-12,63
820,058	-2,39
820,236	7,85
820,414	-41,3
820,592	-63,83
820,77	-0,34
820,948	-115,03
821,127	-76,12
821,305	85,67
821,483	-100,69
821,661	36,52
821,839	-43,35
822,017	-117,08
822,195	-35,16
822,373	38,57
822,551	-8,53
822,729	38,57
822,907	-59,73
823,085	11,95
823,262	-51,54
823,44	-108,88
823,618	-2,39
823,796	-2,39
823,974	-31,06
824,152	-18,77
824,329	-90,45
824,507	30,38
824,685	71,34
824,863	-14,68
825,04	-69,97
825,218	42,67
825,396	-76,12
825,574	32,43
825,751	1,71
825,929	11,95
826,107	-141,65
826,284	36,52
826,462	36,52
826,639	-90,45
826,817	-43,35
826,994	-24,92
827,172	-69,97
827,349	104,11
827,527	-47,44
827,704	11,95
827,882	128,68
828,059	-37,2
828,237	-61,78
828,414	30,38
828,591	-88,4
828,769	9,9
828,946	-67,92
829,124	100,01
829,301	69,29
829,478	-20,82
829,655	-33,11
829,833	40,62
830,01	-158,03
830,187	-39,25
830,364	28,33
830,542	5,8
830,719	83,63
830,896	40,62
831,073	42,67
831,25	-6,49
831,427	26,28
831,604	-102,74
831,782	-12,63
831,959	18,09
832,136	-20,82
832,313	-6,49
832,49	-76,12
832,667	65,19
832,844	-121,17
833,021	57
833,198	-74,07
833,374	52,91
833,551	-6,49
833,728	-14,68
833,905	61,1
834,082	-133,46
834,259	7,85
834,436	57
834,612	-104,79
834,789	65,19
834,966	20,14
835,143	-4,44
835,319	-104,79
835,496	5,8
835,673	69,29
835,85	81,58
836,026	16,04
836,203	5,8
836,38	-82,26
836,556	-82,26
836,733	-8,53
836,909	91,82
837,086	-37,2
837,262	-160,08
837,439	-4,44
837,616	-33,11
837,792	-18,77
837,968	18,09
838,145	-86,36
838,321	-35,16
838,498	-0,34
838,674	110,25
838,851	-39,25
839,027	-29,01
839,203	50,86
839,38	67,24
839,556	-80,21
839,732	3,75
839,909	5,8
840,085	-2,39
840,261	-26,96
840,437	-35,16
840,614	-74,07
840,79	126,63
840,966	54,95
841,142	13,99
841,318	-41,3
841,494	-53,59
841,671	42,67
841,847	-72,02
842,023	-106,84
842,199	-4,44
842,375	132,78
842,551	-151,89
842,727	-110,93
842,903	130,73
843,079	-108,88
843,255	110,25
843,431	40,62
843,607	87,72
843,783	-29,01
843,959	183,98
844,134	181,93
844,31	380,58
844,486	343,72
844,662	169,64
844,838	319,14
845,013	317,09
845,189	358,05
845,365	196,26
845,541	151,21
845,716	175,78
845,892	210,6
846,068	59,05
846,244	20,14
846,419	81,58
846,595	46,76
846,77	18,09
846,946	104,11
847,122	22,19
847,297	32,43
847,473	151,21
847,648	-45,4
847,824	110,25
847,999	-43,35
848,175	-49,49
848,35	-24,92
848,526	126,63
848,701	57
848,876	79,53
849,052	106,15
849,227	-26,96
849,403	-67,92
849,578	-49,49
849,753	63,15
849,929	-49,49
850,104	-72,02
850,279	-55,64
850,454	-35,16
850,63	108,2
850,805	-53,59
850,98	-49,49
851,155	-26,96
851,33	30,38
851,505	-61,78
851,681	36,52
851,856	-108,88
852,031	57
852,206	46,76
852,381	-78,16
852,556	-106,84
852,731	100,01
852,906	22,19
853,081	-12,63
853,256	118,44
853,431	-37,2
853,606	-55,64
853,781	-35,16
853,956	-147,8
854,131	28,33
854,305	-94,55
854,48	40,62
854,655	-37,2
854,83	-119,12
855,005	-14,68
855,18	-45,4
855,354	50,86
855,529	34,47
855,704	18,09
855,879	13,99
856,053	-123,22
856,228	-74,07
856,403	-61,78
856,577	-29,01
856,752	-82,26
856,926	-137,56
857,101	28,33
857,276	-143,7
857,45	38,57
857,625	130,73
857,799	7,85
857,974	-8,53
858,148	-117,08
858,323	63,15
858,497	-37,2
858,672	-43,35
858,846	-92,5
859,02	36,52
859,195	-110,93
859,369	-63,83
859,543	24,23
859,718	40,62
859,892	-0,34
860,066	-57,68
860,241	-41,3
860,415	7,85
860,589	-33,11
860,763	-31,06
860,938	-84,31
861,112	-29,01
861,286	-98,64
861,46	3,75
861,634	-35,16
861,808	147,11
861,982	-61,78
862,157	-106,84
862,331	-20,82
862,505	-141,65
862,679	-166,23
862,853	-117,08
863,027	-2,39
863,201	87,72
863,375	-33,11
863,549	104,11
863,722	16,04
863,896	50,86
864,07	-2,39
864,244	-10,58
864,418	13,99
864,592	-26,96
864,766	1,71
864,939	-72,02
865,113	-84,31
865,287	-24,92
865,461	-96,6
865,634	-12,63
865,808	-4,44
865,982	-78,16
866,156	-33,11
866,329	-112,98
866,503	-35,16
866,676	59,05
866,85	-0,34
867,024	-12,63
867,197	-18,77
867,371	126,63
867,544	-41,3
867,718	-65,88
867,891	106,15
868,065	-88,4
868,238	-0,34
868,412	91,82
868,585	-53,59
868,759	-100,69
868,932	-88,4
869,105	-14,68
869,279	-20,82
869,452	-153,94
869,625	-26,96
869,799	-63,83
869,972	-67,92
870,145	-88,4
870,319	63,15
870,492	-41,3
870,665	-18,77
870,838	-86,36
871,011	-178,51
871,185	-4,44
871,358	-51,54
871,531	50,86
871,704	-16,73
871,877	-65,88
872,05	-55,64
872,223	-88,4
872,396	59,05
872,569	5,8
872,742	-72,02
872,915	36,52
873,088	-104,79
873,261	-158,03
873,434	57
873,607	-33,11
873,78	65,19
873,953	-106,84
874,126	-10,58
874,299	3,75
874,471	-82,26
874,644	5,8
874,817	48,81
874,99	130,73
875,163	-10,58
875,335	-10,58
875,508	-0,34
875,681	50,86
875,853	-51,54
876,026	11,95
876,199	-18,77
876,371	48,81
876,544	-10,58
876,717	-16,73
876,889	-92,5
877,062	-2,39
877,234	-123,22
877,407	-82,26
877,579	-10,58
877,752	36,52
877,924	42,67
878,097	-12,63
878,269	20,14
878,442	-12,63
878,614	46,76
878,786	5,8
878,959	-37,2
879,131	30,38
879,303	-147,8
879,476	36,52
879,648	57
879,82	-94,55
879,993	-45,4
880,165	-74,07
880,337	-137,56
880,509	-4,44
880,681	-80,21
880,854	16,04
881,026	71,34
881,198	120,49
881,37	1,71
881,542	-24,92
881,714	1,71
881,886	-35,16
882,058	-4,44
882,23	11,95
882,402	-55,64
882,574	-49,49
882,746	89,77
882,918	67,24
883,09	65,19
883,262	-65,88
883,434	-59,73
883,606	-92,5
883,778	69,29
883,95	97,96
884,122	-49,49
884,293	59,05
884,465	11,95
884,637	59,05
884,809	-63,83
884,98	42,67
885,152	-10,58
885,324	34,47
885,496	-51,54
885,667	5,8
885,839	-102,74
886,011	85,67
886,182	20,14
886,354	52,91
886,525	-26,96
886,697	40,62
886,869	-117,08
887,04	-31,06
887,212	61,1
887,383	143,02
887,555	11,95
887,726	-55,64
887,897	-43,35
888,069	-35,16
888,24	34,47
888,412	-43,35
888,583	1,71
888,754	11,95
888,926	-143,7
889,097	-141,65
889,268	-143,7
889,44	20,14
889,611	-106,84
889,782	-90,45
889,953	-51,54
890,125	20,14
890,296	-139,6
890,467	-43,35
890,638	-102,74
890,809	-84,31
890,98	-16,73
891,151	32,43
891,323	67,24
891,494	42,67
891,665	-16,73
891,836	-72,02
892,007	-121,17
892,178	71,34
892,349	-22,87
892,52	18,09
892,691	-37,2
892,862	-82,26
893,032	-14,68
893,203	-69,97
893,374	52,91
893,545	130,73
893,716	-131,41
893,887	-8,53
894,057	-100,69
894,228	-45,4
894,399	1,71
894,57	130,73
894,74	-51,54
894,911	-18,77
895,082	-20,82
895,253	-20,82
895,423	-43,35
895,594	75,43
895,764	-35,16
895,935	-18,77
896,106	-20,82
896,276	-67,92
896,447	13,99
896,617	-72,02
896,788	-31,06
896,958	-41,3
897,129	-53,59
897,299	-4,44
897,47	91,82
897,64	93,87
897,81	-2,39
897,981	-33,11
898,151	-72,02
898,322	59,05
898,492	57
898,662	-69,97
898,832	-84,31
899,003	-31,06
899,173	54,95
899,343	-117,08
899,513	-88,4
