Data from deuterium_USB4F104151__0__10-57-03-883.txt Node

Date: Wed Apr 15 10:57:03 EDT 2026
User: LaboPhy
Spectrometer: USB4F10415
Trigger mode: 4
Integration Time (sec): 1,000000E-1
Scans to average: 1
Electric dark correction enabled: true
Nonlinearity correction enabled: false
Boxcar width: 0
XAxis mode: Wavelengths
Number of Pixels in Spectrum: 3648
>>>>>Begin Spectral Data<<<<<
178,204	-373,75
178,424	-373,75
178,644	-373,75
178,864	-437,24
179,084	-447,48
179,304	50,18
179,524	17,41
179,744	31,74
179,964	44,03
180,184	-3,07
180,404	39,94
180,624	-54,27
180,844	-13,31
181,064	-46,08
181,283	-37,89
181,503	-58,37
181,723	29,7
181,943	-115,71
182,163	187,39
182,383	-17,41
182,602	68,61
182,822	201,72
183,042	103,42
183,262	-25,6
183,482	-1,02
183,701	41,98
183,921	33,79
184,141	-54,27
184,361	84,99
184,58	33,79
184,8	103,42
185,02	-23,55
185,239	62,46
185,459	115,71
185,679	113,66
185,898	-72,7
186,118	56,32
186,338	76,8
186,557	82,94
186,777	-33,79
186,997	-21,5
187,216	121,85
187,436	207,87
187,655	66,56
187,875	109,57
188,095	60,42
188,314	168,96
188,534	95,23
188,753	-27,65
188,973	101,37
189,192	152,57
189,412	3,07
189,631	-62,46
189,851	103,42
190,07	216,06
190,29	-89,09
190,509	-19,46
190,729	48,13
190,948	160,77
191,168	171,01
191,387	97,28
191,607	54,27
191,826	48,13
192,045	-80,89
192,265	-37,89
192,484	101,37
192,704	70,65
192,923	-44,03
193,142	234,49
193,362	93,18
193,581	154,62
193,8	46,08
194,02	27,65
194,239	72,7
194,458	68,61
194,678	95,23
194,897	9,22
195,116	60,42
195,335	177,15
195,555	29,7
195,774	-19,46
195,993	66,56
196,212	56,32
196,432	52,22
196,651	-9,22
196,87	1,02
197,089	269,31
197,308	15,36
197,528	128
197,747	17,41
197,966	150,53
198,185	158,72
198,404	-46,08
198,623	146,43
198,842	162,81
199,062	35,84
199,281	111,61
199,5	64,51
199,719	128
199,938	46,08
200,157	64,51
200,376	187,39
200,595	158,72
200,814	76,8
201,033	-60,42
201,252	144,38
201,471	68,61
201,69	78,85
201,909	56,32
202,128	103,42
202,347	93,18
202,566	25,6
202,785	7,17
203,004	-35,84
203,223	269,31
203,442	125,95
203,661	-37,89
203,879	48,13
204,098	199,68
204,317	9,22
204,536	105,47
204,755	117,76
204,974	109,57
205,193	44,03
205,411	130,05
205,63	-1,02
205,849	115,71
206,068	46,08
206,287	-27,65
206,505	168,96
206,724	37,89
206,943	-11,26
207,162	68,61
207,381	72,7
207,599	35,84
207,818	66,56
208,037	-17,41
208,255	37,89
208,474	97,28
208,693	48,13
208,911	9,22
209,13	68,61
209,349	171,01
209,567	82,94
209,786	54,27
210,005	230,4
210,223	64,51
210,442	-115,71
210,661	41,98
210,879	70,65
211,098	60,42
211,316	-7,17
211,535	97,28
211,753	87,04
211,972	93,18
212,191	9,22
212,409	52,22
212,628	113,66
212,846	-11,26
213,065	99,33
213,283	166,91
213,502	56,32
213,72	95,23
213,938	52,22
214,157	-46,08
214,375	103,42
214,594	54,27
214,812	113,66
215,031	13,31
215,249	13,31
215,467	27,65
215,686	-62,46
215,904	82,94
216,122	7,17
216,341	209,92
216,559	66,56
216,778	183,29
216,996	185,34
217,214	-3,07
217,432	68,61
217,651	-23,55
217,869	99,33
218,087	44,03
218,306	60,42
218,524	48,13
218,742	-7,17
218,96	35,84
219,179	44,03
219,397	-17,41
219,615	281,6
219,833	134,14
220,051	7,17
220,27	64,51
220,488	70,65
220,706	52,22
220,924	-52,22
221,142	-25,6
221,36	91,13
221,578	91,13
221,796	3,07
222,015	-13,31
222,233	56,32
222,451	160,77
222,669	-23,55
222,887	70,65
223,105	54,27
223,323	35,84
223,541	-37,89
223,759	35,84
223,977	-7,17
224,195	187,39
224,413	62,46
224,631	11,26
224,849	76,8
225,067	222,2
225,285	-7,17
225,503	-3,07
225,721	-70,65
225,939	105,47
226,157	70,65
226,375	261,12
226,592	1,02
226,81	-11,26
227,028	128
227,246	103,42
227,464	17,41
227,682	148,48
227,9	76,8
228,117	111,61
228,335	60,42
228,553	21,5
228,771	7,17
228,989	78,85
229,206	58,37
229,424	31,74
229,642	-19,46
229,86	-56,32
230,077	148,48
230,295	39,94
230,513	111,61
230,731	60,42
230,948	252,92
231,166	214,01
231,384	95,23
231,601	-41,98
231,819	216,06
232,037	-3,07
232,254	1,02
232,472	5,12
232,689	-13,31
232,907	89,09
233,125	-5,12
233,342	23,55
233,56	-11,26
233,777	78,85
233,995	-25,6
234,213	128
234,43	93,18
234,648	78,85
234,865	74,75
235,083	91,13
235,3	123,9
235,518	150,53
235,735	128
235,953	107,52
236,17	84,99
236,388	23,55
236,605	78,85
236,822	74,75
237,04	142,33
237,257	21,5
237,475	-41,98
237,692	21,5
237,909	41,98
238,127	15,36
238,344	74,75
238,562	5,12
238,779	-111,61
238,996	-105,47
239,214	52,22
239,431	52,22
239,648	103,42
239,865	87,04
240,083	56,32
240,3	27,65
240,517	-46,08
240,735	62,46
240,952	123,9
241,169	84,99
241,386	132,09
241,603	68,61
241,821	-39,94
242,038	62,46
242,255	158,72
242,472	-17,41
242,689	60,42
242,907	113,66
243,124	89,09
243,341	11,26
243,558	-80,89
243,775	-25,6
243,992	13,31
244,209	105,47
244,426	252,92
244,643	101,37
244,86	66,56
245,078	70,65
245,295	87,04
245,512	23,55
245,729	-25,6
245,946	41,98
246,163	95,23
246,38	52,22
246,597	95,23
246,814	48,13
247,031	15,36
247,248	60,42
247,464	78,85
247,681	103,42
247,898	72,7
248,115	37,89
248,332	-23,55
248,549	128
248,766	95,23
248,983	109,57
249,2	66,56
249,417	99,33
249,633	39,94
249,85	132,09
250,067	33,79
250,284	142,33
250,501	115,71
250,717	78,85
250,934	-25,6
251,151	-5,12
251,368	9,22
251,585	54,27
251,801	11,26
252,018	-9,22
252,235	154,62
252,451	-31,74
252,668	50,18
252,885	119,81
253,102	152,57
253,318	21,5
253,535	33,79
253,752	-21,5
253,968	11,26
254,185	17,41
254,401	117,76
254,618	80,89
254,835	-29,7
255,051	171,01
255,268	107,52
255,484	1,02
255,701	97,28
255,917	23,55
256,134	3,07
256,351	101,37
256,567	-58,37
256,784	56,32
257	-70,65
257,217	111,61
257,433	58,37
257,65	37,89
257,866	207,87
258,082	-82,94
258,299	-5,12
258,515	19,46
258,732	-48,13
258,948	-99,33
259,165	52,22
259,381	-19,46
259,597	148,48
259,814	78,85
260,03	39,94
260,246	76,8
260,463	103,42
260,679	160,77
260,895	95,23
261,112	29,7
261,328	44,03
261,544	-29,7
261,761	109,57
261,977	-72,7
262,193	-72,7
262,409	121,85
262,626	-5,12
262,842	109,57
263,058	37,89
263,274	140,29
263,49	17,41
263,707	3,07
263,923	68,61
264,139	-17,41
264,355	107,52
264,571	111,61
264,787	80,89
265,004	78,85
265,22	39,94
265,436	82,94
265,652	19,46
265,868	95,23
266,084	-91,13
266,3	76,8
266,516	-99,33
266,732	39,94
266,948	101,37
267,164	-64,51
267,38	66,56
267,596	60,42
267,812	189,44
268,028	46,08
268,244	-21,5
268,46	74,75
268,676	-21,5
268,892	9,22
269,108	-19,46
269,324	13,31
269,54	-54,27
269,756	144,38
269,972	-72,7
270,188	15,36
270,403	-121,85
270,619	-17,41
270,835	109,57
271,051	56,32
271,267	-17,41
271,483	66,56
271,698	113,66
271,914	68,61
272,13	-21,5
272,346	3,07
272,562	54,27
272,777	160,77
272,993	-37,89
273,209	48,13
273,425	99,33
273,64	33,79
273,856	44,03
274,072	-11,26
274,287	-93,18
274,503	109,57
274,719	52,22
274,934	-99,33
275,15	-33,79
275,366	68,61
275,581	-27,65
275,797	-7,17
276,012	-3,07
276,228	74,75
276,444	23,55
276,659	185,34
276,875	-9,22
277,09	68,61
277,306	1,02
277,521	52,22
277,737	80,89
277,952	117,76
278,168	54,27
278,383	89,09
278,599	39,94
278,814	89,09
279,03	29,7
279,245	222,2
279,461	152,57
279,676	158,72
279,892	-101,37
280,107	-3,07
280,322	11,26
280,538	37,89
280,753	-37,89
280,969	80,89
281,184	-17,41
281,399	195,58
281,615	44,03
281,83	60,42
282,045	-37,89
282,26	-1,02
282,476	-21,5
282,691	68,61
282,906	62,46
283,122	37,89
283,337	-1,02
283,552	70,65
283,767	-68,61
283,983	113,66
284,198	-3,07
284,413	115,71
284,628	-21,5
284,843	-13,31
285,058	68,61
285,274	7,17
285,489	-62,46
285,704	80,89
285,919	-39,94
286,134	31,74
286,349	35,84
286,564	-58,37
286,779	117,76
286,995	-5,12
287,21	-64,51
287,425	70,65
287,64	13,31
287,855	9,22
288,07	31,74
288,285	128
288,5	68,61
288,715	97,28
288,93	105,47
289,145	-44,03
289,36	76,8
289,575	-13,31
289,79	136,19
290,004	41,98
290,219	82,94
290,434	37,89
290,649	37,89
290,864	93,18
291,079	62,46
291,294	17,41
291,509	128
291,724	7,17
291,938	-15,36
292,153	78,85
292,368	-60,42
292,583	52,22
292,798	166,91
293,012	74,75
293,227	56,32
293,442	-39,94
293,657	89,09
293,871	109,57
294,086	134,14
294,301	203,77
294,516	164,86
294,73	31,74
294,945	-56,32
295,16	11,26
295,374	132,09
295,589	93,18
295,804	56,32
296,018	80,89
296,233	93,18
296,447	25,6
296,662	-35,84
296,877	234,49
297,091	80,89
297,306	19,46
297,52	44,03
297,735	99,33
297,949	117,76
298,164	52,22
298,378	15,36
298,593	-21,5
298,807	1,02
299,022	78,85
299,236	130,05
299,451	52,22
299,665	29,7
299,88	-21,5
300,094	78,85
300,309	48,13
300,523	7,17
300,737	-13,31
300,952	33,79
301,166	62,46
301,381	-82,94
301,595	-9,22
301,809	-11,26
302,024	7,17
302,238	-91,13
302,452	70,65
302,667	46,08
302,881	121,85
303,095	78,85
303,309	117,76
303,524	39,94
303,738	72,7
303,952	-3,07
304,166	101,37
304,381	-158,72
304,595	125,95
304,809	-11,26
305,023	7,17
305,237	-66,56
305,452	46,08
305,666	56,32
305,88	138,24
306,094	48,13
306,308	39,94
306,522	111,61
306,736	103,42
306,95	95,23
307,164	54,27
307,379	80,89
307,593	177,15
307,807	121,85
308,021	140,29
308,235	70,65
308,449	-175,1
308,663	52,22
308,877	332,79
309,091	44,03
309,305	66,56
309,519	-13,31
309,733	168,96
309,947	-46,08
310,161	87,04
310,374	115,71
310,588	93,18
310,802	109,57
311,016	-35,84
311,23	197,63
311,444	-52,22
311,658	35,84
311,872	115,71
312,085	177,15
312,299	205,82
312,513	191,49
312,727	37,89
312,941	-23,55
313,154	76,8
313,368	132,09
313,582	60,42
313,796	117,76
314,009	64,51
314,223	103,42
314,437	107,52
314,651	123,9
314,864	-23,55
315,078	31,74
315,292	-31,74
315,505	-29,7
315,719	123,9
315,933	121,85
316,146	1,02
316,36	7,17
316,573	179,2
316,787	158,72
317,001	44,03
317,214	-41,98
317,428	76,8
317,641	3,07
317,855	3,07
318,068	29,7
318,282	68,61
318,495	226,3
318,709	60,42
318,922	19,46
319,136	160,77
319,349	160,77
319,563	41,98
319,776	50,18
319,99	13,31
320,203	105,47
320,417	-54,27
320,63	11,26
320,843	103,42
321,057	93,18
321,27	105,47
321,483	66,56
321,697	195,58
321,91	-21,5
322,124	1,02
322,337	87,04
322,55	39,94
322,763	3,07
322,977	109,57
323,19	52,22
323,403	60,42
323,617	15,36
323,83	50,18
324,043	21,5
324,256	78,85
324,469	-48,13
324,683	15,36
324,896	80,89
325,109	27,65
325,322	-39,94
325,535	140,29
325,748	173,05
325,962	23,55
326,175	41,98
326,388	99,33
326,601	113,66
326,814	35,84
327,027	130,05
327,24	150,53
327,453	-3,07
327,666	56,32
327,879	91,13
328,092	44,03
328,305	117,76
328,518	-7,17
328,731	74,75
328,944	5,12
329,157	93,18
329,37	-5,12
329,583	228,35
329,796	134,14
330,009	-46,08
330,222	113,66
330,435	136,19
330,648	-1,02
330,861	117,76
331,073	119,81
331,286	66,56
331,499	62,46
331,712	9,22
331,925	70,65
332,138	44,03
332,35	158,72
332,563	-1,02
332,776	136,19
332,989	-13,31
333,202	41,98
333,414	-21,5
333,627	95,23
333,84	62,46
334,053	82,94
334,265	41,98
334,478	27,65
334,691	103,42
334,903	95,23
335,116	21,5
335,329	87,04
335,541	62,46
335,754	179,2
335,966	58,37
336,179	121,85
336,392	23,55
336,604	80,89
336,817	199,68
337,029	58,37
337,242	52,22
337,454	132,09
337,667	52,22
337,88	187,39
338,092	103,42
338,305	136,19
338,517	72,7
338,729	134,14
338,942	242,68
339,154	-11,26
339,367	-70,65
339,579	35,84
339,792	-7,17
340,004	144,38
340,217	70,65
340,429	52,22
340,641	31,74
340,854	-50,18
341,066	-1,02
341,278	99,33
341,491	181,25
341,703	23,55
341,915	21,5
342,128	117,76
342,34	46,08
342,552	56,32
342,764	89,09
342,977	109,57
343,189	87,04
343,401	29,7
343,613	-5,12
343,826	95,23
344,038	-11,26
344,25	21,5
344,462	-44,03
344,674	66,56
344,886	95,23
345,099	87,04
345,311	134,14
345,523	60,42
345,735	-62,46
345,947	117,76
346,159	64,51
346,371	109,57
346,583	101,37
346,795	218,11
347,007	87,04
347,219	146,43
347,431	87,04
347,643	87,04
347,855	-95,23
348,067	142,33
348,279	82,94
348,491	158,72
348,703	99,33
348,915	82,94
349,127	-33,79
349,339	68,61
349,551	-17,41
349,763	150,53
349,975	82,94
350,187	117,76
350,399	193,53
350,61	97,28
350,822	11,26
351,034	68,61
351,246	87,04
351,458	72,7
351,669	128
351,881	164,86
352,093	199,68
352,305	142,33
352,517	72,7
352,728	171,01
352,94	54,27
353,152	125,95
353,363	-17,41
353,575	177,15
353,787	236,54
353,999	68,61
354,21	250,88
354,422	1,02
354,633	123,9
354,845	84,99
355,057	125,95
355,268	115,71
355,48	166,91
355,692	15,36
355,903	82,94
356,115	56,32
356,326	-9,22
356,538	209,92
356,749	144,38
356,961	216,06
357,172	80,89
357,384	-41,98
357,595	283,64
357,807	-17,41
358,018	89,09
358,23	52,22
358,441	201,72
358,653	95,23
358,864	111,61
359,075	72,7
359,287	132,09
359,498	154,62
359,709	150,53
359,921	87,04
360,132	216,06
360,344	68,61
360,555	95,23
360,766	44,03
360,977	-62,46
361,189	158,72
361,4	58,37
361,611	115,71
361,823	199,68
362,034	117,76
362,245	-23,55
362,456	48,13
362,667	152,57
362,879	13,31
363,09	60,42
363,301	158,72
363,512	107,52
363,723	31,74
363,935	54,27
364,146	144,38
364,357	58,37
364,568	52,22
364,779	35,84
364,99	207,87
365,201	9,22
365,412	209,92
365,623	-23,55
365,834	150,53
366,045	19,46
366,256	134,14
366,467	105,47
366,678	54,27
366,889	146,43
367,1	72,7
367,311	111,61
367,522	44,03
367,733	115,71
367,944	183,29
368,155	89,09
368,366	101,37
368,577	109,57
368,788	132,09
368,999	19,46
369,209	134,14
369,42	273,4
369,631	316,41
369,842	185,34
370,053	52,22
370,264	115,71
370,474	-17,41
370,685	109,57
370,896	144,38
371,107	240,64
371,317	166,91
371,528	46,08
371,739	183,29
371,95	156,67
372,16	150,53
372,371	15,36
372,582	156,67
372,792	130,05
373,003	-23,55
373,214	152,57
373,424	136,19
373,635	-9,22
373,846	123,9
374,056	48,13
374,267	89,09
374,477	29,7
374,688	41,98
374,898	128
375,109	60,42
375,319	203,77
375,53	115,71
375,74	214,01
375,951	89,09
376,161	84,99
376,372	218,11
376,582	23,55
376,793	119,81
377,003	87,04
377,214	-19,46
377,424	171,01
377,635	130,05
377,845	19,46
378,055	244,73
378,266	52,22
378,476	125,95
378,686	95,23
378,897	68,61
379,107	175,1
379,317	187,39
379,528	93,18
379,738	117,76
379,948	27,65
380,158	209,92
380,369	117,76
380,579	103,42
380,789	37,89
380,999	134,14
381,21	105,47
381,42	265,21
381,63	50,18
381,84	123,9
382,05	146,43
382,261	166,91
382,471	191,49
382,681	62,46
382,891	181,25
383,101	54,27
383,311	66,56
383,521	78,85
383,731	136,19
383,941	191,49
384,151	158,72
384,361	72,7
384,571	203,77
384,781	130,05
384,991	246,78
385,201	238,59
385,411	179,2
385,621	117,76
385,831	209,92
386,041	27,65
386,251	168,96
386,461	224,25
386,671	68,61
386,881	111,61
387,091	52,22
387,301	220,16
387,511	140,29
387,72	136,19
387,93	140,29
388,14	-21,5
388,35	107,52
388,56	179,2
388,769	189,44
388,979	140,29
389,189	29,7
389,399	103,42
389,609	105,47
389,818	158,72
390,028	197,63
390,238	84,99
390,447	-5,12
390,657	95,23
390,867	78,85
391,076	46,08
391,286	89,09
391,496	109,57
391,705	48,13
391,915	164,86
392,125	68,61
392,334	99,33
392,544	152,57
392,753	80,89
392,963	11,26
393,172	103,42
393,382	3,07
393,591	234,49
393,801	37,89
394,01	257,02
394,22	152,57
394,429	109,57
394,639	99,33
394,848	76,8
395,058	128
395,267	103,42
395,477	216,06
395,686	101,37
395,895	263,16
396,105	340,99
396,314	142,33
396,524	119,81
396,733	128
396,942	275,45
397,152	187,39
397,361	257,02
397,57	199,68
397,78	80,89
397,989	154,62
398,198	232,44
398,407	101,37
398,617	87,04
398,826	128
399,035	68,61
399,244	162,81
399,453	136,19
399,663	125,95
399,872	87,04
400,081	-23,55
400,29	203,77
400,499	119,81
400,708	111,61
400,917	132,09
401,127	27,65
401,336	56,32
401,545	232,44
401,754	183,29
401,963	154,62
402,172	109,57
402,381	-52,22
402,59	173,05
402,799	164,86
403,008	171,01
403,217	37,89
403,426	76,8
403,635	-48,13
403,844	-21,5
404,053	35,84
404,262	44,03
404,471	220,16
404,68	123,9
404,888	70,65
405,097	68,61
405,306	41,98
405,515	158,72
405,724	132,09
405,933	101,37
406,142	105,47
406,35	199,68
406,559	27,65
406,768	52,22
406,977	199,68
407,185	142,33
407,394	41,98
407,603	54,27
407,812	70,65
408,02	162,81
408,229	99,33
408,438	191,49
408,646	19,46
408,855	197,63
409,064	148,48
409,272	232,44
409,481	277,5
409,69	187,39
409,898	111,61
410,107	322,56
410,315	300,03
410,524	254,97
410,733	242,68
410,941	236,54
411,15	269,31
411,358	220,16
411,567	218,11
411,775	97,28
411,984	177,15
412,192	117,76
412,401	19,46
412,609	218,11
412,818	224,25
413,026	121,85
413,234	74,75
413,443	37,89
413,651	-9,22
413,86	27,65
414,068	195,58
414,276	193,53
414,485	15,36
414,693	308,22
414,901	199,68
415,11	52,22
415,318	95,23
415,526	113,66
415,734	125,95
415,943	52,22
416,151	93,18
416,359	-5,12
416,567	78,85
416,776	95,23
416,984	175,1
417,192	236,54
417,4	80,89
417,608	103,42
417,817	31,74
418,025	95,23
418,233	209,92
418,441	-9,22
418,649	23,55
418,857	35,84
419,065	152,57
419,273	5,12
419,481	52,22
419,689	54,27
419,897	-17,41
420,105	13,31
420,313	78,85
420,521	162,81
420,729	189,44
420,937	31,74
421,145	-13,31
421,353	115,71
421,561	216,06
421,769	9,22
421,977	62,46
422,185	142,33
422,393	46,08
422,601	156,67
422,809	148,48
423,017	78,85
423,224	35,84
423,432	164,86
423,64	119,81
423,848	103,42
424,056	1,02
424,263	123,9
424,471	27,65
424,679	162,81
424,887	-1,02
425,094	121,85
425,302	78,85
425,51	-23,55
425,718	128
425,925	35,84
426,133	11,26
426,341	295,93
426,548	70,65
426,756	-52,22
426,964	158,72
427,171	48,13
427,379	-7,17
427,586	-15,36
427,794	125,95
428,001	171,01
428,209	35,84
428,417	93,18
428,624	138,24
428,832	70,65
429,039	78,85
429,247	35,84
429,454	91,13
429,662	209,92
429,869	103,42
430,076	74,75
430,284	111,61
430,491	187,39
430,699	91,13
430,906	201,72
431,114	91,13
431,321	130,05
431,528	80,89
431,736	119,81
431,943	220,16
432,15	211,96
432,358	371,71
432,565	529,4
432,772	349,18
432,979	627,7
433,187	642,04
433,394	887,79
433,601	963,57
433,808	951,28
434,016	1014,77
434,223	1018,86
434,43	873,46
434,637	900,08
434,844	674,81
435,052	617,46
435,259	478,2
435,466	396,28
435,673	302,08
435,88	312,32
436,087	234,49
436,294	224,25
436,501	130,05
436,708	148,48
436,915	91,13
437,122	119,81
437,329	13,31
437,537	66,56
437,743	31,74
437,95	187,39
438,157	-1,02
438,364	41,98
438,571	128
438,778	152,57
438,985	89,09
439,192	142,33
439,399	44,03
439,606	138,24
439,813	162,81
440,02	136,19
440,227	187,39
440,433	128
440,64	52,22
440,847	-17,41
441,054	105,47
441,261	302,08
441,467	128
441,674	-21,5
441,881	113,66
442,088	11,26
442,294	56,32
442,501	119,81
442,708	158,72
442,914	84,99
443,121	189,44
443,328	128
443,534	195,58
443,741	60,42
443,948	-60,42
444,154	82,94
444,361	293,88
444,568	41,98
444,774	54,27
444,981	-68,61
445,187	146,43
445,394	19,46
445,6	21,5
445,807	109,57
446,013	78,85
446,22	-44,03
446,426	70,65
446,633	128
446,839	205,82
447,046	23,55
447,252	134,14
447,459	117,76
447,665	44,03
447,871	99,33
448,078	123,9
448,284	111,61
448,491	121,85
448,697	72,7
448,903	164,86
449,11	64,51
449,316	48,13
449,522	171,01
449,728	142,33
449,935	27,65
450,141	60,42
450,347	222,2
450,553	103,42
450,76	50,18
450,966	87,04
451,172	46,08
451,378	144,38
451,584	93,18
451,791	150,53
451,997	146,43
452,203	-37,89
452,409	205,82
452,615	144,38
452,821	119,81
453,027	-21,5
453,233	230,4
453,44	39,94
453,646	68,61
453,852	54,27
454,058	-33,79
454,264	111,61
454,47	142,33
454,676	54,27
454,882	58,37
455,088	76,8
455,294	89,09
455,5	123,9
455,705	97,28
455,911	-19,46
456,117	-27,65
456,323	109,57
456,529	189,44
456,735	17,41
456,941	64,51
457,147	87,04
457,352	125,95
457,558	70,65
457,764	117,76
457,97	87,04
458,176	84,99
458,381	-17,41
458,587	185,34
458,793	187,39
458,999	19,46
459,204	41,98
459,41	80,89
459,616	50,18
459,821	80,89
460,027	-56,32
460,233	164,86
460,438	173,05
460,644	21,5
460,85	152,57
461,055	74,75
461,261	78,85
461,466	17,41
461,672	58,37
461,878	44,03
462,083	209,92
462,289	41,98
462,494	44,03
462,7	60,42
462,905	68,61
463,111	175,1
463,316	226,3
463,522	109,57
463,727	52,22
463,932	154,62
464,138	111,61
464,343	95,23
464,549	117,76
464,754	203,77
464,959	119,81
465,165	64,51
465,37	99,33
465,575	78,85
465,781	-5,12
465,986	27,65
466,191	70,65
466,397	103,42
466,602	156,67
466,807	164,86
467,012	187,39
467,218	168,96
467,423	27,65
467,628	87,04
467,833	3,07
468,038	-5,12
468,244	-13,31
468,449	19,46
468,654	148,48
468,859	80,89
469,064	58,37
469,269	60,42
469,474	162,81
469,679	193,53
469,885	93,18
470,09	-25,6
470,295	60,42
470,5	74,75
470,705	125,95
470,91	173,05
471,115	175,1
471,32	-5,12
471,525	281,6
471,73	220,16
471,935	35,84
472,139	37,89
472,344	101,37
472,549	93,18
472,754	154,62
472,959	134,14
473,164	58,37
473,369	121,85
473,574	101,37
473,778	154,62
473,983	134,14
474,188	93,18
474,393	58,37
474,598	62,46
474,802	105,47
475,007	39,94
475,212	232,44
475,417	64,51
475,621	175,1
475,826	-101,37
476,031	128
476,235	105,47
476,44	-48,13
476,645	103,42
476,849	19,46
477,054	11,26
477,259	113,66
477,463	171,01
477,668	277,5
477,872	179,2
478,077	3,07
478,282	62,46
478,486	111,61
478,691	93,18
478,895	97,28
479,1	175,1
479,304	154,62
479,509	130,05
479,713	230,4
479,918	148,48
480,122	-1,02
480,326	162,81
480,531	37,89
480,735	105,47
480,94	60,42
481,144	164,86
481,348	121,85
481,553	152,57
481,757	56,32
481,961	62,46
482,166	89,09
482,37	37,89
482,574	80,89
482,778	74,75
482,983	193,53
483,187	130,05
483,391	99,33
483,595	168,96
483,8	422,91
484,004	863,22
484,208	1305,58
484,412	2120,67
484,616	3316,69
484,821	4582,33
485,025	5933,99
485,229	7582,6
485,433	8733,56
485,637	10017,64
485,841	10597,21
486,045	10918,75
486,249	10679,13
486,453	9851,75
486,657	8973,18
486,861	7701,39
487,065	6687,64
487,269	5626,79
487,473	4449,21
487,677	3556,3
487,881	3132,37
488,085	2352,09
488,289	1893,35
488,493	1340,4
488,697	1094,64
488,901	664,57
489,105	377,85
489,309	271,36
489,512	336,89
489,716	187,39
489,92	199,68
490,124	179,2
490,328	203,77
490,531	199,68
490,735	171,01
490,939	62,46
491,143	152,57
491,346	201,72
491,55	152,57
491,754	121,85
491,958	171,01
492,161	70,65
492,365	138,24
492,569	48,13
492,772	187,39
492,976	84,99
493,18	52,22
493,383	134,14
493,587	109,57
493,79	132,09
493,994	29,7
494,197	35,84
494,401	144,38
494,605	-1,02
494,808	72,7
495,012	46,08
495,215	228,35
495,419	162,81
495,622	84,99
495,825	33,79
496,029	103,42
496,232	54,27
496,436	160,77
496,639	173,05
496,843	56,32
497,046	17,41
497,249	142,33
497,453	80,89
497,656	78,85
497,859	74,75
498,063	166,91
498,266	56,32
498,469	-27,65
498,673	109,57
498,876	60,42
499,079	44,03
499,282	39,94
499,485	343,03
499,689	142,33
499,892	193,53
500,095	54,27
500,298	76,8
500,501	66,56
500,705	72,7
500,908	46,08
501,111	-13,31
501,314	44,03
501,517	140,29
501,72	89,09
501,923	171,01
502,126	15,36
502,329	128
502,532	82,94
502,735	130,05
502,938	162,81
503,141	113,66
503,344	13,31
503,547	187,39
503,75	-11,26
503,953	-15,36
504,156	207,87
504,359	134,14
504,562	99,33
504,765	58,37
504,968	128
505,17	111,61
505,373	103,42
505,576	66,56
505,779	62,46
505,982	-7,17
506,185	113,66
506,387	46,08
506,59	128
506,793	25,6
506,996	-17,41
507,198	142,33
507,401	164,86
507,604	138,24
507,807	44,03
508,009	119,81
508,212	177,15
508,415	-9,22
508,617	29,7
508,82	80,89
509,022	101,37
509,225	76,8
509,428	95,23
509,63	41,98
509,833	15,36
510,035	189,44
510,238	138,24
510,44	-37,89
510,643	166,91
510,845	117,76
511,048	148,48
511,25	103,42
511,453	138,24
511,655	156,67
511,858	228,35
512,06	226,3
512,262	23,55
512,465	93,18
512,667	95,23
512,87	-5,12
513,072	216,06
513,274	82,94
513,477	33,79
513,679	138,24
513,881	68,61
514,084	23,55
514,286	113,66
514,488	171,01
514,69	35,84
514,893	19,46
515,095	-9,22
515,297	3,07
515,499	62,46
515,701	-29,7
515,904	201,72
516,106	244,73
516,308	189,44
516,51	52,22
516,712	168,96
516,914	60,42
517,116	-44,03
517,318	52,22
517,52	111,61
517,722	72,7
517,925	60,42
518,127	66,56
518,329	183,29
518,531	19,46
518,733	123,9
518,935	35,84
519,136	148,48
519,338	21,5
519,54	121,85
519,742	68,61
519,944	123,9
520,146	107,52
520,348	46,08
520,55	148,48
520,752	29,7
520,954	50,18
521,155	93,18
521,357	1,02
521,559	148,48
521,761	109,57
521,963	60,42
522,164	128
522,366	111,61
522,568	109,57
522,77	117,76
522,971	146,43
523,173	54,27
523,375	148,48
523,576	46,08
523,778	56,32
523,98	91,13
524,181	164,86
524,383	160,77
524,584	33,79
524,786	-1,02
524,988	-3,07
525,189	175,1
525,391	134,14
525,592	29,7
525,794	-54,27
525,995	175,1
526,197	117,76
526,398	257,02
526,6	138,24
526,801	89,09
527,003	-56,32
527,204	3,07
527,406	62,46
527,607	41,98
527,808	68,61
528,01	76,8
528,211	158,72
528,412	5,12
528,614	181,25
528,815	148,48
529,016	134,14
529,218	48,13
529,419	74,75
529,62	9,22
529,822	125,95
530,023	11,26
530,224	70,65
530,425	136,19
530,626	-19,46
530,828	52,22
531,029	-9,22
531,23	191,49
531,431	-13,31
531,632	103,42
531,833	-23,55
532,035	5,12
532,236	89,09
532,437	125,95
532,638	9,22
532,839	-56,32
533,04	46,08
533,241	160,77
533,442	87,04
533,643	35,84
533,844	33,79
534,045	1,02
534,246	3,07
534,447	-44,03
534,648	46,08
534,849	183,29
535,05	-13,31
535,251	48,13
535,451	183,29
535,652	33,79
535,853	54,27
536,054	144,38
536,255	64,51
536,456	54,27
536,657	-5,12
536,857	107,52
537,058	117,76
537,259	97,28
537,46	152,57
537,66	27,65
537,861	-5,12
538,062	7,17
538,263	-84,99
538,463	109,57
538,664	134,14
538,865	-15,36
539,065	37,89
539,266	125,95
539,466	1,02
539,667	175,1
539,868	52,22
540,068	117,76
540,269	111,61
540,469	97,28
540,67	158,72
540,87	146,43
541,071	68,61
541,271	113,66
541,472	101,37
541,672	99,33
541,873	62,46
542,073	25,6
542,274	95,23
542,474	107,52
542,675	84,99
542,875	123,9
543,075	-7,17
543,276	125,95
543,476	117,76
543,676	117,76
543,877	-21,5
544,077	84,99
544,277	171,01
544,478	80,89
544,678	175,1
544,878	62,46
545,078	76,8
545,279	44,03
545,479	-11,26
545,679	82,94
545,879	91,13
546,079	101,37
546,28	-50,18
546,48	144,38
546,68	199,68
546,88	164,86
547,08	160,77
547,28	111,61
547,48	-19,46
547,68	185,34
547,88	29,7
548,081	58,37
548,281	-11,26
548,481	93,18
548,681	5,12
548,881	78,85
549,081	72,7
549,28	70,65
549,48	-21,5
549,68	60,42
549,88	48,13
550,08	-17,41
550,28	-5,12
550,48	107,52
550,68	119,81
550,88	15,36
551,08	41,98
551,279	87,04
551,479	95,23
551,679	191,49
551,879	11,26
552,079	62,46
552,278	109,57
552,478	224,25
552,678	113,66
552,878	138,24
553,077	74,75
553,277	21,5
553,477	70,65
553,676	209,92
553,876	60,42
554,076	3,07
554,275	84,99
554,475	23,55
554,674	123,9
554,874	58,37
555,074	-9,22
555,273	27,65
555,473	46,08
555,672	62,46
555,872	39,94
556,071	107,52
556,271	150,53
556,47	78,85
556,67	23,55
556,869	-7,17
557,068	87,04
557,268	93,18
557,467	74,75
557,667	189,44
557,866	15,36
558,065	41,98
558,265	60,42
558,464	-5,12
558,663	82,94
558,863	226,3
559,062	17,41
559,261	-17,41
559,461	121,85
559,66	3,07
559,859	-39,94
560,058	-11,26
560,258	-29,7
560,457	103,42
560,656	144,38
560,855	-46,08
561,054	175,1
561,253	103,42
561,453	66,56
561,652	13,31
561,851	142,33
562,05	23,55
562,249	-60,42
562,448	87,04
562,647	-3,07
562,846	35,84
563,045	109,57
563,244	54,27
563,443	87,04
563,642	54,27
563,841	68,61
564,04	101,37
564,239	44,03
564,438	62,46
564,637	-87,04
564,836	39,94
565,035	15,36
565,234	9,22
565,432	136,19
565,631	84,99
565,83	27,65
566,029	56,32
566,228	-1,02
566,427	209,92
566,625	-13,31
566,824	89,09
567,023	-25,6
567,222	125,95
567,42	-11,26
567,619	128
567,818	54,27
568,016	252,92
568,215	101,37
568,414	156,67
568,612	99,33
568,811	78,85
569,01	177,15
569,208	21,5
569,407	80,89
569,605	125,95
569,804	31,74
570,002	74,75
570,201	101,37
570,4	117,76
570,598	72,7
570,797	123,9
570,995	60,42
571,193	175,1
571,392	152,57
571,59	56,32
571,789	199,68
571,987	162,81
572,186	146,43
572,384	89,09
572,582	134,14
572,781	242,68
572,979	-23,55
573,177	70,65
573,376	115,71
573,574	171,01
573,772	103,42
573,971	64,51
574,169	23,55
574,367	125,95
574,565	56,32
574,763	105,47
574,962	146,43
575,16	134,14
575,358	52,22
575,556	117,76
575,754	103,42
575,952	144,38
576,151	132,09
576,349	189,44
576,547	64,51
576,745	168,96
576,943	144,38
577,141	134,14
577,339	82,94
577,537	109,57
577,735	269,31
577,933	148,48
578,131	82,94
578,329	265,21
578,527	60,42
578,725	248,83
578,923	60,42
579,121	134,14
579,319	-23,55
579,516	76,8
579,714	340,99
579,912	181,25
580,11	109,57
580,308	109,57
580,506	146,43
580,704	21,5
580,901	56,32
581,099	281,6
581,297	183,29
581,495	214,01
581,692	189,44
581,89	271,36
582,088	234,49
582,285	93,18
582,483	89,09
582,681	125,95
582,878	117,76
583,076	230,4
583,274	197,63
583,471	345,08
583,669	175,1
583,866	-5,12
584,064	76,8
584,262	37,89
584,459	-9,22
584,657	121,85
584,854	160,77
585,052	166,91
585,249	199,68
585,447	179,2
585,644	-66,56
585,841	195,58
586,039	150,53
586,236	177,15
586,434	48,13
586,631	105,47
586,828	48,13
587,026	119,81
587,223	13,31
587,42	-19,46
587,618	84,99
587,815	232,44
588,012	144,38
588,21	29,7
588,407	205,82
588,604	109,57
588,801	78,85
588,999	154,62
589,196	209,92
589,393	84,99
589,59	109,57
589,787	158,72
589,984	123,9
590,182	52,22
590,379	35,84
590,576	130,05
590,773	105,47
590,97	78,85
591,167	195,58
591,364	171,01
591,561	44,03
591,758	242,68
591,955	101,37
592,152	115,71
592,349	99,33
592,546	31,74
592,743	56,32
592,94	101,37
593,137	220,16
593,334	158,72
593,531	207,87
593,727	130,05
593,924	171,01
594,121	150,53
594,318	84,99
594,515	144,38
594,712	244,73
594,908	201,72
595,105	3,07
595,302	160,77
595,499	101,37
595,696	222,2
595,892	97,28
596,089	171,01
596,286	105,47
596,482	183,29
596,679	166,91
596,876	136,19
597,072	185,34
597,269	66,56
597,466	117,76
597,662	101,37
597,859	37,89
598,055	72,7
598,252	91,13
598,448	89,09
598,645	193,53
598,841	113,66
599,038	234,49
599,234	211,96
599,431	195,58
599,627	84,99
599,824	66,56
600,02	93,18
600,217	39,94
600,413	125,95
600,609	113,66
600,806	349,18
601,002	109,57
601,198	56,32
601,395	234,49
601,591	113,66
601,787	218,11
601,984	136,19
602,18	128
602,376	68,61
602,572	177,15
602,769	148,48
602,965	95,23
603,161	136,19
603,357	236,54
603,553	211,96
603,75	-17,41
603,946	60,42
604,142	181,25
604,338	297,98
604,534	37,89
604,73	168,96
604,926	93,18
605,122	193,53
605,318	33,79
605,514	185,34
605,71	29,7
605,906	168,96
606,102	46,08
606,298	185,34
606,494	179,2
606,69	173,05
606,886	62,46
607,082	68,61
607,278	17,41
607,474	193,53
607,67	138,24
607,866	27,65
608,062	123,9
608,257	195,58
608,453	9,22
608,649	166,91
608,845	68,61
609,041	39,94
609,236	101,37
609,432	101,37
609,628	187,39
609,824	52,22
610,019	1,02
610,215	58,37
610,411	218,11
610,606	273,4
610,802	29,7
610,998	187,39
611,193	78,85
611,389	-50,18
611,584	23,55
611,78	-33,79
611,976	56,32
612,171	283,64
612,367	138,24
612,562	93,18
612,758	-5,12
612,953	-99,33
613,149	7,17
613,344	89,09
613,539	76,8
613,735	142,33
613,93	82,94
614,126	37,89
614,321	115,71
614,517	185,34
614,712	173,05
614,907	187,39
615,103	144,38
615,298	80,89
615,493	44,03
615,688	60,42
615,884	156,67
616,079	130,05
616,274	117,76
616,47	7,17
616,665	29,7
616,86	31,74
617,055	109,57
617,25	101,37
617,445	115,71
617,641	60,42
617,836	46,08
618,031	7,17
618,226	138,24
618,421	138,24
618,616	-25,6
618,811	82,94
619,006	-1,02
619,201	199,68
619,396	29,7
619,591	11,26
619,786	48,13
619,981	162,81
620,176	33,79
620,371	-27,65
620,566	87,04
620,761	146,43
620,956	113,66
621,151	-21,5
621,346	29,7
621,541	23,55
621,735	146,43
621,93	123,9
622,125	46,08
622,32	19,46
622,515	-39,94
622,709	160,77
622,904	138,24
623,099	80,89
623,294	162,81
623,488	123,9
623,683	95,23
623,878	111,61
624,072	150,53
624,267	-41,98
624,462	76,8
624,656	-21,5
624,851	-48,13
625,046	87,04
625,24	-13,31
625,435	15,36
625,629	113,66
625,824	154,62
626,018	68,61
626,213	95,23
626,407	17,41
626,602	125,95
626,796	50,18
626,991	232,44
627,185	76,8
627,38	9,22
627,574	134,14
627,768	95,23
627,963	66,56
628,157	142,33
628,352	7,17
628,546	-3,07
628,74	89,09
628,935	44,03
629,129	54,27
629,323	117,76
629,517	-13,31
629,712	72,7
629,906	105,47
630,1	123,9
630,294	160,77
630,489	91,13
630,683	9,22
630,877	54,27
631,071	173,05
631,265	-3,07
631,459	162,81
631,653	3,07
631,848	130,05
632,042	62,46
632,236	-3,07
632,43	164,86
632,624	107,52
632,818	76,8
633,012	175,1
633,206	21,5
633,4	130,05
633,594	142,33
633,788	68,61
633,982	115,71
634,176	252,92
634,369	60,42
634,563	9,22
634,757	-39,94
634,951	58,37
635,145	216,06
635,339	150,53
635,533	23,55
635,726	70,65
635,92	109,57
636,114	-41,98
636,308	84,99
636,501	27,65
636,695	164,86
636,889	-48,13
637,083	177,15
637,276	99,33
637,47	-62,46
637,664	46,08
637,857	119,81
638,051	60,42
638,244	152,57
638,438	1,02
638,632	224,25
638,825	-23,55
639,019	189,44
639,212	50,18
639,406	175,1
639,599	3,07
639,793	35,84
639,986	56,32
640,18	203,77
640,373	68,61
640,567	70,65
640,76	128
640,954	152,57
641,147	52,22
641,34	19,46
641,534	13,31
641,727	175,1
641,92	117,76
642,114	216,06
642,307	-35,84
642,5	109,57
642,694	72,7
642,887	117,76
643,08	103,42
643,273	152,57
643,467	-31,74
643,66	52,22
643,853	17,41
644,046	54,27
644,239	39,94
644,432	66,56
644,626	-13,31
644,819	39,94
645,012	84,99
645,205	115,71
645,398	103,42
645,591	76,8
645,784	33,79
645,977	31,74
646,17	78,85
646,363	56,32
646,556	-21,5
646,749	-3,07
646,942	84,99
647,135	121,85
647,328	-19,46
647,521	152,57
647,714	66,56
647,907	164,86
648,099	68,61
648,292	113,66
648,485	62,46
648,678	91,13
648,871	50,18
649,064	82,94
649,256	35,84
649,449	58,37
649,642	-54,27
649,835	17,41
650,027	64,51
650,22	142,33
650,413	123,9
650,605	152,57
650,798	19,46
650,991	95,23
651,183	113,66
651,376	179,2
651,568	197,63
651,761	74,75
651,954	181,25
652,146	130,05
652,339	306,17
652,531	318,46
652,724	50,18
652,916	130,05
653,109	11,26
653,301	148,48
653,494	218,11
653,686	246,78
653,879	367,61
654,071	336,89
654,263	287,74
654,456	601,08
654,648	2249,69
654,84	6677,4
655,033	15299,35
655,225	26124,91
655,417	37677,51
655,61	47997,22
655,802	56277,16
655,994	61093,98
656,186	62545,99
656,379	59785,33
656,571	55871,66
656,763	50194,69
656,955	45728,07
657,148	42101,12
657,34	37724,61
657,532	33575,42
657,724	30423,6
657,916	27095,65
658,108	23124,64
658,3	19602,13
658,492	15989,52
658,684	13101,88
658,876	10978,14
659,068	8668,03
659,26	6677,4
659,452	5100,47
659,644	3695,56
659,836	2679,77
660,028	1899,49
660,22	1264,62
660,412	934,9
660,604	797,68
660,796	566,26
660,988	556,02
661,18	406,52
661,372	410,62
661,563	310,27
661,755	271,36
661,947	228,35
662,139	160,77
662,331	168,96
662,522	273,4
662,714	62,46
662,906	52,22
663,097	23,55
663,289	154,62
663,481	31,74
663,673	175,1
663,864	138,24
664,056	168,96
664,247	-19,46
664,439	224,25
664,631	142,33
664,822	130,05
665,014	64,51
665,205	5,12
665,397	97,28
665,588	35,84
665,78	93,18
665,971	166,91
666,163	29,7
666,354	70,65
666,546	41,98
666,737	46,08
666,929	9,22
667,12	-7,17
667,311	175,1
667,503	35,84
667,694	193,53
667,885	109,57
668,077	82,94
668,268	-56,32
668,459	15,36
668,651	70,65
668,842	136,19
669,033	-68,61
669,224	-52,22
669,416	267,26
669,607	35,84
669,798	11,26
669,989	173,05
670,18	78,85
670,371	99,33
670,563	-76,8
670,754	150,53
670,945	132,09
671,136	150,53
671,327	35,84
671,518	125,95
671,709	72,7
671,9	144,38
672,091	111,61
672,282	76,8
672,473	33,79
672,664	-5,12
672,855	-9,22
673,046	11,26
673,237	164,86
673,428	111,61
673,619	134,14
673,809	111,61
674	211,96
674,191	97,28
674,382	76,8
674,573	15,36
674,764	91,13
674,954	-19,46
675,145	-11,26
675,336	3,07
675,527	21,5
675,717	-21,5
675,908	31,74
676,099	33,79
676,289	89,09
676,48	-52,22
676,671	68,61
676,861	89,09
677,052	31,74
677,243	72,7
677,433	48,13
677,624	64,51
677,814	54,27
678,005	31,74
678,195	97,28
678,386	46,08
678,576	46,08
678,767	-52,22
678,957	76,8
679,148	44,03
679,338	52,22
679,529	103,42
679,719	70,65
679,909	140,29
680,1	136,19
680,29	64,51
680,481	-84,99
680,671	60,42
680,861	84,99
681,052	-41,98
681,242	19,46
681,432	128
681,622	44,03
681,813	-82,94
682,003	-3,07
682,193	-80,89
682,383	23,55
682,573	-5,12
682,764	21,5
682,954	27,65
683,144	101,37
683,334	-5,12
683,524	-3,07
683,714	136,19
683,904	11,26
684,094	17,41
684,284	44,03
684,474	121,85
684,664	103,42
684,854	78,85
685,044	-5,12
685,234	56,32
685,424	39,94
685,614	-19,46
685,804	80,89
685,994	-17,41
686,184	62,46
686,374	37,89
686,564	46,08
686,753	17,41
686,943	-181,25
687,133	19,46
687,323	7,17
687,513	80,89
687,702	37,89
687,892	39,94
688,082	128
688,272	117,76
688,461	15,36
688,651	193,53
688,841	48,13
689,03	-39,94
689,22	52,22
689,41	52,22
689,599	66,56
689,789	5,12
689,979	201,72
690,168	5,12
690,358	117,76
690,547	31,74
690,737	27,65
690,926	46,08
691,116	80,89
691,305	148,48
691,495	93,18
691,684	25,6
691,874	-52,22
692,063	-3,07
692,252	136,19
692,442	87,04
692,631	-54,27
692,82	-56,32
693,01	31,74
693,199	46,08
693,388	91,13
693,578	-1,02
693,767	62,46
693,956	76,8
694,146	-60,42
694,335	134,14
694,524	19,46
694,713	144,38
694,902	-9,22
695,092	-17,41
695,281	72,7
695,47	80,89
695,659	-9,22
695,848	23,55
696,037	5,12
696,226	128
696,415	21,5
696,604	211,96
696,793	166,91
696,982	-35,84
697,171	214,01
697,36	15,36
697,549	66,56
697,738	-130,05
697,927	123,9
698,116	15,36
698,305	48,13
698,494	87,04
698,683	-13,31
698,872	232,44
699,061	62,46
699,25	11,26
699,438	11,26
699,627	11,26
699,816	183,29
700,005	-60,42
700,193	-25,6
700,382	136,19
700,571	80,89
700,76	80,89
700,948	125,95
701,137	76,8
701,326	68,61
701,514	-5,12
701,703	101,37
701,892	123,9
702,08	277,5
702,269	23,55
702,457	7,17
702,646	62,46
702,834	46,08
703,023	164,86
703,212	52,22
703,4	27,65
703,589	29,7
703,777	3,07
703,965	72,7
704,154	-58,37
704,342	-3,07
704,531	-15,36
704,719	35,84
704,907	142,33
705,096	-46,08
705,284	-35,84
705,472	144,38
705,661	64,51
705,849	68,61
706,037	115,71
706,226	64,51
706,414	44,03
706,602	3,07
706,79	168,96
706,979	-9,22
707,167	-5,12
707,355	-9,22
707,543	31,74
707,731	54,27
707,919	5,12
708,107	-13,31
708,296	-27,65
708,484	21,5
708,672	99,33
708,86	82,94
709,048	-13,31
709,236	-29,7
709,424	62,46
709,612	27,65
709,8	-87,04
709,988	-17,41
710,176	89,09
710,364	128
710,551	95,23
710,739	15,36
710,927	-3,07
711,115	19,46
711,303	146,43
711,491	144,38
711,679	-9,22
711,866	87,04
712,054	-41,98
712,242	27,65
712,43	154,62
712,617	-13,31
712,805	97,28
712,993	46,08
713,181	-5,12
713,368	11,26
713,556	-58,37
713,744	21,5
713,931	158,72
714,119	78,85
714,306	3,07
714,494	-11,26
714,682	56,32
714,869	-78,85
715,057	54,27
715,244	-27,65
715,432	99,33
715,619	-1,02
715,807	72,7
715,994	-31,74
716,182	95,23
716,369	87,04
716,556	87,04
716,744	-41,98
716,931	-21,5
717,119	72,7
717,306	27,65
717,493	19,46
717,681	62,46
717,868	-33,79
718,055	99,33
718,242	3,07
718,43	70,65
718,617	60,42
718,804	19,46
718,991	201,72
719,179	80,89
719,366	93,18
719,553	68,61
719,74	13,31
719,927	-11,26
720,114	-19,46
720,301	-37,89
720,488	-7,17
720,676	-41,98
720,863	31,74
721,05	226,3
721,237	60,42
721,424	33,79
721,611	-17,41
721,798	-27,65
721,985	-41,98
722,172	-66,56
722,358	44,03
722,545	119,81
722,732	41,98
722,919	130,05
723,106	-13,31
723,293	-25,6
723,48	-54,27
723,667	-35,84
723,853	117,76
724,04	150,53
724,227	62,46
724,414	-11,26
724,6	60,42
724,787	87,04
724,974	95,23
725,161	-23,55
725,347	-78,85
725,534	50,18
725,72	27,65
725,907	160,77
726,094	117,76
726,28	-31,74
726,467	97,28
726,653	-5,12
726,84	109,57
727,027	175,1
727,213	-1,02
727,4	87,04
727,586	31,74
727,773	15,36
727,959	19,46
728,145	-1,02
728,332	117,76
728,518	-1,02
728,705	72,7
728,891	89,09
729,077	60,42
729,264	-87,04
729,45	-29,7
729,636	117,76
729,823	39,94
730,009	93,18
730,195	27,65
730,382	7,17
730,568	-64,51
730,754	54,27
730,94	33,79
731,126	123,9
731,313	21,5
731,499	72,7
731,685	185,34
731,871	132,09
732,057	66,56
732,243	130,05
732,429	25,6
732,615	216,06
732,801	-5,12
732,987	-84,99
733,173	3,07
733,359	62,46
733,545	48,13
733,731	-31,74
733,917	125,95
734,103	44,03
734,289	78,85
734,475	-64,51
734,661	187,39
734,847	15,36
735,033	-11,26
735,219	89,09
735,404	13,31
735,59	-19,46
735,776	1,02
735,962	-13,31
736,148	117,76
736,333	128
736,519	-29,7
736,705	54,27
736,89	95,23
737,076	50,18
737,262	-84,99
737,447	-44,03
737,633	31,74
737,819	76,8
738,004	76,8
738,19	-3,07
738,375	56,32
738,561	146,43
738,747	91,13
738,932	39,94
739,118	228,35
739,303	109,57
739,489	117,76
739,674	-1,02
739,859	-58,37
740,045	105,47
740,23	89,09
740,416	-191,49
740,601	-27,65
740,786	31,74
740,972	-64,51
741,157	5,12
741,342	-74,75
741,528	-13,31
741,713	44,03
741,898	39,94
742,084	-21,5
742,269	17,41
742,454	60,42
742,639	46,08
742,824	109,57
743,01	68,61
743,195	113,66
743,38	41,98
743,565	-9,22
743,75	21,5
743,935	123,9
744,12	107,52
744,305	-84,99
744,49	74,75
744,675	15,36
744,86	-1,02
745,045	15,36
745,23	-74,75
745,415	21,5
745,6	119,81
745,785	25,6
745,97	117,76
746,155	93,18
746,34	70,65
746,525	39,94
746,71	107,52
746,895	78,85
747,079	-11,26
747,264	25,6
747,449	148,48
747,634	125,95
747,819	29,7
748,003	66,56
748,188	17,41
748,373	144,38
748,557	128
748,742	66,56
748,927	56,32
749,111	39,94
749,296	31,74
749,481	107,52
749,665	46,08
749,85	-87,04
750,034	177,15
750,219	-54,27
750,404	25,6
750,588	97,28
750,773	74,75
750,957	-9,22
751,141	-9,22
751,326	125,95
751,51	48,13
751,695	-13,31
751,879	58,37
752,064	275,45
752,248	64,51
752,432	166,91
752,617	125,95
752,801	125,95
752,985	58,37
753,17	84,99
753,354	113,66
753,538	103,42
753,722	21,5
753,907	56,32
754,091	-66,56
754,275	39,94
754,459	-60,42
754,643	-5,12
754,828	60,42
755,012	84,99
755,196	-54,27
755,38	130,05
755,564	70,65
755,748	140,29
755,932	125,95
756,116	128
756,3	84,99
756,484	-29,7
756,668	164,86
756,852	-91,13
757,036	138,24
757,22	35,84
757,404	-46,08
757,588	74,75
757,772	74,75
757,956	15,36
758,14	156,67
758,323	-72,7
758,507	140,29
758,691	-29,7
758,875	123,9
759,059	191,49
759,242	-89,09
759,426	19,46
759,61	101,37
759,794	25,6
759,977	64,51
760,161	291,84
760,345	125,95
760,528	171,01
760,712	44,03
760,895	84,99
761,079	50,18
761,263	-25,6
761,446	54,27
761,63	31,74
761,813	109,57
761,997	-95,23
762,18	7,17
762,364	93,18
762,547	-136,19
762,731	3,07
762,914	64,51
763,098	-5,12
763,281	-11,26
763,464	60,42
763,648	-9,22
763,831	7,17
764,015	-76,8
764,198	140,29
764,381	27,65
764,564	39,94
764,748	-19,46
764,931	76,8
765,114	25,6
765,297	95,23
765,481	-21,5
765,664	-11,26
765,847	-1,02
766,03	76,8
766,213	44,03
766,397	-37,89
766,58	-35,84
766,763	125,95
766,946	23,55
767,129	-72,7
767,312	-11,26
767,495	50,18
767,678	-64,51
767,861	48,13
768,044	5,12
768,227	33,79
768,41	46,08
768,593	23,55
768,776	39,94
768,959	-15,36
769,142	226,3
769,324	3,07
769,507	119,81
769,69	-107,52
769,873	29,7
770,056	197,63
770,239	44,03
770,421	171,01
770,604	107,52
770,787	7,17
770,97	78,85
771,152	-46,08
771,335	-11,26
771,518	15,36
771,7	91,13
771,883	179,2
772,066	35,84
772,248	27,65
772,431	89,09
772,613	164,86
772,796	5,12
772,978	46,08
773,161	171,01
773,343	44,03
773,526	19,46
773,708	-33,79
773,891	-97,28
774,073	115,71
774,256	9,22
774,438	150,53
774,621	-148,48
774,803	23,55
774,985	23,55
775,168	78,85
775,35	39,94
775,532	144,38
775,715	-29,7
775,897	111,61
776,079	-23,55
776,261	238,59
776,444	283,64
776,626	435,19
776,808	599,03
776,99	633,85
777,173	869,36
777,355	1027,06
777,537	936,95
777,719	920,56
777,901	787,44
778,083	639,99
778,265	504,82
778,447	658,42
778,629	381,95
778,811	533,5
778,993	502,78
779,175	404,47
779,357	308,22
779,539	279,55
779,721	273,4
779,903	183,29
780,085	103,42
780,267	87,04
780,449	68,61
780,631	248,83
780,812	269,31
780,994	64,51
781,176	27,65
781,358	-1,02
781,54	48,13
781,721	128
781,903	125,95
782,085	-35,84
782,267	99,33
782,448	-121,85
782,63	3,07
782,812	52,22
782,993	87,04
783,175	60,42
783,357	-9,22
783,538	3,07
783,72	-9,22
783,901	19,46
784,083	31,74
784,264	37,89
784,446	-7,17
784,627	-46,08
784,809	160,77
784,99	-58,37
785,172	109,57
785,353	21,5
785,535	146,43
785,716	29,7
785,897	-33,79
786,079	-19,46
786,26	27,65
786,441	-1,02
786,623	-99,33
786,804	-19,46
786,985	35,84
787,167	39,94
787,348	68,61
787,529	5,12
787,71	171,01
787,891	103,42
788,073	13,31
788,254	-39,94
788,435	154,62
788,616	87,04
788,797	-91,13
788,978	68,61
789,159	5,12
789,34	89,09
789,522	-31,74
789,703	-17,41
789,884	64,51
790,065	54,27
790,246	138,24
790,427	13,31
790,607	240,64
790,788	105,47
790,969	-41,98
791,15	76,8
791,331	19,46
791,512	9,22
791,693	-70,65
791,874	17,41
792,054	150,53
792,235	76,8
792,416	23,55
792,597	-50,18
792,778	37,89
792,958	80,89
793,139	101,37
793,32	82,94
793,5	-78,85
793,681	134,14
793,862	31,74
794,042	37,89
794,223	-66,56
794,404	39,94
794,584	-25,6
794,765	-7,17
794,945	7,17
795,126	25,6
795,306	132,09
795,487	-5,12
795,667	7,17
795,848	5,12
796,028	23,55
796,209	-29,7
796,389	33,79
796,57	23,55
796,75	-25,6
796,93	1,02
797,111	-62,46
797,291	46,08
797,471	62,46
797,652	-19,46
797,832	-70,65
798,012	37,89
798,192	-9,22
798,373	-68,61
798,553	56,32
798,733	-27,65
798,913	-27,65
799,093	-56,32
799,274	15,36
799,454	89,09
799,634	80,89
799,814	60,42
799,994	107,52
800,174	87,04
800,354	-9,22
800,534	-134,14
800,714	48,13
800,894	-46,08
801,074	-46,08
801,254	5,12
801,434	117,76
801,614	46,08
801,794	-54,27
801,974	2018,27
802,154	1,02
802,334	93,18
802,514	-37,89
802,693	39,94
802,873	5,12
803,053	89,09
803,233	9,22
803,413	-29,7
803,592	-13,31
803,772	-33,79
803,952	-80,89
804,131	-5,12
804,311	111,61
804,491	76,8
804,67	-50,18
804,85	-56,32
805,03	84,99
805,209	74,75
805,389	21,5
805,568	27,65
805,748	-11,26
805,928	58,37
806,107	72,7
806,287	52,22
806,466	101,37
806,646	39,94
806,825	-50,18
807,004	-31,74
807,184	33,79
807,363	5,12
807,543	29,7
807,722	13,31
807,901	93,18
808,081	60,42
808,26	-140,29
808,439	68,61
808,619	56,32
808,798	-9,22
808,977	82,94
809,156	117,76
809,336	68,61
809,515	35,84
809,694	-44,03
809,873	29,7
810,052	62,46
810,231	113,66
810,411	25,6
810,59	70,65
810,769	52,22
810,948	-1,02
811,127	-138,24
811,306	31,74
811,485	50,18
811,664	179,2
811,843	80,89
812,022	-5,12
812,201	21,5
812,38	80,89
812,559	-97,28
812,737	50,18
812,916	-82,94
813,095	5,12
813,274	-1,02
813,453	41,98
813,632	25,6
813,811	89,09
813,989	-150,53
814,168	87,04
814,347	17,41
814,526	64,51
814,704	195,58
814,883	68,61
815,062	-105,47
815,24	56,32
815,419	-29,7
815,598	78,85
815,776	-103,42
815,955	46,08
816,133	-76,8
816,312	56,32
816,49	-76,8
816,669	27,65
816,847	27,65
817,026	-89,09
817,204	19,46
817,383	-68,61
817,561	-68,61
817,74	72,7
817,918	29,7
818,097	-72,7
818,275	-80,89
818,453	132,09
818,632	138,24
818,81	-5,12
818,988	-25,6
819,167	-5,12
819,345	-66,56
819,523	-119,81
819,701	9,22
819,879	121,85
820,058	1,02
820,236	111,61
820,414	-19,46
820,592	-31,74
820,77	33,79
820,948	-31,74
821,127	-46,08
821,305	21,5
821,483	-9,22
821,661	21,5
821,839	35,84
822,017	-74,75
822,195	-33,79
822,373	66,56
822,551	-62,46
822,729	95,23
822,907	62,46
823,085	11,26
823,262	46,08
823,44	-11,26
823,618	-95,23
823,796	60,42
823,974	-52,22
824,152	-25,6
824,329	-29,7
824,507	113,66
824,685	7,17
824,863	-46,08
825,04	60,42
825,218	72,7
825,396	29,7
825,574	58,37
825,751	-13,31
825,929	91,13
826,107	-58,37
826,284	-50,18
826,462	5,12
826,639	-37,89
826,817	-105,47
826,994	-35,84
827,172	-37,89
827,349	158,72
827,527	35,84
827,704	-41,98
827,882	44,03
828,059	11,26
828,237	-52,22
828,414	136,19
828,591	-76,8
828,769	-62,46
828,946	-35,84
829,124	5,12
829,301	101,37
829,478	9,22
829,655	-3,07
829,833	25,6
830,01	-134,14
830,187	52,22
830,364	19,46
830,542	39,94
830,719	189,44
830,896	-21,5
831,073	48,13
831,25	-29,7
831,427	13,31
831,604	-13,31
831,782	35,84
831,959	31,74
832,136	48,13
832,313	19,46
832,49	-21,5
832,667	-5,12
832,844	-54,27
833,021	142,33
833,198	21,5
833,374	58,37
833,551	5,12
833,728	19,46
833,905	58,37
834,082	-70,65
834,259	66,56
834,436	72,7
834,612	-23,55
834,789	148,48
834,966	25,6
835,143	70,65
835,319	-60,42
835,496	78,85
835,673	109,57
835,85	117,76
836,026	80,89
836,203	37,89
836,38	-82,94
836,556	-66,56
836,733	5,12
836,909	111,61
837,086	31,74
837,262	-80,89
837,439	103,42
837,616	-68,61
837,792	-29,7
837,968	78,85
838,145	-70,65
838,321	58,37
838,498	-1,02
838,674	3,07
838,851	23,55
839,027	-21,5
839,203	-19,46
839,38	15,36
839,556	-33,79
839,732	7,17
839,909	-17,41
840,085	29,7
840,261	-60,42
840,437	-13,31
840,614	-29,7
840,79	76,8
840,966	68,61
841,142	-35,84
841,318	-46,08
841,494	68,61
841,671	142,33
841,847	-138,24
842,023	-76,8
842,199	-17,41
842,375	203,77
842,551	-164,86
842,727	-11,26
842,903	89,09
843,079	-52,22
843,255	162,81
843,431	99,33
843,607	111,61
843,783	31,74
843,959	164,86
844,134	179,2
844,31	392,19
844,486	277,5
844,662	336,89
844,838	363,51
845,013	361,47
845,189	386,04
845,365	187,39
845,541	183,29
845,716	164,86
845,892	273,4
846,068	19,46
846,244	76,8
846,419	156,67
846,595	54,27
846,77	-5,12
846,946	109,57
847,122	93,18
847,297	142,33
847,473	175,1
847,648	-15,36
847,824	121,85
847,999	-66,56
848,175	60,42
848,35	58,37
848,526	119,81
848,701	-7,17
848,876	76,8
849,052	123,9
849,227	27,65
849,403	76,8
849,578	7,17
849,753	17,41
849,929	39,94
850,104	-125,95
850,279	13,31
850,454	72,7
850,63	84,99
850,805	117,76
850,98	76,8
851,155	-44,03
851,33	87,04
851,505	-93,18
851,681	148,48
851,856	1,02
852,031	23,55
852,206	66,56
852,381	-78,85
852,556	-33,79
852,731	52,22
852,906	66,56
853,081	-11,26
853,256	115,71
853,431	-41,98
853,606	-37,89
853,781	-93,18
853,956	-144,38
854,131	27,65
854,305	-130,05
854,48	-5,12
854,655	-46,08
854,83	-44,03
855,005	23,55
855,18	41,98
855,354	-5,12
855,529	37,89
855,704	25,6
855,879	84,99
856,053	-29,7
856,228	-37,89
856,403	-21,5
856,577	93,18
856,752	-72,7
856,926	74,75
857,101	27,65
857,276	-68,61
857,45	54,27
857,625	64,51
857,799	-54,27
857,974	-5,12
858,148	-152,57
858,323	89,09
858,497	-52,22
858,672	-62,46
858,846	-19,46
859,02	27,65
859,195	-70,65
859,369	-35,84
859,543	15,36
859,718	-29,7
859,892	13,31
860,066	19,46
860,241	-29,7
860,415	-54,27
860,589	-31,74
860,763	13,31
860,938	-91,13
861,112	70,65
861,286	-17,41
861,46	7,17
861,634	25,6
861,808	62,46
861,982	-44,03
862,157	-115,71
862,331	-58,37
862,505	-74,75
862,679	-60,42
862,853	-70,65
863,027	9,22
863,201	119,81
863,375	-41,98
863,549	66,56
863,722	58,37
863,896	140,29
864,07	37,89
864,244	54,27
864,418	7,17
864,592	1,02
864,766	41,98
864,939	15,36
865,113	-21,5
865,287	117,76
865,461	-154,62
865,634	-7,17
865,808	29,7
865,982	-58,37
866,156	-78,85
866,329	-52,22
866,503	78,85
866,676	78,85
866,85	64,51
867,024	27,65
867,197	78,85
867,371	-9,22
867,544	19,46
867,718	-87,04
867,891	109,57
868,065	-44,03
868,238	17,41
868,412	72,7
868,585	-9,22
868,759	-72,7
868,932	-19,46
869,105	-142,33
869,279	-56,32
869,452	-3,07
869,625	115,71
869,799	-78,85
869,972	-117,76
870,145	-46,08
870,319	78,85
870,492	-62,46
870,665	-31,74
870,838	-64,51
871,011	-91,13
871,185	-44,03
871,358	-68,61
871,531	27,65
871,704	-25,6
871,877	-39,94
872,05	-33,79
872,223	-119,81
872,396	117,76
872,569	72,7
872,742	-140,29
872,915	-25,6
873,088	5,12
873,261	-132,09
873,434	91,13
873,607	-23,55
873,78	125,95
873,953	-52,22
874,126	11,26
874,299	-1,02
874,471	-25,6
874,644	-48,13
874,817	56,32
874,99	134,14
875,163	15,36
875,335	-21,5
875,508	13,31
875,681	146,43
875,853	-107,52
876,026	11,26
876,199	39,94
876,371	35,84
876,544	-29,7
876,717	-50,18
876,889	-39,94
877,062	23,55
877,234	-87,04
877,407	-23,55
877,579	21,5
877,752	46,08
877,924	95,23
878,097	33,79
878,269	21,5
878,442	-5,12
878,614	89,09
878,786	19,46
878,959	5,12
879,131	39,94
879,303	-93,18
879,476	-19,46
879,648	64,51
879,82	82,94
879,993	21,5
880,165	7,17
880,337	-95,23
880,509	-3,07
880,681	-93,18
880,854	-9,22
881,026	93,18
881,198	117,76
881,37	56,32
881,542	46,08
881,714	-52,22
881,886	7,17
882,058	-5,12
882,23	27,65
882,402	-33,79
882,574	44,03
882,746	54,27
882,918	119,81
883,09	9,22
883,262	13,31
883,434	37,89
883,606	-150,53
883,778	-33,79
883,95	103,42
884,122	-41,98
884,293	80,89
884,465	33,79
884,637	93,18
884,809	-23,55
884,98	74,75
885,152	44,03
885,324	70,65
885,496	-91,13
885,667	-25,6
885,839	19,46
886,011	113,66
886,182	39,94
886,354	78,85
886,525	35,84
886,697	54,27
886,869	-68,61
887,04	27,65
887,212	58,37
887,383	162,81
887,555	15,36
887,726	-54,27
887,897	-52,22
888,069	50,18
888,24	138,24
888,412	-3,07
888,583	-27,65
888,754	-33,79
888,926	-148,48
889,097	19,46
889,268	-119,81
889,44	39,94
889,611	-66,56
889,782	-91,13
889,953	-82,94
890,125	87,04
890,296	19,46
890,467	62,46
890,638	-13,31
890,809	-35,84
890,98	-58,37
891,151	44,03
891,323	109,57
891,494	23,55
891,665	-13,31
891,836	-5,12
892,007	-23,55
892,178	54,27
892,349	-15,36
892,52	-3,07
892,691	1,02
892,862	41,98
893,032	-50,18
893,203	-103,42
893,374	44,03
893,545	62,46
893,716	-29,7
893,887	78,85
894,057	-44,03
894,228	9,22
894,399	-48,13
894,57	62,46
894,74	3,07
894,911	25,6
895,082	-3,07
895,253	-72,7
895,423	-29,7
895,594	78,85
895,764	128
895,935	-52,22
896,106	54,27
896,276	-52,22
896,447	-11,26
896,617	-25,6
896,788	-56,32
896,958	27,65
897,129	27,65
897,299	-3,07
897,47	130,05
897,64	-13,31
897,81	-48,13
897,981	41,98
898,151	-64,51
898,322	62,46
898,492	37,89
898,662	-58,37
898,832	-89,09
899,003	11,26
899,173	44,03
899,343	-13,31
899,513	-60,42
