Data from deuterium_USB4F104151__26__10-57-07-606.txt Node

Date: Wed Apr 15 10:57:07 EDT 2026
User: LaboPhy
Spectrometer: USB4F10415
Trigger mode: 4
Integration Time (sec): 1,000000E-1
Scans to average: 1
Electric dark correction enabled: true
Nonlinearity correction enabled: false
Boxcar width: 0
XAxis mode: Wavelengths
Number of Pixels in Spectrum: 3648
>>>>>Begin Spectral Data<<<<<
178,204	-482,13
178,424	-482,13
178,644	-482,13
178,864	-408,4
179,084	-439,12
179,304	-4,95
179,524	42,15
179,744	91,31
179,964	60,59
180,184	-29,52
180,404	19,63
180,624	-78,68
180,844	-39,76
181,064	-47,96
181,283	-62,29
181,503	-41,81
181,723	91,31
181,943	-125,78
182,163	193,7
182,383	-58,2
182,602	64,68
182,822	214,18
183,042	162,98
183,262	46,25
183,482	-62,29
183,701	13,48
183,921	44,2
184,141	-82,77
184,361	107,69
184,58	122,02
184,8	58,54
185,02	-82,77
185,239	148,65
185,459	93,35
185,679	144,55
185,898	-13,14
186,118	56,49
186,338	64,68
186,557	154,79
186,777	-2,9
186,997	-62,29
187,216	64,68
187,436	294,05
187,655	103,59
187,875	140,46
188,095	74,92
188,314	113,83
188,534	173,22
188,753	42,15
188,973	89,26
189,192	203,94
189,412	21,67
189,631	23,72
189,851	113,83
190,07	128,17
190,29	-0,85
190,509	-27,48
190,729	-41,81
190,948	66,73
191,168	140,46
191,387	115,88
191,607	42,15
191,826	113,83
192,045	64,68
192,265	-15,19
192,484	117,93
192,704	87,21
192,923	-45,91
193,142	144,55
193,362	103,59
193,581	142,5
193,8	-4,95
194,02	31,91
194,239	44,2
194,458	115,88
194,678	-25,43
194,897	-62,29
195,116	70,83
195,335	99,5
195,555	-2,9
195,774	54,44
195,993	105,64
196,212	60,59
196,432	1,19
196,651	-0,85
196,87	13,48
197,089	261,29
197,308	46,25
197,528	85,16
197,747	-47,96
197,966	42,15
198,185	162,98
198,404	-31,57
198,623	97,45
198,842	195,75
199,062	105,64
199,281	93,35
199,5	40,11
199,719	89,26
199,938	107,69
200,157	89,26
200,376	183,46
200,595	119,98
200,814	36,01
201,033	-95,06
201,252	158,89
201,471	97,45
201,69	72,87
201,909	40,11
202,128	107,69
202,347	83,11
202,566	68,78
202,785	-29,52
203,004	-37,72
203,223	316,58
203,442	-25,43
203,661	-41,81
203,879	99,5
204,098	109,74
204,317	15,53
204,536	83,11
204,755	156,84
204,974	134,31
205,193	-54,1
205,411	107,69
205,63	99,5
205,849	97,45
206,068	-0,85
206,287	-9,05
206,505	193,7
206,724	93,35
206,943	-37,72
207,162	85,16
207,381	152,74
207,599	19,63
207,818	64,68
208,037	-52,05
208,255	23,72
208,474	7,34
208,693	50,35
208,911	-13,14
209,13	124,07
209,349	70,83
209,567	76,97
209,786	17,58
210,005	91,31
210,223	68,78
210,442	-97,11
210,661	33,96
210,879	60,59
211,098	58,54
211,316	9,39
211,535	66,73
211,753	50,35
211,972	85,16
212,191	48,3
212,409	13,48
212,628	162,98
212,846	50,35
213,065	17,58
213,283	148,65
213,502	97,45
213,72	-0,85
213,938	72,87
214,157	31,91
214,375	74,92
214,594	36,01
214,812	50,35
215,031	3,24
215,249	44,2
215,467	21,67
215,686	36,01
215,904	38,06
216,122	103,59
216,341	171,18
216,559	-37,72
216,778	81,07
216,996	68,78
217,214	95,4
217,432	-13,14
217,651	-31,57
217,869	99,5
218,087	87,21
218,306	-17,24
218,524	60,59
218,742	5,29
218,96	81,07
219,179	-0,85
219,397	19,63
219,615	294,05
219,833	74,92
220,051	-35,67
220,27	99,5
220,488	189,61
220,706	124,07
220,924	-82,77
221,142	31,91
221,36	66,73
221,578	62,63
221,796	54,44
222,015	-0,85
222,233	31,91
222,451	255,14
222,669	-64,34
222,887	130,22
223,105	19,63
223,323	103,59
223,541	-37,72
223,759	64,68
223,977	27,82
224,195	183,46
224,413	70,83
224,631	40,11
224,849	148,65
225,067	199,85
225,285	-29,52
225,503	-52,05
225,721	-82,77
225,939	113,83
226,157	-25,43
226,375	236,71
226,592	27,82
226,81	-23,38
227,028	117,93
227,246	31,91
227,464	56,49
227,682	99,5
227,9	64,68
228,117	87,21
228,335	99,5
228,553	89,26
228,771	-17,24
228,989	7,34
229,206	228,52
229,424	40,11
229,642	-0,85
229,86	-29,52
230,077	122,02
230,295	107,69
230,513	113,83
230,731	33,96
230,948	162,98
231,166	253,09
231,384	89,26
231,601	-25,43
231,819	214,18
232,037	-93,01
232,254	-47,96
232,472	-17,24
232,689	38,06
232,907	99,5
233,125	85,16
233,342	-17,24
233,56	36,01
233,777	23,72
233,995	-35,67
234,213	97,45
234,43	144,55
234,648	60,59
234,865	-19,29
235,083	85,16
235,3	56,49
235,518	72,87
235,735	173,22
235,953	76,97
236,17	68,78
236,388	81,07
236,605	56,49
236,822	95,4
237,04	136,36
237,257	124,07
237,475	-54,1
237,692	11,43
237,909	79,02
238,127	-31,57
238,344	109,74
238,562	46,25
238,779	-84,82
238,996	-64,34
239,214	101,55
239,431	93,35
239,648	52,39
239,865	46,25
240,083	132,26
240,3	60,59
240,517	-17,24
240,735	17,58
240,952	128,17
241,169	17,58
241,386	54,44
241,603	13,48
241,821	-52,05
242,038	111,78
242,255	107,69
242,472	-13,14
242,689	25,77
242,907	95,4
243,124	33,96
243,341	-17,24
243,558	38,06
243,775	-9,05
243,992	-58,2
244,209	97,45
244,426	138,41
244,643	56,49
244,86	19,63
245,078	128,17
245,295	11,43
245,512	19,63
245,729	-50
245,946	158,89
246,163	33,96
246,38	40,11
246,597	99,5
246,814	-4,95
247,031	66,73
247,248	54,44
247,464	93,35
247,681	31,91
247,898	64,68
248,115	85,16
248,332	-25,43
248,549	122,02
248,766	72,87
248,983	119,98
249,2	89,26
249,417	58,54
249,633	9,39
249,85	27,82
250,067	-15,19
250,284	113,83
250,501	64,68
250,717	79,02
250,934	-72,53
251,151	101,55
251,368	-39,76
251,585	122,02
251,801	5,29
252,018	7,34
252,235	130,22
252,451	-107,35
252,668	25,77
252,885	83,11
253,102	23,72
253,318	-72,53
253,535	11,43
253,752	15,53
253,968	-31,57
254,185	19,63
254,401	56,49
254,618	113,83
254,835	-66,39
255,051	230,57
255,268	25,77
255,484	54,44
255,701	52,39
255,917	85,16
256,134	-103,25
256,351	-2,9
256,567	33,96
256,784	25,77
257	-70,48
257,217	119,98
257,433	142,5
257,65	83,11
257,866	234,66
258,082	-27,48
258,299	-101,2
258,515	46,25
258,732	42,15
258,948	-21,33
259,165	48,3
259,381	-60,24
259,597	76,97
259,814	-37,72
260,03	9,39
260,246	1,19
260,463	140,46
260,679	158,89
260,895	128,17
261,112	117,93
261,328	48,3
261,544	-2,9
261,761	130,22
261,977	-37,72
262,193	-74,58
262,409	111,78
262,626	-21,33
262,842	52,39
263,058	74,92
263,274	158,89
263,49	72,87
263,707	72,87
263,923	70,83
264,139	-7
264,355	66,73
264,571	101,55
264,787	42,15
265,004	91,31
265,22	50,35
265,436	-0,85
265,652	17,58
265,868	19,63
266,084	33,96
266,3	42,15
266,516	-13,14
266,732	36,01
266,948	42,15
267,164	44,2
267,38	126,12
267,596	38,06
267,812	105,64
268,028	-25,43
268,244	72,87
268,46	85,16
268,676	-41,81
268,892	130,22
269,108	33,96
269,324	-0,85
269,54	-60,24
269,756	74,92
269,972	-17,24
270,188	21,67
270,403	-47,96
270,619	17,58
270,835	83,11
271,051	113,83
271,267	25,77
271,483	1,19
271,698	85,16
271,914	74,92
272,13	99,5
272,346	87,21
272,562	36,01
272,777	167,08
272,993	-50
273,209	-0,85
273,425	152,74
273,64	-35,67
273,856	91,31
274,072	46,25
274,287	-72,53
274,503	124,07
274,719	162,98
274,934	-0,85
275,15	-113,49
275,366	36,01
275,581	-82,77
275,797	42,15
276,012	72,87
276,228	17,58
276,444	72,87
276,659	103,59
276,875	-39,76
277,09	36,01
277,306	11,43
277,521	109,74
277,737	-13,14
277,952	85,16
278,168	29,87
278,383	60,59
278,599	19,63
278,814	70,83
279,03	11,43
279,245	144,55
279,461	44,2
279,676	167,08
279,892	70,83
280,107	-9,05
280,322	-60,24
280,538	99,5
280,753	-58,2
280,969	9,39
281,184	66,73
281,399	193,7
281,615	36,01
281,83	74,92
282,045	-78,68
282,26	27,82
282,476	62,63
282,691	105,64
282,906	33,96
283,122	7,34
283,337	50,35
283,552	64,68
283,767	17,58
283,983	154,79
284,198	-23,38
284,413	54,44
284,628	-86,87
284,843	48,3
285,058	95,4
285,274	-11,09
285,489	-17,24
285,704	109,74
285,919	66,73
286,134	29,87
286,349	33,96
286,564	25,77
286,779	144,55
286,995	64,68
287,21	-74,58
287,425	142,5
287,64	-4,95
287,855	72,87
288,07	-58,2
288,285	62,63
288,5	60,59
288,715	33,96
288,93	1,19
289,145	-11,09
289,36	134,31
289,575	17,58
289,79	189,61
290,004	97,45
290,219	85,16
290,434	1,19
290,649	-23,38
290,864	11,43
291,079	62,63
291,294	1,19
291,509	-23,38
291,724	29,87
291,938	1,19
292,153	36,01
292,368	25,77
292,583	72,87
292,798	79,02
293,012	58,54
293,227	89,26
293,442	-7
293,657	66,73
293,871	195,75
294,086	124,07
294,301	177,32
294,516	181,42
294,73	31,91
294,945	27,82
295,16	58,54
295,374	72,87
295,589	117,93
295,804	23,72
296,018	29,87
296,233	130,22
296,447	-4,95
296,662	81,07
296,877	115,88
297,091	103,59
297,306	-56,15
297,52	-29,52
297,735	105,64
297,949	72,87
298,164	91,31
298,378	13,48
298,593	-21,33
298,807	-23,38
299,022	-13,14
299,236	210,09
299,451	-54,1
299,665	56,49
299,88	29,87
300,094	105,64
300,309	85,16
300,523	38,06
300,737	40,11
300,952	52,39
301,166	31,91
301,381	-90,96
301,595	38,06
301,809	23,72
302,024	33,96
302,238	-21,33
302,452	124,07
302,667	54,44
302,881	122,02
303,095	101,55
303,309	117,93
303,524	15,53
303,738	85,16
303,952	-29,52
304,166	83,11
304,381	-101,2
304,595	29,87
304,809	-35,67
305,023	64,68
305,237	-25,43
305,452	97,45
305,666	36,01
305,88	21,67
306,094	109,74
306,308	89,26
306,522	66,73
306,736	89,26
306,95	171,18
307,164	48,3
307,379	-54,1
307,593	173,22
307,807	148,65
308,021	87,21
308,235	122,02
308,449	-35,67
308,663	25,77
308,877	253,09
309,091	25,77
309,305	64,68
309,519	-101,2
309,733	165,03
309,947	-41,81
310,161	33,96
310,374	150,7
310,588	146,6
310,802	-11,09
311,016	83,11
311,23	111,78
311,444	7,34
311,658	91,31
311,872	156,84
312,085	115,88
312,299	189,61
312,513	119,98
312,727	79,02
312,941	-27,48
313,154	54,44
313,368	107,69
313,582	-0,85
313,796	85,16
314,009	25,77
314,223	142,5
314,437	81,07
314,651	95,4
314,864	-9,05
315,078	-27,48
315,292	17,58
315,505	23,72
315,719	89,26
315,933	138,41
316,146	-17,24
316,36	21,67
316,573	246,95
316,787	103,59
317,001	113,83
317,214	-86,87
317,428	144,55
317,641	-50
317,855	29,87
318,068	17,58
318,282	-21,33
318,495	175,27
318,709	95,4
318,922	50,35
319,136	181,42
319,349	134,31
319,563	-31,57
319,776	144,55
319,99	-11,09
320,203	95,4
320,417	36,01
320,63	66,73
320,843	167,08
321,057	68,78
321,27	64,68
321,483	242,85
321,697	124,07
321,91	95,4
322,124	72,87
322,337	66,73
322,55	11,43
322,763	66,73
322,977	-9,05
323,19	-41,81
323,403	58,54
323,617	62,63
323,83	146,6
324,043	1,19
324,256	50,35
324,469	-39,76
324,683	210,09
324,896	48,3
325,109	54,44
325,322	-45,91
325,535	52,39
325,748	68,78
325,962	29,87
326,175	42,15
326,388	87,21
326,601	103,59
326,814	64,68
327,027	97,45
327,24	117,93
327,453	-27,48
327,666	105,64
327,879	81,07
328,092	107,69
328,305	85,16
328,518	60,59
328,731	-33,62
328,944	54,44
329,157	40,11
329,37	-15,19
329,583	181,42
329,796	138,41
330,009	-37,72
330,222	50,35
330,435	144,55
330,648	70,83
330,861	68,78
331,073	40,11
331,286	119,98
331,499	36,01
331,712	7,34
331,925	60,59
332,138	-29,52
332,35	113,83
332,563	9,39
332,776	103,59
332,989	-54,1
333,202	15,53
333,414	56,49
333,627	105,64
333,84	68,78
334,053	76,97
334,265	-17,24
334,478	-11,09
334,691	38,06
334,903	81,07
335,116	38,06
335,329	64,68
335,541	62,63
335,754	187,56
335,966	52,39
336,179	17,58
336,392	95,4
336,604	58,54
336,817	62,63
337,029	107,69
337,242	134,31
337,454	60,59
337,667	36,01
337,88	224,42
338,092	107,69
338,305	146,6
338,517	25,77
338,729	187,56
338,942	148,65
339,154	-17,24
339,367	17,58
339,579	150,7
339,792	-25,43
340,004	105,64
340,217	31,91
340,429	148,65
340,641	-23,38
340,854	-39,76
341,066	40,11
341,278	148,65
341,491	203,94
341,703	58,54
341,915	40,11
342,128	136,36
342,34	99,5
342,552	27,82
342,764	56,49
342,977	81,07
343,189	109,74
343,401	107,69
343,613	1,19
343,826	11,43
344,038	-60,24
344,25	109,74
344,462	31,91
344,674	105,64
344,886	56,49
345,099	105,64
345,311	113,83
345,523	11,43
345,735	-2,9
345,947	54,44
346,159	95,4
346,371	109,74
346,583	46,25
346,795	183,46
347,007	-9,05
347,219	66,73
347,431	17,58
347,643	165,03
347,855	58,54
348,067	267,43
348,279	21,67
348,491	177,32
348,703	124,07
348,915	89,26
349,127	36,01
349,339	72,87
349,551	-17,24
349,763	160,94
349,975	-27,48
350,187	205,99
350,399	183,46
350,61	93,35
350,822	-0,85
351,034	52,39
351,246	81,07
351,458	97,45
351,669	126,12
351,881	33,96
352,093	117,93
352,305	140,46
352,517	99,5
352,728	95,4
352,94	107,69
353,152	122,02
353,363	17,58
353,575	99,5
353,787	273,57
353,999	107,69
354,21	199,85
354,422	23,72
354,633	126,12
354,845	83,11
355,057	132,26
355,268	97,45
355,48	187,56
355,692	-99,16
355,903	72,87
356,115	-19,29
356,326	-68,44
356,538	76,97
356,749	74,92
356,961	171,18
357,172	52,39
357,384	40,11
357,595	263,33
357,807	70,83
358,018	23,72
358,23	89,26
358,441	195,75
358,653	171,18
358,864	99,5
359,075	33,96
359,287	76,97
359,498	158,89
359,709	179,37
359,921	58,54
360,132	91,31
360,344	105,64
360,555	-4,95
360,766	64,68
360,977	15,53
361,189	201,9
361,4	103,59
361,611	173,22
361,823	144,55
362,034	36,01
362,245	-21,33
362,456	72,87
362,667	124,07
362,879	-0,85
363,09	44,2
363,301	195,75
363,512	83,11
363,723	25,77
363,935	33,96
364,146	142,5
364,357	44,2
364,568	103,59
364,779	7,34
364,99	205,99
365,201	-2,9
365,412	154,79
365,623	-9,05
365,834	144,55
366,045	52,39
366,256	91,31
366,467	74,92
366,678	74,92
366,889	142,5
367,1	56,49
367,311	165,03
367,522	46,25
367,733	132,26
367,944	162,98
368,155	167,08
368,366	173,22
368,577	212,14
368,788	91,31
368,999	9,39
369,209	72,87
369,42	228,52
369,631	361,64
369,842	144,55
370,053	107,69
370,264	162,98
370,474	21,67
370,685	181,42
370,896	23,72
371,107	103,59
371,317	158,89
371,528	52,39
371,739	216,23
371,95	111,78
372,16	201,9
372,371	-35,67
372,582	1,19
372,792	173,22
373,003	134,31
373,214	130,22
373,424	115,88
373,635	-41,81
373,846	244,9
374,056	134,31
374,267	29,87
374,477	132,26
374,688	48,3
374,898	97,45
375,109	66,73
375,319	74,92
375,53	152,74
375,74	56,49
375,951	81,07
376,161	142,5
376,372	124,07
376,582	40,11
376,793	132,26
377,003	-7
377,214	23,72
377,424	117,93
377,635	44,2
377,845	23,72
378,055	226,47
378,266	-72,53
378,476	64,68
378,686	97,45
378,897	101,55
379,107	130,22
379,317	124,07
379,528	60,59
379,738	169,13
379,948	-29,52
380,158	111,78
380,369	191,66
380,579	181,42
380,789	85,16
380,999	160,94
381,21	189,61
381,42	343,21
381,63	19,63
381,84	165,03
382,05	52,39
382,261	142,5
382,471	226,47
382,681	97,45
382,891	261,29
383,101	91,31
383,311	44,2
383,521	38,06
383,731	97,45
383,941	109,74
384,151	111,78
384,361	128,17
384,571	56,49
384,781	132,26
384,991	197,8
385,201	167,08
385,411	117,93
385,621	74,92
385,831	167,08
386,041	56,49
386,251	85,16
386,461	156,84
386,671	33,96
386,881	191,66
387,091	74,92
387,301	144,55
387,511	142,5
387,72	97,45
387,93	128,17
388,14	9,39
388,35	109,74
388,56	148,65
388,769	208,04
388,979	70,83
389,189	23,72
389,399	89,26
389,609	148,65
389,818	156,84
390,028	126,12
390,238	187,56
390,447	56,49
390,657	128,17
390,867	128,17
391,076	-23,38
391,286	144,55
391,496	83,11
391,705	64,68
391,915	195,75
392,125	146,6
392,334	109,74
392,544	205,99
392,753	54,44
392,963	103,59
393,172	122,02
393,382	42,15
393,591	212,14
393,801	-4,95
394,01	167,08
394,22	173,22
394,429	42,15
394,639	72,87
394,848	76,97
395,058	130,22
395,267	150,7
395,477	124,07
395,686	72,87
395,895	328,87
396,105	273,57
396,314	146,6
396,524	132,26
396,733	64,68
396,942	228,52
397,152	134,31
397,361	210,09
397,57	183,46
397,78	138,41
397,989	79,02
398,198	347,3
398,407	152,74
398,617	76,97
398,826	191,66
399,035	50,35
399,244	220,33
399,453	117,93
399,663	54,44
399,872	58,54
400,081	91,31
400,29	181,42
400,499	38,06
400,708	165,03
400,917	56,49
401,127	23,72
401,336	11,43
401,545	173,22
401,754	126,12
401,963	40,11
402,172	5,29
402,381	-29,52
402,59	97,45
402,799	23,72
403,008	189,61
403,217	91,31
403,426	105,64
403,635	-21,33
403,844	-7
404,053	66,73
404,262	27,82
404,471	255,14
404,68	126,12
404,888	99,5
405,097	81,07
405,306	79,02
405,515	246,95
405,724	17,58
405,933	167,08
406,142	105,64
406,35	165,03
406,559	25,77
406,768	111,78
406,977	173,22
407,185	191,66
407,394	187,56
407,603	-13,14
407,812	62,63
408,02	222,38
408,229	122,02
408,438	99,5
408,646	140,46
408,855	138,41
409,064	111,78
409,272	246,95
409,481	212,14
409,69	169,13
409,898	191,66
410,107	320,68
410,315	251,05
410,524	212,14
410,733	314,53
410,941	203,94
411,15	255,14
411,358	146,6
411,567	152,74
411,775	189,61
411,984	62,63
412,192	122,02
412,401	89,26
412,609	228,52
412,818	173,22
413,026	162,98
413,234	66,73
413,443	130,22
413,651	40,11
413,86	40,11
414,068	138,41
414,276	195,75
414,485	-17,24
414,693	216,23
414,901	306,34
415,11	93,35
415,318	54,44
415,526	62,63
415,734	203,94
415,943	60,59
416,151	187,56
416,359	95,4
416,567	122,02
416,776	91,31
416,984	56,49
417,192	167,08
417,4	60,59
417,608	79,02
417,817	27,82
418,025	109,74
418,233	253,09
418,441	122,02
418,649	-0,85
418,857	126,12
419,065	126,12
419,273	36,01
419,481	9,39
419,689	97,45
419,897	52,39
420,105	-33,62
420,313	119,98
420,521	74,92
420,729	142,5
420,937	68,78
421,145	-37,72
421,353	115,88
421,561	146,6
421,769	148,65
421,977	-4,95
422,185	203,94
422,393	50,35
422,601	128,17
422,809	142,5
423,017	89,26
423,224	66,73
423,432	195,75
423,64	64,68
423,848	193,7
424,056	42,15
424,263	113,83
424,471	-31,57
424,679	199,85
424,887	-13,14
425,094	203,94
425,302	171,18
425,51	48,3
425,718	56,49
425,925	117,93
426,133	23,72
426,341	187,56
426,548	31,91
426,756	11,43
426,964	74,92
427,171	19,63
427,379	93,35
427,586	-27,48
427,794	124,07
428,001	83,11
428,209	101,55
428,417	158,89
428,624	50,35
428,832	15,53
429,039	13,48
429,247	156,84
429,454	70,83
429,662	138,41
429,869	81,07
430,076	40,11
430,284	179,37
430,491	158,89
430,699	58,54
430,906	203,94
431,114	58,54
431,321	124,07
431,528	138,41
431,736	130,22
431,943	187,56
432,15	179,37
432,358	322,73
432,565	609,44
432,772	302,25
432,979	701,6
433,187	681,12
433,394	900,25
433,601	859,29
433,808	971,93
434,016	885,92
434,223	1031,32
434,43	930,97
434,637	863,39
434,844	797,85
435,052	652,45
435,259	529,57
435,466	375,97
435,673	414,88
435,88	302,25
436,087	232,62
436,294	242,85
436,501	105,64
436,708	48,3
436,915	199,85
437,122	72,87
437,329	11,43
437,537	36,01
437,743	111,78
437,95	195,75
438,157	81,07
438,364	31,91
438,571	81,07
438,778	146,6
438,985	62,63
439,192	83,11
439,399	113,83
439,606	134,31
439,813	87,21
440,02	220,33
440,227	228,52
440,433	126,12
440,64	-39,76
440,847	87,21
441,054	117,93
441,261	181,42
441,467	9,39
441,674	-58,2
441,881	150,7
442,088	1,19
442,294	97,45
442,501	205,99
442,708	179,37
442,914	-11,09
443,121	81,07
443,328	162,98
443,534	134,31
443,741	138,41
443,948	-127,83
444,154	64,68
444,361	232,62
444,568	89,26
444,774	-0,85
444,981	11,43
445,187	126,12
445,394	23,72
445,6	83,11
445,807	27,82
446,013	11,43
446,22	-58,2
446,426	48,3
446,633	115,88
446,839	175,27
447,046	-31,57
447,252	142,5
447,459	-4,95
447,665	36,01
447,871	50,35
448,078	146,6
448,284	109,74
448,491	181,42
448,697	117,93
448,903	91,31
449,11	13,48
449,316	-39,76
449,522	201,9
449,728	130,22
449,935	101,55
450,141	50,35
450,347	146,6
450,553	66,73
450,76	54,44
450,966	19,63
451,172	52,39
451,378	-7
451,584	5,29
451,791	173,22
451,997	150,7
452,203	56,49
452,409	158,89
452,615	169,13
452,821	83,11
453,027	-23,38
453,233	203,94
453,44	111,78
453,646	50,35
453,852	33,96
454,058	-29,52
454,264	56,49
454,47	93,35
454,676	42,15
454,882	103,59
455,088	101,55
455,294	64,68
455,5	140,46
455,705	128,17
455,911	79,02
456,117	48,3
456,323	101,55
456,529	162,98
456,735	62,63
456,941	165,03
457,147	156,84
457,352	183,46
457,558	9,39
457,764	29,87
457,97	101,55
458,176	79,02
458,381	25,77
458,587	212,14
458,793	60,59
458,999	-58,2
459,204	15,53
459,41	68,78
459,616	99,5
459,821	109,74
460,027	-90,96
460,233	154,79
460,438	175,27
460,644	95,4
460,85	109,74
461,055	58,54
461,261	128,17
461,466	1,19
461,672	54,44
461,878	25,77
462,083	81,07
462,289	38,06
462,494	15,53
462,7	142,5
462,905	97,45
463,111	232,62
463,316	89,26
463,522	142,5
463,727	50,35
463,932	83,11
464,138	31,91
464,343	148,65
464,549	165,03
464,754	179,37
464,959	89,26
465,165	33,96
465,37	72,87
465,575	144,55
465,781	72,87
465,986	17,58
466,191	72,87
466,397	40,11
466,602	93,35
466,807	132,26
467,012	173,22
467,218	160,94
467,423	122,02
467,628	62,63
467,833	23,72
468,038	119,98
468,244	-45,91
468,449	60,59
468,654	23,72
468,859	87,21
469,064	11,43
469,269	-0,85
469,474	99,5
469,679	187,56
469,885	40,11
470,09	48,3
470,295	76,97
470,5	27,82
470,705	107,69
470,91	115,88
471,115	187,56
471,32	38,06
471,525	275,62
471,73	216,23
471,935	97,45
472,139	1,19
472,344	33,96
472,549	72,87
472,754	154,79
472,959	115,88
473,164	117,93
473,369	111,78
473,574	113,83
473,778	58,54
473,983	48,3
474,188	140,46
474,393	72,87
474,598	42,15
474,802	87,21
475,007	23,72
475,212	269,48
475,417	68,78
475,621	279,72
475,826	52,39
476,031	146,6
476,235	103,59
476,44	27,82
476,645	105,64
476,849	-4,95
477,054	-82,77
477,259	56,49
477,463	226,47
477,668	267,43
477,872	171,18
478,077	48,3
478,282	-7
478,486	68,78
478,691	144,55
478,895	95,4
479,1	171,18
479,304	214,18
479,509	27,82
479,713	173,22
479,918	140,46
480,122	56,49
480,326	-43,86
480,531	111,78
480,735	119,98
480,94	105,64
481,144	181,42
481,348	46,25
481,553	156,84
481,757	-11,09
481,961	13,48
482,166	109,74
482,37	103,59
482,574	97,45
482,778	79,02
482,983	165,03
483,187	115,88
483,391	130,22
483,595	249
483,8	441,51
484,004	818,33
484,208	1191,06
484,412	2100,36
484,616	3161,21
484,821	4549,73
485,025	5823,57
485,229	7511,1
485,433	8746,02
485,637	9839,64
485,841	10341,39
486,045	10730,5
486,249	10624,01
486,453	9749,53
486,657	9096,22
486,861	7947,31
487,065	6667,33
487,269	5614,68
487,473	4363,37
487,677	3720,31
487,881	3224,7
488,085	2288,78
488,289	1825,93
488,493	1344,66
488,697	1057,95
488,901	613,54
489,105	361,64
489,309	308,39
489,512	359,59
489,716	224,42
489,92	199,85
490,124	134,31
490,328	228,52
490,531	146,6
490,735	263,33
490,939	56,49
491,143	134,31
491,346	179,37
491,55	87,21
491,754	76,97
491,958	74,92
492,161	38,06
492,365	85,16
492,569	89,26
492,772	162,98
492,976	236,71
493,18	138,41
493,383	52,39
493,587	138,41
493,79	214,18
493,994	56,49
494,197	54,44
494,401	132,26
494,605	60,59
494,808	66,73
495,012	156,84
495,215	244,9
495,419	201,9
495,622	27,82
495,825	72,87
496,029	60,59
496,232	105,64
496,436	25,77
496,639	138,41
496,843	76,97
497,046	-70,48
497,249	138,41
497,453	3,24
497,656	-33,62
497,859	72,87
498,063	167,08
498,266	93,35
498,469	-0,85
498,673	25,77
498,876	21,67
499,079	-17,24
499,282	50,35
499,485	246,95
499,689	107,69
499,892	126,12
500,095	81,07
500,298	66,73
500,501	1,19
500,705	-50
500,908	115,88
501,111	7,34
501,314	156,84
501,517	267,43
501,72	27,82
501,923	160,94
502,126	44,2
502,329	165,03
502,532	150,7
502,735	115,88
502,938	214,18
503,141	105,64
503,344	9,39
503,547	162,98
503,75	11,43
503,953	-25,43
504,156	60,59
504,359	72,87
504,562	48,3
504,765	64,68
504,968	113,83
505,17	36,01
505,373	128,17
505,576	91,31
505,779	81,07
505,982	-58,2
506,185	91,31
506,387	13,48
506,59	124,07
506,793	97,45
506,996	124,07
507,198	144,55
507,401	171,18
507,604	230,57
507,807	87,21
508,009	134,31
508,212	132,26
508,415	13,48
508,617	-74,58
508,82	99,5
509,022	79,02
509,225	85,16
509,428	64,68
509,63	85,16
509,833	79,02
510,035	249
510,238	64,68
510,44	1,19
510,643	64,68
510,845	113,83
511,048	191,66
511,25	91,31
511,453	89,26
511,655	13,48
511,858	177,32
512,06	214,18
512,262	9,39
512,465	62,63
512,667	85,16
512,87	31,91
513,072	183,46
513,274	83,11
513,477	-4,95
513,679	40,11
513,881	109,74
514,084	-23,38
514,286	181,42
514,488	115,88
514,69	44,2
514,893	31,91
515,095	74,92
515,297	1,19
515,499	68,78
515,701	-23,38
515,904	179,37
516,106	171,18
516,308	171,18
516,51	79,02
516,712	74,92
516,914	124,07
517,116	33,96
517,318	29,87
517,52	83,11
517,722	109,74
517,925	-64,34
518,127	54,44
518,329	91,31
518,531	-78,68
518,733	122,02
518,935	21,67
519,136	150,7
519,338	13,48
519,54	74,92
519,742	58,54
519,944	195,75
520,146	109,74
520,348	54,44
520,55	134,31
520,752	-33,62
520,954	25,77
521,155	197,8
521,357	3,24
521,559	146,6
521,761	101,55
521,963	83,11
522,164	113,83
522,366	115,88
522,568	158,89
522,77	13,48
522,971	134,31
523,173	48,3
523,375	165,03
523,576	-9,05
523,778	-62,29
523,98	40,11
524,181	185,51
524,383	46,25
524,584	19,63
524,786	58,54
524,988	9,39
525,189	72,87
525,391	81,07
525,592	23,72
525,794	-56,15
525,995	23,72
526,197	126,12
526,398	212,14
526,6	85,16
526,801	103,59
527,003	-88,92
527,204	-11,09
527,406	97,45
527,607	42,15
527,808	46,25
528,01	36,01
528,211	156,84
528,412	7,34
528,614	138,41
528,815	205,99
529,016	85,16
529,218	160,94
529,419	44,2
529,62	58,54
529,822	177,32
530,023	-47,96
530,224	44,2
530,425	85,16
530,626	33,96
530,828	36,01
531,029	-23,38
531,23	154,79
531,431	-9,05
531,632	66,73
531,833	-15,19
532,035	140,46
532,236	-7
532,437	152,74
532,638	27,82
532,839	-33,62
533,04	58,54
533,241	115,88
533,442	81,07
533,643	70,83
533,844	-121,68
534,045	72,87
534,246	93,35
534,447	79,02
534,648	31,91
534,849	91,31
535,05	33,96
535,251	-13,14
535,451	113,83
535,652	33,96
535,853	23,72
536,054	171,18
536,255	76,97
536,456	31,91
536,657	36,01
536,857	23,72
537,058	138,41
537,259	68,78
537,46	156,84
537,66	15,53
537,861	25,77
538,062	72,87
538,263	-45,91
538,463	122,02
538,664	115,88
538,865	-60,24
539,065	56,49
539,266	126,12
539,466	25,77
539,667	173,22
539,868	60,59
540,068	132,26
540,269	144,55
540,469	113,83
540,67	130,22
540,87	148,65
541,071	-4,95
541,271	107,69
541,472	105,64
541,672	70,83
541,873	109,74
542,073	54,44
542,274	56,49
542,474	107,69
542,675	105,64
542,875	122,02
543,075	-54,1
543,276	-7
543,476	124,07
543,676	115,88
543,877	-72,53
544,077	107,69
544,277	126,12
544,478	36,01
544,678	76,97
544,878	5,29
545,078	79,02
545,279	7,34
545,479	7,34
545,679	-13,14
545,879	-9,05
546,079	107,69
546,28	-9,05
546,48	21,67
546,68	122,02
546,88	91,31
547,08	113,83
547,28	113,83
547,48	9,39
547,68	124,07
547,88	83,11
548,081	113,83
548,281	-88,92
548,481	27,82
548,681	58,54
548,881	105,64
549,081	122,02
549,28	91,31
549,48	-19,29
549,68	89,26
549,88	76,97
550,08	13,48
550,28	31,91
550,48	208,04
550,68	54,44
550,88	17,58
551,08	54,44
551,279	234,66
551,479	25,77
551,679	124,07
551,879	-41,81
552,079	56,49
552,278	21,67
552,478	156,84
552,678	93,35
552,878	113,83
553,077	105,64
553,277	56,49
553,477	68,78
553,676	97,45
553,876	64,68
554,076	31,91
554,275	-2,9
554,475	23,72
554,674	115,88
554,874	31,91
555,074	42,15
555,273	40,11
555,473	134,31
555,672	111,78
555,872	-2,9
556,071	97,45
556,271	146,6
556,47	150,7
556,67	64,68
556,869	50,35
557,068	21,67
557,268	64,68
557,467	29,87
557,667	224,42
557,866	58,54
558,065	42,15
558,265	58,54
558,464	9,39
558,663	36,01
558,863	101,55
559,062	95,4
559,261	52,39
559,461	97,45
559,66	72,87
559,859	-82,77
560,058	79,02
560,258	-76,63
560,457	76,97
560,656	150,7
560,855	3,24
561,054	99,5
561,253	79,02
561,453	103,59
561,652	68,78
561,851	167,08
562,05	-37,72
562,249	15,53
562,448	66,73
562,647	-52,05
562,846	52,39
563,045	144,55
563,244	85,16
563,443	25,77
563,642	38,06
563,841	93,35
564,04	81,07
564,239	21,67
564,438	62,63
564,637	-13,14
564,836	85,16
565,035	62,63
565,234	21,67
565,432	56,49
565,631	113,83
565,83	58,54
566,029	-17,24
566,228	33,96
566,427	111,78
566,625	-13,14
566,824	179,37
567,023	44,2
567,222	36,01
567,42	83,11
567,619	40,11
567,818	60,59
568,016	310,44
568,215	113,83
568,414	175,27
568,612	87,21
568,811	124,07
569,01	117,93
569,208	72,87
569,407	154,79
569,605	189,61
569,804	29,87
570,002	146,6
570,201	21,67
570,4	128,17
570,598	124,07
570,797	113,83
570,995	42,15
571,193	142,5
571,392	142,5
571,59	19,63
571,789	203,94
571,987	205,99
572,186	187,56
572,384	140,46
572,582	97,45
572,781	193,7
572,979	128,17
573,177	-33,62
573,376	101,55
573,574	222,38
573,772	83,11
573,971	27,82
574,169	-15,19
574,367	148,65
574,565	138,41
574,763	101,55
574,962	95,4
575,16	81,07
575,358	31,91
575,556	122,02
575,754	97,45
575,952	156,84
576,151	109,74
576,349	140,46
576,547	-23,38
576,745	140,46
576,943	177,32
577,141	162,98
577,339	-2,9
577,537	150,7
577,735	220,33
577,933	203,94
578,131	33,96
578,329	222,38
578,527	154,79
578,725	185,51
578,923	54,44
579,121	242,85
579,319	-95,06
579,516	3,24
579,714	361,64
579,912	158,89
580,11	27,82
580,308	134,31
580,506	58,54
580,704	-41,81
580,901	-2,9
581,099	353,45
581,297	185,51
581,495	214,18
581,692	142,5
581,89	236,71
582,088	218,28
582,285	162,98
582,483	115,88
582,681	99,5
582,878	95,4
583,076	138,41
583,274	56,49
583,471	253,09
583,669	103,59
583,866	101,55
584,064	95,4
584,262	132,26
584,459	19,63
584,657	119,98
584,854	195,75
585,052	124,07
585,249	181,42
585,447	193,7
585,644	1,19
585,841	156,84
586,039	160,94
586,236	208,04
586,434	79,02
586,631	58,54
586,828	-9,05
587,026	93,35
587,223	-35,67
587,42	85,16
587,618	140,46
587,815	193,7
588,012	169,13
588,21	36,01
588,407	169,13
588,604	189,61
588,801	33,96
588,999	66,73
589,196	146,6
589,393	9,39
589,59	72,87
589,787	81,07
589,984	138,41
590,182	101,55
590,379	15,53
590,576	81,07
590,773	56,49
590,97	36,01
591,167	183,46
591,364	249
591,561	36,01
591,758	273,57
591,955	134,31
592,152	76,97
592,349	140,46
592,546	38,06
592,743	-4,95
592,94	99,5
593,137	165,03
593,334	251,05
593,531	173,22
593,727	150,7
593,924	44,2
594,121	33,96
594,318	79,02
594,515	142,5
594,712	253,09
594,908	203,94
595,105	29,87
595,302	162,98
595,499	150,7
595,696	179,37
595,892	64,68
596,089	242,85
596,286	103,59
596,482	259,24
596,679	138,41
596,876	46,25
597,072	205,99
597,269	173,22
597,466	99,5
597,662	56,49
597,859	19,63
598,055	36,01
598,252	115,88
598,448	93,35
598,645	95,4
598,841	76,97
599,038	246,95
599,234	105,64
599,431	93,35
599,627	171,18
599,824	64,68
600,02	124,07
600,217	101,55
600,413	95,4
600,609	38,06
600,806	285,86
601,002	132,26
601,198	31,91
601,395	177,32
601,591	165,03
601,787	126,12
601,984	158,89
602,18	150,7
602,376	140,46
602,572	173,22
602,769	249
602,965	60,59
603,161	136,36
603,357	189,61
603,553	191,66
603,75	91,31
603,946	54,44
604,142	79,02
604,338	269,48
604,534	21,67
604,73	109,74
604,926	19,63
605,122	179,37
605,318	97,45
605,514	261,29
605,71	109,74
605,906	29,87
606,102	52,39
606,298	140,46
606,494	238,76
606,69	189,61
606,886	87,21
607,082	111,78
607,278	13,48
607,474	122,02
607,67	146,6
607,866	31,91
608,062	91,31
608,257	146,6
608,453	-17,24
608,649	97,45
608,845	-47,96
609,041	7,34
609,236	93,35
609,432	87,21
609,628	105,64
609,824	160,94
610,019	29,87
610,215	58,54
610,411	183,46
610,606	181,42
610,802	115,88
610,998	60,59
611,193	76,97
611,389	66,73
611,584	156,84
611,78	74,92
611,976	128,17
612,171	210,09
612,367	154,79
612,562	109,74
612,758	107,69
612,953	-9,05
613,149	56,49
613,344	48,3
613,539	40,11
613,735	167,08
613,93	83,11
614,126	50,35
614,321	115,88
614,517	199,85
614,712	140,46
614,907	132,26
615,103	23,72
615,298	97,45
615,493	11,43
615,688	101,55
615,884	103,59
616,079	105,64
616,274	105,64
616,47	-50
616,665	50,35
616,86	85,16
617,055	48,3
617,25	-66,39
617,445	74,92
617,641	128,17
617,836	-2,9
618,031	23,72
618,226	101,55
618,421	105,64
618,616	54,44
618,811	-17,24
619,006	27,82
619,201	140,46
619,396	50,35
619,591	46,25
619,786	76,97
619,981	158,89
620,176	107,69
620,371	38,06
620,566	1,19
620,761	203,94
620,956	156,84
621,151	23,72
621,346	205,99
621,541	25,77
621,735	42,15
621,93	48,3
622,125	23,72
622,32	38,06
622,515	-70,48
622,709	113,83
622,904	91,31
623,099	56,49
623,294	107,69
623,488	113,83
623,683	81,07
623,878	81,07
624,072	156,84
624,267	-2,9
624,462	81,07
624,656	-25,43
624,851	76,97
625,046	15,53
625,24	31,91
625,435	23,72
625,629	33,96
625,824	199,85
626,018	144,55
626,213	107,69
626,407	33,96
626,602	103,59
626,796	44,2
626,991	132,26
627,185	50,35
627,38	25,77
627,574	134,31
627,768	36,01
627,963	36,01
628,157	113,83
628,352	48,3
628,546	17,58
628,74	85,16
628,935	58,54
629,129	48,3
629,323	113,83
629,517	-17,24
629,712	33,96
629,906	-66,39
630,1	162,98
630,294	134,31
630,489	66,73
630,683	83,11
630,877	25,77
631,071	183,46
631,265	29,87
631,459	105,64
631,653	79,02
631,848	44,2
632,042	48,3
632,236	46,25
632,43	160,94
632,624	-2,9
632,818	42,15
633,012	148,65
633,206	76,97
633,4	13,48
633,594	97,45
633,788	81,07
633,982	148,65
634,176	177,32
634,369	11,43
634,563	52,39
634,757	-133,97
634,951	119,98
635,145	179,37
635,339	97,45
635,533	154,79
635,726	85,16
635,92	66,73
636,114	17,58
636,308	-9,05
636,501	68,78
636,695	132,26
636,889	-21,33
637,083	187,56
637,276	38,06
637,47	-50
637,664	21,67
637,857	25,77
638,051	83,11
638,244	97,45
638,438	103,59
638,632	253,09
638,825	-7
639,019	115,88
639,212	36,01
639,406	124,07
639,599	46,25
639,793	81,07
639,986	124,07
640,18	197,8
640,373	-0,85
640,567	79,02
640,76	72,87
640,954	130,22
641,147	56,49
641,34	17,58
641,534	103,59
641,727	122,02
641,92	138,41
642,114	134,31
642,307	17,58
642,5	191,66
642,694	99,5
642,887	124,07
643,08	134,31
643,273	132,26
643,467	91,31
643,66	103,59
643,853	33,96
644,046	136,36
644,239	99,5
644,432	-2,9
644,626	13,48
644,819	111,78
645,012	105,64
645,205	87,21
645,398	203,94
645,591	146,6
645,784	3,24
645,977	-4,95
646,17	95,4
646,363	56,49
646,556	27,82
646,749	25,77
646,942	138,41
647,135	185,51
647,328	70,83
647,521	136,36
647,714	68,78
647,907	103,59
648,099	15,53
648,292	208,04
648,485	97,45
648,678	38,06
648,871	40,11
649,064	124,07
649,256	1,19
649,449	-2,9
649,642	1,19
649,835	13,48
650,027	74,92
650,22	165,03
650,413	79,02
650,605	95,4
650,798	50,35
650,991	87,21
651,183	101,55
651,376	142,5
651,568	189,61
651,761	103,59
651,954	177,32
652,146	66,73
652,339	236,71
652,531	240,81
652,724	148,65
652,916	64,68
653,109	-11,09
653,301	271,53
653,494	285,86
653,686	162,98
653,879	220,33
654,071	302,25
654,263	236,71
654,456	566,43
654,648	2151,56
654,84	6796,35
655,033	15518,65
655,225	25920,29
655,417	37304,95
655,61	47704,53
655,802	55777,62
655,994	60844,3
656,186	62251,25
656,379	59642,14
656,571	55464,28
656,763	49910,19
656,955	45347,32
657,148	41085,5
657,34	37532,27
657,532	33362,61
657,724	30130,91
657,916	26659,6
658,108	22973,26
658,3	19241,86
658,492	15829,95
658,684	13071,33
658,876	10574,86
659,068	8479,79
659,26	6665,28
659,452	5088,35
659,644	3685,49
659,836	2677,89
660,028	1817,74
660,22	1301,65
660,412	1086,62
660,604	707,74
660,796	627,87
660,988	562,34
661,18	423,08
661,372	330,92
661,563	255,14
661,755	175,27
661,947	203,94
662,139	175,27
662,331	128,17
662,522	158,89
662,714	36,01
662,906	101,55
663,097	58,54
663,289	29,87
663,481	1,19
663,673	189,61
663,864	162,98
664,056	72,87
664,247	74,92
664,439	228,52
664,631	177,32
664,822	132,26
665,014	64,68
665,205	-41,81
665,397	105,64
665,588	91,31
665,78	97,45
665,971	187,56
666,163	79,02
666,354	124,07
666,546	27,82
666,737	19,63
666,929	70,83
667,12	11,43
667,311	169,13
667,503	91,31
667,694	130,22
667,885	115,88
668,077	54,44
668,268	-2,9
668,459	31,91
668,651	76,97
668,842	66,73
669,033	-27,48
669,224	-50
669,416	201,9
669,607	60,59
669,798	44,2
669,989	181,42
670,18	-17,24
670,371	111,78
670,563	-60,24
670,754	195,75
670,945	122,02
671,136	87,21
671,327	1,19
671,518	179,37
671,709	167,08
671,9	105,64
672,091	128,17
672,282	60,59
672,473	95,4
672,664	5,29
672,855	44,2
673,046	81,07
673,237	31,91
673,428	99,5
673,619	122,02
673,809	23,72
674	175,27
674,191	156,84
674,382	60,59
674,573	64,68
674,764	89,26
674,954	99,5
675,145	23,72
675,336	-60,24
675,527	-19,29
675,717	-19,29
675,908	48,3
676,099	23,72
676,289	50,35
676,48	-39,76
676,671	38,06
676,861	15,53
677,052	11,43
677,243	-17,24
677,433	79,02
677,624	146,6
677,814	60,59
678,005	-25,43
678,195	148,65
678,386	-86,87
678,576	31,91
678,767	-33,62
678,957	79,02
679,148	-2,9
679,338	216,23
679,529	50,35
679,719	-35,67
679,909	68,78
680,1	154,79
680,29	17,58
680,481	-78,68
680,671	91,31
680,861	105,64
681,052	97,45
681,242	-35,67
681,432	119,98
681,622	25,77
681,813	-97,11
682,003	66,73
682,193	-115,54
682,383	1,19
682,573	52,39
682,764	-2,9
682,954	85,16
683,144	97,45
683,334	-25,43
683,524	54,44
683,714	85,16
683,904	105,64
684,094	-25,43
684,284	117,93
684,474	152,74
684,664	107,69
684,854	9,39
685,044	60,59
685,234	27,82
685,424	58,54
685,614	36,01
685,804	187,56
685,994	42,15
686,184	9,39
686,374	76,97
686,564	-60,24
686,753	58,54
686,943	-27,48
687,133	21,67
687,323	5,29
687,513	62,63
687,702	5,29
687,892	-4,95
688,082	119,98
688,272	146,6
688,461	76,97
688,651	165,03
688,841	74,92
689,03	-17,24
689,22	-15,19
689,41	68,78
689,599	-23,38
689,789	-35,67
689,979	93,35
690,168	-31,57
690,358	169,13
690,547	50,35
690,737	83,11
690,926	36,01
691,116	130,22
691,305	134,31
691,495	99,5
691,684	-50
691,874	-50
692,063	25,77
692,252	40,11
692,442	81,07
692,631	64,68
692,82	-23,38
693,01	81,07
693,199	58,54
693,388	50,35
693,578	27,82
693,767	111,78
693,956	89,26
694,146	-13,14
694,335	70,83
694,524	33,96
694,713	152,74
694,902	-23,38
695,092	99,5
695,281	85,16
695,47	9,39
695,659	-72,53
695,848	1,19
696,037	3,24
696,226	138,41
696,415	-0,85
696,604	154,79
696,793	150,7
696,982	-0,85
697,171	144,55
697,36	19,63
697,549	52,39
697,738	-23,38
697,927	31,91
698,116	-23,38
698,305	97,45
698,494	64,68
698,683	15,53
698,872	181,42
699,061	72,87
699,25	29,87
699,438	38,06
699,627	31,91
699,816	187,56
700,005	36,01
700,193	13,48
700,382	46,25
700,571	105,64
700,76	103,59
700,948	165,03
701,137	113,83
701,326	60,59
701,514	62,63
701,703	132,26
701,892	52,39
702,08	154,79
702,269	79,02
702,457	-35,67
702,646	107,69
702,834	-23,38
703,023	27,82
703,212	66,73
703,4	-50
703,589	105,64
703,777	-17,24
703,965	36,01
704,154	40,11
704,342	-56,15
704,531	72,87
704,719	66,73
704,907	62,63
705,096	-15,19
705,284	-19,29
705,472	-0,85
705,661	81,07
705,849	99,5
706,037	171,18
706,226	79,02
706,414	97,45
706,602	11,43
706,79	105,64
706,979	-7
707,167	113,83
707,355	-47,96
707,543	44,2
707,731	23,72
707,919	19,63
708,107	36,01
708,296	-76,63
708,484	-56,15
708,672	-17,24
708,86	48,3
709,048	54,44
709,236	68,78
709,424	50,35
709,612	113,83
709,8	-37,72
709,988	72,87
710,176	89,26
710,364	105,64
710,551	54,44
710,739	7,34
710,927	-0,85
711,115	15,53
711,303	46,25
711,491	146,6
711,679	-17,24
711,866	138,41
712,054	-72,53
712,242	33,96
712,43	27,82
712,617	60,59
712,805	93,35
712,993	52,39
713,181	-99,16
713,368	36,01
713,556	-2,9
713,744	31,91
713,931	214,18
714,119	97,45
714,306	-68,44
714,494	-60,24
714,682	64,68
714,869	-82,77
715,057	9,39
715,244	-60,24
715,432	-13,14
715,619	1,19
715,807	-0,85
715,994	-15,19
716,182	-21,33
716,369	56,49
716,556	23,72
716,744	-95,06
716,931	-74,58
717,119	46,25
717,306	-29,52
717,493	134,31
717,681	13,48
717,868	-58,2
718,055	152,74
718,242	38,06
718,43	-27,48
718,617	142,5
718,804	-131,92
718,991	87,21
719,179	-21,33
719,366	85,16
719,553	-35,67
719,74	72,87
719,927	48,3
720,114	23,72
720,301	-41,81
720,488	-52,05
720,676	46,25
720,863	140,46
721,05	122,02
721,237	101,55
721,424	72,87
721,611	-9,05
721,798	-25,43
721,985	-25,43
722,172	29,87
722,358	-90,96
722,545	107,69
722,732	9,39
722,919	122,02
723,106	97,45
723,293	31,91
723,48	70,83
723,667	-39,76
723,853	15,53
724,04	60,59
724,227	-21,33
724,414	-74,58
724,6	93,35
724,787	240,81
724,974	144,55
725,161	81,07
725,347	-86,87
725,534	-25,43
725,72	70,83
725,907	119,98
726,094	140,46
726,28	56,49
726,467	-7
726,653	7,34
726,84	146,6
727,027	158,89
727,213	38,06
727,4	58,54
727,586	27,82
727,773	7,34
727,959	23,72
728,145	13,48
728,332	13,48
728,518	-86,87
728,705	93,35
728,891	19,63
729,077	15,53
729,264	-74,58
729,45	19,63
729,636	115,88
729,823	-17,24
730,009	33,96
730,195	9,39
730,382	48,3
730,568	-27,48
730,754	-47,96
730,94	-23,38
731,126	-41,81
731,313	56,49
731,499	13,48
731,685	109,74
731,871	142,5
732,057	48,3
732,243	40,11
732,429	48,3
732,615	138,41
732,801	74,92
732,987	74,92
733,173	40,11
733,359	13,48
733,545	38,06
733,731	-21,33
733,917	181,42
734,103	29,87
734,289	91,31
734,475	38,06
734,661	126,12
734,847	44,2
735,033	31,91
735,219	91,31
735,404	-31,57
735,59	-31,57
735,776	42,15
735,962	99,5
736,148	68,78
736,333	171,18
736,519	-15,19
736,705	46,25
736,89	-66,39
737,076	-19,29
737,262	-19,29
737,447	-45,91
737,633	1,19
737,819	146,6
738,004	-52,05
738,19	-41,81
738,375	7,34
738,561	89,26
738,747	38,06
738,932	-33,62
739,118	271,53
739,303	99,5
739,489	40,11
739,674	17,58
739,859	-35,67
740,045	36,01
740,23	136,36
740,416	-66,39
740,601	52,39
740,786	48,3
740,972	-64,34
741,157	-41,81
741,342	-17,24
741,528	5,29
741,713	50,35
741,898	-0,85
742,084	23,72
742,269	1,19
742,454	72,87
742,639	31,91
742,824	85,16
743,01	130,22
743,195	79,02
743,38	89,26
743,565	3,24
743,75	42,15
743,935	179,37
744,12	124,07
744,305	-90,96
744,49	-72,53
744,675	25,77
744,86	-31,57
745,045	117,93
745,23	44,2
745,415	-9,05
745,6	91,31
745,785	-64,34
745,97	154,79
746,155	56,49
746,34	56,49
746,525	27,82
746,71	126,12
746,895	-15,19
747,079	-35,67
747,264	74,92
747,449	25,77
747,634	91,31
747,819	124,07
748,003	56,49
748,188	-68,44
748,373	50,35
748,557	46,25
748,742	-47,96
748,927	89,26
749,111	-43,86
749,296	76,97
749,481	105,64
749,665	48,3
749,85	66,73
750,034	89,26
750,219	76,97
750,404	-70,48
750,588	58,54
750,773	50,35
750,957	-15,19
751,141	23,72
751,326	126,12
751,51	-68,44
751,695	70,83
751,879	-33,62
752,064	212,14
752,248	3,24
752,432	183,46
752,617	124,07
752,801	58,54
752,985	-23,38
753,17	101,55
753,354	101,55
753,538	-25,43
753,722	31,91
753,907	3,24
754,091	-56,15
754,275	117,93
754,459	-95,06
754,643	-31,57
754,828	79,02
755,012	76,97
755,196	-80,72
755,38	60,59
755,564	31,91
755,748	50,35
755,932	-11,09
756,116	119,98
756,3	95,4
756,484	25,77
756,668	70,83
756,852	-113,49
757,036	7,34
757,22	-11,09
757,404	-37,72
757,588	-103,25
757,772	87,21
757,956	-19,29
758,14	197,8
758,323	-2,9
758,507	117,93
758,691	-58,2
758,875	117,93
759,059	107,69
759,242	111,78
759,426	74,92
759,61	33,96
759,794	-9,05
759,977	89,26
760,161	251,05
760,345	175,27
760,528	62,63
760,712	68,78
760,895	132,26
761,079	62,63
761,263	-37,72
761,446	-13,14
761,63	21,67
761,813	79,02
761,997	-29,52
762,18	-41,81
762,364	56,49
762,547	-74,58
762,731	-50
762,914	-23,38
763,098	13,48
763,281	-11,09
763,464	-33,62
763,648	21,67
763,831	-11,09
764,015	-23,38
764,198	117,93
764,381	-74,58
764,564	9,39
764,748	154,79
764,931	101,55
765,114	-19,29
765,297	44,2
765,481	-43,86
765,664	-39,76
765,847	-33,62
766,03	195,75
766,213	-88,92
766,397	-17,24
766,58	-43,86
766,763	99,5
766,946	56,49
767,129	36,01
767,312	-29,52
767,495	5,29
767,678	-15,19
767,861	68,78
768,044	17,58
768,227	-54,1
768,41	21,67
768,593	95,4
768,776	42,15
768,959	27,82
769,142	140,46
769,324	-43,86
769,507	76,97
769,69	-7
769,873	85,16
770,056	181,42
770,239	31,91
770,421	138,41
770,604	72,87
770,787	21,67
770,97	-7
771,152	-58,2
771,335	87,21
771,518	-11,09
771,7	64,68
771,883	119,98
772,066	-17,24
772,248	-13,14
772,431	113,83
772,613	99,5
772,796	-13,14
772,978	83,11
773,161	138,41
773,343	40,11
773,526	-25,43
773,708	-133,97
773,891	-203,6
774,073	-4,95
774,256	-23,38
774,438	128,17
774,621	-29,52
774,803	60,59
774,985	13,48
775,168	103,59
775,35	-72,53
775,532	40,11
775,715	-41,81
775,897	44,2
776,079	76,97
776,261	222,38
776,444	228,52
776,626	427,17
776,808	558,24
776,99	644,26
777,173	918,68
777,355	971,93
777,537	1033,37
777,719	941,21
777,901	824,48
778,083	670,88
778,265	560,29
778,447	607,39
778,629	423,08
778,811	482,47
778,993	466,08
779,175	482,47
779,357	363,69
779,539	160,94
779,721	318,63
779,903	165,03
780,085	181,42
780,267	154,79
780,449	38,06
780,631	152,74
780,812	201,9
780,994	95,4
781,176	27,82
781,358	33,96
781,54	81,07
781,721	85,16
781,903	89,26
782,085	33,96
782,267	74,92
782,448	-64,34
782,63	15,53
782,812	46,25
782,993	36,01
783,175	138,41
783,357	50,35
783,538	-0,85
783,72	-47,96
783,901	-9,05
784,083	76,97
784,264	87,21
784,446	-64,34
784,627	-54,1
784,809	130,22
784,99	27,82
785,172	60,59
785,353	85,16
785,535	40,11
785,716	-39,76
785,897	-80,72
786,079	-35,67
786,26	52,39
786,441	-37,72
786,623	-37,72
786,804	-80,72
786,985	42,15
787,167	27,82
787,348	17,58
787,529	72,87
787,71	148,65
787,891	58,54
788,073	-58,2
788,254	-117,59
788,435	179,37
788,616	-7
788,797	-68,44
788,978	-47,96
789,159	-99,16
789,34	58,54
789,522	21,67
789,703	-41,81
789,884	-29,52
790,065	76,97
790,246	189,61
790,427	5,29
790,607	175,27
790,788	66,73
790,969	52,39
791,15	44,2
791,331	-25,43
791,512	64,68
791,693	-82,77
791,874	-21,33
792,054	177,32
792,235	50,35
792,416	-64,34
792,597	-31,57
792,778	70,83
792,958	60,59
793,139	76,97
793,32	38,06
793,5	-11,09
793,681	105,64
793,862	91,31
794,042	56,49
794,223	-33,62
794,404	-7
794,584	-80,72
794,765	56,49
794,945	-43,86
795,126	36,01
795,306	107,69
795,487	-60,24
795,667	-9,05
795,848	25,77
796,028	-31,57
796,209	1,19
796,389	54,44
796,57	-33,62
796,75	-17,24
796,93	33,96
797,111	-41,81
797,291	5,29
797,471	33,96
797,652	-7
797,832	-127,83
798,012	95,4
798,192	-31,57
798,373	-29,52
798,553	15,53
798,733	33,96
798,913	-80,72
799,093	-62,29
799,274	-37,72
799,454	89,26
799,634	52,39
799,814	119,98
799,994	60,59
800,174	31,91
800,354	5,29
800,534	-76,63
800,714	38,06
800,894	-0,85
801,074	-45,91
801,254	-27,48
801,434	134,31
801,614	-50
801,794	-95,06
801,974	1965,2
802,154	36,01
802,334	74,92
802,514	-50
802,693	-23,38
802,873	-33,62
803,053	66,73
803,233	42,15
803,413	31,91
803,592	9,39
803,772	-72,53
803,952	36,01
804,131	-39,76
804,311	68,78
804,491	122,02
804,67	-58,2
804,85	-68,44
805,03	64,68
805,209	171,18
805,389	-62,29
805,568	-66,39
805,748	-0,85
805,928	36,01
806,107	42,15
806,287	66,73
806,466	-33,62
806,646	-0,85
806,825	-4,95
807,004	3,24
807,184	-4,95
807,363	109,74
807,543	70,83
807,722	-90,96
807,901	103,59
808,081	60,59
808,26	-183,12
808,439	101,55
808,619	-35,67
808,798	-2,9
808,977	-27,48
809,156	160,94
809,336	13,48
809,515	101,55
809,694	-50
809,873	11,43
810,052	109,74
810,231	48,3
810,411	64,68
810,59	68,78
810,769	15,53
810,948	58,54
811,127	-80,72
811,306	-74,58
811,485	31,91
811,664	115,88
811,843	-13,14
812,022	-13,14
812,201	7,34
812,38	-60,24
812,559	-4,95
812,737	5,29
812,916	-109,4
813,095	-68,44
813,274	52,39
813,453	-72,53
813,632	11,43
813,811	128,17
813,989	-47,96
814,168	93,35
814,347	-129,88
814,526	68,78
814,704	111,78
814,883	126,12
815,062	-23,38
815,24	64,68
815,419	5,29
815,598	-7
815,776	-136,02
815,955	44,2
816,133	-90,96
816,312	-9,05
816,49	-56,15
816,669	-23,38
816,847	23,72
817,026	33,96
817,204	52,39
817,383	23,72
817,561	-47,96
817,74	29,87
817,918	68,78
818,097	-56,15
818,275	19,63
818,453	107,69
818,632	56,49
818,81	33,96
818,988	-43,86
819,167	-17,24
819,345	-31,57
819,523	-15,19
819,701	-0,85
819,879	58,54
820,058	-13,14
820,236	46,25
820,414	27,82
820,592	5,29
820,77	-37,72
820,948	1,19
821,127	-60,24
821,305	-25,43
821,483	3,24
821,661	144,55
821,839	-4,95
822,017	7,34
822,195	23,72
822,373	158,89
822,551	-39,76
822,729	64,68
822,907	-56,15
823,085	79,02
823,262	109,74
823,44	19,63
823,618	-93,01
823,796	3,24
823,974	-9,05
824,152	-39,76
824,329	46,25
824,507	109,74
824,685	40,11
824,863	-9,05
825,04	58,54
825,218	107,69
825,396	-37,72
825,574	1,19
825,751	74,92
825,929	79,02
826,107	-86,87
826,284	68,78
826,462	-35,67
826,639	-56,15
826,817	-74,58
826,994	-13,14
827,172	-47,96
827,349	148,65
827,527	79,02
827,704	-15,19
827,882	81,07
828,059	81,07
828,237	-90,96
828,414	-0,85
828,591	-119,64
828,769	-19,29
828,946	-33,62
829,124	74,92
829,301	44,2
829,478	36,01
829,655	13,48
829,833	52,39
830,01	-60,24
830,187	54,44
830,364	-74,58
830,542	42,15
830,719	91,31
830,896	81,07
831,073	-7
831,25	23,72
831,427	105,64
831,604	-39,76
831,782	-56,15
831,959	62,63
832,136	-74,58
832,313	19,63
832,49	-13,14
832,667	-25,43
832,844	-66,39
833,021	97,45
833,198	-19,29
833,374	-23,38
833,551	-25,43
833,728	-58,2
833,905	74,92
834,082	-125,78
834,259	-41,81
834,436	87,21
834,612	-21,33
834,789	15,53
834,966	11,43
835,143	15,53
835,319	-176,98
835,496	95,4
835,673	68,78
835,85	79,02
836,026	31,91
836,203	7,34
836,38	25,77
836,556	9,39
836,733	-25,43
836,909	140,46
837,086	-43,86
837,262	-142,16
837,439	19,63
837,616	-74,58
837,792	-58,2
837,968	42,15
838,145	-64,34
838,321	9,39
838,498	89,26
838,674	58,54
838,851	40,11
839,027	-0,85
839,203	-23,38
839,38	87,21
839,556	-39,76
839,732	105,64
839,909	13,48
840,085	-52,05
840,261	-148,31
840,437	58,54
840,614	-47,96
840,79	19,63
840,966	52,39
841,142	113,83
841,318	-86,87
841,494	15,53
841,671	58,54
841,847	42,15
842,023	-82,77
842,199	58,54
842,375	113,83
842,551	-142,16
842,727	-74,58
842,903	138,41
843,079	-82,77
843,255	128,17
843,431	-13,14
843,607	101,55
843,783	-39,76
843,959	197,8
844,134	203,94
844,31	388,26
844,486	185,51
844,662	279,72
844,838	367,78
845,013	339,11
845,189	316,58
845,365	310,44
845,541	183,46
845,716	83,11
845,892	201,9
846,068	68,78
846,244	154,79
846,419	142,5
846,595	44,2
846,77	40,11
846,946	124,07
847,122	62,63
847,297	97,45
847,473	140,46
847,648	-95,06
847,824	93,35
847,999	-47,96
848,175	64,68
848,35	52,39
848,526	150,7
848,701	101,55
848,876	44,2
849,052	126,12
849,227	-125,78
849,403	-4,95
849,578	-31,57
849,753	64,68
849,929	91,31
850,104	-93,01
850,279	42,15
850,454	64,68
850,63	58,54
850,805	33,96
850,98	-0,85
851,155	5,29
851,33	40,11
851,505	-93,01
851,681	150,7
851,856	-0,85
852,031	44,2
852,206	33,96
852,381	-95,06
852,556	-82,77
852,731	25,77
852,906	-9,05
853,081	7,34
853,256	152,74
853,431	13,48
853,606	-15,19
853,781	-47,96
853,956	-146,26
854,131	31,91
854,305	-58,2
854,48	-21,33
854,655	-9,05
854,83	-90,96
855,005	17,58
855,18	7,34
855,354	-17,24
855,529	17,58
855,704	60,59
855,879	76,97
856,053	3,24
856,228	56,49
856,403	-43,86
856,577	9,39
856,752	-54,1
856,926	25,77
857,101	27,82
857,276	-84,82
857,45	74,92
857,625	13,48
857,799	25,77
857,974	81,07
858,148	-150,36
858,323	23,72
858,497	25,77
858,672	-15,19
858,846	-29,52
859,02	81,07
859,195	-33,62
859,369	-39,76
859,543	25,77
859,718	-0,85
859,892	7,34
860,066	52,39
860,241	-9,05
860,415	-84,82
860,589	9,39
860,763	-27,48
860,938	-2,9
861,112	40,11
861,286	23,72
861,46	60,59
861,634	-17,24
861,808	33,96
861,982	-99,16
862,157	-72,53
862,331	-66,39
862,505	-117,59
862,679	-93,01
862,853	-2,9
863,027	-45,91
863,201	165,03
863,375	-115,54
863,549	40,11
863,722	44,2
863,896	134,31
864,07	-41,81
864,244	42,15
864,418	60,59
864,592	19,63
864,766	44,2
864,939	44,2
865,113	29,87
865,287	122,02
865,461	-41,81
865,634	72,87
865,808	-74,58
865,982	-45,91
866,156	-76,63
866,329	-158,55
866,503	99,5
866,676	44,2
866,85	42,15
867,024	-41,81
867,197	119,98
867,371	101,55
867,544	11,43
867,718	-88,92
867,891	68,78
868,065	-72,53
868,238	-21,33
868,412	79,02
868,585	23,72
868,759	-60,24
868,932	-27,48
869,105	-95,06
869,279	-15,19
869,452	-82,77
869,625	33,96
869,799	-15,19
869,972	-93,01
870,145	15,53
870,319	152,74
870,492	-23,38
870,665	54,44
870,838	-90,96
871,011	-117,59
871,185	42,15
871,358	-2,9
871,531	113,83
871,704	-56,15
871,877	33,96
872,05	7,34
872,223	-154,45
872,396	-4,95
872,569	89,26
872,742	-54,1
872,915	52,39
873,088	-31,57
873,261	-37,72
873,434	89,26
873,607	-35,67
873,78	103,59
873,953	-115,54
874,126	21,67
874,299	40,11
874,471	-21,33
874,644	-50
874,817	27,82
874,99	89,26
875,163	23,72
875,335	7,34
875,508	46,25
875,681	74,92
875,853	-0,85
876,026	-17,24
876,199	76,97
876,371	60,59
876,544	-25,43
876,717	21,67
876,889	-43,86
877,062	58,54
877,234	-58,2
877,407	29,87
877,579	-39,76
877,752	-17,24
877,924	115,88
878,097	40,11
878,269	-74,58
878,442	-15,19
878,614	31,91
878,786	113,83
878,959	-25,43
879,131	-23,38
879,303	-66,39
879,476	-13,14
879,648	44,2
879,82	48,3
879,993	-72,53
880,165	-7
880,337	-52,05
880,509	-27,48
880,681	-127,83
880,854	-21,33
881,026	36,01
881,198	138,41
881,37	-15,19
881,542	36,01
881,714	66,73
881,886	-29,52
882,058	-29,52
882,23	15,53
882,402	25,77
882,574	9,39
882,746	17,58
882,918	185,51
883,09	93,35
883,262	-9,05
883,434	9,39
883,606	-84,82
883,778	5,29
883,95	85,16
884,122	-62,29
884,293	119,98
884,465	31,91
884,637	103,59
884,809	-54,1
884,98	60,59
885,152	89,26
885,324	56,49
885,496	-95,06
885,667	-86,87
885,839	33,96
886,011	128,17
886,182	13,48
886,354	-17,24
886,525	15,53
886,697	-84,82
886,869	-154,45
887,04	19,63
887,212	81,07
887,383	173,22
887,555	-7
887,726	-31,57
887,897	-88,92
888,069	-23,38
888,24	-23,38
888,412	-0,85
888,583	-11,09
888,754	-43,86
888,926	-68,44
889,097	-50
889,268	-25,43
889,44	-23,38
889,611	-125,78
889,782	-50
889,953	-27,48
890,125	128,17
890,296	46,25
890,467	42,15
890,638	-37,72
890,809	-25,43
890,98	-54,1
891,151	46,25
891,323	105,64
891,494	-50
891,665	-13,14
891,836	5,29
892,007	-43,86
892,178	50,35
892,349	-13,14
892,52	-80,72
892,691	44,2
892,862	-19,29
893,032	-72,53
893,203	-41,81
893,374	50,35
893,545	89,26
893,716	-15,19
893,887	25,77
894,057	-54,1
894,228	-39,76
894,399	-64,34
894,57	72,87
894,74	13,48
894,911	33,96
895,082	11,43
895,253	-9,05
895,423	-33,62
895,594	31,91
895,764	29,87
895,935	-84,82
896,106	74,92
896,276	1,19
896,447	31,91
896,617	-105,3
896,788	-54,1
896,958	-56,15
897,129	-56,15
897,299	-27,48
897,47	72,87
897,64	5,29
897,81	21,67
897,981	-13,14
898,151	-19,29
898,322	-0,85
898,492	-0,85
898,662	-52,05
898,832	-35,67
899,003	15,53
899,173	79,02
899,343	-80,72
899,513	-39,76
