Data from deuterium_USB4F104151__10__10-57-07-474.txt Node

Date: Wed Apr 15 10:57:07 EDT 2026
User: LaboPhy
Spectrometer: USB4F10415
Trigger mode: 4
Integration Time (sec): 1,000000E-1
Scans to average: 1
Electric dark correction enabled: true
Nonlinearity correction enabled: false
Boxcar width: 0
XAxis mode: Wavelengths
Number of Pixels in Spectrum: 3648
>>>>>Begin Spectral Data<<<<<
178,204	-445,6
178,424	-445,6
178,644	-445,6
178,864	-437,41
179,084	-431,27
179,304	2,9
179,524	-46,25
179,744	-7,34
179,964	107,35
180,184	25,43
180,404	-5,29
180,624	29,52
180,844	52,05
181,064	-140,46
181,283	7
181,503	-56,49
181,723	31,57
181,943	-44,2
182,163	117,59
182,383	-56,49
182,602	62,29
182,822	144,21
183,042	76,63
183,262	-27,82
183,482	-5,29
183,701	25,43
183,921	41,81
184,141	-46,25
184,361	-23,72
184,58	99,16
184,8	109,4
185,02	0,85
185,239	111,44
185,459	23,38
185,679	82,77
185,898	-81,07
186,118	31,57
186,338	35,67
186,557	183,12
186,777	-29,87
186,997	-13,48
187,216	43,86
187,436	209,75
187,655	13,14
187,875	109,4
188,095	33,62
188,314	158,55
188,534	52,05
188,753	-50,35
188,973	50
189,192	152,4
189,412	58,2
189,631	33,62
189,851	162,64
190,07	179,03
190,29	-58,54
190,509	-13,48
190,729	-3,24
190,948	119,64
191,168	201,55
191,387	113,49
191,607	90,96
191,826	105,3
192,045	23,38
192,265	-27,82
192,484	78,68
192,704	66,39
192,923	-15,53
193,142	203,6
193,362	76,63
193,581	70,48
193,8	82,77
194,02	74,58
194,239	64,34
194,458	19,29
194,678	15,19
194,897	50
195,116	43,86
195,335	56,15
195,555	31,57
195,774	-31,91
195,993	78,68
196,212	19,29
196,432	-62,63
196,651	39,76
196,87	-33,96
197,089	226,13
197,308	62,29
197,528	47,96
197,747	-46,25
197,966	17,24
198,185	131,92
198,404	-29,87
198,623	148,31
198,842	166,74
199,062	17,24
199,281	93,01
199,5	41,81
199,719	148,31
199,938	43,86
200,157	90,96
200,376	107,35
200,595	27,48
200,814	33,62
201,033	-83,11
201,252	197,46
201,471	50
201,69	86,87
201,909	52,05
202,128	41,81
202,347	78,68
202,566	23,38
202,785	-89,26
203,004	-56,49
203,223	230,23
203,442	21,33
203,661	-62,63
203,879	54,1
204,098	121,68
204,317	29,52
204,536	101,2
204,755	138,07
204,974	127,83
205,193	25,43
205,411	115,54
205,63	64,34
205,849	101,2
206,068	-79,02
206,287	-15,53
206,505	187,22
206,724	-48,3
206,943	-17,58
207,162	-15,53
207,381	72,53
207,599	82,77
207,818	-13,48
208,037	-76,97
208,255	-25,77
208,474	56,15
208,693	82,77
208,911	17,24
209,13	150,36
209,349	113,49
209,567	66,39
209,786	76,63
210,005	54,1
210,223	109,4
210,442	-33,96
210,661	-25,77
210,879	25,43
211,098	78,68
211,316	-11,43
211,535	99,16
211,753	88,92
211,972	74,58
212,191	-58,54
212,409	-5,29
212,628	47,96
212,846	-72,87
213,065	72,53
213,283	86,87
213,502	78,68
213,72	0,85
213,938	39,76
214,157	-38,06
214,375	82,77
214,594	13,14
214,812	123,73
215,031	54,1
215,249	39,76
215,467	86,87
215,686	45,91
215,904	52,05
216,122	33,62
216,341	123,73
216,559	4,95
216,778	88,92
216,996	99,16
217,214	43,86
217,432	-13,48
217,651	-52,39
217,869	43,86
218,087	0,85
218,306	-15,53
218,524	62,29
218,742	90,96
218,96	125,78
219,179	-38,06
219,397	64,34
219,615	262,99
219,833	129,88
220,051	-52,39
220,27	74,58
220,488	127,83
220,706	86,87
220,924	17,24
221,142	13,14
221,36	64,34
221,578	107,35
221,796	-5,29
222,015	17,24
222,233	74,58
222,451	164,69
222,669	-21,67
222,887	125,78
223,105	27,48
223,323	15,19
223,541	25,43
223,759	68,44
223,977	50
224,195	103,25
224,413	123,73
224,631	-11,43
224,849	27,48
225,067	287,57
225,285	-38,06
225,503	15,19
225,721	-50,35
225,939	70,48
226,157	-5,29
226,375	146,26
226,592	-13,48
226,81	113,49
227,028	101,2
227,246	52,05
227,464	93,01
227,682	37,72
227,9	-1,19
228,117	-25,77
228,335	68,44
228,553	58,2
228,771	25,43
228,989	25,43
229,206	56,15
229,424	17,24
229,642	-79,02
229,86	-27,82
230,077	148,31
230,295	21,33
230,513	242,51
230,731	148,31
230,948	80,72
231,166	205,65
231,384	45,91
231,601	-27,82
231,819	142,16
232,037	-27,82
232,254	-11,43
232,472	41,81
232,689	-13,48
232,907	93,01
233,125	37,72
233,342	-89,26
233,56	-31,91
233,777	35,67
233,995	-15,53
234,213	88,92
234,43	21,33
234,648	0,85
234,865	4,95
235,083	43,86
235,3	45,91
235,518	129,88
235,735	181,07
235,953	-25,77
236,17	58,2
236,388	113,49
236,605	21,33
236,822	115,54
237,04	158,55
237,257	62,29
237,475	-11,43
237,692	45,91
237,909	-13,48
238,127	31,57
238,344	80,72
238,562	99,16
238,779	47,96
238,996	-85,16
239,214	-19,63
239,431	95,06
239,648	45,91
239,865	109,4
240,083	107,35
240,3	-68,78
240,517	-25,77
240,735	23,38
240,952	82,77
241,169	29,52
241,386	97,11
241,603	35,67
241,821	-27,82
242,038	82,77
242,255	105,3
242,472	-95,4
242,689	131,92
242,907	35,67
243,124	58,2
243,341	60,24
243,558	9,05
243,775	-48,3
243,992	-48,3
244,209	50
244,426	189,27
244,643	60,24
244,86	45,91
245,078	88,92
245,295	99,16
245,512	115,54
245,729	-25,77
245,946	113,49
246,163	-52,39
246,38	29,52
246,597	-17,58
246,814	7
247,031	78,68
247,248	66,39
247,464	70,48
247,681	11,09
247,898	99,16
248,115	72,53
248,332	-33,96
248,549	150,36
248,766	166,74
248,983	115,54
249,2	148,31
249,417	111,44
249,633	-33,96
249,85	95,06
250,067	4,95
250,284	107,35
250,501	35,67
250,717	84,82
250,934	11,09
251,151	54,1
251,368	-31,91
251,585	-15,53
251,801	68,44
252,018	-38,06
252,235	64,34
252,451	-105,64
252,668	90,96
252,885	111,44
253,102	-3,24
253,318	-5,29
253,535	-9,39
253,752	-38,06
253,968	-29,87
254,185	-38,06
254,401	80,72
254,618	82,77
254,835	-64,68
255,051	205,65
255,268	78,68
255,484	86,87
255,701	-7,34
255,917	113,49
256,134	47,96
256,351	-38,06
256,567	-66,73
256,784	-11,43
257	-29,87
257,217	39,76
257,433	95,06
257,65	52,05
257,866	121,68
258,082	-95,4
258,299	17,24
258,515	58,2
258,732	-31,91
258,948	72,53
259,165	-15,53
259,381	-74,92
259,597	164,69
259,814	45,91
260,03	-5,29
260,246	41,81
260,463	150,36
260,679	86,87
260,895	47,96
261,112	54,1
261,328	62,29
261,544	-29,87
261,761	127,83
261,977	-23,72
262,193	9,05
262,409	121,68
262,626	21,33
262,842	-21,67
263,058	-23,72
263,274	25,43
263,49	66,39
263,707	123,73
263,923	146,26
264,139	-38,06
264,355	11,09
264,571	90,96
264,787	117,59
265,004	154,45
265,22	43,86
265,436	-25,77
265,652	23,38
265,868	-3,24
266,084	13,14
266,3	93,01
266,516	-52,39
266,732	56,15
266,948	19,29
267,164	-5,29
267,38	95,06
267,596	76,63
267,812	129,88
268,028	101,2
268,244	25,43
268,46	54,1
268,676	4,95
268,892	52,05
269,108	-44,2
269,324	-11,43
269,54	-130,22
269,756	160,59
269,972	-105,64
270,188	4,95
270,403	-68,78
270,619	35,67
270,835	136,02
271,051	99,16
271,267	0,85
271,483	17,24
271,698	82,77
271,914	25,43
272,13	9,05
272,346	-19,63
272,562	11,09
272,777	133,97
272,993	-1,19
273,209	-36,01
273,425	58,2
273,64	-36,01
273,856	50
274,072	2,9
274,287	-46,25
274,503	76,63
274,719	37,72
274,934	-40,11
275,15	-7,34
275,366	41,81
275,581	37,72
275,797	-1,19
276,012	52,05
276,228	52,05
276,444	41,81
276,659	86,87
276,875	41,81
277,09	13,14
277,306	93,01
277,521	142,16
277,737	31,57
277,952	119,64
278,168	86,87
278,383	27,48
278,599	62,29
278,814	97,11
279,03	21,33
279,245	99,16
279,461	11,09
279,676	115,54
279,892	-56,49
280,107	-31,91
280,322	-27,82
280,538	-19,63
280,753	-1,19
280,969	113,49
281,184	64,34
281,399	107,35
281,615	-9,39
281,83	33,62
282,045	-81,07
282,26	-87,21
282,476	2,9
282,691	123,73
282,906	64,34
283,122	35,67
283,337	-40,11
283,552	113,49
283,767	15,19
283,983	50
284,198	95,06
284,413	72,53
284,628	-111,78
284,843	-25,77
285,058	68,44
285,274	17,24
285,489	23,38
285,704	93,01
285,919	-107,69
286,134	45,91
286,349	60,24
286,564	27,48
286,779	160,59
286,995	4,95
287,21	-44,2
287,425	58,2
287,64	19,29
287,855	9,05
288,07	-91,31
288,285	127,83
288,5	101,2
288,715	52,05
288,93	127,83
289,145	7
289,36	47,96
289,575	-33,96
289,79	127,83
290,004	25,43
290,219	58,2
290,434	-44,2
290,649	-1,19
290,864	19,29
291,079	7
291,294	-36,01
291,509	82,77
291,724	23,38
291,938	-7,34
292,153	37,72
292,368	-5,29
292,583	25,43
292,798	88,92
293,012	56,15
293,227	31,57
293,442	-7,34
293,657	45,91
293,871	127,83
294,086	66,39
294,301	152,4
294,516	117,59
294,73	-11,43
294,945	-38,06
295,16	33,62
295,374	111,44
295,589	88,92
295,804	-66,73
296,018	-21,67
296,233	41,81
296,447	23,38
296,662	-48,3
296,877	119,64
297,091	80,72
297,306	43,86
297,52	17,24
297,735	82,77
297,949	43,86
298,164	17,24
298,378	-9,39
298,593	-81,07
298,807	95,06
299,022	29,52
299,236	207,7
299,451	11,09
299,665	47,96
299,88	101,2
300,094	80,72
300,309	35,67
300,523	0,85
300,737	27,48
300,952	80,72
301,166	131,92
301,381	-1,19
301,595	-29,87
301,809	-25,77
302,024	-48,3
302,238	37,72
302,452	148,31
302,667	41,81
302,881	127,83
303,095	17,24
303,309	13,14
303,524	76,63
303,738	-29,87
303,952	19,29
304,166	33,62
304,381	-101,55
304,595	215,89
304,809	-36,01
305,023	23,38
305,237	-7,34
305,452	-13,48
305,666	95,06
305,88	60,24
306,094	156,5
306,308	68,44
306,522	90,96
306,736	121,68
306,95	31,57
307,164	35,67
307,379	31,57
307,593	109,4
307,807	146,26
308,021	84,82
308,235	95,06
308,449	-38,06
308,663	95,06
308,877	226,13
309,091	72,53
309,305	82,77
309,519	-72,87
309,733	207,7
309,947	-1,19
310,161	23,38
310,374	146,26
310,588	213,84
310,802	-95,4
311,016	0,85
311,23	115,54
311,444	-105,64
311,658	68,44
311,872	86,87
312,085	111,44
312,299	207,7
312,513	193,36
312,727	101,2
312,941	29,52
313,154	66,39
313,368	25,43
313,582	60,24
313,796	29,52
314,009	101,2
314,223	176,98
314,437	133,97
314,651	70,48
314,864	-19,63
315,078	7
315,292	-89,26
315,505	66,39
315,719	58,2
315,933	11,09
316,146	45,91
316,36	-27,82
316,573	164,69
316,787	64,34
317,001	66,39
317,214	-23,72
317,428	125,78
317,641	-60,59
317,855	11,09
318,068	84,82
318,282	33,62
318,495	254,8
318,709	50
318,922	62,29
319,136	181,07
319,349	90,96
319,563	86,87
319,776	78,68
319,99	-97,45
320,203	105,3
320,417	84,82
320,63	191,31
320,843	176,98
321,057	43,86
321,27	21,33
321,483	111,44
321,697	238,42
321,91	82,77
322,124	109,4
322,337	103,25
322,55	35,67
322,763	25,43
322,977	78,68
323,19	-11,43
323,403	103,25
323,617	33,62
323,83	103,25
324,043	19,29
324,256	107,35
324,469	-38,06
324,683	125,78
324,896	-9,39
325,109	80,72
325,322	-99,5
325,535	105,3
325,748	68,44
325,962	-76,97
326,175	72,53
326,388	76,63
326,601	181,07
326,814	56,15
327,027	95,06
327,24	76,63
327,453	-58,54
327,666	156,5
327,879	99,16
328,092	29,52
328,305	148,31
328,518	-11,43
328,731	33,62
328,944	62,29
329,157	121,68
329,37	50
329,583	189,27
329,796	156,5
330,009	-95,4
330,222	37,72
330,435	172,88
330,648	-15,53
330,861	41,81
331,073	76,63
331,286	43,86
331,499	29,52
331,712	-64,68
331,925	45,91
332,138	45,91
332,35	52,05
332,563	25,43
332,776	219,99
332,989	-17,58
333,202	23,38
333,414	60,24
333,627	64,34
333,84	25,43
334,053	50
334,265	72,53
334,478	76,63
334,691	86,87
334,903	56,15
335,116	41,81
335,329	43,86
335,541	35,67
335,754	197,46
335,966	127,83
336,179	152,4
336,392	78,68
336,604	60,24
336,817	86,87
337,029	101,2
337,242	13,14
337,454	52,05
337,667	43,86
337,88	150,36
338,092	105,3
338,305	68,44
338,517	78,68
338,729	172,88
338,942	156,5
339,154	19,29
339,367	76,63
339,579	107,35
339,792	2,9
340,004	123,73
340,217	119,64
340,429	148,31
340,641	33,62
340,854	19,29
341,066	58,2
341,278	197,46
341,491	148,31
341,703	103,25
341,915	43,86
342,128	82,77
342,34	54,1
342,552	-13,48
342,764	101,2
342,977	90,96
343,189	82,77
343,401	156,5
343,613	25,43
343,826	13,14
344,038	58,2
344,25	125,78
344,462	-19,63
344,674	140,12
344,886	70,48
345,099	58,2
345,311	66,39
345,523	60,24
345,735	-97,45
345,947	68,44
346,159	39,76
346,371	74,58
346,583	9,05
346,795	179,03
347,007	0,85
347,219	62,29
347,431	47,96
347,643	93,01
347,855	7
348,067	172,88
348,279	19,29
348,491	131,92
348,703	172,88
348,915	123,73
349,127	29,52
349,339	80,72
349,551	56,15
349,763	207,7
349,975	62,29
350,187	158,55
350,399	74,58
350,61	125,78
350,822	37,72
351,034	123,73
351,246	29,52
351,458	197,46
351,669	117,59
351,881	80,72
352,093	127,83
352,305	154,45
352,517	93,01
352,728	189,27
352,94	148,31
353,152	168,79
353,363	-25,77
353,575	37,72
353,787	156,5
353,999	56,15
354,21	187,22
354,422	21,33
354,633	58,2
354,845	-1,19
355,057	25,43
355,268	127,83
355,48	152,4
355,692	-19,63
355,903	54,1
356,115	-33,96
356,326	-44,2
356,538	230,23
356,749	119,64
356,961	246,61
357,172	93,01
357,384	45,91
357,595	344,91
357,807	39,76
358,018	0,85
358,23	68,44
358,441	199,51
358,653	68,44
358,864	97,11
359,075	-7,34
359,287	103,25
359,498	111,44
359,709	119,64
359,921	142,16
360,132	103,25
360,344	68,44
360,555	-25,77
360,766	144,21
360,977	-29,87
361,189	162,64
361,4	27,48
361,611	215,89
361,823	99,16
362,034	90,96
362,245	9,05
362,456	84,82
362,667	176,98
362,879	-25,77
363,09	-7,34
363,301	103,25
363,512	35,67
363,723	62,29
363,935	70,48
364,146	105,3
364,357	66,39
364,568	68,44
364,779	17,24
364,99	246,61
365,201	-23,72
365,412	125,78
365,623	-48,3
365,834	148,31
366,045	68,44
366,256	131,92
366,467	189,27
366,678	43,86
366,889	97,11
367,1	90,96
367,311	230,23
367,522	45,91
367,733	84,82
367,944	121,68
368,155	62,29
368,366	109,4
368,577	166,74
368,788	123,73
368,999	66,39
369,209	115,54
369,42	133,97
369,631	250,71
369,842	150,36
370,053	54,1
370,264	150,36
370,474	-11,43
370,685	197,46
370,896	88,92
371,107	144,21
371,317	148,31
371,528	47,96
371,739	162,64
371,95	185,17
372,16	109,4
372,371	-40,11
372,582	33,62
372,792	152,4
373,003	78,68
373,214	162,64
373,424	156,5
373,635	4,95
373,846	215,89
374,056	131,92
374,267	78,68
374,477	72,53
374,688	-23,72
374,898	101,2
375,109	99,16
375,319	90,96
375,53	148,31
375,74	162,64
375,951	31,57
376,161	136,02
376,372	166,74
376,582	-1,19
376,793	74,58
377,003	66,39
377,214	-15,53
377,424	115,54
377,635	113,49
377,845	99,16
378,055	215,89
378,266	25,43
378,476	68,44
378,686	154,45
378,897	158,55
379,107	181,07
379,317	129,88
379,528	93,01
379,738	179,03
379,948	43,86
380,158	176,98
380,369	50
380,579	101,2
380,789	13,14
380,999	160,59
381,21	140,12
381,42	283,47
381,63	144,21
381,84	242,51
382,05	205,65
382,261	148,31
382,471	193,36
382,681	39,76
382,891	203,6
383,101	70,48
383,311	99,16
383,521	-13,48
383,731	95,06
383,941	181,07
384,151	72,53
384,361	70,48
384,571	113,49
384,781	101,2
384,991	230,23
385,201	197,46
385,411	101,2
385,621	27,48
385,831	95,06
386,041	13,14
386,251	29,52
386,461	172,88
386,671	86,87
386,881	123,73
387,091	39,76
387,301	258,9
387,511	119,64
387,72	150,36
387,93	183,12
388,14	4,95
388,35	105,3
388,56	199,51
388,769	193,36
388,979	117,59
389,189	-7,34
389,399	107,35
389,609	193,36
389,818	156,5
390,028	95,06
390,238	88,92
390,447	19,29
390,657	111,44
390,867	78,68
391,076	7
391,286	64,34
391,496	19,29
391,705	117,59
391,915	125,78
392,125	166,74
392,334	33,62
392,544	183,12
392,753	90,96
392,963	25,43
393,172	99,16
393,382	-11,43
393,591	254,8
393,801	76,63
394,01	203,6
394,22	105,3
394,429	-13,48
394,639	115,54
394,848	105,3
395,058	117,59
395,267	41,81
395,477	179,03
395,686	172,88
395,895	289,62
396,105	314,19
396,314	138,07
396,524	117,59
396,733	115,54
396,942	262,99
397,152	164,69
397,361	240,47
397,57	109,4
397,78	127,83
397,989	172,88
398,198	281,43
398,407	11,09
398,617	99,16
398,826	109,4
399,035	13,14
399,244	140,12
399,453	111,44
399,663	109,4
399,872	142,16
400,081	115,54
400,29	238,42
400,499	45,91
400,708	152,4
400,917	56,15
401,127	90,96
401,336	45,91
401,545	297,81
401,754	90,96
401,963	176,98
402,172	-17,58
402,381	9,05
402,59	15,19
402,799	125,78
403,008	117,59
403,217	43,86
403,426	54,1
403,635	-29,87
403,844	86,87
404,053	13,14
404,262	82,77
404,471	125,78
404,68	88,92
404,888	90,96
405,097	97,11
405,306	123,73
405,515	60,24
405,724	33,62
405,933	99,16
406,142	93,01
406,35	99,16
406,559	76,63
406,768	84,82
406,977	140,12
407,185	60,24
407,394	164,69
407,603	-15,53
407,812	115,54
408,02	162,64
408,229	60,24
408,438	119,64
408,646	47,96
408,855	203,6
409,064	230,23
409,272	109,4
409,481	271,19
409,69	246,61
409,898	170,83
410,107	283,47
410,315	318,29
410,524	195,41
410,733	176,98
410,941	205,65
411,15	269,14
411,358	256,85
411,567	262,99
411,775	138,07
411,984	119,64
412,192	107,35
412,401	103,25
412,609	152,4
412,818	156,5
413,026	154,45
413,234	88,92
413,443	123,73
413,651	13,14
413,86	144,21
414,068	127,83
414,276	113,49
414,485	0,85
414,693	185,17
414,901	156,5
415,11	70,48
415,318	84,82
415,526	78,68
415,734	74,58
415,943	84,82
416,151	117,59
416,359	39,76
416,567	7
416,776	97,11
416,984	152,4
417,192	191,31
417,4	35,67
417,608	82,77
417,817	-13,48
418,025	213,84
418,233	172,88
418,441	-19,63
418,649	-3,24
418,857	123,73
419,065	82,77
419,273	-91,31
419,481	72,53
419,689	80,72
419,897	0,85
420,105	-7,34
420,313	131,92
420,521	127,83
420,729	99,16
420,937	-25,77
421,145	13,14
421,353	58,2
421,561	158,55
421,769	58,2
421,977	29,52
422,185	181,07
422,393	-31,91
422,601	144,21
422,809	82,77
423,017	115,54
423,224	64,34
423,432	133,97
423,64	37,72
423,848	107,35
424,056	66,39
424,263	119,64
424,471	27,48
424,679	129,88
424,887	-52,39
425,094	156,5
425,302	39,76
425,51	-27,82
425,718	72,53
425,925	37,72
426,133	2,9
426,341	240,47
426,548	50
426,756	64,34
426,964	-46,25
427,171	-38,06
427,379	58,2
427,586	41,81
427,794	88,92
428,001	113,49
428,209	84,82
428,417	103,25
428,624	93,01
428,832	121,68
429,039	84,82
429,247	29,52
429,454	70,48
429,662	166,74
429,869	56,15
430,076	62,29
430,284	93,01
430,491	193,36
430,699	119,64
430,906	213,84
431,114	109,4
431,321	82,77
431,528	97,11
431,736	117,59
431,943	125,78
432,15	213,84
432,358	289,62
432,565	504,65
432,772	320,34
432,979	617,29
433,187	613,2
433,394	877,38
433,601	795,47
433,808	1049,41
434,016	1059,65
434,223	1018,69
434,43	1010,5
434,637	830,28
434,844	766,79
435,052	547,66
435,259	463,69
435,466	424,78
435,673	281,43
435,88	289,62
436,087	301,9
436,294	187,22
436,501	131,92
436,708	39,76
436,915	109,4
437,122	215,89
437,329	-19,63
437,537	80,72
437,743	47,96
437,95	111,44
438,157	101,2
438,364	84,82
438,571	21,33
438,778	-3,24
438,985	97,11
439,192	105,3
439,399	17,24
439,606	62,29
439,813	111,44
440,02	254,8
440,227	248,66
440,433	168,79
440,64	54,1
440,847	-95,4
441,054	64,34
441,261	158,55
441,467	88,92
441,674	62,29
441,881	107,35
442,088	15,19
442,294	117,59
442,501	131,92
442,708	191,31
442,914	-5,29
443,121	133,97
443,328	113,49
443,534	127,83
443,741	95,06
443,948	-31,91
444,154	76,63
444,361	275,28
444,568	95,06
444,774	90,96
444,981	-48,3
445,187	172,88
445,394	101,2
445,6	0,85
445,807	115,54
446,013	27,48
446,22	-42,15
446,426	86,87
446,633	50
446,839	197,46
447,046	-74,92
447,252	60,24
447,459	29,52
447,665	-62,63
447,871	150,36
448,078	160,59
448,284	148,31
448,491	131,92
448,697	115,54
448,903	152,4
449,11	68,44
449,316	58,2
449,522	125,78
449,728	129,88
449,935	78,68
450,141	58,2
450,347	166,74
450,553	50
450,76	52,05
450,966	105,3
451,172	43,86
451,378	13,14
451,584	29,52
451,791	172,88
451,997	33,62
452,203	39,76
452,409	127,83
452,615	115,54
452,821	25,43
453,027	66,39
453,233	277,33
453,44	25,43
453,646	109,4
453,852	62,29
454,058	39,76
454,264	66,39
454,47	172,88
454,676	17,24
454,882	150,36
455,088	121,68
455,294	13,14
455,5	107,35
455,705	70,48
455,911	117,59
456,117	41,81
456,323	37,72
456,529	0,85
456,735	50
456,941	62,29
457,147	68,44
457,352	131,92
457,558	-7,34
457,764	58,2
457,97	50
458,176	84,82
458,381	80,72
458,587	199,51
458,793	109,4
458,999	-64,68
459,204	144,21
459,41	39,76
459,616	33,62
459,821	109,4
460,027	-152,74
460,233	181,07
460,438	158,55
460,644	2,9
460,85	150,36
461,055	101,2
461,261	123,73
461,466	15,19
461,672	17,24
461,878	58,2
462,083	50
462,289	-81,07
462,494	27,48
462,7	74,58
462,905	90,96
463,111	174,93
463,316	140,12
463,522	117,59
463,727	13,14
463,932	78,68
464,138	113,49
464,343	90,96
464,549	156,5
464,754	68,44
464,959	172,88
465,165	62,29
465,37	47,96
465,575	95,06
465,781	15,19
465,986	72,53
466,191	62,29
466,397	101,2
466,602	201,55
466,807	103,25
467,012	166,74
467,218	60,24
467,423	41,81
467,628	43,86
467,833	66,39
468,038	2,9
468,244	-33,96
468,449	-3,24
468,654	101,2
468,859	35,67
469,064	-11,43
469,269	27,48
469,474	148,31
469,679	168,79
469,885	68,44
470,09	70,48
470,295	162,64
470,5	27,48
470,705	246,61
470,91	105,3
471,115	154,45
471,32	90,96
471,525	76,63
471,73	217,94
471,935	95,06
472,139	23,38
472,344	-27,82
472,549	107,35
472,754	201,55
472,959	121,68
473,164	109,4
473,369	76,63
473,574	166,74
473,778	70,48
473,983	86,87
474,188	127,83
474,393	78,68
474,598	58,2
474,802	164,69
475,007	90,96
475,212	179,03
475,417	64,34
475,621	144,21
475,826	-60,59
476,031	90,96
476,235	95,06
476,44	68,44
476,645	33,62
476,849	50
477,054	70,48
477,259	39,76
477,463	201,55
477,668	228,18
477,872	183,12
478,077	19,29
478,282	62,29
478,486	148,31
478,691	78,68
478,895	21,33
479,1	230,23
479,304	150,36
479,509	142,16
479,713	144,21
479,918	131,92
480,122	97,11
480,326	119,64
480,531	95,06
480,735	66,39
480,94	33,62
481,144	160,59
481,348	201,55
481,553	113,49
481,757	-15,53
481,961	97,11
482,166	82,77
482,37	60,24
482,574	148,31
482,778	93,01
482,983	99,16
483,187	80,72
483,391	119,64
483,595	197,46
483,8	392,02
484,004	815,94
484,208	1223,49
484,412	2091,83
484,616	3126,05
484,821	4680,46
485,025	5874,43
485,229	7547,62
485,433	8721,1
485,637	9792,19
485,841	10398,39
486,045	10916,53
486,249	10633,91
486,453	9872,06
486,657	9024,2
486,861	7865,05
487,065	6611,7
487,269	5688,06
487,473	4305,68
487,677	3670,81
487,881	3105,57
488,085	2376,5
488,289	1944,38
488,493	1278,79
488,697	1114,95
488,901	637,77
489,105	320,34
489,309	191,31
489,512	353,1
489,716	271,19
489,92	131,92
490,124	199,51
490,328	187,22
490,531	127,83
490,735	150,36
490,939	23,38
491,143	111,44
491,346	129,88
491,55	99,16
491,754	82,77
491,958	136,02
492,161	127,83
492,365	-29,87
492,569	25,43
492,772	172,88
492,976	154,45
493,18	144,21
493,383	74,58
493,587	103,25
493,79	162,64
493,994	74,58
494,197	62,29
494,401	213,84
494,605	76,63
494,808	140,12
495,012	115,54
495,215	174,93
495,419	176,98
495,622	82,77
495,825	84,82
496,029	90,96
496,232	144,21
496,436	27,48
496,639	37,72
496,843	33,62
497,046	-38,06
497,249	191,31
497,453	176,98
497,656	-83,11
497,859	95,06
498,063	152,4
498,266	189,27
498,469	-64,68
498,673	23,38
498,876	27,48
499,079	-42,15
499,282	35,67
499,485	232,27
499,689	207,7
499,892	84,82
500,095	-9,39
500,298	-36,01
500,501	-52,39
500,705	52,05
500,908	27,48
501,111	-74,92
501,314	113,49
501,517	181,07
501,72	90,96
501,923	90,96
502,126	41,81
502,329	144,21
502,532	80,72
502,735	148,31
502,938	207,7
503,141	99,16
503,344	35,67
503,547	187,22
503,75	-15,53
503,953	-13,48
504,156	95,06
504,359	121,68
504,562	-11,43
504,765	0,85
504,968	62,29
505,17	117,59
505,373	74,58
505,576	90,96
505,779	68,44
505,982	17,24
506,185	45,91
506,387	68,44
506,59	123,73
506,793	-3,24
506,996	68,44
507,198	181,07
507,401	215,89
507,604	181,07
507,807	84,82
508,009	123,73
508,212	105,3
508,415	-9,39
508,617	76,63
508,82	0,85
509,022	107,35
509,225	60,24
509,428	101,2
509,63	47,96
509,833	52,05
510,035	199,51
510,238	136,02
510,44	-5,29
510,643	148,31
510,845	148,31
511,048	113,49
511,25	-7,34
511,453	86,87
511,655	66,39
511,858	191,31
512,06	232,27
512,262	-17,58
512,465	31,57
512,667	29,52
512,87	-36,01
513,072	201,55
513,274	66,39
513,477	41,81
513,679	70,48
513,881	82,77
514,084	2,9
514,286	187,22
514,488	60,24
514,69	82,77
514,893	17,24
515,095	-1,19
515,297	58,2
515,499	127,83
515,701	-25,77
515,904	76,63
516,106	213,84
516,308	181,07
516,51	119,64
516,712	9,05
516,914	47,96
517,116	25,43
517,318	7
517,52	99,16
517,722	29,52
517,925	52,05
518,127	-7,34
518,329	191,31
518,531	86,87
518,733	45,91
518,935	2,9
519,136	76,63
519,338	-21,67
519,54	115,54
519,742	113,49
519,944	217,94
520,146	31,57
520,348	41,81
520,55	90,96
520,752	-31,91
520,954	56,15
521,155	50
521,357	-13,48
521,559	133,97
521,761	97,11
521,963	156,5
522,164	156,5
522,366	133,97
522,568	13,14
522,77	88,92
522,971	140,12
523,173	50
523,375	90,96
523,576	21,33
523,778	-21,67
523,98	-44,2
524,181	97,11
524,383	176,98
524,584	-27,82
524,786	60,24
524,988	-33,96
525,189	37,72
525,391	160,59
525,592	25,43
525,794	-33,96
525,995	62,29
526,197	62,29
526,398	279,38
526,6	74,58
526,801	78,68
527,003	-113,83
527,204	7
527,406	150,36
527,607	31,57
527,808	17,24
528,01	84,82
528,211	136,02
528,412	4,95
528,614	187,22
528,815	37,72
529,016	183,12
529,218	62,29
529,419	29,52
529,62	66,39
529,822	105,3
530,023	41,81
530,224	33,62
530,425	103,25
530,626	76,63
530,828	70,48
531,029	-60,59
531,23	125,78
531,431	13,14
531,632	179,03
531,833	50
532,035	-1,19
532,236	-13,48
532,437	27,48
532,638	66,39
532,839	27,48
533,04	127,83
533,241	215,89
533,442	54,1
533,643	99,16
533,844	7
534,045	29,52
534,246	90,96
534,447	66,39
534,648	17,24
534,849	121,68
535,05	31,57
535,251	-42,15
535,451	121,68
535,652	43,86
535,853	7
536,054	25,43
536,255	-87,21
536,456	82,77
536,657	25,43
536,857	21,33
537,058	121,68
537,259	13,14
537,46	17,24
537,66	29,52
537,861	-3,24
538,062	150,36
538,263	-130,22
538,463	52,05
538,664	56,15
538,865	-46,25
539,065	27,48
539,266	74,58
539,466	2,9
539,667	172,88
539,868	64,34
540,068	-5,29
540,269	115,54
540,469	50
540,67	150,36
540,87	150,36
541,071	21,33
541,271	107,35
541,472	127,83
541,672	168,79
541,873	123,73
542,073	113,49
542,274	43,86
542,474	56,15
542,675	148,31
542,875	54,1
543,075	64,34
543,276	54,1
543,476	74,58
543,676	70,48
543,877	-5,29
544,077	64,34
544,277	142,16
544,478	-15,53
544,678	35,67
544,878	95,06
545,078	78,68
545,279	13,14
545,479	-31,91
545,679	-17,58
545,879	15,19
546,079	54,1
546,28	-13,48
546,48	60,24
546,68	246,61
546,88	50
547,08	90,96
547,28	144,21
547,48	4,95
547,68	111,44
547,88	66,39
548,081	111,44
548,281	-91,31
548,481	21,33
548,681	117,59
548,881	45,91
549,081	72,53
549,28	123,73
549,48	19,29
549,68	150,36
549,88	7
550,08	-40,11
550,28	-74,92
550,48	179,03
550,68	62,29
550,88	70,48
551,08	56,15
551,279	115,54
551,479	-5,29
551,679	158,55
551,879	29,52
552,079	31,57
552,278	0,85
552,478	181,07
552,678	58,2
552,878	205,65
553,077	19,29
553,277	-23,72
553,477	-36,01
553,676	125,78
553,876	47,96
554,076	-9,39
554,275	45,91
554,475	-9,39
554,674	152,4
554,874	43,86
555,074	-29,87
555,273	-21,67
555,473	-9,39
555,672	25,43
555,872	103,25
556,071	17,24
556,271	131,92
556,47	37,72
556,67	13,14
556,869	39,76
557,068	15,19
557,268	60,24
557,467	29,52
557,667	156,5
557,866	47,96
558,065	99,16
558,265	29,52
558,464	43,86
558,663	86,87
558,863	101,2
559,062	150,36
559,261	-15,53
559,461	-13,48
559,66	41,81
559,859	-50,35
560,058	-7,34
560,258	-72,87
560,457	107,35
560,656	119,64
560,855	-15,53
561,054	142,16
561,253	95,06
561,453	70,48
561,652	29,52
561,851	62,29
562,05	-89,26
562,249	-70,83
562,448	25,43
562,647	-56,49
562,846	27,48
563,045	7
563,244	29,52
563,443	101,2
563,642	35,67
563,841	111,44
564,04	144,21
564,239	129,88
564,438	58,2
564,637	-52,39
564,836	-27,82
565,035	66,39
565,234	0,85
565,432	123,73
565,631	9,05
565,83	54,1
566,029	33,62
566,228	7
566,427	199,51
566,625	-48,3
566,824	78,68
567,023	146,26
567,222	60,24
567,42	19,29
567,619	19,29
567,818	107,35
568,016	256,85
568,215	76,63
568,414	127,83
568,612	56,15
568,811	164,69
569,01	50
569,208	136,02
569,407	140,12
569,605	140,12
569,804	52,05
570,002	199,51
570,201	25,43
570,4	164,69
570,598	90,96
570,797	133,97
570,995	11,09
571,193	115,54
571,392	115,54
571,59	-19,63
571,789	144,21
571,987	140,12
572,186	183,12
572,384	236,37
572,582	52,05
572,781	197,46
572,979	-7,34
573,177	90,96
573,376	86,87
573,574	144,21
573,772	136,02
573,971	7
574,169	-13,48
574,367	158,55
574,565	103,25
574,763	162,64
574,962	152,4
575,16	131,92
575,358	95,06
575,556	123,73
575,754	119,64
575,952	129,88
576,151	64,34
576,349	254,8
576,547	45,91
576,745	111,44
576,943	82,77
577,141	90,96
577,339	13,14
577,537	95,06
577,735	174,93
577,933	129,88
578,131	150,36
578,329	230,23
578,527	78,68
578,725	207,7
578,923	-1,19
579,121	172,88
579,319	-38,06
579,516	105,3
579,714	324,43
579,912	113,49
580,11	54,1
580,308	129,88
580,506	117,59
580,704	-25,77
580,901	133,97
581,099	254,8
581,297	123,73
581,495	185,17
581,692	111,44
581,89	234,32
582,088	133,97
582,285	131,92
582,483	142,16
582,681	158,55
582,878	156,5
583,076	115,54
583,274	33,62
583,471	289,62
583,669	160,59
583,866	45,91
584,064	84,82
584,262	23,38
584,459	50
584,657	109,4
584,854	101,2
585,052	136,02
585,249	189,27
585,447	158,55
585,644	58,2
585,841	183,12
586,039	238,42
586,236	148,31
586,434	45,91
586,631	27,48
586,828	-33,96
587,026	154,45
587,223	-3,24
587,42	111,44
587,618	166,74
587,815	127,83
588,012	107,35
588,21	78,68
588,407	121,68
588,604	199,51
588,801	58,2
588,999	90,96
589,196	193,36
589,393	111,44
589,59	88,92
589,787	156,5
589,984	84,82
590,182	148,31
590,379	0,85
590,576	101,2
590,773	95,06
590,97	0,85
591,167	109,4
591,364	97,11
591,561	90,96
591,758	136,02
591,955	117,59
592,152	50
592,349	72,53
592,546	70,48
592,743	80,72
592,94	72,53
593,137	144,21
593,334	168,79
593,531	207,7
593,727	162,64
593,924	133,97
594,121	101,2
594,318	82,77
594,515	166,74
594,712	224,08
594,908	238,42
595,105	7
595,302	131,92
595,499	162,64
595,696	176,98
595,892	31,57
596,089	166,74
596,286	107,35
596,482	213,84
596,679	74,58
596,876	109,4
597,072	136,02
597,269	35,67
597,466	129,88
597,662	103,25
597,859	-81,07
598,055	29,52
598,252	39,76
598,448	74,58
598,645	172,88
598,841	133,97
599,038	193,36
599,234	238,42
599,431	150,36
599,627	117,59
599,824	144,21
600,02	50
600,217	-5,29
600,413	105,3
600,609	47,96
600,806	314,19
601,002	150,36
601,198	39,76
601,395	162,64
601,591	58,2
601,787	72,53
601,984	162,64
602,18	189,27
602,376	33,62
602,572	107,35
602,769	150,36
602,965	133,97
603,161	144,21
603,357	117,59
603,553	226,13
603,75	7
603,946	52,05
604,142	70,48
604,338	197,46
604,534	47,96
604,73	138,07
604,926	76,63
605,122	156,5
605,318	54,1
605,514	191,31
605,71	56,15
605,906	176,98
606,102	76,63
606,298	209,75
606,494	119,64
606,69	146,26
606,886	66,39
607,082	125,78
607,278	95,06
607,474	129,88
607,67	88,92
607,866	58,2
608,062	131,92
608,257	123,73
608,453	-66,73
608,649	103,25
608,845	58,2
609,041	0,85
609,236	111,44
609,432	88,92
609,628	86,87
609,824	133,97
610,019	-36,01
610,215	54,1
610,411	236,37
610,606	150,36
610,802	117,59
610,998	47,96
611,193	105,3
611,389	21,33
611,584	82,77
611,78	-3,24
611,976	121,68
612,171	238,42
612,367	101,2
612,562	95,06
612,758	31,57
612,953	21,33
613,149	-7,34
613,344	88,92
613,539	0,85
613,735	103,25
613,93	74,58
614,126	101,2
614,321	117,59
614,517	179,03
614,712	242,51
614,907	166,74
615,103	185,17
615,298	23,38
615,493	-25,77
615,688	103,25
615,884	156,5
616,079	17,24
616,274	86,87
616,47	17,24
616,665	7
616,86	99,16
617,055	-29,87
617,25	56,15
617,445	78,68
617,641	119,64
617,836	47,96
618,031	13,14
618,226	39,76
618,421	103,25
618,616	74,58
618,811	25,43
619,006	17,24
619,201	74,58
619,396	47,96
619,591	31,57
619,786	152,4
619,981	119,64
620,176	99,16
620,371	78,68
620,566	54,1
620,761	170,83
620,956	68,44
621,151	78,68
621,346	64,34
621,541	2,9
621,735	129,88
621,93	103,25
622,125	27,48
622,32	13,14
622,515	2,9
622,709	158,55
622,904	138,07
623,099	113,49
623,294	127,83
623,488	74,58
623,683	93,01
623,878	109,4
624,072	150,36
624,267	-29,87
624,462	33,62
624,656	11,09
624,851	117,59
625,046	-15,53
625,24	-66,73
625,435	25,43
625,629	80,72
625,824	158,55
626,018	142,16
626,213	148,31
626,407	35,67
626,602	68,44
626,796	56,15
626,991	209,75
627,185	-23,72
627,38	82,77
627,574	62,29
627,768	150,36
627,963	70,48
628,157	62,29
628,352	58,2
628,546	-62,63
628,74	72,53
628,935	52,05
629,129	41,81
629,323	111,44
629,517	23,38
629,712	50
629,906	45,91
630,1	207,7
630,294	99,16
630,489	60,24
630,683	50
630,877	39,76
631,071	140,12
631,265	4,95
631,459	68,44
631,653	13,14
631,848	50
632,042	35,67
632,236	-9,39
632,43	133,97
632,624	19,29
632,818	64,34
633,012	29,52
633,206	52,05
633,4	15,19
633,594	140,12
633,788	101,2
633,982	66,39
634,176	156,5
634,369	4,95
634,563	37,72
634,757	-95,4
634,951	60,24
635,145	201,55
635,339	11,09
635,533	187,22
635,726	144,21
635,92	111,44
636,114	4,95
636,308	25,43
636,501	11,09
636,695	144,21
636,889	-13,48
637,083	115,54
637,276	70,48
637,47	-21,67
637,664	62,29
637,857	23,38
638,051	64,34
638,244	111,44
638,438	78,68
638,632	170,83
638,825	-60,59
639,019	248,66
639,212	101,2
639,406	125,78
639,599	-11,43
639,793	88,92
639,986	82,77
640,18	107,35
640,373	31,57
640,567	54,1
640,76	86,87
640,954	131,92
641,147	60,24
641,34	43,86
641,534	35,67
641,727	164,69
641,92	62,29
642,114	174,93
642,307	-5,29
642,5	99,16
642,694	107,35
642,887	101,2
643,08	179,03
643,273	113,49
643,467	54,1
643,66	17,24
643,853	-38,06
644,046	103,25
644,239	41,81
644,432	29,52
644,626	52,05
644,819	78,68
645,012	41,81
645,205	152,4
645,398	123,73
645,591	131,92
645,784	23,38
645,977	88,92
646,17	90,96
646,363	142,16
646,556	19,29
646,749	7
646,942	95,06
647,135	156,5
647,328	4,95
647,521	52,05
647,714	93,01
647,907	107,35
648,099	-9,39
648,292	123,73
648,485	107,35
648,678	84,82
648,871	45,91
649,064	27,48
649,256	-38,06
649,449	41,81
649,642	-72,87
649,835	86,87
650,027	-97,45
650,22	70,48
650,413	58,2
650,605	154,45
650,798	41,81
650,991	72,53
651,183	107,35
651,376	80,72
651,568	144,21
651,761	103,25
651,954	125,78
652,146	203,6
652,339	136,02
652,531	271,19
652,724	56,15
652,916	99,16
653,109	-21,67
653,301	260,95
653,494	181,07
653,686	199,51
653,879	308,05
654,071	273,23
654,263	203,6
654,456	607,05
654,648	2224,95
654,84	6669,04
655,033	15321,71
655,225	26118,6
655,417	37191,97
655,61	48224,37
655,802	56700,92
655,994	61147,06
656,186	62326,69
656,379	59940,8
656,571	56236,03
656,763	50364,5
656,955	45949,08
657,148	41728,22
657,34	37566,74
657,532	33696,08
657,724	30470,53
657,916	27169,21
658,108	23515,63
658,3	19284,53
658,492	16306,78
658,684	12905,1
658,876	10986,16
659,068	8608,47
659,26	6740,72
659,452	5030,66
659,644	3722,01
659,836	2720,56
660,028	1876,79
660,22	1286,98
660,412	955,21
660,604	748,36
660,796	557,9
660,988	500,56
661,18	412,5
661,372	404,3
661,563	168,79
661,755	209,75
661,947	219,99
662,139	183,12
662,331	156,5
662,522	193,36
662,714	109,4
662,906	54,1
663,097	144,21
663,289	52,05
663,481	0,85
663,673	121,68
663,864	50
664,056	201,55
664,247	56,15
664,439	166,74
664,631	127,83
664,822	86,87
665,014	99,16
665,205	82,77
665,397	52,05
665,588	74,58
665,78	52,05
665,971	115,54
666,163	90,96
666,354	131,92
666,546	39,76
666,737	101,2
666,929	62,29
667,12	39,76
667,311	164,69
667,503	84,82
667,694	93,01
667,885	103,25
668,077	133,97
668,268	-42,15
668,459	82,77
668,651	158,55
668,842	117,59
669,033	-81,07
669,224	56,15
669,416	224,08
669,607	88,92
669,798	80,72
669,989	152,4
670,18	99,16
670,371	86,87
670,563	-40,11
670,754	154,45
670,945	54,1
671,136	101,2
671,327	17,24
671,518	140,12
671,709	209,75
671,9	97,11
672,091	140,12
672,282	17,24
672,473	47,96
672,664	45,91
672,855	103,25
673,046	187,22
673,237	144,21
673,428	90,96
673,619	125,78
673,809	39,76
674	168,79
674,191	86,87
674,382	62,29
674,573	62,29
674,764	7
674,954	131,92
675,145	19,29
675,336	-33,96
675,527	-44,2
675,717	25,43
675,908	29,52
676,099	29,52
676,289	60,24
676,48	-97,45
676,671	90,96
676,861	56,15
677,052	101,2
677,243	41,81
677,433	-7,34
677,624	33,62
677,814	99,16
678,005	-11,43
678,195	226,13
678,386	-27,82
678,576	19,29
678,767	-93,35
678,957	23,38
679,148	68,44
679,338	160,59
679,529	43,86
679,719	-11,43
679,909	90,96
680,1	84,82
680,29	31,57
680,481	-122,02
680,671	107,35
680,861	19,29
681,052	99,16
681,242	-13,48
681,432	88,92
681,622	19,29
681,813	-29,87
682,003	21,33
682,193	-48,3
682,383	56,15
682,573	13,14
682,764	-60,59
682,954	60,24
683,144	84,82
683,334	-21,67
683,524	66,39
683,714	37,72
683,904	52,05
684,094	-15,53
684,284	62,29
684,474	172,88
684,664	56,15
684,854	41,81
685,044	-42,15
685,234	23,38
685,424	-52,39
685,614	-56,49
685,804	179,03
685,994	58,2
686,184	-11,43
686,374	90,96
686,564	95,06
686,753	58,2
686,943	-9,39
687,133	-46,25
687,323	-13,48
687,513	50
687,702	0,85
687,892	-119,98
688,082	68,44
688,272	150,36
688,461	27,48
688,651	183,12
688,841	187,22
689,03	2,9
689,22	37,72
689,41	93,01
689,599	-36,01
689,789	-29,87
689,979	215,89
690,168	39,76
690,358	78,68
690,547	41,81
690,737	103,25
690,926	41,81
691,116	41,81
691,305	-9,39
691,495	93,01
691,684	-79,02
691,874	50
692,063	-3,24
692,252	52,05
692,442	93,01
692,631	-5,29
692,82	56,15
693,01	-19,63
693,199	27,48
693,388	142,16
693,578	2,9
693,767	66,39
693,956	90,96
694,146	-48,3
694,335	54,1
694,524	-19,63
694,713	56,15
694,902	17,24
695,092	15,19
695,281	45,91
695,47	45,91
695,659	-31,91
695,848	97,11
696,037	-25,77
696,226	140,12
696,415	-7,34
696,604	160,59
696,793	119,64
696,982	39,76
697,171	111,44
697,36	4,95
697,549	33,62
697,738	-109,74
697,927	7
698,116	-70,83
698,305	52,05
698,494	27,48
698,683	-15,53
698,872	148,31
699,061	50
699,25	13,14
699,438	84,82
699,627	58,2
699,816	222,03
700,005	-66,73
700,193	-81,07
700,382	-9,39
700,571	35,67
700,76	82,77
700,948	74,58
701,137	86,87
701,326	158,55
701,514	-62,63
701,703	88,92
701,892	58,2
702,08	183,12
702,269	27,48
702,457	0,85
702,646	43,86
702,834	119,64
703,023	15,19
703,212	133,97
703,4	131,92
703,589	-40,11
703,777	25,43
703,965	-44,2
704,154	-31,91
704,342	-62,63
704,531	17,24
704,719	50
704,907	90,96
705,096	-83,11
705,284	-7,34
705,472	66,39
705,661	64,34
705,849	41,81
706,037	35,67
706,226	90,96
706,414	127,83
706,602	31,57
706,79	84,82
706,979	19,29
707,167	-38,06
707,355	-105,64
707,543	95,06
707,731	43,86
707,919	0,85
708,107	66,39
708,296	-38,06
708,484	-36,01
708,672	21,33
708,86	97,11
709,048	11,09
709,236	-23,72
709,424	33,62
709,612	-7,34
709,8	-99,5
709,988	35,67
710,176	66,39
710,364	133,97
710,551	-27,82
710,739	31,57
710,927	9,05
711,115	21,33
711,303	93,01
711,491	187,22
711,679	-38,06
711,866	93,01
712,054	-33,96
712,242	70,48
712,43	84,82
712,617	70,48
712,805	158,55
712,993	70,48
713,181	-117,93
713,368	72,53
713,556	78,68
713,744	17,24
713,931	185,17
714,119	99,16
714,306	54,1
714,494	-56,49
714,682	80,72
714,869	-70,83
715,057	45,91
715,244	-117,93
715,432	-11,43
715,619	-38,06
715,807	23,38
715,994	31,57
716,182	27,48
716,369	86,87
716,556	68,44
716,744	-52,39
716,931	-25,77
717,119	47,96
717,306	95,06
717,493	111,44
717,681	-62,63
717,868	-91,31
718,055	27,48
718,242	35,67
718,43	29,52
718,617	105,3
718,804	-25,77
718,991	97,11
719,179	7
719,366	113,49
719,553	-11,43
719,74	-15,53
719,927	-38,06
720,114	-54,44
720,301	-29,87
720,488	-70,83
720,676	-93,35
720,863	74,58
721,05	129,88
721,237	72,53
721,424	140,12
721,611	9,05
721,798	-130,22
721,985	-40,11
722,172	-5,29
722,358	15,19
722,545	84,82
722,732	33,62
722,919	176,98
723,106	19,29
723,293	-31,91
723,48	58,2
723,667	-38,06
723,853	109,4
724,04	19,29
724,227	52,05
724,414	-56,49
724,6	29,52
724,787	166,74
724,974	127,83
725,161	-46,25
725,347	-79,02
725,534	35,67
725,72	80,72
725,907	43,86
726,094	41,81
726,28	-62,63
726,467	19,29
726,653	62,29
726,84	43,86
727,027	199,51
727,213	-38,06
727,4	-1,19
727,586	17,24
727,773	25,43
727,959	43,86
728,145	27,48
728,332	0,85
728,518	9,05
728,705	60,24
728,891	31,57
729,077	95,06
729,264	-17,58
729,45	72,53
729,636	129,88
729,823	0,85
730,009	113,49
730,195	19,29
730,382	56,15
730,568	-50,35
730,754	58,2
730,94	-7,34
731,126	62,29
731,313	39,76
731,499	-13,48
731,685	181,07
731,871	37,72
732,057	70,48
732,243	29,52
732,429	17,24
732,615	68,44
732,801	54,1
732,987	25,43
733,173	93,01
733,359	-36,01
733,545	13,14
733,731	54,1
733,917	138,07
734,103	-48,3
734,289	41,81
734,475	70,48
734,661	166,74
734,847	7
735,033	-11,43
735,219	60,24
735,404	-25,77
735,59	50
735,776	13,14
735,962	60,24
736,148	107,35
736,333	133,97
736,519	-40,11
736,705	-19,63
736,89	-27,82
737,076	-7,34
737,262	11,09
737,447	-11,43
737,633	23,38
737,819	82,77
738,004	101,2
738,19	-21,67
738,375	74,58
738,561	99,16
738,747	11,09
738,932	-11,43
739,118	150,36
739,303	111,44
739,489	52,05
739,674	-33,96
739,859	-56,49
740,045	27,48
740,23	-15,53
740,416	-119,98
740,601	-62,63
740,786	45,91
740,972	-48,3
741,157	-60,59
741,342	-89,26
741,528	-25,77
741,713	158,55
741,898	50
742,084	58,2
742,269	35,67
742,454	54,1
742,639	62,29
742,824	66,39
743,01	54,1
743,195	72,53
743,38	25,43
743,565	-1,19
743,75	2,9
743,935	66,39
744,12	66,39
744,305	-97,45
744,49	4,95
744,675	-7,34
744,86	-50,35
745,045	-13,48
745,23	-76,97
745,415	68,44
745,6	80,72
745,785	68,44
745,97	144,21
746,155	35,67
746,34	84,82
746,525	-19,63
746,71	119,64
746,895	-29,87
747,079	-33,96
747,264	50
747,449	60,24
747,634	45,91
747,819	103,25
748,003	13,14
748,188	-40,11
748,373	58,2
748,557	76,63
748,742	-1,19
748,927	17,24
749,111	64,34
749,296	17,24
749,481	164,69
749,665	4,95
749,85	74,58
750,034	107,35
750,219	19,29
750,404	9,05
750,588	119,64
750,773	31,57
750,957	19,29
751,141	-15,53
751,326	39,76
751,51	-54,44
751,695	-17,58
751,879	54,1
752,064	183,12
752,248	60,24
752,432	111,44
752,617	54,1
752,801	82,77
752,985	-36,01
753,17	64,34
753,354	107,35
753,538	47,96
753,722	17,24
753,907	33,62
754,091	25,43
754,275	64,34
754,459	-54,44
754,643	33,62
754,828	37,72
755,012	164,69
755,196	-56,49
755,38	27,48
755,564	-25,77
755,748	33,62
755,932	47,96
756,116	125,78
756,3	56,15
756,484	4,95
756,668	95,06
756,852	-29,87
757,036	25,43
757,22	9,05
757,404	-7,34
757,588	25,43
757,772	97,11
757,956	-99,5
758,14	152,4
758,323	-15,53
758,507	29,52
758,691	15,19
758,875	133,97
759,059	99,16
759,242	-7,34
759,426	54,1
759,61	60,24
759,794	-5,29
759,977	76,63
760,161	248,66
760,345	164,69
760,528	35,67
760,712	117,59
760,895	41,81
761,079	9,05
761,263	-9,39
761,446	27,48
761,63	-70,83
761,813	129,88
761,997	-66,73
762,18	-33,96
762,364	64,34
762,547	-113,83
762,731	52,05
762,914	76,63
763,098	62,29
763,281	-46,25
763,464	0,85
763,648	27,48
763,831	52,05
764,015	-17,58
764,198	115,54
764,381	68,44
764,564	56,15
764,748	-79,02
764,931	45,91
765,114	29,52
765,297	103,25
765,481	-11,43
765,664	-7,34
765,847	84,82
766,03	140,12
766,213	17,24
766,397	43,86
766,58	-134,31
766,763	62,29
766,946	-11,43
767,129	-40,11
767,312	-44,2
767,495	9,05
767,678	13,14
767,861	43,86
768,044	27,48
768,227	13,14
768,41	-13,48
768,593	25,43
768,776	39,76
768,959	4,95
769,142	123,73
769,324	-60,59
769,507	-15,53
769,69	-126,12
769,873	-33,96
770,056	211,79
770,239	-15,53
770,421	99,16
770,604	80,72
770,787	62,29
770,97	45,91
771,152	-23,72
771,335	37,72
771,518	-7,34
771,7	107,35
771,883	107,35
772,066	23,38
772,248	-21,67
772,431	101,2
772,613	45,91
772,796	70,48
772,978	35,67
773,161	174,93
773,343	-23,72
773,526	-13,48
773,708	-70,83
773,891	-64,68
774,073	7
774,256	11,09
774,438	152,4
774,621	-11,43
774,803	35,67
774,985	-29,87
775,168	82,77
775,35	-1,19
775,532	93,01
775,715	-21,67
775,897	4,95
776,079	33,62
776,261	164,69
776,444	324,43
776,626	482,13
776,808	490,32
776,99	715,59
777,173	914,25
777,355	1002,31
777,537	953,16
777,719	873,29
777,901	815,94
778,083	682,83
778,265	562
778,447	660,3
778,629	516,94
778,811	475,98
778,993	525,13
779,175	435,02
779,357	365,39
779,539	185,17
779,721	226,13
779,903	293,71
780,085	199,51
780,267	109,4
780,449	131,92
780,631	142,16
780,812	115,54
780,994	21,33
781,176	25,43
781,358	58,2
781,54	-1,19
781,721	27,48
781,903	-21,67
782,085	-27,82
782,267	115,54
782,448	-38,06
782,63	-7,34
782,812	58,2
782,993	62,29
783,175	41,81
783,357	-7,34
783,538	39,76
783,72	0,85
783,901	-42,15
784,083	52,05
784,264	21,33
784,446	-29,87
784,627	-7,34
784,809	148,31
784,99	19,29
785,172	2,9
785,353	-48,3
785,535	60,24
785,716	-62,63
785,897	-128,17
786,079	35,67
786,26	70,48
786,441	52,05
786,623	-81,07
786,804	-89,26
786,985	-1,19
787,167	-21,67
787,348	62,29
787,529	60,24
787,71	185,17
787,891	45,91
788,073	-64,68
788,254	-138,41
788,435	166,74
788,616	2,9
788,797	-111,78
788,978	45,91
789,159	15,19
789,34	56,15
789,522	2,9
789,703	4,95
789,884	-42,15
790,065	52,05
790,246	150,36
790,427	-5,29
790,607	154,45
790,788	52,05
790,969	-27,82
791,15	50
791,331	-40,11
791,512	74,58
791,693	-91,31
791,874	-1,19
792,054	228,18
792,235	125,78
792,416	-58,54
792,597	-42,15
792,778	-5,29
792,958	117,59
793,139	33,62
793,32	17,24
793,5	-54,44
793,681	76,63
793,862	9,05
794,042	90,96
794,223	-25,77
794,404	-13,48
794,584	-46,25
794,765	-25,77
794,945	15,19
795,126	93,01
795,306	72,53
795,487	-113,83
795,667	-40,11
795,848	-52,39
796,028	-79,02
796,209	-1,19
796,389	72,53
796,57	2,9
796,75	0,85
796,93	17,24
797,111	-72,87
797,291	-21,67
797,471	115,54
797,652	11,09
797,832	-60,59
798,012	43,86
798,192	-21,67
798,373	-40,11
798,553	60,24
798,733	68,44
798,913	-52,39
799,093	13,14
799,274	23,38
799,454	58,2
799,634	76,63
799,814	41,81
799,994	15,19
800,174	41,81
800,354	68,44
800,534	-5,29
800,714	60,24
800,894	-21,67
801,074	-83,11
801,254	-46,25
801,434	158,55
801,614	37,72
801,794	-91,31
801,974	1999,67
802,154	-66,73
802,334	52,05
802,514	-95,4
802,693	15,19
802,873	-25,77
803,053	156,5
803,233	76,63
803,413	-27,82
803,592	-56,49
803,772	-126,12
803,952	15,19
804,131	-158,89
804,311	4,95
804,491	15,19
804,67	-64,68
804,85	-40,11
805,03	103,25
805,209	107,35
805,389	21,33
805,568	56,15
805,748	-27,82
805,928	-27,82
806,107	7
806,287	-17,58
806,466	88,92
806,646	13,14
806,825	-15,53
807,004	-17,58
807,184	-31,91
807,363	-7,34
807,543	-9,39
807,722	-97,45
807,901	101,2
808,081	52,05
808,26	-119,98
808,439	-5,29
808,619	23,38
808,798	-68,78
808,977	56,15
809,156	41,81
809,336	-31,91
809,515	144,21
809,694	-40,11
809,873	-13,48
810,052	41,81
810,231	95,06
810,411	-25,77
810,59	125,78
810,769	66,39
810,948	52,05
811,127	-89,26
811,306	-7,34
811,485	-87,21
811,664	68,44
811,843	15,19
812,022	-15,53
812,201	45,91
812,38	17,24
812,559	-44,2
812,737	41,81
812,916	-29,87
813,095	-5,29
813,274	45,91
813,453	-46,25
813,632	50
813,811	84,82
813,989	-48,3
814,168	-3,24
814,347	-109,74
814,526	17,24
814,704	47,96
814,883	123,73
815,062	-36,01
815,24	74,58
815,419	-52,39
815,598	-7,34
815,776	-48,3
815,955	-95,4
816,133	-134,31
816,312	-31,91
816,49	-17,58
816,669	-40,11
816,847	-11,43
817,026	7
817,204	29,52
817,383	-44,2
817,561	-87,21
817,74	15,19
817,918	4,95
818,097	-44,2
818,275	-29,87
818,453	103,25
818,632	68,44
818,81	-52,39
818,988	4,95
819,167	-23,72
819,345	-17,58
819,523	-27,82
819,701	-19,63
819,879	-66,73
820,058	41,81
820,236	41,81
820,414	-62,63
820,592	-64,68
820,77	-11,43
820,948	-111,78
821,127	2,9
821,305	25,43
821,483	-42,15
821,661	88,92
821,839	21,33
822,017	-62,63
822,195	-103,59
822,373	52,05
822,551	31,57
822,729	58,2
822,907	-33,96
823,085	21,33
823,262	-31,91
823,44	-62,63
823,618	-48,3
823,796	-93,35
823,974	-72,87
824,152	-48,3
824,329	-70,83
824,507	2,9
824,685	76,63
824,863	-60,59
825,04	-52,39
825,218	60,24
825,396	-46,25
825,574	-17,58
825,751	-23,72
825,929	31,57
826,107	-27,82
826,284	7
826,462	17,24
826,639	-42,15
826,817	-107,69
826,994	-50,35
827,172	-36,01
827,349	115,54
827,527	39,76
827,704	-27,82
827,882	43,86
828,059	2,9
828,237	-48,3
828,414	52,05
828,591	-158,89
828,769	31,57
828,946	-48,3
829,124	105,3
829,301	131,92
829,478	-60,59
829,655	-29,87
829,833	-40,11
830,01	-173,22
830,187	23,38
830,364	52,05
830,542	-54,44
830,719	97,11
830,896	4,95
831,073	-5,29
831,25	60,24
831,427	84,82
831,604	25,43
831,782	-83,11
831,959	62,29
832,136	-23,72
832,313	37,72
832,49	4,95
832,667	35,67
832,844	21,33
833,021	140,12
833,198	-7,34
833,374	0,85
833,551	-19,63
833,728	9,05
833,905	72,53
834,082	-89,26
834,259	45,91
834,436	37,72
834,612	-79,02
834,789	76,63
834,966	58,2
835,143	-23,72
835,319	-48,3
835,496	84,82
835,673	80,72
835,85	142,16
836,026	64,34
836,203	52,05
836,38	-85,16
836,556	19,29
836,733	-13,48
836,909	142,16
837,086	2,9
837,262	-113,83
837,439	-58,54
837,616	-97,45
837,792	-72,87
837,968	0,85
838,145	-66,73
838,321	41,81
838,498	101,2
838,674	15,19
838,851	17,24
839,027	-93,35
839,203	-105,64
839,38	-9,39
839,556	41,81
839,732	11,09
839,909	7
840,085	33,62
840,261	-68,78
840,437	-9,39
840,614	-58,54
840,79	52,05
840,966	47,96
841,142	4,95
841,318	-7,34
841,494	-31,91
841,671	76,63
841,847	-103,59
842,023	-40,11
842,199	70,48
842,375	56,15
842,551	-171,18
842,727	-148,65
842,903	199,51
843,079	-103,59
843,255	88,92
843,431	-15,53
843,607	133,97
843,783	-83,11
843,959	176,98
844,134	228,18
844,31	396,11
844,486	279,38
844,662	281,43
844,838	361,3
845,013	342,86
845,189	215,89
845,365	283,47
845,541	199,51
845,716	136,02
845,892	164,69
846,068	66,39
846,244	78,68
846,419	185,17
846,595	-13,48
846,77	7
846,946	197,46
847,122	113,49
847,297	54,1
847,473	197,46
847,648	-60,59
847,824	72,53
847,999	-68,78
848,175	107,35
848,35	33,62
848,526	103,25
848,701	82,77
848,876	152,4
849,052	107,35
849,227	-52,39
849,403	88,92
849,578	-5,29
849,753	-38,06
849,929	35,67
850,104	-122,02
850,279	-60,59
850,454	9,05
850,63	17,24
850,805	99,16
850,98	103,25
851,155	35,67
851,33	74,58
851,505	-105,64
851,681	136,02
851,856	-111,78
852,031	-72,87
852,206	-7,34
852,381	-31,91
852,556	58,2
852,731	19,29
852,906	146,26
853,081	23,38
853,256	105,3
853,431	-36,01
853,606	-72,87
853,781	-70,83
853,956	-81,07
854,131	0,85
854,305	-15,53
854,48	-7,34
854,655	-81,07
854,83	27,48
855,005	-42,15
855,18	52,05
855,354	-60,59
855,529	17,24
855,704	-7,34
855,879	107,35
856,053	-66,73
856,228	-46,25
856,403	-81,07
856,577	33,62
856,752	-62,63
856,926	-25,77
857,101	0,85
857,276	-5,29
857,45	37,72
857,625	45,91
857,799	-52,39
857,974	-68,78
858,148	-117,93
858,323	19,29
858,497	2,9
858,672	-11,43
858,846	-76,97
859,02	50
859,195	-21,67
859,369	80,72
859,543	-21,67
859,718	-130,22
859,892	11,09
860,066	-21,67
860,241	-52,39
860,415	-85,16
860,589	-76,97
860,763	11,09
860,938	-134,31
861,112	60,24
861,286	-31,91
861,46	19,29
861,634	68,44
861,808	101,2
861,982	-21,67
862,157	-93,35
862,331	-72,87
862,505	-40,11
862,679	-136,36
862,853	21,33
863,027	0,85
863,201	105,3
863,375	-66,73
863,549	-29,87
863,722	15,19
863,896	117,59
864,07	-27,82
864,244	-50,35
864,418	33,62
864,592	-68,78
864,766	-3,24
864,939	-23,72
865,113	-81,07
865,287	23,38
865,461	-72,87
865,634	4,95
865,808	-40,11
865,982	-58,54
866,156	-54,44
866,329	-93,35
866,503	-31,91
866,676	105,3
866,85	66,39
867,024	-85,16
867,197	35,67
867,371	52,05
867,544	-25,77
867,718	-107,69
867,891	121,68
868,065	-31,91
868,238	76,63
868,412	-9,39
868,585	66,39
868,759	-109,74
868,932	-58,54
869,105	-1,19
869,279	4,95
869,452	-72,87
869,625	54,1
869,799	-54,44
869,972	-134,31
870,145	-21,67
870,319	66,39
870,492	-21,67
870,665	-40,11
870,838	-76,97
871,011	-111,78
871,185	-25,77
871,358	-107,69
871,531	35,67
871,704	-25,77
871,877	19,29
872,05	-62,63
872,223	-66,73
872,396	58,2
872,569	-3,24
872,742	-85,16
872,915	-27,82
873,088	25,43
873,261	0,85
873,434	-36,01
873,607	-54,44
873,78	121,68
873,953	-68,78
874,126	-54,44
874,299	111,44
874,471	13,14
874,644	-48,3
874,817	9,05
874,99	195,41
875,163	-21,67
875,335	27,48
875,508	-3,24
875,681	45,91
875,853	-60,59
876,026	50
876,199	41,81
876,371	-27,82
876,544	9,05
876,717	-17,58
876,889	-31,91
877,062	-11,43
877,234	-36,01
877,407	-76,97
877,579	-70,83
877,752	31,57
877,924	39,76
878,097	19,29
878,269	19,29
878,442	107,35
878,614	11,09
878,786	37,72
878,959	43,86
879,131	25,43
879,303	-79,02
879,476	-40,11
879,648	58,2
879,82	-72,87
879,993	-50,35
880,165	-48,3
880,337	-93,35
880,509	13,14
880,681	-91,31
880,854	-81,07
881,026	95,06
881,198	111,44
881,37	41,81
881,542	-46,25
881,714	7
881,886	-115,88
882,058	37,72
882,23	17,24
882,402	17,24
882,574	-11,43
882,746	19,29
882,918	66,39
883,09	58,2
883,262	-23,72
883,434	33,62
883,606	-72,87
883,778	-21,67
883,95	35,67
884,122	-3,24
884,293	129,88
884,465	41,81
884,637	144,21
884,809	-68,78
884,98	29,52
885,152	4,95
885,324	50
885,496	-38,06
885,667	2,9
885,839	0,85
886,011	68,44
886,182	37,72
886,354	64,34
886,525	58,2
886,697	-81,07
886,869	-40,11
887,04	-11,43
887,212	31,57
887,383	45,91
887,555	66,39
887,726	-56,49
887,897	-36,01
888,069	-3,24
888,24	-3,24
888,412	-13,48
888,583	-1,19
888,754	-72,87
888,926	-134,31
889,097	-9,39
889,268	-91,31
889,44	0,85
889,611	-58,54
889,782	-25,77
889,953	-60,59
890,125	111,44
890,296	-93,35
890,467	-62,63
890,638	-52,39
890,809	-21,67
890,98	9,05
891,151	-81,07
891,323	125,78
891,494	17,24
891,665	9,05
891,836	-46,25
892,007	-36,01
892,178	66,39
892,349	23,38
892,52	-40,11
892,691	50
892,862	-13,48
893,032	-85,16
893,203	-9,39
893,374	93,01
893,545	84,82
893,716	-64,68
893,887	133,97
894,057	-13,48
894,228	-97,45
894,399	-5,29
894,57	54,1
894,74	54,1
894,911	9,05
895,082	-1,19
895,253	-83,11
895,423	-15,53
895,594	113,49
895,764	35,67
895,935	-83,11
896,106	93,01
896,276	-19,63
896,447	-1,19
896,617	-36,01
896,788	-54,44
896,958	15,19
897,129	-5,29
897,299	-25,77
897,47	107,35
897,64	125,78
897,81	19,29
897,981	54,1
898,151	-146,6
898,322	-5,29
898,492	29,52
898,662	-46,25
898,832	-85,16
899,003	-72,87
899,173	-11,43
899,343	-105,64
899,513	-48,3
