Data from deuterium_USB4F104151__14__10-57-07-510.txt Node

Date: Wed Apr 15 10:57:07 EDT 2026
User: LaboPhy
Spectrometer: USB4F10415
Trigger mode: 4
Integration Time (sec): 1,000000E-1
Scans to average: 1
Electric dark correction enabled: true
Nonlinearity correction enabled: false
Boxcar width: 0
XAxis mode: Wavelengths
Number of Pixels in Spectrum: 3648
>>>>>Begin Spectral Data<<<<<
178,204	-456,87
178,424	-456,87
178,644	-456,87
178,864	-510,11
179,084	-542,88
179,304	91,99
179,524	-8,36
179,744	-41,13
179,964	-37,03
180,184	100,18
180,404	18,26
180,624	-69,8
180,844	-14,51
181,064	-32,94
181,283	18,26
181,503	-51,37
181,723	26,45
181,943	-143,53
182,163	100,18
182,383	-61,61
182,602	-30,89
182,822	153,43
183,042	34,64
183,262	-10,41
183,482	-43,18
183,701	38,74
183,921	32,6
184,141	-49,32
184,361	-6,31
184,58	-22,7
184,8	30,55
185,02	5,97
185,239	149,33
185,459	22,36
185,679	98,13
185,898	-100,52
186,118	12,12
186,338	40,79
186,557	130,9
186,777	14,17
186,997	-4,27
187,216	63,32
187,436	178
187,655	40,79
187,875	71,51
188,095	122,71
188,314	96,08
188,534	75,6
188,753	-69,8
188,973	-8,36
189,192	126,8
189,412	20,31
189,631	14,17
189,851	14,17
190,07	157,52
190,29	-57,51
190,509	-61,61
190,729	83,8
190,948	87,89
191,168	198,48
191,387	96,08
191,607	20,31
191,826	89,94
192,045	48,98
192,265	-26,79
192,484	38,74
192,704	-51,37
192,923	-43,18
193,142	178
193,362	114,52
193,581	63,32
193,8	55,12
194,02	71,51
194,239	10,07
194,458	26,45
194,678	36,69
194,897	-92,33
195,116	-30,89
195,335	22,36
195,555	5,97
195,774	-43,18
195,993	135
196,212	157,52
196,432	24,4
196,651	-8,36
196,87	53,08
197,089	296,78
197,308	87,89
197,528	139,09
197,747	-73,9
197,966	48,98
198,185	73,56
198,404	-82,09
198,623	120,66
198,842	59,22
199,062	110,42
199,281	-4,27
199,5	36,69
199,719	104,28
199,938	73,56
200,157	75,6
200,376	46,93
200,595	139,09
200,814	40,79
201,033	-82,09
201,252	214,87
201,471	34,64
201,69	71,51
201,909	-57,51
202,128	175,95
202,347	106,32
202,566	26,45
202,785	-20,65
203,004	-61,61
203,223	253,78
203,442	77,65
203,661	-63,66
203,879	34,64
204,098	63,32
204,317	-92,33
204,536	106,32
204,755	118,61
204,974	157,52
205,193	-41,13
205,411	112,47
205,63	137,04
205,849	16,21
206,068	106,32
206,287	-90,28
206,505	126,8
206,724	18,26
206,943	61,27
207,162	-24,75
207,381	89,94
207,599	18,26
207,818	-0,17
208,037	-43,18
208,255	-30,89
208,474	-2,22
208,693	-6,31
208,911	-51,37
209,13	128,85
209,349	22,36
209,567	71,51
209,786	36,69
210,005	81,75
210,223	42,84
210,442	-90,28
210,661	28,5
210,879	108,37
211,098	-22,7
211,316	34,64
211,535	81,75
211,753	22,36
211,972	65,36
212,191	-16,55
212,409	-39,08
212,628	124,76
212,846	-12,46
213,065	57,17
213,283	67,41
213,502	38,74
213,72	1,88
213,938	85,84
214,157	-45,23
214,375	77,65
214,594	-18,6
214,812	20,31
215,031	34,64
215,249	22,36
215,467	87,89
215,686	-12,46
215,904	40,79
216,122	24,4
216,341	173,91
216,559	51,03
216,778	106,32
216,996	112,47
217,214	83,8
217,432	59,22
217,651	-82,09
217,869	18,26
218,087	96,08
218,306	8,02
218,524	57,17
218,742	-125,1
218,96	96,08
219,179	12,12
219,397	32,6
219,615	255,83
219,833	114,52
220,051	-34,99
220,27	87,89
220,488	128,85
220,706	110,42
220,924	22,36
221,142	10,07
221,36	83,8
221,578	77,65
221,796	-6,31
222,015	94,04
222,233	65,36
222,451	190,29
222,669	-4,27
222,887	22,36
223,105	30,55
223,323	14,17
223,541	-30,89
223,759	34,64
223,977	24,4
224,195	67,41
224,413	51,03
224,631	-18,6
224,849	104,28
225,067	206,67
225,285	-8,36
225,503	-6,31
225,721	-112,81
225,939	67,41
226,157	34,64
226,375	192,34
226,592	38,74
226,81	-37,03
227,028	98,13
227,246	96,08
227,464	8,02
227,682	128,85
227,9	-16,55
228,117	124,76
228,335	48,98
228,553	81,75
228,771	16,21
228,989	-12,46
229,206	100,18
229,424	40,79
229,642	40,79
229,86	-90,28
230,077	120,66
230,295	5,97
230,513	139,09
230,731	-34,99
230,948	198,48
231,166	106,32
231,384	-4,27
231,601	12,12
231,819	114,52
232,037	32,6
232,254	-26,79
232,472	28,5
232,689	-47,27
232,907	94,04
233,125	20,31
233,342	10,07
233,56	-18,6
233,777	-30,89
233,995	48,98
234,213	46,93
234,43	16,21
234,648	24,4
234,865	-49,32
235,083	59,22
235,3	10,07
235,518	155,47
235,735	175,95
235,953	96,08
236,17	30,55
236,388	46,93
236,605	-8,36
236,822	73,56
237,04	59,22
237,257	-14,51
237,475	-39,08
237,692	-4,27
237,909	83,8
238,127	36,69
238,344	28,5
238,562	32,6
238,779	-116,9
238,996	-71,85
239,214	-16,55
239,431	40,79
239,648	-14,51
239,865	106,32
240,083	32,6
240,3	55,12
240,517	40,79
240,735	51,03
240,952	151,38
241,169	14,17
241,386	87,89
241,603	-51,37
241,821	-73,9
242,038	137,04
242,255	104,28
242,472	-139,43
242,689	48,98
242,907	71,51
243,124	28,5
243,341	22,36
243,558	-26,79
243,775	-92,33
243,992	-45,23
244,209	65,36
244,426	163,67
244,643	63,32
244,86	-43,18
245,078	128,85
245,295	28,5
245,512	-20,65
245,729	10,07
245,946	69,46
246,163	-2,22
246,38	-0,17
246,597	-32,94
246,814	-30,89
247,031	3,93
247,248	-22,7
247,464	124,76
247,681	14,17
247,898	36,69
248,115	57,17
248,332	-61,61
248,549	98,13
248,766	194,39
248,983	36,69
249,2	34,64
249,417	91,99
249,633	-8,36
249,85	108,37
250,067	51,03
250,284	-24,75
250,501	57,17
250,717	-22,7
250,934	-34,99
251,151	-39,08
251,368	-24,75
251,585	44,88
251,801	20,31
252,018	-22,7
252,235	110,42
252,451	-39,08
252,668	26,45
252,885	145,24
253,102	26,45
253,318	-24,75
253,535	-65,71
253,752	-92,33
253,968	-53,42
254,185	-45,23
254,401	46,93
254,618	175,95
254,835	-80,04
255,051	114,52
255,268	114,52
255,484	77,65
255,701	-32,94
255,917	89,94
256,134	-32,94
256,351	1,88
256,567	-8,36
256,784	32,6
257	-65,71
257,217	130,9
257,433	81,75
257,65	28,5
257,866	135
258,082	-75,95
258,299	-73,9
258,515	-34,99
258,732	-2,22
258,948	-47,27
259,165	16,21
259,381	-41,13
259,597	61,27
259,814	16,21
260,03	48,98
260,246	-55,47
260,463	108,37
260,679	128,85
260,895	65,36
261,112	38,74
261,328	-6,31
261,544	30,55
261,761	124,76
261,977	59,22
262,193	-67,75
262,409	81,75
262,626	34,64
262,842	-30,89
263,058	-12,46
263,274	69,46
263,49	87,89
263,707	53,08
263,923	116,56
264,139	-75,95
264,355	34,64
264,571	182,1
264,787	42,84
265,004	110,42
265,22	-22,7
265,436	-69,8
265,652	-51,37
265,868	73,56
266,084	-94,38
266,3	18,26
266,516	-53,42
266,732	61,27
266,948	12,12
267,164	-45,23
267,38	77,65
267,596	73,56
267,812	180,05
268,028	-2,22
268,244	-45,23
268,46	59,22
268,676	32,6
268,892	28,5
269,108	-32,94
269,324	-34,99
269,54	-73,9
269,756	59,22
269,972	-39,08
270,188	55,12
270,403	-49,32
270,619	-10,41
270,835	102,23
271,051	34,64
271,267	-20,65
271,483	1,88
271,698	63,32
271,914	73,56
272,13	1,88
272,346	14,17
272,562	34,64
272,777	59,22
272,993	32,6
273,209	-49,32
273,425	102,23
273,64	-22,7
273,856	32,6
274,072	-57,51
274,287	-10,41
274,503	55,12
274,719	169,81
274,934	-14,51
275,15	-108,71
275,366	44,88
275,581	-30,89
275,797	-6,31
276,012	28,5
276,228	1,88
276,444	24,4
276,659	210,77
276,875	-24,75
277,09	34,64
277,306	57,17
277,521	137,04
277,737	10,07
277,952	116,56
278,168	96,08
278,383	53,08
278,599	8,02
278,814	51,03
279,03	-22,7
279,245	145,24
279,461	20,31
279,676	108,37
279,892	-47,27
280,107	-110,76
280,322	10,07
280,538	108,37
280,753	-88,23
280,969	42,84
281,184	-12,46
281,399	28,5
281,615	42,84
281,83	-14,51
282,045	-116,9
282,26	-26,79
282,476	5,97
282,691	42,84
282,906	71,51
283,122	-4,27
283,337	3,93
283,552	77,65
283,767	-43,18
283,983	87,89
284,198	-39,08
284,413	116,56
284,628	-73,9
284,843	10,07
285,058	114,52
285,274	-10,41
285,489	38,74
285,704	8,02
285,919	-20,65
286,134	-34,99
286,349	69,46
286,564	-57,51
286,779	139,09
286,995	55,12
287,21	-47,27
287,425	112,47
287,64	-80,04
287,855	94,04
288,07	-39,08
288,285	118,61
288,5	102,23
288,715	40,79
288,93	28,5
289,145	-55,47
289,36	182,1
289,575	22,36
289,79	139,09
290,004	-82,09
290,219	110,42
290,434	-4,27
290,649	-28,84
290,864	18,26
291,079	-8,36
291,294	98,13
291,509	14,17
291,724	-8,36
291,938	-55,47
292,153	55,12
292,368	18,26
292,583	42,84
292,798	42,84
293,012	3,93
293,227	30,55
293,442	-67,75
293,657	79,7
293,871	130,9
294,086	104,28
294,301	180,05
294,516	132,95
294,73	32,6
294,945	77,65
295,16	44,88
295,374	128,85
295,589	46,93
295,804	-57,51
296,018	48,98
296,233	182,1
296,447	75,6
296,662	63,32
296,877	194,39
297,091	112,47
297,306	-16,55
297,52	-8,36
297,735	98,13
297,949	57,17
298,164	30,55
298,378	108,37
298,593	-28,84
298,807	-104,62
299,022	114,52
299,236	108,37
299,451	-0,17
299,665	-0,17
299,88	-20,65
300,094	83,8
300,309	-118,95
300,523	26,45
300,737	5,97
300,952	55,12
301,166	71,51
301,381	14,17
301,595	5,97
301,809	-2,22
302,024	3,93
302,238	-61,61
302,452	124,76
302,667	38,74
302,881	145,24
303,095	5,97
303,309	85,84
303,524	-125,1
303,738	5,97
303,952	10,07
304,166	79,7
304,381	-77,99
304,595	75,6
304,809	-6,31
305,023	-2,22
305,237	-8,36
305,452	5,97
305,666	53,08
305,88	75,6
306,094	73,56
306,308	46,93
306,522	42,84
306,736	65,36
306,95	73,56
307,164	20,31
307,379	26,45
307,593	143,19
307,807	67,41
308,021	71,51
308,235	12,12
308,449	-84,14
308,663	-30,89
308,877	239,44
309,091	32,6
309,305	18,26
309,519	-92,33
309,733	130,9
309,947	-57,51
310,161	87,89
310,374	112,47
310,588	153,43
310,802	-4,27
311,016	-18,6
311,23	61,27
311,444	24,4
311,658	75,6
311,872	153,43
312,085	214,87
312,299	175,95
312,513	77,65
312,727	100,18
312,941	-28,84
313,154	67,41
313,368	-6,31
313,582	83,8
313,796	130,9
314,009	-2,22
314,223	128,85
314,437	30,55
314,651	67,41
314,864	57,17
315,078	-2,22
315,292	-16,55
315,505	-2,22
315,719	46,93
315,933	96,08
316,146	-24,75
316,36	-49,32
316,573	110,42
316,787	137,04
317,001	81,75
317,214	-28,84
317,428	114,52
317,641	-47,27
317,855	-16,55
318,068	16,21
318,282	-2,22
318,495	165,71
318,709	28,5
318,922	102,23
319,136	200,53
319,349	77,65
319,563	-12,46
319,776	124,76
319,99	-133,29
320,203	104,28
320,417	40,79
320,63	71,51
320,843	149,33
321,057	-88,23
321,27	-34,99
321,483	69,46
321,697	147,28
321,91	65,36
322,124	71,51
322,337	108,37
322,55	-26,79
322,763	38,74
322,977	1,88
323,19	-2,22
323,403	38,74
323,617	-16,55
323,83	155,47
324,043	3,93
324,256	40,79
324,469	-16,55
324,683	132,95
324,896	51,03
325,109	57,17
325,322	-67,75
325,535	167,76
325,748	91,99
325,962	48,98
326,175	59,22
326,388	114,52
326,601	85,84
326,814	-16,55
327,027	65,36
327,24	89,94
327,453	-86,19
327,666	71,51
327,879	175,95
328,092	94,04
328,305	65,36
328,518	-16,55
328,731	-51,37
328,944	22,36
329,157	65,36
329,37	5,97
329,583	188,24
329,796	98,13
330,009	-32,94
330,222	22,36
330,435	145,24
330,648	46,93
330,861	26,45
331,073	81,75
331,286	38,74
331,499	83,8
331,712	-47,27
331,925	40,79
332,138	114,52
332,35	94,04
332,563	16,21
332,776	147,28
332,989	-69,8
333,202	3,93
333,414	44,88
333,627	100,18
333,84	40,79
334,053	65,36
334,265	106,32
334,478	104,28
334,691	8,02
334,903	-30,89
335,116	-41,13
335,329	8,02
335,541	89,94
335,754	171,86
335,966	-20,65
336,179	8,02
336,392	79,7
336,604	-24,75
336,817	137,04
337,029	73,56
337,242	63,32
337,454	128,85
337,667	73,56
337,88	143,19
338,092	163,67
338,305	114,52
338,517	-59,56
338,729	135
338,942	48,98
339,154	-55,47
339,367	-2,22
339,579	69,46
339,792	-102,57
340,004	-12,46
340,217	32,6
340,429	77,65
340,641	-45,23
340,854	89,94
341,066	51,03
341,278	149,33
341,491	137,04
341,703	61,27
341,915	-24,75
342,128	59,22
342,34	81,75
342,552	46,93
342,764	14,17
342,977	36,69
343,189	48,98
343,401	57,17
343,613	5,97
343,826	-0,17
344,038	-43,18
344,25	-18,6
344,462	-2,22
344,674	87,89
344,886	46,93
345,099	75,6
345,311	69,46
345,523	18,26
345,735	-43,18
345,947	22,36
346,159	71,51
346,371	65,36
346,583	18,26
346,795	247,63
347,007	46,93
347,219	38,74
347,431	14,17
347,643	139,09
347,855	-14,51
348,067	155,47
348,279	-43,18
348,491	75,6
348,703	122,71
348,915	-32,94
349,127	-34,99
349,339	55,12
349,551	46,93
349,763	98,13
349,975	-22,7
350,187	112,47
350,399	120,66
350,61	46,93
350,822	38,74
351,034	79,7
351,246	87,89
351,458	159,57
351,669	149,33
351,881	104,28
352,093	159,57
352,305	216,91
352,517	96,08
352,728	161,62
352,94	118,61
353,152	42,84
353,363	5,97
353,575	34,64
353,787	171,86
353,999	96,08
354,21	128,85
354,422	-24,75
354,633	40,79
354,845	87,89
355,057	79,7
355,268	63,32
355,48	132,95
355,692	-41,13
355,903	42,84
356,115	-49,32
356,326	-65,71
356,538	182,1
356,749	69,46
356,961	108,37
357,172	73,56
357,384	10,07
357,595	278,35
357,807	-57,51
358,018	63,32
358,23	40,79
358,441	192,34
358,653	188,24
358,864	32,6
359,075	12,12
359,287	100,18
359,498	165,71
359,709	42,84
359,921	112,47
360,132	157,52
360,344	16,21
360,555	57,17
360,766	94,04
360,977	42,84
361,189	55,12
361,4	38,74
361,611	102,23
361,823	180,05
362,034	100,18
362,245	-94,38
362,456	-6,31
362,667	69,46
362,879	-57,51
363,09	55,12
363,301	130,9
363,512	-8,36
363,723	51,03
363,935	-34,99
364,146	145,24
364,357	96,08
364,568	8,02
364,779	-2,22
364,99	120,66
365,201	-71,85
365,412	202,58
365,623	5,97
365,834	145,24
366,045	100,18
366,256	104,28
366,467	112,47
366,678	67,41
366,889	8,02
367,1	26,45
367,311	221,01
367,522	46,93
367,733	153,43
367,944	89,94
368,155	67,41
368,366	169,81
368,577	155,47
368,788	100,18
368,999	51,03
369,209	65,36
369,42	247,63
369,631	286,54
369,842	79,7
370,053	96,08
370,264	94,04
370,474	-2,22
370,685	126,8
370,896	69,46
371,107	132,95
371,317	104,28
371,528	10,07
371,739	178
371,95	114,52
372,16	112,47
372,371	20,31
372,582	57,17
372,792	118,61
373,003	83,8
373,214	59,22
373,424	87,89
373,635	-55,47
373,846	112,47
374,056	69,46
374,267	77,65
374,477	87,89
374,688	-2,22
374,898	120,66
375,109	61,27
375,319	59,22
375,53	106,32
375,74	81,75
375,951	114,52
376,161	155,47
376,372	204,63
376,582	44,88
376,793	120,66
377,003	10,07
377,214	51,03
377,424	34,64
377,635	100,18
377,845	14,17
378,055	202,58
378,266	51,03
378,476	40,79
378,686	30,55
378,897	155,47
379,107	53,08
379,317	130,9
379,528	38,74
379,738	71,51
379,948	1,88
380,158	108,37
380,369	24,4
380,579	112,47
380,789	137,04
380,999	81,75
381,21	89,94
381,42	218,96
381,63	-2,22
381,84	32,6
382,05	34,64
382,261	110,42
382,471	165,71
382,681	8,02
382,891	223,06
383,101	145,24
383,311	36,69
383,521	75,6
383,731	106,32
383,941	130,9
384,151	65,36
384,361	48,98
384,571	106,32
384,781	108,37
384,991	323,41
385,201	237,39
385,411	163,67
385,621	98,13
385,831	110,42
386,041	55,12
386,251	34,64
386,461	161,62
386,671	46,93
386,881	24,4
387,091	122,71
387,301	147,28
387,511	106,32
387,72	106,32
387,93	155,47
388,14	-41,13
388,35	16,21
388,56	145,24
388,769	126,8
388,979	85,84
389,189	18,26
389,399	102,23
389,609	153,43
389,818	139,09
390,028	104,28
390,238	124,76
390,447	10,07
390,657	71,51
390,867	28,5
391,076	59,22
391,286	157,52
391,496	42,84
391,705	44,88
391,915	173,91
392,125	106,32
392,334	46,93
392,544	155,47
392,753	71,51
392,963	-39,08
393,172	89,94
393,382	137,04
393,591	216,91
393,801	34,64
394,01	137,04
394,22	196,43
394,429	151,38
394,639	61,27
394,848	108,37
395,058	135
395,267	30,55
395,477	157,52
395,686	77,65
395,895	280,4
396,105	304,98
396,314	141,14
396,524	106,32
396,733	98,13
396,942	178
397,152	153,43
397,361	98,13
397,57	38,74
397,78	120,66
397,989	186,19
398,198	196,43
398,407	73,56
398,617	143,19
398,826	85,84
399,035	85,84
399,244	190,29
399,453	79,7
399,663	83,8
399,872	98,13
400,081	-73,9
400,29	208,72
400,499	32,6
400,708	137,04
400,917	132,95
401,127	-20,65
401,336	8,02
401,545	145,24
401,754	159,57
401,963	147,28
402,172	63,32
402,381	-32,94
402,59	34,64
402,799	22,36
403,008	83,8
403,217	94,04
403,426	120,66
403,635	-55,47
403,844	36,69
404,053	26,45
404,262	171,86
404,471	227,15
404,68	40,79
404,888	30,55
405,097	-39,08
405,306	147,28
405,515	120,66
405,724	10,07
405,933	100,18
406,142	30,55
406,35	175,95
406,559	65,36
406,768	135
406,977	153,43
407,185	104,28
407,394	69,46
407,603	40,79
407,812	65,36
408,02	204,63
408,229	110,42
408,438	196,43
408,646	51,03
408,855	46,93
409,064	171,86
409,272	151,38
409,481	237,39
409,69	104,28
409,898	128,85
410,107	280,4
410,315	390,99
410,524	169,81
410,733	237,39
410,941	198,48
411,15	147,28
411,358	153,43
411,567	186,19
411,775	145,24
411,984	42,84
412,192	137,04
412,401	73,56
412,609	212,82
412,818	141,14
413,026	71,51
413,234	16,21
413,443	22,36
413,651	83,8
413,86	124,76
414,068	104,28
414,276	198,48
414,485	8,02
414,693	198,48
414,901	245,59
415,11	87,89
415,318	69,46
415,526	28,5
415,734	100,18
415,943	81,75
416,151	200,53
416,359	18,26
416,567	38,74
416,776	75,6
416,984	128,85
417,192	225,11
417,4	24,4
417,608	71,51
417,817	-2,22
418,025	71,51
418,233	108,37
418,441	-41,13
418,649	-6,31
418,857	55,12
419,065	110,42
419,273	-14,51
419,481	48,98
419,689	69,46
419,897	-73,9
420,105	48,98
420,313	161,62
420,521	163,67
420,729	157,52
420,937	46,93
421,145	-59,56
421,353	116,56
421,561	204,63
421,769	79,7
421,977	14,17
422,185	118,61
422,393	96,08
422,601	171,86
422,809	28,5
423,017	30,55
423,224	14,17
423,432	130,9
423,64	51,03
423,848	186,19
424,056	-10,41
424,263	106,32
424,471	87,89
424,679	143,19
424,887	-84,14
425,094	73,56
425,302	87,89
425,51	-12,46
425,718	135
425,925	114,52
426,133	5,97
426,341	147,28
426,548	46,93
426,756	24,4
426,964	96,08
427,171	-61,61
427,379	112,47
427,586	44,88
427,794	81,75
428,001	89,94
428,209	61,27
428,417	186,19
428,624	79,7
428,832	81,75
429,039	69,46
429,247	18,26
429,454	83,8
429,662	173,91
429,869	89,94
430,076	42,84
430,284	59,22
430,491	194,39
430,699	98,13
430,906	178
431,114	40,79
431,321	30,55
431,528	69,46
431,736	110,42
431,943	126,8
432,15	218,96
432,358	311,12
432,565	456,53
432,772	270,16
432,979	628,56
433,187	610,12
433,394	925,51
433,601	857,93
433,808	1087,3
434,016	966,47
434,223	1015,62
434,43	925,51
434,637	876,36
434,844	814,92
435,052	503,63
435,259	483,15
435,466	386,9
435,673	307,02
435,88	178
436,087	208,72
436,294	149,33
436,501	112,47
436,708	79,7
436,915	100,18
437,122	167,76
437,329	36,69
437,537	100,18
437,743	16,21
437,95	182,1
438,157	53,08
438,364	53,08
438,571	59,22
438,778	46,93
438,985	61,27
439,192	57,17
439,399	65,36
439,606	30,55
439,813	182,1
440,02	221,01
440,227	169,81
440,433	135
440,64	-16,55
440,847	-22,7
441,054	40,79
441,261	161,62
441,467	65,36
441,674	18,26
441,881	102,23
442,088	69,46
442,294	81,75
442,501	180,05
442,708	83,8
442,914	14,17
443,121	5,97
443,328	135
443,534	85,84
443,741	22,36
443,948	-4,27
444,154	12,12
444,361	282,45
444,568	3,93
444,774	42,84
444,981	22,36
445,187	147,28
445,394	-10,41
445,6	38,74
445,807	114,52
446,013	87,89
446,22	-96,43
446,426	46,93
446,633	75,6
446,839	237,39
447,046	-12,46
447,252	79,7
447,459	18,26
447,665	-18,6
447,871	46,93
448,078	161,62
448,284	1,88
448,491	159,57
448,697	57,17
448,903	137,04
449,11	32,6
449,316	-16,55
449,522	55,12
449,728	122,71
449,935	122,71
450,141	89,94
450,347	73,56
450,553	55,12
450,76	53,08
450,966	69,46
451,172	112,47
451,378	5,97
451,584	94,04
451,791	218,96
451,997	79,7
452,203	-2,22
452,409	149,33
452,615	194,39
452,821	-22,7
453,027	-24,75
453,233	249,68
453,44	-0,17
453,646	79,7
453,852	-12,46
454,058	14,17
454,264	147,28
454,47	77,65
454,676	73,56
454,882	108,37
455,088	130,9
455,294	141,14
455,5	89,94
455,705	175,95
455,911	34,64
456,117	16,21
456,323	20,31
456,529	36,69
456,735	30,55
456,941	40,79
457,147	71,51
457,352	38,74
457,558	-8,36
457,764	87,89
457,97	10,07
458,176	63,32
458,381	48,98
458,587	171,86
458,793	91,99
458,999	-32,94
459,204	-28,84
459,41	-37,03
459,616	8,02
459,821	94,04
460,027	-57,51
460,233	126,8
460,438	112,47
460,644	36,69
460,85	178
461,055	40,79
461,261	106,32
461,466	-88,23
461,672	34,64
461,878	69,46
462,083	161,62
462,289	-51,37
462,494	26,45
462,7	118,61
462,905	73,56
463,111	130,9
463,316	114,52
463,522	106,32
463,727	81,75
463,932	65,36
464,138	24,4
464,343	83,8
464,549	137,04
464,754	198,48
464,959	81,75
465,165	8,02
465,37	16,21
465,575	87,89
465,781	22,36
465,986	1,88
466,191	100,18
466,397	44,88
466,602	73,56
466,807	106,32
467,012	167,76
467,218	96,08
467,423	-22,7
467,628	34,64
467,833	-28,84
468,038	57,17
468,244	5,97
468,449	51,03
468,654	46,93
468,859	34,64
469,064	26,45
469,269	63,32
469,474	178
469,679	253,78
469,885	104,28
470,09	5,97
470,295	116,56
470,5	-6,31
470,705	178
470,91	120,66
471,115	149,33
471,32	51,03
471,525	210,77
471,73	157,52
471,935	48,98
472,139	-12,46
472,344	-47,27
472,549	48,98
472,754	67,41
472,959	128,85
473,164	128,85
473,369	85,84
473,574	157,52
473,778	139,09
473,983	120,66
474,188	94,04
474,393	22,36
474,598	40,79
474,802	28,5
475,007	65,36
475,212	171,86
475,417	-16,55
475,621	245,59
475,826	16,21
476,031	71,51
476,235	-0,17
476,44	53,08
476,645	48,98
476,849	51,03
477,054	-32,94
477,259	34,64
477,463	126,8
477,668	274,26
477,872	196,43
478,077	24,4
478,282	46,93
478,486	153,43
478,691	67,41
478,895	96,08
479,1	122,71
479,304	100,18
479,509	104,28
479,713	106,32
479,918	77,65
480,122	28,5
480,326	126,8
480,531	87,89
480,735	120,66
480,94	-65,71
481,144	175,95
481,348	175,95
481,553	130,9
481,757	63,32
481,961	42,84
482,166	112,47
482,37	20,31
482,574	57,17
482,778	59,22
482,983	180,05
483,187	44,88
483,391	126,8
483,595	206,67
483,8	429,9
484,004	827,21
484,208	1183,56
484,412	2017,08
484,616	3243,81
484,821	4415,25
485,025	5988,09
485,229	7538,4
485,433	8578,77
485,637	9914,05
485,841	10249,91
486,045	10725,04
486,249	10731,19
486,453	9717,44
486,657	8967,88
486,861	7722,72
487,065	6647,54
487,269	5451,52
487,473	4349,71
487,677	3837,72
487,881	3174,18
488,085	2363,19
488,289	1888,06
488,493	1423,17
488,697	1128,26
488,901	673,61
489,105	323,41
489,309	280,4
489,512	276,31
489,716	143,19
489,92	104,28
490,124	169,81
490,328	218,96
490,531	147,28
490,735	180,05
490,939	44,88
491,143	71,51
491,346	116,56
491,55	120,66
491,754	67,41
491,958	114,52
492,161	83,8
492,365	8,02
492,569	83,8
492,772	81,75
492,976	147,28
493,18	1,88
493,383	87,89
493,587	69,46
493,79	118,61
493,994	5,97
494,197	73,56
494,401	48,98
494,605	-4,27
494,808	81,75
495,012	32,6
495,215	157,52
495,419	149,33
495,622	30,55
495,825	51,03
496,029	63,32
496,232	169,81
496,436	71,51
496,639	75,6
496,843	57,17
497,046	-8,36
497,249	147,28
497,453	108,37
497,656	36,69
497,859	85,84
498,063	46,93
498,266	132,95
498,469	-0,17
498,673	57,17
498,876	81,75
499,079	24,4
499,282	98,13
499,485	253,78
499,689	20,31
499,892	96,08
500,095	5,97
500,298	94,04
500,501	-37,03
500,705	81,75
500,908	104,28
501,111	100,18
501,314	104,28
501,517	190,29
501,72	51,03
501,923	77,65
502,126	12,12
502,329	118,61
502,532	75,6
502,735	77,65
502,938	157,52
503,141	94,04
503,344	-69,8
503,547	83,8
503,75	5,97
503,953	18,26
504,156	132,95
504,359	98,13
504,562	-14,51
504,765	83,8
504,968	112,47
505,17	104,28
505,373	132,95
505,576	102,23
505,779	24,4
505,982	-12,46
506,185	55,12
506,387	42,84
506,59	165,71
506,793	1,88
506,996	59,22
507,198	94,04
507,401	104,28
507,604	100,18
507,807	69,46
508,009	79,7
508,212	83,8
508,415	59,22
508,617	22,36
508,82	57,17
509,022	61,27
509,225	79,7
509,428	22,36
509,63	94,04
509,833	-0,17
510,035	225,11
510,238	100,18
510,44	22,36
510,643	30,55
510,845	63,32
511,048	135
511,25	55,12
511,453	98,13
511,655	32,6
511,858	151,38
512,06	161,62
512,262	10,07
512,465	38,74
512,667	22,36
512,87	-12,46
513,072	153,43
513,274	96,08
513,477	3,93
513,679	46,93
513,881	57,17
514,084	71,51
514,286	165,71
514,488	151,38
514,69	96,08
514,893	63,32
515,095	22,36
515,297	44,88
515,499	30,55
515,701	-18,6
515,904	116,56
516,106	184,15
516,308	165,71
516,51	132,95
516,712	104,28
516,914	30,55
517,116	-47,27
517,318	-47,27
517,52	53,08
517,722	75,6
517,925	-63,66
518,127	53,08
518,329	128,85
518,531	-30,89
518,733	59,22
518,935	-2,22
519,136	137,04
519,338	-55,47
519,54	59,22
519,742	-55,47
519,944	139,09
520,146	-18,6
520,348	118,61
520,55	182,1
520,752	-84,14
520,954	20,31
521,155	57,17
521,357	-18,6
521,559	106,32
521,761	139,09
521,963	135
522,164	16,21
522,366	16,21
522,568	100,18
522,77	145,24
522,971	83,8
523,173	-98,47
523,375	22,36
523,576	-53,42
523,778	57,17
523,98	-0,17
524,181	141,14
524,383	69,46
524,584	32,6
524,786	116,56
524,988	42,84
525,189	38,74
525,391	149,33
525,592	-34,99
525,794	-51,37
525,995	-37,03
526,197	53,08
526,398	233,3
526,6	30,55
526,801	85,84
527,003	-151,72
527,204	67,41
527,406	79,7
527,607	14,17
527,808	77,65
528,01	59,22
528,211	100,18
528,412	10,07
528,614	120,66
528,815	194,39
529,016	130,9
529,218	69,46
529,419	65,36
529,62	73,56
529,822	239,44
530,023	-32,94
530,224	116,56
530,425	149,33
530,626	59,22
530,828	63,32
531,029	-10,41
531,23	147,28
531,431	38,74
531,632	149,33
531,833	-8,36
532,035	-8,36
532,236	22,36
532,437	69,46
532,638	-16,55
532,839	-34,99
533,04	67,41
533,241	223,06
533,442	120,66
533,643	38,74
533,844	-2,22
534,045	34,64
534,246	38,74
534,447	38,74
534,648	-43,18
534,849	124,76
535,05	-6,31
535,251	-59,56
535,451	48,98
535,652	-51,37
535,853	12,12
536,054	87,89
536,255	36,69
536,456	24,4
536,657	26,45
536,857	96,08
537,058	139,09
537,259	-16,55
537,46	16,21
537,66	28,5
537,861	-12,46
538,062	63,32
538,263	-71,85
538,463	26,45
538,664	94,04
538,865	51,03
539,065	114,52
539,266	57,17
539,466	10,07
539,667	221,01
539,868	63,32
540,068	-4,27
540,269	159,57
540,469	120,66
540,67	65,36
540,87	139,09
541,071	53,08
541,271	81,75
541,472	122,71
541,672	130,9
541,873	83,8
542,073	42,84
542,274	87,89
542,474	143,19
542,675	104,28
542,875	139,09
543,075	-73,9
543,276	-34,99
543,476	38,74
543,676	165,71
543,877	26,45
544,077	104,28
544,277	81,75
544,478	-18,6
544,678	63,32
544,878	61,27
545,078	1,88
545,279	-2,22
545,479	-8,36
545,679	65,36
545,879	20,31
546,079	46,93
546,28	-82,09
546,48	157,52
546,68	114,52
546,88	24,4
547,08	40,79
547,28	130,9
547,48	-47,27
547,68	171,86
547,88	20,31
548,081	102,23
548,281	-2,22
548,481	69,46
548,681	18,26
548,881	120,66
549,081	77,65
549,28	79,7
549,48	5,97
549,68	79,7
549,88	69,46
550,08	-63,66
550,28	18,26
550,48	169,81
550,68	32,6
550,88	-12,46
551,08	-0,17
551,279	67,41
551,479	-43,18
551,679	153,43
551,879	-53,42
552,079	59,22
552,278	63,32
552,478	130,9
552,678	135
552,878	149,33
553,077	83,8
553,277	34,64
553,477	30,55
553,676	42,84
553,876	61,27
554,076	96,08
554,275	165,71
554,475	89,94
554,674	116,56
554,874	42,84
555,074	-51,37
555,273	-26,79
555,473	18,26
555,672	-41,13
555,872	38,74
556,071	10,07
556,271	178
556,47	-8,36
556,67	-8,36
556,869	24,4
557,068	61,27
557,268	24,4
557,467	24,4
557,667	120,66
557,866	108,37
558,065	-49,32
558,265	38,74
558,464	61,27
558,663	-22,7
558,863	61,27
559,062	46,93
559,261	22,36
559,461	106,32
559,66	118,61
559,859	-92,33
560,058	-61,61
560,258	-51,37
560,457	20,31
560,656	55,12
560,855	22,36
561,054	153,43
561,253	91,99
561,453	-8,36
561,652	59,22
561,851	20,31
562,05	-16,55
562,249	-112,81
562,448	104,28
562,647	5,97
562,846	32,6
563,045	77,65
563,244	114,52
563,443	51,03
563,642	38,74
563,841	165,71
564,04	24,4
564,239	63,32
564,438	87,89
564,637	-69,8
564,836	-8,36
565,035	36,69
565,234	-22,7
565,432	118,61
565,631	61,27
565,83	77,65
566,029	12,12
566,228	-47,27
566,427	165,71
566,625	44,88
566,824	63,32
567,023	-4,27
567,222	77,65
567,42	59,22
567,619	55,12
567,818	30,55
568,016	266,07
568,215	34,64
568,414	159,57
568,612	106,32
568,811	38,74
569,01	96,08
569,208	89,94
569,407	120,66
569,605	159,57
569,804	63,32
570,002	87,89
570,201	22,36
570,4	87,89
570,598	73,56
570,797	85,84
570,995	20,31
571,193	81,75
571,392	69,46
571,59	-2,22
571,789	188,24
571,987	253,78
572,186	227,15
572,384	96,08
572,582	108,37
572,781	204,63
572,979	69,46
573,177	106,32
573,376	143,19
573,574	165,71
573,772	87,89
573,971	-2,22
574,169	-24,75
574,367	171,86
574,565	87,89
574,763	8,02
574,962	175,95
575,16	63,32
575,358	79,7
575,556	110,42
575,754	137,04
575,952	135
576,151	157,52
576,349	278,35
576,547	38,74
576,745	114,52
576,943	149,33
577,141	83,8
577,339	51,03
577,537	89,94
577,735	124,76
577,933	161,62
578,131	46,93
578,329	196,43
578,527	143,19
578,725	227,15
578,923	-41,13
579,121	118,61
579,319	-88,23
579,516	57,17
579,714	333,65
579,912	91,99
580,11	-67,75
580,308	89,94
580,506	87,89
580,704	3,93
580,901	55,12
581,099	345,94
581,297	165,71
581,495	253,78
581,692	188,24
581,89	288,59
582,088	208,72
582,285	98,13
582,483	59,22
582,681	143,19
582,878	132,95
583,076	159,57
583,274	53,08
583,471	345,94
583,669	122,71
583,866	71,51
584,064	-14,51
584,262	22,36
584,459	77,65
584,657	149,33
584,854	132,95
585,052	202,58
585,249	161,62
585,447	63,32
585,644	40,79
585,841	231,25
586,039	171,86
586,236	221,01
586,434	155,47
586,631	10,07
586,828	48,98
587,026	30,55
587,223	-37,03
587,42	5,97
587,618	139,09
587,815	178
588,012	102,23
588,21	73,56
588,407	118,61
588,604	104,28
588,801	32,6
588,999	79,7
589,196	180,05
589,393	-84,14
589,59	132,95
589,787	104,28
589,984	67,41
590,182	71,51
590,379	-22,7
590,576	71,51
590,773	22,36
590,97	63,32
591,167	208,72
591,364	175,95
591,561	83,8
591,758	198,48
591,955	128,85
592,152	61,27
592,349	40,79
592,546	59,22
592,743	73,56
592,94	51,03
593,137	139,09
593,334	141,14
593,531	165,71
593,727	94,04
593,924	114,52
594,121	178
594,318	32,6
594,515	155,47
594,712	225,11
594,908	167,76
595,105	28,5
595,302	81,75
595,499	169,81
595,696	227,15
595,892	91,99
596,089	94,04
596,286	46,93
596,482	147,28
596,679	96,08
596,876	26,45
597,072	73,56
597,269	55,12
597,466	186,19
597,662	98,13
597,859	71,51
598,055	-0,17
598,252	48,98
598,448	81,75
598,645	153,43
598,841	163,67
599,038	188,24
599,234	294,74
599,431	147,28
599,627	71,51
599,824	98,13
600,02	26,45
600,217	3,93
600,413	163,67
600,609	91,99
600,806	300,88
601,002	75,6
601,198	28,5
601,395	135
601,591	227,15
601,787	91,99
601,984	135
602,18	139,09
602,376	145,24
602,572	44,88
602,769	194,39
602,965	44,88
603,161	237,39
603,357	169,81
603,553	237,39
603,75	55,12
603,946	55,12
604,142	53,08
604,338	343,89
604,534	12,12
604,73	137,04
604,926	94,04
605,122	204,63
605,318	108,37
605,514	139,09
605,71	44,88
605,906	227,15
606,102	1,88
606,298	112,47
606,494	94,04
606,69	212,82
606,886	63,32
607,082	81,75
607,278	-12,46
607,474	122,71
607,67	38,74
607,866	30,55
608,062	118,61
608,257	65,36
608,453	16,21
608,649	165,71
608,845	-10,41
609,041	14,17
609,236	79,7
609,432	42,84
609,628	153,43
609,824	108,37
610,019	-18,6
610,215	10,07
610,411	165,71
610,606	155,47
610,802	-8,36
610,998	-8,36
611,193	38,74
611,389	-26,79
611,584	91,99
611,78	67,41
611,976	79,7
612,171	276,31
612,367	63,32
612,562	137,04
612,758	42,84
612,953	-121
613,149	-0,17
613,344	-4,27
613,539	-47,27
613,735	130,9
613,93	118,61
614,126	89,94
614,321	63,32
614,517	200,53
614,712	124,76
614,907	114,52
615,103	32,6
615,298	38,74
615,493	5,97
615,688	14,17
615,884	71,51
616,079	40,79
616,274	55,12
616,47	18,26
616,665	-24,75
616,86	75,6
617,055	26,45
617,25	1,88
617,445	61,27
617,641	32,6
617,836	-0,17
618,031	-2,22
618,226	81,75
618,421	114,52
618,616	42,84
618,811	-32,94
619,006	-18,6
619,201	161,62
619,396	-47,27
619,591	-28,84
619,786	120,66
619,981	100,18
620,176	18,26
620,371	63,32
620,566	36,69
620,761	98,13
620,956	83,8
621,151	16,21
621,346	38,74
621,541	24,4
621,735	143,19
621,93	73,56
622,125	26,45
622,32	-0,17
622,515	-16,55
622,709	137,04
622,904	137,04
623,099	69,46
623,294	135
623,488	94,04
623,683	24,4
623,878	75,6
624,072	145,24
624,267	-26,79
624,462	-4,27
624,656	-51,37
624,851	89,94
625,046	-4,27
625,24	44,88
625,435	40,79
625,629	32,6
625,824	182,1
626,018	130,9
626,213	188,24
626,407	10,07
626,602	51,03
626,796	20,31
626,991	161,62
627,185	-30,89
627,38	81,75
627,574	153,43
627,768	67,41
627,963	20,31
628,157	40,79
628,352	-6,31
628,546	-8,36
628,74	34,64
628,935	8,02
629,129	22,36
629,323	122,71
629,517	5,97
629,712	38,74
629,906	10,07
630,1	153,43
630,294	128,85
630,489	8,02
630,683	96,08
630,877	104,28
631,071	102,23
631,265	-0,17
631,459	59,22
631,653	55,12
631,848	114,52
632,042	-14,51
632,236	-18,6
632,43	155,47
632,624	5,97
632,818	46,93
633,012	79,7
633,206	32,6
633,4	46,93
633,594	137,04
633,788	48,98
633,982	87,89
634,176	151,38
634,369	46,93
634,563	-18,6
634,757	-61,61
634,951	55,12
635,145	153,43
635,339	28,5
635,533	108,37
635,726	102,23
635,92	69,46
636,114	34,64
636,308	-65,71
636,501	8,02
636,695	126,8
636,889	-65,71
637,083	116,56
637,276	28,5
637,47	-45,23
637,664	38,74
637,857	65,36
638,051	16,21
638,244	159,57
638,438	104,28
638,632	161,62
638,825	-26,79
639,019	159,57
639,212	-18,6
639,406	40,79
639,599	16,21
639,793	32,6
639,986	63,32
640,18	137,04
640,373	18,26
640,567	30,55
640,76	63,32
640,954	89,94
641,147	61,27
641,34	83,8
641,534	-18,6
641,727	81,75
641,92	96,08
642,114	67,41
642,307	-0,17
642,5	132,95
642,694	8,02
642,887	55,12
643,08	116,56
643,273	169,81
643,467	5,97
643,66	20,31
643,853	-104,62
644,046	104,28
644,239	79,7
644,432	-51,37
644,626	-57,51
644,819	42,84
645,012	145,24
645,205	53,08
645,398	175,95
645,591	44,88
645,784	12,12
645,977	-37,03
646,17	94,04
646,363	16,21
646,556	32,6
646,749	38,74
646,942	114,52
647,135	139,09
647,328	-26,79
647,521	139,09
647,714	65,36
647,907	51,03
648,099	-65,71
648,292	118,61
648,485	73,56
648,678	77,65
648,871	38,74
649,064	108,37
649,256	-4,27
649,449	57,17
649,642	-112,81
649,835	71,51
650,027	-61,61
650,22	161,62
650,413	94,04
650,605	132,95
650,798	30,55
650,991	48,98
651,183	102,23
651,376	173,91
651,568	180,05
651,761	171,86
651,954	218,96
652,146	91,99
652,339	192,34
652,531	208,72
652,724	61,27
652,916	98,13
653,109	-8,36
653,301	208,72
653,494	196,43
653,686	210,77
653,879	237,39
654,071	323,41
654,263	218,96
654,456	595,79
654,648	2182,96
654,84	6661,87
655,033	15298,16
655,225	25869,77
655,417	37369,12
655,61	47961,21
655,802	55888,9
655,994	60783,54
656,186	62540,7
656,379	59605,96
656,571	55624,71
656,763	49923,16
656,955	45534,37
657,148	41407,71
657,34	37508,38
657,532	33607
657,724	30051,72
657,916	26770,88
658,108	23231,99
658,3	19154,48
658,492	16150,11
658,684	13080,21
658,876	10766
659,068	8681,17
659,26	6577,9
659,452	5005,06
659,644	3462,94
659,836	2807,59
660,028	1853,24
660,22	1146,69
660,412	962,37
660,604	737,1
660,796	513,87
660,988	507,73
661,18	323,41
661,372	405,33
661,563	255,83
661,755	165,71
661,947	149,33
662,139	155,47
662,331	110,42
662,522	141,14
662,714	89,94
662,906	65,36
663,097	110,42
663,289	40,79
663,481	30,55
663,673	161,62
663,864	59,22
664,056	149,33
664,247	40,79
664,439	145,24
664,631	116,56
664,822	108,37
665,014	151,38
665,205	34,64
665,397	94,04
665,588	81,75
665,78	128,85
665,971	171,86
666,163	46,93
666,354	63,32
666,546	14,17
666,737	8,02
666,929	-30,89
667,12	18,26
667,311	-10,41
667,503	22,36
667,694	38,74
667,885	65,36
668,077	57,17
668,268	-2,22
668,459	124,76
668,651	-51,37
668,842	87,89
669,033	-14,51
669,224	-32,94
669,416	278,35
669,607	26,45
669,798	-4,27
669,989	218,96
670,18	16,21
670,371	116,56
670,563	-63,66
670,754	102,23
670,945	89,94
671,136	77,65
671,327	-84,14
671,518	184,15
671,709	194,39
671,9	143,19
672,091	153,43
672,282	32,6
672,473	145,24
672,664	-41,13
672,855	-6,31
673,046	46,93
673,237	122,71
673,428	71,51
673,619	38,74
673,809	8,02
674	85,84
674,191	114,52
674,382	-0,17
674,573	44,88
674,764	1,88
674,954	112,47
675,145	-22,7
675,336	-26,79
675,527	-67,75
675,717	-45,23
675,908	24,4
676,099	-43,18
676,289	-4,27
676,48	-14,51
676,671	55,12
676,861	-30,89
677,052	79,7
677,243	-24,75
677,433	-34,99
677,624	106,32
677,814	-90,28
678,005	-49,32
678,195	159,57
678,386	-112,81
678,576	-45,23
678,767	-90,28
678,957	32,6
679,148	91,99
679,338	124,76
679,529	85,84
679,719	1,88
679,909	132,95
680,1	132,95
680,29	143,19
680,481	-53,42
680,671	98,13
680,861	116,56
681,052	12,12
681,242	-43,18
681,432	83,8
681,622	81,75
681,813	-143,53
682,003	5,97
682,193	-71,85
682,383	48,98
682,573	-26,79
682,764	-41,13
682,954	57,17
683,144	132,95
683,334	-59,56
683,524	46,93
683,714	83,8
683,904	-18,6
684,094	-0,17
684,284	-24,75
684,474	135
684,664	51,03
684,854	-55,47
685,044	-6,31
685,234	40,79
685,424	57,17
685,614	-65,71
685,804	145,24
685,994	-18,6
686,184	22,36
686,374	96,08
686,564	-10,41
686,753	28,5
686,943	-71,85
687,133	-34,99
687,323	28,5
687,513	-4,27
687,702	42,84
687,892	-8,36
688,082	75,6
688,272	51,03
688,461	-28,84
688,651	155,47
688,841	36,69
689,03	48,98
689,22	69,46
689,41	3,93
689,599	61,27
689,789	-55,47
689,979	114,52
690,168	-53,42
690,358	46,93
690,547	-22,7
690,737	34,64
690,926	12,12
691,116	87,89
691,305	153,43
691,495	67,41
691,684	-65,71
691,874	-20,65
692,063	30,55
692,252	75,6
692,442	91,99
692,631	32,6
692,82	-34,99
693,01	81,75
693,199	16,21
693,388	100,18
693,578	-51,37
693,767	26,45
693,956	91,99
694,146	53,08
694,335	28,5
694,524	-18,6
694,713	145,24
694,902	-8,36
695,092	-16,55
695,281	53,08
695,47	-77,99
695,659	-65,71
695,848	24,4
696,037	-4,27
696,226	139,09
696,415	-4,27
696,604	124,76
696,793	-2,22
696,982	-2,22
697,171	147,28
697,36	-26,79
697,549	-59,56
697,738	-41,13
697,927	36,69
698,116	-53,42
698,305	77,65
698,494	51,03
698,683	22,36
698,872	159,57
699,061	-10,41
699,25	1,88
699,438	55,12
699,627	-20,65
699,816	173,91
700,005	-73,9
700,193	-4,27
700,382	53,08
700,571	-39,08
700,76	38,74
700,948	94,04
701,137	91,99
701,326	67,41
701,514	-65,71
701,703	-22,7
701,892	28,5
702,08	204,63
702,269	67,41
702,457	-39,08
702,646	65,36
702,834	-14,51
703,023	81,75
703,212	51,03
703,4	18,26
703,589	-6,31
703,777	-77,99
703,965	-10,41
704,154	-2,22
704,342	32,6
704,531	-73,9
704,719	28,5
704,907	104,28
705,096	-73,9
705,284	-47,27
705,472	-22,7
705,661	14,17
705,849	-8,36
706,037	124,76
706,226	38,74
706,414	40,79
706,602	-22,7
706,79	104,28
706,979	-41,13
707,167	28,5
707,355	-118,95
707,543	26,45
707,731	96,08
707,919	32,6
708,107	-2,22
708,296	8,02
708,484	-51,37
708,672	22,36
708,86	20,31
709,048	53,08
709,236	-24,75
709,424	-10,41
709,612	71,51
709,8	-57,51
709,988	-8,36
710,176	85,84
710,364	104,28
710,551	-100,52
710,739	-26,79
710,927	30,55
711,115	75,6
711,303	46,93
711,491	110,42
711,679	-80,04
711,866	38,74
712,054	-39,08
712,242	73,56
712,43	32,6
712,617	-16,55
712,805	96,08
712,993	-12,46
713,181	-116,9
713,368	100,18
713,556	12,12
713,744	-47,27
713,931	202,58
714,119	28,5
714,306	-41,13
714,494	5,97
714,682	-12,46
714,869	-92,33
715,057	5,97
715,244	-88,23
715,432	3,93
715,619	12,12
715,807	-118,95
715,994	-57,51
716,182	-8,36
716,369	40,79
716,556	137,04
716,744	-133,29
716,931	-26,79
717,119	1,88
717,306	-12,46
717,493	30,55
717,681	-51,37
717,868	-18,6
718,055	22,36
718,242	-34,99
718,43	22,36
718,617	48,98
718,804	-41,13
718,991	128,85
719,179	20,31
719,366	65,36
719,553	40,79
719,74	14,17
719,927	53,08
720,114	14,17
720,301	-90,28
720,488	-49,32
720,676	-88,23
720,863	55,12
721,05	178
721,237	81,75
721,424	46,93
721,611	36,69
721,798	-100,52
721,985	-28,84
722,172	-149,67
722,358	-63,66
722,545	40,79
722,732	57,17
722,919	59,22
723,106	32,6
723,293	22,36
723,48	-16,55
723,667	-98,47
723,853	124,76
724,04	38,74
724,227	106,32
724,414	-10,41
724,6	42,84
724,787	112,47
724,974	145,24
725,161	-34,99
725,347	-114,86
725,534	-37,03
725,72	5,97
725,907	98,13
726,094	32,6
726,28	-133,29
726,467	-28,84
726,653	-32,94
726,84	112,47
727,027	188,24
727,213	5,97
727,4	55,12
727,586	-26,79
727,773	-43,18
727,959	71,51
728,145	-28,84
728,332	-32,94
728,518	-61,61
728,705	55,12
728,891	-28,84
729,077	73,56
729,264	-73,9
729,45	-47,27
729,636	18,26
729,823	16,21
730,009	104,28
730,195	89,94
730,382	106,32
730,568	-149,67
730,754	-10,41
730,94	-12,46
731,126	-32,94
731,313	-67,75
731,499	-0,17
731,685	59,22
731,871	53,08
732,057	18,26
732,243	65,36
732,429	24,4
732,615	124,76
732,801	79,7
732,987	-2,22
733,173	-2,22
733,359	-32,94
733,545	5,97
733,731	-16,55
733,917	145,24
734,103	38,74
734,289	48,98
734,475	-69,8
734,661	139,09
734,847	8,02
735,033	-12,46
735,219	71,51
735,404	-26,79
735,59	-86,19
735,776	5,97
735,962	40,79
736,148	20,31
736,333	61,27
736,519	12,12
736,705	-10,41
736,89	-18,6
737,076	-26,79
737,262	-57,51
737,447	-20,65
737,633	-90,28
737,819	30,55
738,004	63,32
738,19	34,64
738,375	59,22
738,561	42,84
738,747	16,21
738,932	-61,61
739,118	212,82
739,303	94,04
739,489	87,89
739,674	-32,94
739,859	-88,23
740,045	-22,7
740,23	51,03
740,416	-116,9
740,601	14,17
740,786	63,32
740,972	-90,28
741,157	-2,22
741,342	-65,71
741,528	-67,75
741,713	81,75
741,898	36,69
742,084	30,55
742,269	-41,13
742,454	40,79
742,639	63,32
742,824	10,07
743,01	126,8
743,195	112,47
743,38	112,47
743,565	-39,08
743,75	-6,31
743,935	57,17
744,12	30,55
744,305	-59,56
744,49	-24,75
744,675	30,55
744,86	8,02
745,045	100,18
745,23	14,17
745,415	14,17
745,6	83,8
745,785	-16,55
745,97	14,17
746,155	100,18
746,34	55,12
746,525	79,7
746,71	102,23
746,895	-6,31
747,079	-73,9
747,264	-45,23
747,449	91,99
747,634	100,18
747,819	63,32
748,003	-14,51
748,188	-8,36
748,373	120,66
748,557	143,19
748,742	36,69
748,927	44,88
749,111	-26,79
749,296	-32,94
749,481	75,6
749,665	5,97
749,85	-51,37
750,034	28,5
750,219	-39,08
750,404	10,07
750,588	-2,22
750,773	-47,27
750,957	24,4
751,141	-30,89
751,326	98,13
751,51	-118,95
751,695	79,7
751,879	-30,89
752,064	165,71
752,248	22,36
752,432	57,17
752,617	94,04
752,801	106,32
752,985	-32,94
753,17	118,61
753,354	-49,32
753,538	57,17
753,722	-32,94
753,907	-37,03
754,091	-69,8
754,275	96,08
754,459	-100,52
754,643	-59,56
754,828	53,08
755,012	75,6
755,196	-92,33
755,38	77,65
755,564	18,26
755,748	30,55
755,932	44,88
756,116	87,89
756,3	51,03
756,484	-55,47
756,668	124,76
756,852	-129,19
757,036	32,6
757,22	-14,51
757,404	-82,09
757,588	46,93
757,772	14,17
757,956	-75,95
758,14	108,37
758,323	-14,51
758,507	44,88
758,691	-4,27
758,875	48,98
759,059	135
759,242	-8,36
759,426	-63,66
759,61	24,4
759,794	-26,79
759,977	200,53
760,161	151,38
760,345	100,18
760,528	112,47
760,712	16,21
760,895	65,36
761,079	-12,46
761,263	-45,23
761,446	-47,27
761,63	-61,61
761,813	104,28
761,997	-10,41
762,18	44,88
762,364	104,28
762,547	-127,14
762,731	-10,41
762,914	139,09
763,098	-51,37
763,281	14,17
763,464	-10,41
763,648	42,84
763,831	-20,65
764,015	-4,27
764,198	130,9
764,381	3,93
764,564	91,99
764,748	-8,36
764,931	-26,79
765,114	-32,94
765,297	79,7
765,481	-82,09
765,664	-0,17
765,847	-18,6
766,03	94,04
766,213	-53,42
766,397	-4,27
766,58	-80,04
766,763	102,23
766,946	14,17
767,129	-67,75
767,312	26,45
767,495	12,12
767,678	-8,36
767,861	79,7
768,044	-37,03
768,227	-16,55
768,41	61,27
768,593	22,36
768,776	-67,75
768,959	59,22
769,142	110,42
769,324	-26,79
769,507	32,6
769,69	-61,61
769,873	-12,46
770,056	218,96
770,239	-49,32
770,421	51,03
770,604	34,64
770,787	-26,79
770,97	55,12
771,152	-55,47
771,335	26,45
771,518	-75,95
771,7	65,36
771,883	151,38
772,066	-24,75
772,248	100,18
772,431	55,12
772,613	100,18
772,796	-4,27
772,978	46,93
773,161	151,38
773,343	-8,36
773,526	-22,7
773,708	-121
773,891	-98,47
774,073	40,79
774,256	1,88
774,438	145,24
774,621	-18,6
774,803	8,02
774,985	-47,27
775,168	59,22
775,35	10,07
775,532	85,84
775,715	-37,03
775,897	-12,46
776,079	24,4
776,261	139,09
776,444	253,78
776,626	417,61
776,808	591,69
776,99	677,71
777,173	876,36
777,355	915,27
777,537	956,23
777,719	837,45
777,901	712,52
778,083	685,9
778,265	640,84
778,447	550,73
778,629	532,3
778,811	405,33
778,993	421,71
779,175	436,05
779,357	284,5
779,539	188,24
779,721	196,43
779,903	169,81
780,085	85,84
780,267	180,05
780,449	55,12
780,631	171,86
780,812	180,05
780,994	59,22
781,176	87,89
781,358	-26,79
781,54	-32,94
781,721	8,02
781,903	159,57
782,085	-18,6
782,267	-12,46
782,448	-45,23
782,63	-14,51
782,812	38,74
782,993	61,27
783,175	10,07
783,357	-0,17
783,538	24,4
783,72	-55,47
783,901	-75,95
784,083	-8,36
784,264	46,93
784,446	-63,66
784,627	-59,56
784,809	79,7
784,99	44,88
785,172	73,56
785,353	46,93
785,535	-51,37
785,716	-96,43
785,897	-28,84
786,079	102,23
786,26	10,07
786,441	79,7
786,623	-133,29
786,804	-14,51
786,985	18,26
787,167	55,12
787,348	5,97
787,529	-82,09
787,71	126,8
787,891	-2,22
788,073	-108,71
788,254	-106,67
788,435	130,9
788,616	5,97
788,797	20,31
788,978	5,97
789,159	-18,6
789,34	46,93
789,522	-22,7
789,703	-92,33
789,884	-16,55
790,065	12,12
790,246	104,28
790,427	-12,46
790,607	114,52
790,788	44,88
790,969	-69,8
791,15	57,17
791,331	42,84
791,512	32,6
791,693	38,74
791,874	-65,71
792,054	190,29
792,235	79,7
792,416	-77,99
792,597	-92,33
792,778	69,46
792,958	-4,27
793,139	-45,23
793,32	63,32
793,5	-84,14
793,681	112,47
793,862	5,97
794,042	5,97
794,223	-100,52
794,404	-71,85
794,584	-61,61
794,765	22,36
794,945	46,93
795,126	73,56
795,306	65,36
795,487	-2,22
795,667	10,07
795,848	71,51
796,028	-14,51
796,209	-32,94
796,389	5,97
796,57	-49,32
796,75	-92,33
796,93	-22,7
797,111	-24,75
797,291	-57,51
797,471	36,69
797,652	-34,99
797,832	-57,51
798,012	79,7
798,192	-67,75
798,373	-47,27
798,553	30,55
798,733	59,22
798,913	-45,23
799,093	-59,56
799,274	3,93
799,454	26,45
799,634	89,94
799,814	51,03
799,994	106,32
800,174	18,26
800,354	-26,79
800,534	-98,47
800,714	42,84
800,894	-63,66
801,074	-47,27
801,254	-51,37
801,434	73,56
801,614	-8,36
801,794	-77,99
801,974	2029,37
802,154	-18,6
802,334	83,8
802,514	-75,95
802,693	-4,27
802,873	40,79
803,053	32,6
803,233	55,12
803,413	-10,41
803,592	-24,75
803,772	-65,71
803,952	-18,6
804,131	-155,82
804,311	-2,22
804,491	55,12
804,67	-61,61
804,85	-108,71
805,03	-30,89
805,209	135
805,389	16,21
805,568	8,02
805,748	-71,85
805,928	-108,71
806,107	38,74
806,287	51,03
806,466	-14,51
806,646	-0,17
806,825	-69,8
807,004	-24,75
807,184	-59,56
807,363	10,07
807,543	-8,36
807,722	-90,28
807,901	116,56
808,081	48,98
808,26	-170,15
808,439	22,36
808,619	48,98
808,798	-96,43
808,977	67,41
809,156	165,71
809,336	-37,03
809,515	53,08
809,694	-86,19
809,873	34,64
810,052	-16,55
810,231	32,6
810,411	8,02
810,59	51,03
810,769	30,55
810,948	42,84
811,127	-129,19
811,306	-86,19
811,485	-75,95
811,664	110,42
811,843	10,07
812,022	8,02
812,201	-49,32
812,38	-30,89
812,559	-55,47
812,737	71,51
812,916	-112,81
813,095	-84,14
813,274	104,28
813,453	-37,03
813,632	108,37
813,811	100,18
813,989	-133,29
814,168	69,46
814,347	-39,08
814,526	-67,75
814,704	46,93
814,883	89,94
815,062	-139,43
815,24	65,36
815,419	-49,32
815,598	85,84
815,776	-141,48
815,955	-34,99
816,133	-90,28
816,312	-32,94
816,49	-45,23
816,669	-30,89
816,847	-8,36
817,026	83,8
817,204	-75,95
817,383	14,17
817,561	24,4
817,74	-41,13
817,918	36,69
818,097	8,02
818,275	-59,56
818,453	44,88
818,632	20,31
818,81	-41,13
818,988	-34,99
819,167	-14,51
819,345	-71,85
819,523	-80,04
819,701	59,22
819,879	42,84
820,058	-26,79
820,236	-14,51
820,414	79,7
820,592	-73,9
820,77	-16,55
820,948	-161,96
821,127	-59,56
821,305	-49,32
821,483	-59,56
821,661	30,55
821,839	59,22
822,017	3,93
822,195	-57,51
822,373	83,8
822,551	42,84
822,729	-14,51
822,907	-45,23
823,085	18,26
823,262	-67,75
823,44	-49,32
823,618	-71,85
823,796	12,12
823,974	-12,46
824,152	-102,57
824,329	-43,18
824,507	22,36
824,685	34,64
824,863	-57,51
825,04	-14,51
825,218	89,94
825,396	28,5
825,574	18,26
825,751	8,02
825,929	73,56
826,107	-84,14
826,284	14,17
826,462	40,79
826,639	-59,56
826,817	-75,95
826,994	-37,03
827,172	-47,27
827,349	81,75
827,527	-10,41
827,704	-12,46
827,882	40,79
828,059	-71,85
828,237	-80,04
828,414	73,56
828,591	-145,58
828,769	-34,99
828,946	-51,37
829,124	30,55
829,301	69,46
829,478	16,21
829,655	18,26
829,833	-14,51
830,01	-141,48
830,187	81,75
830,364	46,93
830,542	-18,6
830,719	143,19
830,896	-51,37
831,073	-10,41
831,25	57,17
831,427	83,8
831,604	-43,18
831,782	-77,99
831,959	77,65
832,136	3,93
832,313	-14,51
832,49	-2,22
832,667	55,12
832,844	-88,23
833,021	28,5
833,198	-53,42
833,374	3,93
833,551	96,08
833,728	-80,04
833,905	77,65
834,082	-114,86
834,259	69,46
834,436	98,13
834,612	-92,33
834,789	46,93
834,966	55,12
835,143	26,45
835,319	-92,33
835,496	-20,65
835,673	-67,75
835,85	34,64
836,026	63,32
836,203	55,12
836,38	24,4
836,556	-71,85
836,733	-10,41
836,909	120,66
837,086	-86,19
837,262	-65,71
837,439	-57,51
837,616	-80,04
837,792	-26,79
837,968	-67,75
838,145	-106,67
838,321	34,64
838,498	24,4
838,674	104,28
838,851	-26,79
839,027	-16,55
839,203	-2,22
839,38	-32,94
839,556	-41,13
839,732	81,75
839,909	-22,7
840,085	79,7
840,261	-22,7
840,437	-20,65
840,614	-96,43
840,79	63,32
840,966	24,4
841,142	5,97
841,318	-75,95
841,494	63,32
841,671	108,37
841,847	-51,37
842,023	-22,7
842,199	18,26
842,375	69,46
842,551	-129,19
842,727	-59,56
842,903	122,71
843,079	-75,95
843,255	71,51
843,431	-10,41
843,607	104,28
843,783	3,93
843,959	212,82
844,134	178
844,31	384,85
844,486	235,35
844,662	327,5
844,838	345,94
845,013	345,94
845,189	261,97
845,365	182,1
845,541	91,99
845,716	178
845,892	204,63
846,068	89,94
846,244	32,6
846,419	40,79
846,595	8,02
846,77	-26,79
846,946	104,28
847,122	112,47
847,297	59,22
847,473	165,71
847,648	71,51
847,824	73,56
847,999	-116,9
848,175	46,93
848,35	57,17
848,526	139,09
848,701	169,81
848,876	57,17
849,052	20,31
849,227	-59,56
849,403	3,93
849,578	28,5
849,753	-73,9
849,929	40,79
850,104	-82,09
850,279	-8,36
850,454	38,74
850,63	73,56
850,805	5,97
850,98	-24,75
851,155	-80,04
851,33	112,47
851,505	-53,42
851,681	59,22
851,856	-57,51
852,031	67,41
852,206	22,36
852,381	-116,9
852,556	-2,22
852,731	12,12
852,906	-41,13
853,081	-39,08
853,256	118,61
853,431	48,98
853,606	-131,24
853,781	-51,37
853,956	-67,75
854,131	57,17
854,305	-118,95
854,48	-63,66
854,655	-92,33
854,83	-125,1
855,005	-34,99
855,18	85,84
855,354	-65,71
855,529	-71,85
855,704	-34,99
855,879	46,93
856,053	-49,32
856,228	55,12
856,403	-123,05
856,577	-12,46
856,752	-22,7
856,926	-53,42
857,101	-77,99
857,276	-104,62
857,45	16,21
857,625	69,46
857,799	1,88
857,974	-45,23
858,148	-141,48
858,323	112,47
858,497	-84,14
858,672	-69,8
858,846	-39,08
859,02	137,04
859,195	-37,03
859,369	-43,18
859,543	57,17
859,718	36,69
859,892	-6,31
860,066	-24,75
860,241	-34,99
860,415	-53,42
860,589	-61,61
860,763	-10,41
860,938	-39,08
861,112	30,55
861,286	-86,19
861,46	-16,55
861,634	-28,84
861,808	34,64
861,982	-6,31
862,157	-73,9
862,331	20,31
862,505	-71,85
862,679	-141,48
862,853	16,21
863,027	-59,56
863,201	114,52
863,375	-73,9
863,549	18,26
863,722	20,31
863,896	104,28
864,07	-65,71
864,244	-116,9
864,418	83,8
864,592	-4,27
864,766	65,36
864,939	-65,71
865,113	-8,36
865,287	110,42
865,461	-41,13
865,634	65,36
865,808	-61,61
865,982	5,97
866,156	-98,47
866,329	-100,52
866,503	34,64
866,676	-16,55
866,85	91,99
867,024	-6,31
867,197	96,08
867,371	96,08
867,544	20,31
867,718	-164,01
867,891	38,74
868,065	-12,46
868,238	87,89
868,412	106,32
868,585	1,88
868,759	-71,85
868,932	-71,85
869,105	-100,52
869,279	34,64
869,452	-88,23
869,625	-0,17
869,799	-80,04
869,972	-61,61
870,145	-65,71
870,319	69,46
870,492	55,12
870,665	-71,85
870,838	-67,75
871,011	-186,54
871,185	-63,66
871,358	-16,55
871,531	16,21
871,704	-26,79
871,877	-12,46
872,05	-16,55
872,223	-59,56
872,396	-67,75
872,569	-41,13
872,742	-100,52
872,915	5,97
873,088	-108,71
873,261	-104,62
873,434	85,84
873,607	-41,13
873,78	159,57
873,953	-145,58
874,126	32,6
874,299	71,51
874,471	-94,38
874,644	-77,99
874,817	53,08
874,99	20,31
875,163	-112,81
875,335	44,88
875,508	-10,41
875,681	67,41
875,853	-92,33
876,026	-43,18
876,199	14,17
876,371	18,26
876,544	-59,56
876,717	30,55
876,889	-88,23
877,062	-34,99
877,234	-125,1
877,407	-30,89
877,579	65,36
877,752	-24,75
877,924	57,17
878,097	-6,31
878,269	48,98
878,442	-34,99
878,614	-8,36
878,786	-49,32
878,959	-28,84
879,131	22,36
879,303	-131,24
879,476	3,93
879,648	-2,22
879,82	-41,13
879,993	-32,94
880,165	-20,65
880,337	-73,9
880,509	34,64
880,681	-125,1
880,854	-106,67
881,026	5,97
881,198	53,08
881,37	14,17
881,542	-18,6
881,714	3,93
881,886	34,64
882,058	-22,7
882,23	16,21
882,402	-2,22
882,574	71,51
882,746	73,56
882,918	163,67
883,09	-10,41
883,262	-59,56
883,434	-24,75
883,606	-161,96
883,778	14,17
883,95	51,03
884,122	-39,08
884,293	40,79
884,465	-45,23
884,637	24,4
884,809	-43,18
884,98	24,4
885,152	40,79
885,324	-16,55
885,496	1,88
885,667	-80,04
885,839	-4,27
886,011	67,41
886,182	51,03
886,354	-0,17
886,525	-0,17
886,697	46,93
886,869	-55,47
887,04	-41,13
887,212	75,6
887,383	145,24
887,555	26,45
887,726	36,69
887,897	-30,89
888,069	36,69
888,24	108,37
888,412	5,97
888,583	-121
888,754	-71,85
888,926	-80,04
889,097	-51,37
889,268	-92,33
889,44	20,31
889,611	-92,33
889,782	-94,38
889,953	-67,75
890,125	120,66
890,296	-55,47
890,467	-108,71
890,638	-75,95
890,809	-47,27
890,98	-51,37
891,151	5,97
891,323	38,74
891,494	-43,18
891,665	46,93
891,836	-30,89
892,007	-20,65
892,178	-57,51
892,349	-32,94
892,52	-63,66
892,691	20,31
892,862	-41,13
893,032	-139,43
893,203	-22,7
893,374	-30,89
893,545	112,47
893,716	-65,71
893,887	1,88
894,057	-80,04
894,228	-26,79
894,399	-43,18
894,57	36,69
894,74	-49,32
894,911	-0,17
895,082	10,07
895,253	-65,71
895,423	-26,79
895,594	38,74
895,764	122,71
895,935	-106,67
896,106	24,4
896,276	-41,13
896,447	10,07
896,617	-135,34
896,788	-164,01
896,958	48,98
897,129	-84,14
897,299	-98,47
897,47	94,04
897,64	38,74
897,81	10,07
897,981	-43,18
898,151	-71,85
898,322	-14,51
898,492	24,4
898,662	-8,36
898,832	-75,95
899,003	18,26
899,173	26,45
899,343	-71,85
899,513	-108,71
