Data from deuterium_USB4F104151__20__10-57-07-554.txt Node

Date: Wed Apr 15 10:57:07 EDT 2026
User: LaboPhy
Spectrometer: USB4F10415
Trigger mode: 4
Integration Time (sec): 1,000000E-1
Scans to average: 1
Electric dark correction enabled: true
Nonlinearity correction enabled: false
Boxcar width: 0
XAxis mode: Wavelengths
Number of Pixels in Spectrum: 3648
>>>>>Begin Spectral Data<<<<<
178,204	-487,42
178,424	-487,42
178,644	-487,42
178,864	-473,08
179,084	-532,47
179,304	-22,53
179,524	-51,2
179,744	-22,53
179,964	38,91
180,184	34,82
180,404	75,77
180,624	14,34
180,844	69,63
181,064	-98,3
181,283	-16,38
181,503	-45,06
181,723	22,53
181,943	-116,73
182,163	210,94
182,383	-16,38
182,602	18,43
182,822	153,6
183,042	55,3
183,262	-92,16
183,482	-6,14
183,701	63,49
183,921	10,24
184,141	-47,1
184,361	69,63
184,58	57,34
184,8	-2,05
185,02	-4,1
185,239	61,44
185,459	122,88
185,679	96,25
185,898	-129,02
186,118	-34,82
186,338	90,11
186,557	188,41
186,777	-83,97
186,997	-59,39
187,216	30,72
187,436	235,52
187,655	90,11
187,875	90,11
188,095	69,63
188,314	94,21
188,534	79,87
188,753	-67,58
188,973	106,49
189,192	104,45
189,412	4,1
189,631	-10,24
189,851	24,58
190,07	192,51
190,29	-55,3
190,509	-81,92
190,729	-0
190,948	133,12
191,168	174,08
191,387	-18,43
191,607	-28,67
191,826	4,1
192,045	-30,72
192,265	-40,96
192,484	94,21
192,704	55,3
192,923	-124,93
193,142	176,13
193,362	100,35
193,581	221,18
193,8	36,86
194,02	75,77
194,239	16,38
194,458	79,87
194,678	77,82
194,897	-40,96
195,116	90,11
195,335	51,2
195,555	45,06
195,774	20,48
195,993	106,49
196,212	55,3
196,432	-49,15
196,651	6,14
196,87	24,58
197,089	278,52
197,308	53,25
197,528	77,82
197,747	-59,39
197,966	81,92
198,185	243,71
198,404	-55,3
198,623	126,97
198,842	106,49
199,062	96,25
199,281	61,44
199,5	-4,1
199,719	53,25
199,938	71,68
200,157	-34,82
200,376	106,49
200,595	100,35
200,814	90,11
201,033	18,43
201,252	165,89
201,471	108,54
201,69	34,82
201,909	14,34
202,128	126,97
202,347	135,17
202,566	28,67
202,785	-32,77
203,004	32,77
203,223	317,44
203,442	-4,1
203,661	-65,54
203,879	114,69
204,098	112,64
204,317	-83,97
204,536	106,49
204,755	151,55
204,974	75,77
205,193	-61,44
205,411	86,01
205,63	57,34
205,849	90,11
206,068	45,06
206,287	26,62
206,505	159,74
206,724	81,92
206,943	20,48
207,162	-53,25
207,381	71,68
207,599	22,53
207,818	32,77
208,037	43,01
208,255	16,38
208,474	28,67
208,693	61,44
208,911	2,05
209,13	112,64
209,349	59,39
209,567	106,49
209,786	-10,24
210,005	88,06
210,223	22,53
210,442	-139,26
210,661	-53,25
210,879	88,06
211,098	14,34
211,316	-12,29
211,535	59,39
211,753	-16,38
211,972	53,25
212,191	-28,67
212,409	75,77
212,628	116,73
212,846	-10,24
213,065	-4,1
213,283	40,96
213,502	61,44
213,72	6,14
213,938	38,91
214,157	24,58
214,375	118,78
214,594	-16,38
214,812	94,21
215,031	-4,1
215,249	-34,82
215,467	55,3
215,686	-26,62
215,904	-12,29
216,122	88,06
216,341	145,41
216,559	57,34
216,778	77,82
216,996	141,31
217,214	20,48
217,432	8,19
217,651	-4,1
217,869	57,34
218,087	4,1
218,306	-8,19
218,524	135,17
218,742	94,21
218,96	135,17
219,179	40,96
219,397	-57,34
219,615	229,37
219,833	69,63
220,051	-65,54
220,27	6,14
220,488	139,26
220,706	22,53
220,924	-43,01
221,142	-36,86
221,36	73,73
221,578	53,25
221,796	-32,77
222,015	14,34
222,233	8,19
222,451	98,3
222,669	16,38
222,887	63,49
223,105	-51,2
223,323	104,45
223,541	-61,44
223,759	18,43
223,977	-45,06
224,195	184,32
224,413	114,69
224,631	73,73
224,849	32,77
225,067	256
225,285	-73,73
225,503	-12,29
225,721	-61,44
225,939	12,29
226,157	24,58
226,375	161,79
226,592	8,19
226,81	94,21
227,028	88,06
227,246	61,44
227,464	61,44
227,682	108,54
227,9	20,48
228,117	43,01
228,335	108,54
228,553	-6,14
228,771	-12,29
228,989	-53,25
229,206	63,49
229,424	10,24
229,642	10,24
229,86	-71,68
230,077	163,84
230,295	-8,19
230,513	65,53
230,731	112,64
230,948	192,51
231,166	217,08
231,384	-75,77
231,601	-36,86
231,819	186,37
232,037	-30,72
232,254	-12,29
232,472	-61,44
232,689	12,29
232,907	51,2
233,125	2,05
233,342	-88,06
233,56	57,34
233,777	-20,48
233,995	-43,01
234,213	69,63
234,43	135,17
234,648	26,62
234,865	49,15
235,083	69,63
235,3	-57,34
235,518	112,64
235,735	167,93
235,953	20,48
236,17	-14,34
236,388	-55,3
236,605	-4,1
236,822	79,87
237,04	129,02
237,257	26,62
237,475	-88,06
237,692	104,45
237,909	-14,34
238,127	-10,24
238,344	34,82
238,562	61,44
238,779	-38,91
238,996	-24,58
239,214	-43,01
239,431	47,1
239,648	-45,06
239,865	122,88
240,083	98,3
240,3	-28,67
240,517	14,34
240,735	36,86
240,952	104,45
241,169	12,29
241,386	6,14
241,603	-6,14
241,821	-137,21
242,038	110,59
242,255	104,45
242,472	-63,49
242,689	55,3
242,907	4,1
243,124	22,53
243,341	38,91
243,558	2,05
243,775	-14,34
243,992	-90,11
244,209	77,82
244,426	108,54
244,643	32,77
244,86	129,02
245,078	73,73
245,295	65,53
245,512	-49,15
245,729	-4,1
245,946	51,2
246,163	55,3
246,38	28,67
246,597	59,39
246,814	-4,1
247,031	-34,82
247,248	8,19
247,464	57,34
247,681	-8,19
247,898	88,06
248,115	188,41
248,332	10,24
248,549	118,78
248,766	153,6
248,983	98,3
249,2	-8,19
249,417	53,25
249,633	-2,05
249,85	96,25
250,067	12,29
250,284	38,91
250,501	45,06
250,717	106,49
250,934	-83,97
251,151	57,34
251,368	26,62
251,585	38,91
251,801	16,38
252,018	-63,49
252,235	100,35
252,451	-40,96
252,668	-12,29
252,885	40,96
253,102	143,36
253,318	-40,96
253,535	65,53
253,752	24,58
253,968	49,15
254,185	-38,91
254,401	-18,43
254,618	67,58
254,835	-0
255,051	88,06
255,268	110,59
255,484	120,83
255,701	-12,29
255,917	16,38
256,134	-34,82
256,351	71,68
256,567	-67,58
256,784	45,06
257	-100,35
257,217	141,31
257,433	59,39
257,65	79,87
257,866	141,31
258,082	-34,82
258,299	14,34
258,515	-12,29
258,732	-18,43
258,948	20,48
259,165	53,25
259,381	-36,86
259,597	141,31
259,814	-16,38
260,03	34,82
260,246	24,58
260,463	112,64
260,679	96,25
260,895	47,1
261,112	57,34
261,328	-6,14
261,544	-79,87
261,761	90,11
261,977	49,15
262,193	-83,97
262,409	69,63
262,626	88,06
262,842	24,58
263,058	16,38
263,274	28,67
263,49	45,06
263,707	106,49
263,923	40,96
264,139	-43,01
264,355	71,68
264,571	53,25
264,787	4,1
265,004	147,45
265,22	20,48
265,436	-61,44
265,652	-45,06
265,868	90,11
266,084	-79,87
266,3	6,14
266,516	55,3
266,732	34,82
266,948	55,3
267,164	-8,19
267,38	131,07
267,596	30,72
267,812	178,17
268,028	30,72
268,244	-12,29
268,46	53,25
268,676	40,96
268,892	45,06
269,108	-118,78
269,324	16,38
269,54	-69,63
269,756	88,06
269,972	-106,49
270,188	-12,29
270,403	-94,21
270,619	-26,62
270,835	83,97
271,051	71,68
271,267	43,01
271,483	-8,19
271,698	51,2
271,914	8,19
272,13	22,53
272,346	-12,29
272,562	-2,05
272,777	139,26
272,993	61,44
273,209	63,49
273,425	61,44
273,64	-65,54
273,856	86,01
274,072	2,05
274,287	-32,77
274,503	61,44
274,719	92,16
274,934	-20,48
275,15	-57,34
275,366	22,53
275,581	-34,82
275,797	81,92
276,012	69,63
276,228	-22,53
276,444	30,72
276,659	59,39
276,875	40,96
277,09	53,25
277,306	-0
277,521	73,73
277,737	36,86
277,952	86,01
278,168	94,21
278,383	47,1
278,599	14,34
278,814	63,49
279,03	-18,43
279,245	159,74
279,461	83,97
279,676	100,35
279,892	-28,67
280,107	-53,25
280,322	-14,34
280,538	65,53
280,753	-8,19
280,969	157,69
281,184	-28,67
281,399	104,45
281,615	24,58
281,83	67,58
282,045	-129,02
282,26	-98,3
282,476	30,72
282,691	36,86
282,906	98,3
283,122	79,87
283,337	28,67
283,552	-12,29
283,767	16,38
283,983	30,72
284,198	20,48
284,413	16,38
284,628	-20,48
284,843	45,06
285,058	-4,1
285,274	73,73
285,489	-61,44
285,704	63,49
285,919	-43,01
286,134	-86,01
286,349	-26,62
286,564	-18,43
286,779	215,04
286,995	22,53
287,21	-79,87
287,425	86,01
287,64	28,67
287,855	83,97
288,07	-81,92
288,285	8,19
288,5	94,21
288,715	75,77
288,93	-8,19
289,145	4,1
289,36	59,39
289,575	30,72
289,79	200,7
290,004	16,38
290,219	139,26
290,434	-53,25
290,649	51,2
290,864	4,1
291,079	75,77
291,294	79,87
291,509	55,3
291,724	-79,87
291,938	79,87
292,153	73,73
292,368	18,43
292,583	36,86
292,798	12,29
293,012	38,91
293,227	55,3
293,442	-10,24
293,657	133,12
293,871	108,54
294,086	118,78
294,301	186,37
294,516	151,55
294,73	24,58
294,945	-40,96
295,16	8,19
295,374	112,64
295,589	83,97
295,804	-73,73
296,018	-24,58
296,233	86,01
296,447	12,29
296,662	-8,19
296,877	106,49
297,091	112,64
297,306	-8,19
297,52	137,21
297,735	40,96
297,949	-61,44
298,164	49,15
298,378	75,77
298,593	-83,97
298,807	-22,53
299,022	20,48
299,236	16,38
299,451	22,53
299,665	-49,15
299,88	-4,1
300,094	20,48
300,309	-102,4
300,523	61,44
300,737	40,96
300,952	77,82
301,166	47,1
301,381	36,86
301,595	-36,86
301,809	86,01
302,024	24,58
302,238	-22,53
302,452	81,92
302,667	38,91
302,881	88,06
303,095	77,82
303,309	86,01
303,524	-45,06
303,738	28,67
303,952	26,62
304,166	116,73
304,381	-108,54
304,595	75,77
304,809	24,58
305,023	30,72
305,237	26,62
305,452	6,14
305,666	71,68
305,88	112,64
306,094	114,69
306,308	53,25
306,522	36,86
306,736	49,15
306,95	22,53
307,164	-32,77
307,379	67,58
307,593	94,21
307,807	167,93
308,021	12,29
308,235	96,25
308,449	-100,35
308,663	24,58
308,877	221,18
309,091	12,29
309,305	112,64
309,519	-24,58
309,733	129,02
309,947	-96,25
310,161	28,67
310,374	157,69
310,588	153,6
310,802	-0
311,016	2,05
311,23	53,25
311,444	-12,29
311,658	32,77
311,872	161,79
312,085	155,65
312,299	122,88
312,513	135,17
312,727	20,48
312,941	-43,01
313,154	118,78
313,368	110,59
313,582	77,82
313,796	32,77
314,009	94,21
314,223	133,12
314,437	45,06
314,651	129,02
314,864	55,3
315,078	36,86
315,292	-88,06
315,505	45,06
315,719	104,45
315,933	79,87
316,146	34,82
316,36	30,72
316,573	108,54
316,787	102,4
317,001	53,25
317,214	-24,58
317,428	36,86
317,641	4,1
317,855	-2,05
318,068	8,19
318,282	90,11
318,495	188,41
318,709	77,82
318,922	69,63
319,136	192,51
319,349	139,26
319,563	-38,91
319,776	26,62
319,99	-53,25
320,203	129,02
320,417	-10,24
320,63	129,02
320,843	225,28
321,057	67,58
321,27	79,87
321,483	65,53
321,697	110,59
321,91	69,63
322,124	45,06
322,337	145,41
322,55	-49,15
322,763	49,15
322,977	-0
323,19	-63,49
323,403	38,91
323,617	10,24
323,83	88,06
324,043	57,34
324,256	32,77
324,469	10,24
324,683	122,88
324,896	45,06
325,109	14,34
325,322	-63,49
325,535	169,98
325,748	190,46
325,962	16,38
326,175	28,67
326,388	26,62
326,601	165,89
326,814	-18,43
327,027	8,19
327,24	188,41
327,453	-4,1
327,666	8,19
327,879	153,6
328,092	69,63
328,305	-12,29
328,518	-18,43
328,731	55,3
328,944	30,72
329,157	-20,48
329,37	-0
329,583	126,97
329,796	139,26
330,009	-100,35
330,222	116,73
330,435	124,93
330,648	55,3
330,861	108,54
331,073	98,3
331,286	114,69
331,499	100,35
331,712	2,05
331,925	45,06
332,138	88,06
332,35	61,44
332,563	4,1
332,776	139,26
332,989	-24,58
333,202	14,34
333,414	69,63
333,627	22,53
333,84	30,72
334,053	36,86
334,265	28,67
334,478	32,77
334,691	12,29
334,903	61,44
335,116	16,38
335,329	30,72
335,541	157,69
335,754	157,69
335,966	45,06
336,179	22,53
336,392	61,44
336,604	51,2
336,817	145,41
337,029	184,32
337,242	79,87
337,454	120,83
337,667	122,88
337,88	137,21
338,092	73,73
338,305	110,59
338,517	-20,48
338,729	81,92
338,942	180,22
339,154	-6,14
339,367	-4,1
339,579	137,21
339,792	-45,06
340,004	157,69
340,217	12,29
340,429	65,53
340,641	12,29
340,854	-43,01
341,066	-12,29
341,278	198,65
341,491	178,17
341,703	43,01
341,915	2,05
342,128	71,68
342,34	100,35
342,552	-16,38
342,764	73,73
342,977	67,58
343,189	69,63
343,401	8,19
343,613	-18,43
343,826	67,58
344,038	49,15
344,25	90,11
344,462	43,01
344,674	49,15
344,886	-0
345,099	94,21
345,311	126,97
345,523	75,77
345,735	45,06
345,947	79,87
346,159	153,6
346,371	-28,67
346,583	-16,38
346,795	200,7
347,007	47,1
347,219	145,41
347,431	47,1
347,643	112,64
347,855	18,43
348,067	176,13
348,279	-32,77
348,491	90,11
348,703	122,88
348,915	10,24
349,127	20,48
349,339	38,91
349,551	4,1
349,763	77,82
349,975	55,3
350,187	161,79
350,399	137,21
350,61	67,58
350,822	36,86
351,034	57,34
351,246	159,74
351,458	120,83
351,669	106,49
351,881	149,5
352,093	217,08
352,305	163,84
352,517	112,64
352,728	245,76
352,94	73,73
353,152	112,64
353,363	24,58
353,575	180,22
353,787	266,24
353,999	81,92
354,21	184,32
354,422	18,43
354,633	86,01
354,845	14,34
355,057	124,93
355,268	81,92
355,48	116,73
355,692	38,91
355,903	53,25
356,115	47,1
356,326	-94,21
356,538	241,66
356,749	90,11
356,961	149,5
357,172	53,25
357,384	-18,43
357,595	276,48
357,807	53,25
358,018	16,38
358,23	-4,1
358,441	135,17
358,653	94,21
358,864	106,49
359,075	36,86
359,287	126,97
359,498	186,37
359,709	141,31
359,921	69,63
360,132	81,92
360,344	94,21
360,555	32,77
360,766	30,72
360,977	106,49
361,189	114,69
361,4	18,43
361,611	131,07
361,823	145,41
362,034	71,68
362,245	-65,54
362,456	45,06
362,667	135,17
362,879	-61,44
363,09	45,06
363,301	137,21
363,512	16,38
363,723	32,77
363,935	86,01
364,146	53,25
364,357	45,06
364,568	90,11
364,779	-28,67
364,99	151,55
365,201	-18,43
365,412	45,06
365,623	-49,15
365,834	71,68
366,045	131,07
366,256	118,78
366,467	163,84
366,678	36,86
366,889	100,35
367,1	20,48
367,311	141,31
367,522	59,39
367,733	153,6
367,944	38,91
368,155	79,87
368,366	100,35
368,577	75,77
368,788	106,49
368,999	55,3
369,209	98,3
369,42	329,72
369,631	366,59
369,842	118,78
370,053	69,63
370,264	133,12
370,474	-6,14
370,685	67,58
370,896	-0
371,107	81,92
371,317	176,13
371,528	55,3
371,739	145,41
371,95	86,01
372,16	129,02
372,371	8,19
372,582	-8,19
372,792	147,45
373,003	112,64
373,214	129,02
373,424	169,98
373,635	51,2
373,846	167,93
374,056	40,96
374,267	65,53
374,477	79,87
374,688	55,3
374,898	161,79
375,109	102,4
375,319	186,37
375,53	126,97
375,74	139,26
375,951	133,12
376,161	227,32
376,372	186,37
376,582	22,53
376,793	47,1
377,003	-38,91
377,214	77,82
377,424	188,41
377,635	10,24
377,845	61,44
378,055	225,28
378,266	49,15
378,476	71,68
378,686	77,82
378,897	75,77
379,107	112,64
379,317	149,5
379,528	34,82
379,738	114,69
379,948	43,01
380,158	139,26
380,369	129,02
380,579	143,36
380,789	71,68
380,999	104,45
381,21	69,63
381,42	194,56
381,63	165,89
381,84	38,91
382,05	153,6
382,261	116,73
382,471	143,36
382,681	-51,2
382,891	153,6
383,101	79,87
383,311	4,1
383,521	-0
383,731	157,69
383,941	106,49
384,151	18,43
384,361	6,14
384,571	176,13
384,781	98,3
384,991	243,71
385,201	260,09
385,411	149,5
385,621	75,77
385,831	147,45
386,041	88,06
386,251	94,21
386,461	217,08
386,671	18,43
386,881	120,83
387,091	135,17
387,301	233,47
387,511	81,92
387,72	149,5
387,93	153,6
388,14	63,49
388,35	88,06
388,56	204,8
388,769	210,94
388,979	81,92
389,189	61,44
389,399	38,91
389,609	147,45
389,818	88,06
390,028	81,92
390,238	94,21
390,447	-36,86
390,657	110,59
390,867	59,39
391,076	-45,06
391,286	96,25
391,496	49,15
391,705	71,68
391,915	145,41
392,125	161,79
392,334	83,97
392,544	98,3
392,753	28,67
392,963	-18,43
393,172	110,59
393,382	65,53
393,591	276,48
393,801	43,01
394,01	120,83
394,22	126,97
394,429	98,3
394,639	28,67
394,848	133,12
395,058	98,3
395,267	174,08
395,477	135,17
395,686	129,02
395,895	258,04
396,105	331,77
396,314	217,08
396,524	120,83
396,733	53,25
396,942	215,04
397,152	124,93
397,361	143,36
397,57	137,21
397,78	88,06
397,989	165,89
398,198	268,28
398,407	90,11
398,617	90,11
398,826	118,78
399,035	65,53
399,244	217,08
399,453	143,36
399,663	-2,05
399,872	139,26
400,081	53,25
400,29	135,17
400,499	-26,62
400,708	133,12
400,917	79,87
401,127	61,44
401,336	-26,62
401,545	231,42
401,754	174,08
401,963	55,3
402,172	-2,05
402,381	16,38
402,59	86,01
402,799	28,67
403,008	153,6
403,217	104,45
403,426	100,35
403,635	86,01
403,844	45,06
404,053	10,24
404,262	57,34
404,471	241,66
404,68	137,21
404,888	88,06
405,097	20,48
405,306	112,64
405,515	124,93
405,724	20,48
405,933	122,88
406,142	53,25
406,35	122,88
406,559	65,53
406,768	65,53
406,977	184,32
407,185	61,44
407,394	86,01
407,603	24,58
407,812	161,79
408,02	79,87
408,229	24,58
408,438	229,37
408,646	-12,29
408,855	153,6
409,064	184,32
409,272	141,31
409,481	169,98
409,69	153,6
409,898	188,41
410,107	319,48
410,315	368,63
410,524	176,13
410,733	217,08
410,941	217,08
411,15	239,61
411,358	176,13
411,567	278,52
411,775	135,17
411,984	69,63
412,192	143,36
412,401	57,34
412,609	221,18
412,818	192,51
413,026	77,82
413,234	67,58
413,443	45,06
413,651	79,87
413,86	153,6
414,068	161,79
414,276	192,51
414,485	12,29
414,693	153,6
414,901	151,55
415,11	104,45
415,318	38,91
415,526	55,3
415,734	92,16
415,943	90,11
416,151	172,03
416,359	102,4
416,567	133,12
416,776	114,69
416,984	176,13
417,192	188,41
417,4	45,06
417,608	67,58
417,817	-32,77
418,025	92,16
418,233	229,37
418,441	-2,05
418,649	-36,86
418,857	139,26
419,065	182,27
419,273	18,43
419,481	-12,29
419,689	45,06
419,897	6,14
420,105	-2,05
420,313	90,11
420,521	153,6
420,729	110,59
420,937	14,34
421,145	36,86
421,353	116,73
421,561	159,74
421,769	90,11
421,977	26,62
422,185	96,25
422,393	65,53
422,601	149,5
422,809	-4,1
423,017	65,53
423,224	45,06
423,432	110,59
423,64	65,53
423,848	110,59
424,056	-20,48
424,263	83,97
424,471	-16,38
424,679	143,36
424,887	-92,16
425,094	135,17
425,302	83,97
425,51	12,29
425,718	51,2
425,925	53,25
426,133	79,87
426,341	178,17
426,548	2,05
426,756	4,1
426,964	157,69
427,171	-22,53
427,379	57,34
427,586	104,45
427,794	94,21
428,001	172,03
428,209	12,29
428,417	83,97
428,624	92,16
428,832	149,5
429,039	98,3
429,247	112,64
429,454	47,1
429,662	120,83
429,869	49,15
430,076	79,87
430,284	77,82
430,491	104,45
430,699	104,45
430,906	266,24
431,114	86,01
431,321	124,93
431,528	79,87
431,736	110,59
431,943	161,79
432,15	153,6
432,358	286,72
432,565	552,95
432,772	329,72
432,979	653,3
433,187	614,39
433,394	870,39
433,601	909,3
433,808	911,35
434,016	946,16
434,223	983,02
434,43	880,63
434,637	860,15
434,844	767,99
435,052	602,1
435,259	503,8
435,466	372,73
435,673	268,28
435,88	274,43
436,087	307,2
436,294	212,99
436,501	47,1
436,708	104,45
436,915	86,01
437,122	61,44
437,329	-2,05
437,537	-8,19
437,743	137,21
437,95	145,41
438,157	81,92
438,364	92,16
438,571	57,34
438,778	90,11
438,985	28,67
439,192	79,87
439,399	28,67
439,606	53,25
439,813	120,83
440,02	210,94
440,227	237,56
440,433	124,93
440,64	98,3
440,847	4,1
441,054	88,06
441,261	196,6
441,467	49,15
441,674	51,2
441,881	118,78
442,088	-55,3
442,294	69,63
442,501	120,83
442,708	151,55
442,914	106,49
443,121	102,4
443,328	102,4
443,534	88,06
443,741	30,72
443,948	-32,77
444,154	63,49
444,361	282,62
444,568	71,68
444,774	90,11
444,981	-12,29
445,187	159,74
445,394	30,72
445,6	-8,19
445,807	79,87
446,013	55,3
446,22	-24,58
446,426	69,63
446,633	108,54
446,839	116,73
447,046	-96,25
447,252	139,26
447,459	14,34
447,665	4,1
447,871	61,44
448,078	176,13
448,284	57,34
448,491	106,49
448,697	112,64
448,903	172,03
449,11	110,59
449,316	28,67
449,522	102,4
449,728	53,25
449,935	51,2
450,141	4,1
450,347	149,5
450,553	61,44
450,76	43,01
450,966	86,01
451,172	79,87
451,378	16,38
451,584	36,86
451,791	239,61
451,997	69,63
452,203	-24,58
452,409	161,79
452,615	120,83
452,821	34,82
453,027	-59,39
453,233	268,28
453,44	96,25
453,646	-49,15
453,852	32,77
454,058	36,86
454,264	137,21
454,47	83,97
454,676	40,96
454,882	69,63
455,088	53,25
455,294	53,25
455,5	102,4
455,705	90,11
455,911	71,68
456,117	-8,19
456,323	38,91
456,529	73,73
456,735	32,77
456,941	77,82
457,147	161,79
457,352	71,68
457,558	-67,58
457,764	172,03
457,97	65,53
458,176	122,88
458,381	30,72
458,587	184,32
458,793	147,45
458,999	57,34
459,204	-6,14
459,41	-43,01
459,616	63,49
459,821	34,82
460,027	-94,21
460,233	71,68
460,438	155,65
460,644	65,53
460,85	198,65
461,055	28,67
461,261	143,36
461,466	43,01
461,672	124,93
461,878	-47,1
462,083	153,6
462,289	57,34
462,494	79,87
462,7	126,97
462,905	120,83
463,111	131,07
463,316	137,21
463,522	143,36
463,727	104,45
463,932	139,26
464,138	43,01
464,343	98,3
464,549	129,02
464,754	165,89
464,959	77,82
465,165	26,62
465,37	83,97
465,575	81,92
465,781	79,87
465,986	45,06
466,191	102,4
466,397	77,82
466,602	96,25
466,807	55,3
467,012	120,83
467,218	114,69
467,423	75,77
467,628	47,1
467,833	-22,53
468,038	63,49
468,244	12,29
468,449	75,77
468,654	110,59
468,859	49,15
469,064	110,59
469,269	18,43
469,474	94,21
469,679	172,03
469,885	96,25
470,09	-20,48
470,295	2,05
470,5	-43,01
470,705	88,06
470,91	86,01
471,115	108,54
471,32	63,49
471,525	186,37
471,73	235,52
471,935	94,21
472,139	8,19
472,344	94,21
472,549	124,93
472,754	167,93
472,959	161,79
473,164	63,49
473,369	2,05
473,574	112,64
473,778	169,98
473,983	92,16
474,188	184,32
474,393	61,44
474,598	67,58
474,802	110,59
475,007	137,21
475,212	237,56
475,417	69,63
475,621	256
475,826	26,62
476,031	129,02
476,235	38,91
476,44	32,77
476,645	129,02
476,849	-16,38
477,054	4,1
477,259	98,3
477,463	135,17
477,668	315,39
477,872	143,36
478,077	-4,1
478,282	8,19
478,486	86,01
478,691	14,34
478,895	-2,05
479,1	200,7
479,304	129,02
479,509	69,63
479,713	129,02
479,918	163,84
480,122	40,96
480,326	24,58
480,531	167,93
480,735	59,39
480,94	104,45
481,144	145,41
481,348	126,97
481,553	225,28
481,757	38,91
481,961	86,01
482,166	65,53
482,37	126,97
482,574	106,49
482,778	71,68
482,983	77,82
483,187	116,73
483,391	102,4
483,595	280,57
483,8	442,36
484,004	745,46
484,208	1183,73
484,412	2111,46
484,616	3151,82
484,821	4616,12
485,025	5967,78
485,229	7454,61
485,433	8580,99
485,637	9891,69
485,841	10381,15
486,045	10725,21
486,249	10700,64
486,453	9963,37
486,657	9058,17
486,861	7810,95
487,065	6557,6
487,269	5558,19
487,473	4313,02
487,677	3678,15
487,881	3200,98
488,085	2424,79
488,289	1826,79
488,493	1294,32
488,697	1130,48
488,901	624,63
489,105	342,01
489,309	268,28
489,512	333,82
489,716	188,41
489,92	129,02
490,124	241,66
490,328	212,99
490,531	178,17
490,735	208,89
490,939	-38,91
491,143	114,69
491,346	194,56
491,55	120,83
491,754	98,3
491,958	108,54
492,161	59,39
492,365	81,92
492,569	20,48
492,772	77,82
492,976	110,59
493,18	77,82
493,383	102,4
493,587	88,06
493,79	155,65
493,994	20,48
494,197	-12,29
494,401	135,17
494,605	18,43
494,808	65,53
495,012	98,3
495,215	251,9
495,419	190,46
495,622	90,11
495,825	-10,24
496,029	108,54
496,232	98,3
496,436	86,01
496,639	174,08
496,843	88,06
497,046	43,01
497,249	174,08
497,453	18,43
497,656	28,67
497,859	151,55
498,063	163,84
498,266	153,6
498,469	-43,01
498,673	4,1
498,876	-0
499,079	-18,43
499,282	45,06
499,485	307,2
499,689	47,1
499,892	198,65
500,095	-47,1
500,298	88,06
500,501	-51,2
500,705	-18,43
500,908	90,11
501,111	40,96
501,314	167,93
501,517	151,55
501,72	102,4
501,923	106,49
502,126	14,34
502,329	155,65
502,532	28,67
502,735	141,31
502,938	133,12
503,141	86,01
503,344	77,82
503,547	159,74
503,75	126,97
503,953	12,29
504,156	45,06
504,359	45,06
504,562	30,72
504,765	18,43
504,968	45,06
505,17	110,59
505,373	116,73
505,576	102,4
505,779	69,63
505,982	-45,06
506,185	-14,34
506,387	-2,05
506,59	126,97
506,793	47,1
506,996	98,3
507,198	204,8
507,401	241,66
507,604	163,84
507,807	63,49
508,009	79,87
508,212	126,97
508,415	-0
508,617	88,06
508,82	-40,96
509,022	106,49
509,225	129,02
509,428	-0
509,63	131,07
509,833	28,67
510,035	182,27
510,238	45,06
510,44	-88,06
510,643	86,01
510,845	116,73
511,048	196,6
511,25	104,45
511,453	137,21
511,655	98,3
511,858	208,89
512,06	206,84
512,262	-20,48
512,465	73,73
512,667	75,77
512,87	24,58
513,072	266,24
513,274	118,78
513,477	59,39
513,679	28,67
513,881	90,11
514,084	-20,48
514,286	231,42
514,488	86,01
514,69	55,3
514,893	38,91
515,095	59,39
515,297	-47,1
515,499	18,43
515,701	40,96
515,904	122,88
516,106	210,94
516,308	92,16
516,51	141,31
516,712	135,17
516,914	55,3
517,116	32,77
517,318	28,67
517,52	81,92
517,722	143,36
517,925	-2,05
518,127	40,96
518,329	145,41
518,531	-2,05
518,733	88,06
518,935	-4,1
519,136	163,84
519,338	4,1
519,54	16,38
519,742	8,19
519,944	139,26
520,146	104,45
520,348	77,82
520,55	106,49
520,752	-22,53
520,954	-43,01
521,155	59,39
521,357	40,96
521,559	88,06
521,761	135,17
521,963	30,72
522,164	86,01
522,366	57,34
522,568	12,29
522,77	147,45
522,971	126,97
523,173	71,68
523,375	61,44
523,576	-0
523,778	18,43
523,98	-32,77
524,181	126,97
524,383	90,11
524,584	-4,1
524,786	131,07
524,988	22,53
525,189	-43,01
525,391	77,82
525,592	18,43
525,794	-73,73
525,995	102,4
526,197	100,35
526,398	161,79
526,6	73,73
526,801	102,4
527,003	-38,91
527,204	71,68
527,406	120,83
527,607	79,87
527,808	10,24
528,01	106,49
528,211	69,63
528,412	-69,63
528,614	184,32
528,815	147,45
529,016	108,54
529,218	71,68
529,419	202,75
529,62	36,86
529,822	79,87
530,023	63,49
530,224	114,69
530,425	163,84
530,626	12,29
530,828	114,69
531,029	12,29
531,23	114,69
531,431	-38,91
531,632	110,59
531,833	36,86
532,035	-20,48
532,236	-20,48
532,437	120,83
532,638	61,44
532,839	20,48
533,04	86,01
533,241	133,12
533,442	104,45
533,643	61,44
533,844	14,34
534,045	83,97
534,246	8,19
534,447	-0
534,648	20,48
534,849	167,93
535,05	100,35
535,251	-4,1
535,451	63,49
535,652	-61,44
535,853	75,77
536,054	118,78
536,255	36,86
536,456	45,06
536,657	18,43
536,857	63,49
537,058	59,39
537,259	-6,14
537,46	32,77
537,66	34,82
537,861	49,15
538,062	61,44
538,263	-106,49
538,463	86,01
538,664	96,25
538,865	-43,01
539,065	96,25
539,266	71,68
539,466	2,05
539,667	145,41
539,868	-24,58
540,068	36,86
540,269	200,7
540,469	59,39
540,67	114,69
540,87	122,88
541,071	-36,86
541,271	165,89
541,472	155,65
541,672	110,59
541,873	6,14
542,073	45,06
542,274	24,58
542,474	194,56
542,675	104,45
542,875	79,87
543,075	-75,77
543,276	47,1
543,476	71,68
543,676	112,64
543,877	96,25
544,077	65,53
544,277	108,54
544,478	73,73
544,678	126,97
544,878	106,49
545,078	43,01
545,279	86,01
545,479	-77,82
545,679	32,77
545,879	-8,19
546,079	79,87
546,28	-100,35
546,48	90,11
546,68	53,25
546,88	47,1
547,08	-16,38
547,28	57,34
547,48	14,34
547,68	155,65
547,88	-4,1
548,081	40,96
548,281	-71,68
548,481	-10,24
548,681	51,2
548,881	104,45
549,081	61,44
549,28	43,01
549,48	-14,34
549,68	57,34
549,88	40,96
550,08	-61,44
550,28	12,29
550,48	192,51
550,68	-40,96
550,88	28,67
551,08	67,58
551,279	133,12
551,479	65,53
551,679	98,3
551,879	-30,72
552,079	81,92
552,278	69,63
552,478	227,32
552,678	55,3
552,878	108,54
553,077	-79,87
553,277	-12,29
553,477	28,67
553,676	141,31
553,876	90,11
554,076	18,43
554,275	137,21
554,475	61,44
554,674	135,17
554,874	30,72
555,074	-57,34
555,273	-40,96
555,473	49,15
555,672	90,11
555,872	-0
556,071	122,88
556,271	122,88
556,47	63,49
556,67	49,15
556,869	65,53
557,068	-47,1
557,268	38,91
557,467	63,49
557,667	122,88
557,866	120,83
558,065	69,63
558,265	32,77
558,464	-12,29
558,663	108,54
558,863	16,38
559,062	8,19
559,261	-2,05
559,461	40,96
559,66	10,24
559,859	6,14
560,058	6,14
560,258	-108,54
560,457	43,01
560,656	151,55
560,855	-100,35
561,054	161,79
561,253	176,13
561,453	53,25
561,652	8,19
561,851	149,5
562,05	45,06
562,249	-71,68
562,448	131,07
562,647	-61,44
562,846	-4,1
563,045	98,3
563,244	77,82
563,443	106,49
563,642	30,72
563,841	79,87
564,04	28,67
564,239	43,01
564,438	102,4
564,637	-36,86
564,836	-10,24
565,035	-20,48
565,234	16,38
565,432	88,06
565,631	104,45
565,83	53,25
566,029	69,63
566,228	-18,43
566,427	63,49
566,625	-57,34
566,824	69,63
567,023	96,25
567,222	65,53
567,42	-12,29
567,619	155,65
567,818	104,45
568,016	198,65
568,215	73,73
568,414	184,32
568,612	73,73
568,811	63,49
569,01	81,92
569,208	77,82
569,407	110,59
569,605	172,03
569,804	24,58
570,002	126,97
570,201	18,43
570,4	192,51
570,598	71,68
570,797	112,64
570,995	110,59
571,193	137,21
571,392	102,4
571,59	-34,82
571,789	63,49
571,987	131,07
572,186	217,08
572,384	81,92
572,582	90,11
572,781	249,85
572,979	36,86
573,177	63,49
573,376	104,45
573,574	190,46
573,772	77,82
573,971	-0
574,169	2,05
574,367	129,02
574,565	77,82
574,763	94,21
574,962	92,16
575,16	79,87
575,358	16,38
575,556	139,26
575,754	73,73
575,952	139,26
576,151	108,54
576,349	174,08
576,547	55,3
576,745	77,82
576,943	233,47
577,141	135,17
577,339	43,01
577,537	137,21
577,735	196,6
577,933	147,45
578,131	45,06
578,329	233,47
578,527	69,63
578,725	225,28
578,923	-38,91
579,121	188,41
579,319	20,48
579,516	161,79
579,714	366,59
579,912	79,87
580,11	63,49
580,308	38,91
580,506	120,83
580,704	-12,29
580,901	79,87
581,099	258,04
581,297	233,47
581,495	169,98
581,692	100,35
581,89	235,52
582,088	217,08
582,285	184,32
582,483	192,51
582,681	110,59
582,878	92,16
583,076	196,6
583,274	147,45
583,471	296,96
583,669	61,44
583,866	79,87
584,064	100,35
584,262	161,79
584,459	-24,58
584,657	98,3
584,854	165,89
585,052	155,65
585,249	249,85
585,447	204,8
585,644	12,29
585,841	198,65
586,039	120,83
586,236	159,74
586,434	86,01
586,631	14,34
586,828	61,44
587,026	96,25
587,223	24,58
587,42	106,49
587,618	135,17
587,815	233,47
588,012	98,3
588,21	137,21
588,407	221,18
588,604	167,93
588,801	34,82
588,999	61,44
589,196	139,26
589,393	79,87
589,59	86,01
589,787	79,87
589,984	106,49
590,182	61,44
590,379	-12,29
590,576	55,3
590,773	40,96
590,97	24,58
591,167	81,92
591,364	102,4
591,561	30,72
591,758	180,22
591,955	145,41
592,152	88,06
592,349	55,3
592,546	59,39
592,743	53,25
592,94	79,87
593,137	108,54
593,334	219,13
593,531	133,12
593,727	81,92
593,924	153,6
594,121	102,4
594,318	36,86
594,515	61,44
594,712	178,17
594,908	208,89
595,105	131,07
595,302	180,22
595,499	106,49
595,696	266,24
595,892	45,06
596,089	161,79
596,286	110,59
596,482	135,17
596,679	116,73
596,876	-28,67
597,072	135,17
597,269	20,48
597,466	120,83
597,662	55,3
597,859	-4,1
598,055	102,4
598,252	114,69
598,448	55,3
598,645	92,16
598,841	126,97
599,038	202,75
599,234	245,76
599,431	151,55
599,627	137,21
599,824	88,06
600,02	67,58
600,217	34,82
600,413	51,2
600,609	96,25
600,806	350,2
601,002	75,77
601,198	126,97
601,395	47,1
601,591	28,67
601,787	102,4
601,984	137,21
602,18	145,41
602,376	86,01
602,572	147,45
602,769	198,65
602,965	104,45
603,161	143,36
603,357	145,41
603,553	139,26
603,75	-32,77
603,946	106,49
604,142	155,65
604,338	159,74
604,534	-12,29
604,73	161,79
604,926	12,29
605,122	139,26
605,318	14,34
605,514	143,36
605,71	118,78
605,906	192,51
606,102	10,24
606,298	161,79
606,494	241,66
606,69	153,6
606,886	120,83
607,082	57,34
607,278	30,72
607,474	217,08
607,67	51,2
607,866	24,58
608,062	219,13
608,257	92,16
608,453	32,77
608,649	55,3
608,845	-12,29
609,041	-32,77
609,236	88,06
609,432	110,59
609,628	163,84
609,824	126,97
610,019	16,38
610,215	38,91
610,411	114,69
610,606	282,62
610,802	-28,67
610,998	51,2
611,193	145,41
611,389	18,43
611,584	65,53
611,78	28,67
611,976	63,49
612,171	290,81
612,367	43,01
612,562	28,67
612,758	131,07
612,953	-32,77
613,149	79,87
613,344	-0
613,539	-18,43
613,735	172,03
613,93	90,11
614,126	-20,48
614,321	18,43
614,517	188,41
614,712	176,13
614,907	172,03
615,103	67,58
615,298	24,58
615,493	22,53
615,688	-4,1
615,884	110,59
616,079	73,73
616,274	178,17
616,47	57,34
616,665	-4,1
616,86	73,73
617,055	6,14
617,25	-49,15
617,445	-12,29
617,641	116,73
617,836	75,77
618,031	-47,1
618,226	88,06
618,421	98,3
618,616	18,43
618,811	116,73
619,006	-36,86
619,201	161,79
619,396	86,01
619,591	10,24
619,786	143,36
619,981	116,73
620,176	77,82
620,371	63,49
620,566	-14,34
620,761	190,46
620,956	77,82
621,151	26,62
621,346	-0
621,541	22,53
621,735	71,68
621,93	24,58
622,125	102,4
622,32	-51,2
622,515	-67,58
622,709	149,5
622,904	153,6
623,099	51,2
623,294	104,45
623,488	61,44
623,683	10,24
623,878	51,2
624,072	81,92
624,267	-20,48
624,462	16,38
624,656	-90,11
624,851	129,02
625,046	-47,1
625,24	-12,29
625,435	8,19
625,629	45,06
625,824	178,17
626,018	120,83
626,213	143,36
626,407	-4,1
626,602	129,02
626,796	-4,1
626,991	194,56
627,185	73,73
627,38	53,25
627,574	143,36
627,768	110,59
627,963	4,1
628,157	106,49
628,352	-34,82
628,546	-2,05
628,74	75,77
628,935	53,25
629,129	49,15
629,323	69,63
629,517	-67,58
629,712	26,62
629,906	4,1
630,1	141,31
630,294	153,6
630,489	71,68
630,683	49,15
630,877	14,34
631,071	94,21
631,265	8,19
631,459	24,58
631,653	96,25
631,848	32,77
632,042	38,91
632,236	-8,19
632,43	155,65
632,624	63,49
632,818	-2,05
633,012	57,34
633,206	79,87
633,4	94,21
633,594	102,4
633,788	98,3
633,982	192,51
634,176	79,87
634,369	16,38
634,563	36,86
634,757	-69,63
634,951	22,53
635,145	188,41
635,339	-34,82
635,533	112,64
635,726	98,3
635,92	10,24
636,114	-22,53
636,308	59,39
636,501	-18,43
636,695	110,59
636,889	-55,3
637,083	135,17
637,276	36,86
637,47	-51,2
637,664	90,11
637,857	59,39
638,051	26,62
638,244	83,97
638,438	49,15
638,632	249,85
638,825	-34,82
639,019	145,41
639,212	43,01
639,406	159,74
639,599	10,24
639,793	26,62
639,986	147,45
640,18	149,5
640,373	-22,53
640,567	49,15
640,76	133,12
640,954	90,11
641,147	47,1
641,34	63,49
641,534	155,65
641,727	94,21
641,92	38,91
642,114	126,97
642,307	-22,53
642,5	116,73
642,694	30,72
642,887	79,87
643,08	200,7
643,273	116,73
643,467	24,58
643,66	61,44
643,853	-4,1
644,046	122,88
644,239	92,16
644,432	-40,96
644,626	-51,2
644,819	14,34
645,012	-36,86
645,205	161,79
645,398	180,22
645,591	65,53
645,784	-4,1
645,977	122,88
646,17	102,4
646,363	116,73
646,556	-2,05
646,749	-28,67
646,942	102,4
647,135	110,59
647,328	100,35
647,521	163,84
647,714	61,44
647,907	106,49
648,099	14,34
648,292	264,19
648,485	67,58
648,678	126,97
648,871	-10,24
649,064	59,39
649,256	-43,01
649,449	4,1
649,642	-0
649,835	57,34
650,027	61,44
650,22	102,4
650,413	108,54
650,605	102,4
650,798	77,82
650,991	34,82
651,183	92,16
651,376	180,22
651,568	133,12
651,761	38,91
651,954	135,17
652,146	118,78
652,339	282,62
652,531	235,52
652,724	65,53
652,916	106,49
653,109	-63,49
653,301	227,32
653,494	217,08
653,686	204,8
653,879	299
654,071	253,95
654,263	253,95
654,456	555
654,648	2263,01
654,84	6795,16
655,033	15179,54
655,225	26046,07
655,417	37385,67
655,61	48026,92
655,802	56186,02
655,994	60886,11
656,186	62266,44
656,379	59710,58
656,571	56081,58
656,763	50048,26
656,955	45159,76
657,148	41272,71
657,34	37572,03
657,532	33650,17
657,724	30344,75
657,916	26756,71
658,108	23094,94
658,3	19455,7
658,492	16094,99
658,684	12842,81
658,876	10760,03
659,068	8656,76
659,26	6612,89
659,452	5064,63
659,644	3661,77
659,836	2611,16
660,028	1882,08
660,22	1273,84
660,412	974,83
660,604	684,02
660,796	503,8
660,988	602,1
661,18	425,98
661,372	268,28
661,563	313,34
661,755	208,89
661,947	137,21
662,139	145,41
662,331	98,3
662,522	153,6
662,714	69,63
662,906	90,11
663,097	20,48
663,289	30,72
663,481	51,2
663,673	176,13
663,864	57,34
664,056	32,77
664,247	122,88
664,439	270,33
664,631	151,55
664,822	159,74
665,014	65,53
665,205	30,72
665,397	83,97
665,588	120,83
665,78	102,4
665,971	190,46
666,163	88,06
666,354	75,77
666,546	-30,72
666,737	6,14
666,929	16,38
667,12	30,72
667,311	108,54
667,503	12,29
667,694	116,73
667,885	118,78
668,077	88,06
668,268	-4,1
668,459	53,25
668,651	102,4
668,842	112,64
669,033	30,72
669,224	-26,62
669,416	235,52
669,607	77,82
669,798	-24,58
669,989	188,41
670,18	57,34
670,371	86,01
670,563	-69,63
670,754	169,98
670,945	86,01
671,136	102,4
671,327	-4,1
671,518	149,5
671,709	194,56
671,9	141,31
672,091	176,13
672,282	40,96
672,473	45,06
672,664	26,62
672,855	40,96
673,046	81,92
673,237	112,64
673,428	30,72
673,619	143,36
673,809	28,67
674	102,4
674,191	94,21
674,382	16,38
674,573	-55,3
674,764	-28,67
674,954	98,3
675,145	-69,63
675,336	-53,25
675,527	24,58
675,717	-67,58
675,908	-36,86
676,099	-30,72
676,289	75,77
676,48	-104,45
676,671	12,29
676,861	-6,14
677,052	26,62
677,243	55,3
677,433	-32,77
677,624	16,38
677,814	61,44
678,005	-10,24
678,195	112,64
678,386	-126,97
678,576	45,06
678,767	-40,96
678,957	32,77
679,148	122,88
679,338	88,06
679,529	86,01
679,719	12,29
679,909	83,97
680,1	61,44
680,29	2,05
680,481	-67,58
680,671	124,93
680,861	45,06
681,052	73,73
681,242	-59,39
681,432	77,82
681,622	-4,1
681,813	-120,83
682,003	55,3
682,193	-57,34
682,383	110,59
682,573	-8,19
682,764	-73,73
682,954	28,67
683,144	55,3
683,334	-59,39
683,524	-104,45
683,714	112,64
683,904	86,01
684,094	-34,82
684,284	26,62
684,474	149,5
684,664	65,53
684,854	45,06
685,044	45,06
685,234	-45,06
685,424	94,21
685,614	-18,43
685,804	172,03
685,994	63,49
686,184	6,14
686,374	81,92
686,564	-71,68
686,753	-45,06
686,943	-53,25
687,133	-2,05
687,323	24,58
687,513	135,17
687,702	-2,05
687,892	-36,86
688,082	75,77
688,272	47,1
688,461	86,01
688,651	139,26
688,841	53,25
689,03	-2,05
689,22	-10,24
689,41	30,72
689,599	100,35
689,789	-22,53
689,979	204,8
690,168	53,25
690,358	96,25
690,547	12,29
690,737	83,97
690,926	-22,53
691,116	47,1
691,305	71,68
691,495	79,87
691,684	-10,24
691,874	-45,06
692,063	16,38
692,252	157,69
692,442	57,34
692,631	14,34
692,82	-6,14
693,01	61,44
693,199	53,25
693,388	6,14
693,578	88,06
693,767	114,69
693,956	118,78
694,146	-12,29
694,335	-2,05
694,524	-2,05
694,713	145,41
694,902	-55,3
695,092	-18,43
695,281	51,2
695,47	43,01
695,659	26,62
695,848	-57,34
696,037	-106,49
696,226	28,67
696,415	65,53
696,604	198,65
696,793	137,21
696,982	-18,43
697,171	94,21
697,36	-59,39
697,549	59,39
697,738	-118,78
697,927	73,73
698,116	-45,06
698,305	118,78
698,494	106,49
698,683	-69,63
698,872	159,74
699,061	83,97
699,25	14,34
699,438	79,87
699,627	53,25
699,816	186,37
700,005	-104,45
700,193	-67,58
700,382	18,43
700,571	102,4
700,76	36,86
700,948	77,82
701,137	143,36
701,326	126,97
701,514	-67,58
701,703	45,06
701,892	71,68
702,08	184,32
702,269	83,97
702,457	-28,67
702,646	90,11
702,834	-2,05
703,023	176,13
703,212	102,4
703,4	-40,96
703,589	-45,06
703,777	-28,67
703,965	-47,1
704,154	-34,82
704,342	-26,62
704,531	-26,62
704,719	10,24
704,907	90,11
705,096	-98,3
705,284	-86,01
705,472	94,21
705,661	104,45
705,849	20,48
706,037	47,1
706,226	71,68
706,414	45,06
706,602	-2,05
706,79	102,4
706,979	-86,01
707,167	-8,19
707,355	-110,59
707,543	65,53
707,731	10,24
707,919	-12,29
708,107	10,24
708,296	-40,96
708,484	-57,34
708,672	69,63
708,86	38,91
709,048	55,3
709,236	-114,69
709,424	114,69
709,612	51,2
709,8	-104,45
709,988	40,96
710,176	71,68
710,364	120,83
710,551	-77,82
710,739	-36,86
710,927	-83,97
711,115	4,1
711,303	40,96
711,491	122,88
711,679	-36,86
711,866	45,06
712,054	-55,3
712,242	63,49
712,43	135,17
712,617	-102,4
712,805	114,69
712,993	-2,05
713,181	-116,73
713,368	57,34
713,556	-0
713,744	30,72
713,931	129,02
714,119	94,21
714,306	-2,05
714,494	-53,25
714,682	47,1
714,869	-69,63
715,057	-28,67
715,244	-18,43
715,432	38,91
715,619	-36,86
715,807	-24,58
715,994	28,67
716,182	6,14
716,369	102,4
716,556	34,82
716,744	-59,39
716,931	-26,62
717,119	83,97
717,306	43,01
717,493	102,4
717,681	-61,44
717,868	-55,3
718,055	22,53
718,242	-8,19
718,43	114,69
718,617	143,36
718,804	-26,62
718,991	110,59
719,179	40,96
719,366	38,91
719,553	98,3
719,74	-36,86
719,927	36,86
720,114	38,91
720,301	-36,86
720,488	-67,58
720,676	-6,14
720,863	77,82
721,05	169,98
721,237	81,92
721,424	137,21
721,611	14,34
721,798	-90,11
721,985	-36,86
722,172	-65,54
722,358	-12,29
722,545	122,88
722,732	61,44
722,919	79,87
723,106	36,86
723,293	22,53
723,48	20,48
723,667	-36,86
723,853	77,82
724,04	57,34
724,227	126,97
724,414	12,29
724,6	96,25
724,787	118,78
724,974	229,37
725,161	36,86
725,347	-49,15
725,534	30,72
725,72	34,82
725,907	161,79
726,094	139,26
726,28	-32,77
726,467	26,62
726,653	-63,49
726,84	104,45
727,027	157,69
727,213	-45,06
727,4	26,62
727,586	53,25
727,773	8,19
727,959	-4,1
728,145	-30,72
728,332	32,77
728,518	-36,86
728,705	-22,53
728,891	-6,14
729,077	24,58
729,264	-75,77
729,45	-30,72
729,636	110,59
729,823	69,63
730,009	51,2
730,195	88,06
730,382	104,45
730,568	6,14
730,754	6,14
730,94	45,06
731,126	-6,14
731,313	20,48
731,499	28,67
731,685	131,07
731,871	55,3
732,057	43,01
732,243	116,73
732,429	92,16
732,615	108,54
732,801	-18,43
732,987	-36,86
733,173	34,82
733,359	59,39
733,545	45,06
733,731	2,05
733,917	36,86
734,103	34,82
734,289	114,69
734,475	-24,58
734,661	129,02
734,847	90,11
735,033	38,91
735,219	71,68
735,404	-61,44
735,59	10,24
735,776	-30,72
735,962	34,82
736,148	36,86
736,333	106,49
736,519	55,3
736,705	14,34
736,89	71,68
737,076	59,39
737,262	-47,1
737,447	-118,78
737,633	-43,01
737,819	94,21
738,004	22,53
738,19	12,29
738,375	49,15
738,561	126,97
738,747	40,96
738,932	-131,07
739,118	192,51
739,303	63,49
739,489	53,25
739,674	30,72
739,859	-57,34
740,045	75,77
740,23	24,58
740,416	-114,69
740,601	24,58
740,786	20,48
740,972	4,1
741,157	-63,49
741,342	-75,77
741,528	-79,87
741,713	122,88
741,898	28,67
742,084	-57,34
742,269	-8,19
742,454	4,1
742,639	55,3
742,824	20,48
743,01	69,63
743,195	88,06
743,38	-2,05
743,565	-24,58
743,75	129,02
743,935	118,78
744,12	114,69
744,305	-30,72
744,49	-2,05
744,675	102,4
744,86	-2,05
745,045	63,49
745,23	32,77
745,415	43,01
745,6	178,17
745,785	-26,62
745,97	61,44
746,155	198,65
746,34	47,1
746,525	26,62
746,71	135,17
746,895	-53,25
747,079	-28,67
747,264	2,05
747,449	126,97
747,634	94,21
747,819	145,41
748,003	51,2
748,188	-83,97
748,373	49,15
748,557	104,45
748,742	-10,24
748,927	-16,38
749,111	40,96
749,296	-61,44
749,481	40,96
749,665	67,58
749,85	43,01
750,034	34,82
750,219	81,92
750,404	-8,19
750,588	77,82
750,773	-59,39
750,957	79,87
751,141	-49,15
751,326	30,72
751,51	-161,79
751,695	40,96
751,879	32,77
752,064	137,21
752,248	40,96
752,432	172,03
752,617	129,02
752,801	167,93
752,985	-81,92
753,17	126,97
753,354	-2,05
753,538	65,53
753,722	32,77
753,907	24,58
754,091	-71,68
754,275	63,49
754,459	-81,92
754,643	12,29
754,828	-8,19
755,012	49,15
755,196	-73,73
755,38	8,19
755,564	14,34
755,748	30,72
755,932	139,26
756,116	51,2
756,3	30,72
756,484	-34,82
756,668	43,01
756,852	-126,97
757,036	36,86
757,22	61,44
757,404	12,29
757,588	79,87
757,772	79,87
757,956	51,2
758,14	198,65
758,323	-43,01
758,507	69,63
758,691	79,87
758,875	120,83
759,059	143,36
759,242	-14,34
759,426	32,77
759,61	77,82
759,794	-69,63
759,977	143,36
760,161	251,9
760,345	86,01
760,528	96,25
760,712	8,19
760,895	159,74
761,079	14,34
761,263	-6,14
761,446	-61,44
761,63	14,34
761,813	147,45
761,997	2,05
762,18	-73,73
762,364	71,68
762,547	-63,49
762,731	-26,62
762,914	40,96
763,098	-16,38
763,281	51,2
763,464	-24,58
763,648	30,72
763,831	57,34
764,015	24,58
764,198	4,1
764,381	-88,06
764,564	47,1
764,748	28,67
764,931	45,06
765,114	-40,96
765,297	20,48
765,481	-67,58
765,664	-43,01
765,847	-0
766,03	65,53
766,213	-47,1
766,397	65,53
766,58	-110,59
766,763	10,24
766,946	2,05
767,129	4,1
767,312	-90,11
767,495	30,72
767,678	-98,3
767,861	-24,58
768,044	16,38
768,227	-36,86
768,41	53,25
768,593	24,58
768,776	28,67
768,959	-47,1
769,142	57,34
769,324	28,67
769,507	22,53
769,69	-34,82
769,873	-67,58
770,056	219,13
770,239	40,96
770,421	165,89
770,604	34,82
770,787	18,43
770,97	32,77
771,152	24,58
771,335	18,43
771,518	-86,01
771,7	169,98
771,883	227,32
772,066	-8,19
772,248	8,19
772,431	71,68
772,613	53,25
772,796	-10,24
772,978	-26,62
773,161	131,07
773,343	24,58
773,526	47,1
773,708	-73,73
773,891	-55,3
774,073	-22,53
774,256	-55,3
774,438	184,32
774,621	10,24
774,803	90,11
774,985	-92,16
775,168	73,73
775,35	20,48
775,532	32,77
775,715	-2,05
775,897	108,54
776,079	57,34
776,261	172,03
776,444	286,72
776,626	397,31
776,808	536,57
776,99	700,41
777,173	794,61
777,355	933,87
777,537	989,17
777,719	952,31
777,901	767,99
778,083	729,08
778,265	573,43
778,447	563,19
778,629	428,03
778,811	518,14
778,993	497,66
779,175	444,41
779,357	315,39
779,539	161,79
779,721	237,56
779,903	249,85
780,085	88,06
780,267	116,73
780,449	40,96
780,631	71,68
780,812	151,55
780,994	8,19
781,176	10,24
781,358	-24,58
781,54	-4,1
781,721	126,97
781,903	122,88
782,085	-81,92
782,267	30,72
782,448	4,1
782,63	-8,19
782,812	61,44
782,993	88,06
783,175	51,2
783,357	28,67
783,538	36,86
783,72	-79,87
783,901	-67,58
784,083	8,19
784,264	20,48
784,446	-59,39
784,627	-67,58
784,809	28,67
784,99	-75,77
785,172	120,83
785,353	47,1
785,535	-10,24
785,716	-65,54
785,897	4,1
786,079	14,34
786,26	24,58
786,441	63,49
786,623	-96,25
786,804	-20,48
786,985	-71,68
787,167	53,25
787,348	4,1
787,529	-26,62
787,71	135,17
787,891	6,14
788,073	-49,15
788,254	-81,92
788,435	159,74
788,616	69,63
788,797	-30,72
788,978	83,97
789,159	-51,2
789,34	20,48
789,522	-63,49
789,703	-96,25
789,884	16,38
790,065	71,68
790,246	81,92
790,427	-32,77
790,607	126,97
790,788	143,36
790,969	-10,24
791,15	12,29
791,331	14,34
791,512	-10,24
791,693	12,29
791,874	-12,29
792,054	167,93
792,235	51,2
792,416	-133,12
792,597	-6,14
792,778	49,15
792,958	69,63
793,139	43,01
793,32	40,96
793,5	-110,59
793,681	88,06
793,862	47,1
794,042	-45,06
794,223	-63,49
794,404	-67,58
794,584	-79,87
794,765	-45,06
794,945	18,43
795,126	69,63
795,306	20,48
795,487	36,86
795,667	26,62
795,848	53,25
796,028	-22,53
796,209	-20,48
796,389	28,67
796,57	8,19
796,75	-102,4
796,93	47,1
797,111	-45,06
797,291	-2,05
797,471	114,69
797,652	-28,67
797,832	6,14
798,012	22,53
798,192	-4,1
798,373	-118,78
798,553	63,49
798,733	81,92
798,913	4,1
799,093	2,05
799,274	71,68
799,454	110,59
799,634	38,91
799,814	112,64
799,994	73,73
800,174	38,91
800,354	36,86
800,534	-94,21
800,714	129,02
800,894	-96,25
801,074	-36,86
801,254	-139,26
801,434	147,45
801,614	-24,58
801,794	-20,48
801,974	1908,71
802,154	-40,96
802,334	122,88
802,514	-10,24
802,693	-4,1
802,873	-49,15
803,053	71,68
803,233	49,15
803,413	-20,48
803,592	-49,15
803,772	14,34
803,952	-34,82
804,131	-38,91
804,311	53,25
804,491	61,44
804,67	-53,25
804,85	-83,97
805,03	43,01
805,209	114,69
805,389	2,05
805,568	-24,58
805,748	73,73
805,928	-20,48
806,107	81,92
806,287	26,62
806,466	16,38
806,646	88,06
806,825	-18,43
807,004	-36,86
807,184	49,15
807,363	98,3
807,543	-12,29
807,722	-45,06
807,901	38,91
808,081	86,01
808,26	-151,55
808,439	-20,48
808,619	-47,1
808,798	-75,77
808,977	34,82
809,156	110,59
809,336	18,43
809,515	65,53
809,694	-143,36
809,873	-14,34
810,052	38,91
810,231	40,96
810,411	69,63
810,59	45,06
810,769	6,14
810,948	-34,82
811,127	-122,88
811,306	6,14
811,485	-28,67
811,664	129,02
811,843	-18,43
812,022	20,48
812,201	-6,14
812,38	-77,82
812,559	-57,34
812,737	-20,48
812,916	-16,38
813,095	-79,87
813,274	-12,29
813,453	14,34
813,632	43,01
813,811	-40,96
813,989	-59,39
814,168	28,67
814,347	-69,63
814,526	-43,01
814,704	129,02
814,883	118,78
815,062	-145,41
815,24	73,73
815,419	-135,17
815,598	-34,82
815,776	-94,21
815,955	12,29
816,133	-124,93
816,312	-43,01
816,49	-40,96
816,669	-45,06
816,847	8,19
817,026	-4,1
817,204	-45,06
817,383	-57,34
817,561	2,05
817,74	49,15
817,918	65,53
818,097	-32,77
818,275	6,14
818,453	28,67
818,632	-0
818,81	-43,01
818,988	-0
819,167	-61,44
819,345	20,48
819,523	-61,44
819,701	-18,43
819,879	-2,05
820,058	28,67
820,236	-10,24
820,414	-47,1
820,592	-6,14
820,77	-26,62
820,948	-67,58
821,127	-8,19
821,305	-0
821,483	-69,63
821,661	51,2
821,839	-47,1
822,017	-129,02
822,195	-43,01
822,373	114,69
822,551	4,1
822,729	34,82
822,907	36,86
823,085	47,1
823,262	-8,19
823,44	-110,59
823,618	-6,14
823,796	-32,77
823,974	4,1
824,152	-69,63
824,329	-57,34
824,507	16,38
824,685	57,34
824,863	-30,72
825,04	-34,82
825,218	-59,39
825,396	-4,1
825,574	-2,05
825,751	6,14
825,929	30,72
826,107	-59,39
826,284	10,24
826,462	-83,97
826,639	-106,49
826,817	-63,49
826,994	-10,24
827,172	-86,01
827,349	165,89
827,527	2,05
827,704	-57,34
827,882	43,01
828,059	-86,01
828,237	-22,53
828,414	79,87
828,591	-81,92
828,769	-30,72
828,946	-77,82
829,124	36,86
829,301	63,49
829,478	-90,11
829,655	2,05
829,833	28,67
830,01	-149,5
830,187	-53,25
830,364	61,44
830,542	40,96
830,719	61,44
830,896	36,86
831,073	10,24
831,25	45,06
831,427	12,29
831,604	-22,53
831,782	-67,58
831,959	8,19
832,136	-36,86
832,313	32,77
832,49	-16,38
832,667	28,67
832,844	-94,21
833,021	110,59
833,198	-67,58
833,374	16,38
833,551	-10,24
833,728	-47,1
833,905	114,69
834,082	-122,88
834,259	96,25
834,436	143,36
834,612	-116,73
834,789	73,73
834,966	8,19
835,143	90,11
835,319	-100,35
835,496	63,49
835,673	30,72
835,85	81,92
836,026	61,44
836,203	-4,1
836,38	-88,06
836,556	-59,39
836,733	-79,87
836,909	153,6
837,086	18,43
837,262	-151,55
837,439	51,2
837,616	-67,58
837,792	22,53
837,968	20,48
838,145	-102,4
838,321	-47,1
838,498	-36,86
838,674	61,44
838,851	6,14
839,027	-10,24
839,203	-81,92
839,38	10,24
839,556	-26,62
839,732	69,63
839,909	36,86
840,085	86,01
840,261	-69,63
840,437	-2,05
840,614	-53,25
840,79	26,62
840,966	38,91
841,142	6,14
841,318	-77,82
841,494	43,01
841,671	30,72
841,847	-83,97
842,023	-38,91
842,199	-16,38
842,375	30,72
842,551	-151,55
842,727	-100,35
842,903	69,63
843,079	-47,1
843,255	100,35
843,431	63,49
843,607	153,6
843,783	-14,34
843,959	200,7
844,134	163,84
844,31	430,07
844,486	270,33
844,662	243,71
844,838	372,73
845,013	266,24
845,189	290,81
845,365	227,32
845,541	83,97
845,716	69,63
845,892	151,55
846,068	69,63
846,244	2,05
846,419	180,22
846,595	20,48
846,77	36,86
846,946	110,59
847,122	96,25
847,297	-18,43
847,473	153,6
847,648	-20,48
847,824	83,97
847,999	-86,01
848,175	53,25
848,35	55,3
848,526	153,6
848,701	110,59
848,876	59,39
849,052	104,45
849,227	61,44
849,403	-28,67
849,578	-86,01
849,753	-28,67
849,929	-14,34
850,104	-116,73
850,279	55,3
850,454	34,82
850,63	45,06
850,805	45,06
850,98	4,1
851,155	-22,53
851,33	81,92
851,505	-86,01
851,681	131,07
851,856	-79,87
852,031	24,58
852,206	-63,49
852,381	-6,14
852,556	12,29
852,731	-12,29
852,906	43,01
853,081	40,96
853,256	45,06
853,431	45,06
853,606	-4,1
853,781	-98,3
853,956	-172,03
854,131	-10,24
854,305	-49,15
854,48	-104,45
854,655	-96,25
854,83	-94,21
855,005	-45,06
855,18	67,58
855,354	-36,86
855,529	-28,67
855,704	-2,05
855,879	90,11
856,053	-67,58
856,228	22,53
856,403	-79,87
856,577	14,34
856,752	-100,35
856,926	-71,68
857,101	-18,43
857,276	-122,88
857,45	12,29
857,625	47,1
857,799	-57,34
857,974	-32,77
858,148	-75,77
858,323	-20,48
858,497	-47,1
858,672	-67,58
858,846	-30,72
859,02	55,3
859,195	-57,34
859,369	-47,1
859,543	-22,53
859,718	-86,01
859,892	-36,86
860,066	-40,96
860,241	-18,43
860,415	-94,21
860,589	-94,21
860,763	16,38
860,938	-55,3
861,112	16,38
861,286	-18,43
861,46	26,62
861,634	6,14
861,808	20,48
861,982	-90,11
862,157	-88,06
862,331	-24,58
862,505	-126,97
862,679	-100,35
862,853	-102,4
863,027	28,67
863,201	135,17
863,375	-32,77
863,549	-28,67
863,722	32,77
863,896	133,12
864,07	-139,26
864,244	-24,58
864,418	36,86
864,592	-67,58
864,766	-86,01
864,939	-2,05
865,113	8,19
865,287	143,36
865,461	-92,16
865,634	8,19
865,808	-18,43
865,982	-100,35
866,156	-83,97
866,329	-65,54
866,503	-20,48
866,676	-4,1
866,85	-10,24
867,024	-8,19
867,197	-6,14
867,371	143,36
867,544	18,43
867,718	-16,38
867,891	16,38
868,065	4,1
868,238	18,43
868,412	81,92
868,585	-43,01
868,759	-45,06
868,932	-59,39
869,105	-141,31
869,279	20,48
869,452	-45,06
869,625	6,14
869,799	55,3
869,972	-83,97
870,145	-26,62
870,319	49,15
870,492	18,43
870,665	-22,53
870,838	38,91
871,011	-163,84
871,185	-2,05
871,358	-157,69
871,531	-45,06
871,704	-77,82
871,877	-24,58
872,05	-102,4
872,223	-2,05
872,396	6,14
872,569	-53,25
872,742	-43,01
872,915	45,06
873,088	-86,01
873,261	-38,91
873,434	24,58
873,607	-36,86
873,78	155,65
873,953	-88,06
874,126	-30,72
874,299	51,2
874,471	-28,67
874,644	-24,58
874,817	71,68
874,99	200,7
875,163	-67,58
875,335	55,3
875,508	24,58
875,681	104,45
875,853	-16,38
876,026	-14,34
876,199	116,73
876,371	73,73
876,544	12,29
876,717	38,91
876,889	8,19
877,062	20,48
877,234	-116,73
877,407	-92,16
877,579	-22,53
877,752	28,67
877,924	120,83
878,097	90,11
878,269	-18,43
878,442	57,34
878,614	77,82
878,786	12,29
878,959	-32,77
879,131	4,1
879,303	-102,4
879,476	-55,3
879,648	57,34
879,82	55,3
879,993	-75,77
880,165	-90,11
880,337	-79,87
880,509	6,14
880,681	-98,3
880,854	-102,4
881,026	24,58
881,198	159,74
881,37	-53,25
881,542	-26,62
881,714	-28,67
881,886	-36,86
882,058	6,14
882,23	28,67
882,402	-124,93
882,574	-61,44
882,746	20,48
882,918	141,31
883,09	38,91
883,262	-30,72
883,434	-10,24
883,606	-102,4
883,778	-65,54
883,95	204,8
884,122	-4,1
884,293	36,86
884,465	-8,19
884,637	45,06
884,809	-53,25
884,98	-45,06
885,152	26,62
885,324	73,73
885,496	-118,78
885,667	-36,86
885,839	-67,58
886,011	90,11
886,182	61,44
886,354	34,82
886,525	43,01
886,697	-12,29
886,869	-10,24
887,04	12,29
887,212	139,26
887,383	88,06
887,555	32,77
887,726	-0
887,897	-47,1
888,069	-6,14
888,24	20,48
888,412	-4,1
888,583	67,58
888,754	12,29
888,926	-83,97
889,097	-28,67
889,268	-94,21
889,44	-18,43
889,611	-49,15
889,782	-49,15
889,953	-122,88
890,125	79,87
890,296	-129,02
890,467	-43,01
890,638	-47,1
890,809	-53,25
890,98	-75,77
891,151	65,53
891,323	88,06
891,494	4,1
891,665	-0
891,836	-12,29
892,007	4,1
892,178	71,68
892,349	-0
892,52	-49,15
892,691	34,82
892,862	12,29
893,032	-63,49
893,203	-53,25
893,374	24,58
893,545	20,48
893,716	-94,21
893,887	36,86
894,057	-88,06
894,228	22,53
894,399	-61,44
894,57	77,82
894,74	-40,96
894,911	51,2
895,082	-12,29
895,253	20,48
895,423	-32,77
895,594	24,58
895,764	59,39
895,935	-147,45
896,106	24,58
896,276	-81,92
896,447	59,39
896,617	-149,5
896,788	-81,92
896,958	-67,58
897,129	-102,4
897,299	-24,58
897,47	100,35
897,64	8,19
897,81	-20,48
897,981	8,19
898,151	-86,01
898,322	61,44
898,492	69,63
898,662	-102,4
898,832	-104,45
899,003	-26,62
899,173	12,29
899,343	-81,92
899,513	-36,86
