Data from deuterium_USB4F104151__17__10-57-07-533.txt Node

Date: Wed Apr 15 10:57:07 EDT 2026
User: LaboPhy
Spectrometer: USB4F10415
Trigger mode: 4
Integration Time (sec): 1,000000E-1
Scans to average: 1
Electric dark correction enabled: true
Nonlinearity correction enabled: false
Boxcar width: 0
XAxis mode: Wavelengths
Number of Pixels in Spectrum: 3648
>>>>>Begin Spectral Data<<<<<
178,204	-459,94
178,424	-459,94
178,644	-459,94
178,864	-437,41
179,084	-408,74
179,304	0,85
179,524	-29,87
179,744	19,29
179,964	39,76
180,184	11,09
180,404	47,96
180,624	-58,54
180,844	-46,25
181,064	-50,35
181,283	58,2
181,503	-11,43
181,723	19,29
181,943	-64,68
182,163	258,9
182,383	45,91
182,602	50
182,822	256,85
183,042	127,83
183,262	21,33
183,482	-9,39
183,701	115,54
183,921	43,86
184,141	-99,5
184,361	97,11
184,58	183,12
184,8	90,96
185,02	-11,43
185,239	219,99
185,459	140,12
185,679	140,12
185,898	-70,83
186,118	82,77
186,338	62,29
186,557	127,83
186,777	-36,01
186,997	-1,19
187,216	-9,39
187,436	158,55
187,655	93,01
187,875	133,97
188,095	27,48
188,314	189,27
188,534	115,54
188,753	-36,01
188,973	95,06
189,192	179,03
189,412	-23,72
189,631	58,2
189,851	117,59
190,07	273,23
190,29	-1,19
190,509	19,29
190,729	33,62
190,948	162,64
191,168	275,28
191,387	68,44
191,607	125,78
191,826	82,77
192,045	82,77
192,265	-40,11
192,484	27,48
192,704	109,4
192,923	27,48
193,142	215,89
193,362	133,97
193,581	154,45
193,8	-7,34
194,02	129,88
194,239	74,58
194,458	54,1
194,678	-17,58
194,897	7
195,116	76,63
195,335	109,4
195,555	99,16
195,774	-40,11
195,993	160,59
196,212	93,01
196,432	-40,11
196,651	78,68
196,87	25,43
197,089	258,9
197,308	31,57
197,528	127,83
197,747	-46,25
197,966	41,81
198,185	154,45
198,404	-70,83
198,623	168,79
198,842	105,3
199,062	103,25
199,281	101,2
199,5	90,96
199,719	138,07
199,938	111,44
200,157	62,29
200,376	119,64
200,595	133,97
200,814	70,48
201,033	4,95
201,252	203,6
201,471	76,63
201,69	80,72
201,909	9,05
202,128	187,22
202,347	37,72
202,566	17,24
202,785	-105,64
203,004	-17,58
203,223	303,95
203,442	17,24
203,661	-99,5
203,879	64,34
204,098	162,64
204,317	-33,96
204,536	105,3
204,755	97,11
204,974	90,96
205,193	-42,15
205,411	150,36
205,63	144,21
205,849	-9,39
206,068	2,9
206,287	-50,35
206,505	174,93
206,724	72,53
206,943	-11,43
207,162	7
207,381	138,07
207,599	-11,43
207,818	107,35
208,037	41,81
208,255	168,79
208,474	107,35
208,693	152,4
208,911	-40,11
209,13	152,4
209,349	113,49
209,567	62,29
209,786	15,19
210,005	176,98
210,223	88,92
210,442	-144,55
210,661	88,92
210,879	7
211,098	15,19
211,316	-7,34
211,535	105,3
211,753	136,02
211,972	109,4
212,191	13,14
212,409	107,35
212,628	203,6
212,846	31,57
213,065	35,67
213,283	146,26
213,502	107,35
213,72	74,58
213,938	47,96
214,157	-81,07
214,375	109,4
214,594	7
214,812	119,64
215,031	-25,77
215,249	54,1
215,467	95,06
215,686	25,43
215,904	88,92
216,122	39,76
216,341	189,27
216,559	66,39
216,778	113,49
216,996	144,21
217,214	19,29
217,432	37,72
217,651	-31,91
217,869	72,53
218,087	76,63
218,306	52,05
218,524	68,44
218,742	23,38
218,96	103,25
219,179	21,33
219,397	25,43
219,615	281,43
219,833	88,92
220,051	21,33
220,27	-11,43
220,488	125,78
220,706	31,57
220,924	25,43
221,142	29,52
221,36	23,38
221,578	170,83
221,796	-74,92
222,015	107,35
222,233	154,45
222,451	146,26
222,669	-60,59
222,887	117,59
223,105	58,2
223,323	74,58
223,541	17,24
223,759	103,25
223,977	78,68
224,195	205,65
224,413	121,68
224,631	35,67
224,849	25,43
225,067	283,47
225,285	11,09
225,503	-31,91
225,721	-70,83
225,939	115,54
226,157	138,07
226,375	219,99
226,592	-48,3
226,81	60,24
227,028	168,79
227,246	97,11
227,464	56,15
227,682	172,88
227,9	72,53
228,117	74,58
228,335	201,55
228,553	41,81
228,771	56,15
228,989	72,53
229,206	90,96
229,424	-1,19
229,642	-48,3
229,86	-68,78
230,077	148,31
230,295	66,39
230,513	152,4
230,731	105,3
230,948	185,17
231,166	283,47
231,384	37,72
231,601	0,85
231,819	125,78
232,037	-9,39
232,254	-50,35
232,472	56,15
232,689	-5,29
232,907	219,99
233,125	0,85
233,342	-7,34
233,56	47,96
233,777	43,86
233,995	123,73
234,213	111,44
234,43	64,34
234,648	68,44
234,865	21,33
235,083	-38,06
235,3	80,72
235,518	129,88
235,735	197,46
235,953	174,93
236,17	154,45
236,388	-40,11
236,605	41,81
236,822	181,07
237,04	150,36
237,257	56,15
237,475	-1,19
237,692	43,86
237,909	82,77
238,127	52,05
238,344	80,72
238,562	17,24
238,779	23,38
238,996	64,34
239,214	68,44
239,431	115,54
239,648	7
239,865	113,49
240,083	152,4
240,3	23,38
240,517	60,24
240,735	97,11
240,952	154,45
241,169	2,9
241,386	115,54
241,603	74,58
241,821	-60,59
242,038	25,43
242,255	170,83
242,472	58,2
242,689	64,34
242,907	117,59
243,124	97,11
243,341	95,06
243,558	31,57
243,775	29,52
243,992	-21,67
244,209	80,72
244,426	215,89
244,643	47,96
244,86	74,58
245,078	70,48
245,295	86,87
245,512	58,2
245,729	17,24
245,946	68,44
246,163	101,2
246,38	13,14
246,597	74,58
246,814	76,63
247,031	17,24
247,248	60,24
247,464	136,02
247,681	45,91
247,898	113,49
248,115	88,92
248,332	47,96
248,549	183,12
248,766	111,44
248,983	109,4
249,2	142,16
249,417	88,92
249,633	0,85
249,85	105,3
250,067	142,16
250,284	90,96
250,501	33,62
250,717	74,58
250,934	7
251,151	47,96
251,368	80,72
251,585	150,36
251,801	119,64
252,018	-81,07
252,235	76,63
252,451	-62,63
252,668	4,95
252,885	123,73
253,102	-21,67
253,318	9,05
253,535	82,77
253,752	39,76
253,968	-17,58
254,185	-79,02
254,401	82,77
254,618	74,58
254,835	19,29
255,051	162,64
255,268	105,3
255,484	39,76
255,701	0,85
255,917	113,49
256,134	4,95
256,351	54,1
256,567	-60,59
256,784	78,68
257	-27,82
257,217	125,78
257,433	131,92
257,65	80,72
257,866	164,69
258,082	-40,11
258,299	-11,43
258,515	-19,63
258,732	23,38
258,948	35,67
259,165	125,78
259,381	25,43
259,597	133,97
259,814	39,76
260,03	19,29
260,246	-25,77
260,463	45,91
260,679	199,51
260,895	27,48
261,112	17,24
261,328	97,11
261,544	60,24
261,761	189,27
261,977	31,57
262,193	-44,2
262,409	107,35
262,626	156,5
262,842	27,48
263,058	0,85
263,274	117,59
263,49	70,48
263,707	78,68
263,923	58,2
264,139	-9,39
264,355	35,67
264,571	115,54
264,787	107,35
265,004	164,69
265,22	64,34
265,436	-31,91
265,652	56,15
265,868	105,3
266,084	0,85
266,3	70,48
266,516	-7,34
266,732	21,33
266,948	97,11
267,164	-9,39
267,38	156,5
267,596	58,2
267,812	146,26
268,028	76,63
268,244	62,29
268,46	47,96
268,676	0,85
268,892	70,48
269,108	-38,06
269,324	-1,19
269,54	-44,2
269,756	97,11
269,972	-23,72
270,188	60,24
270,403	0,85
270,619	33,62
270,835	115,54
271,051	-17,58
271,267	-3,24
271,483	0,85
271,698	125,78
271,914	103,25
272,13	31,57
272,346	-52,39
272,562	74,58
272,777	187,22
272,993	39,76
273,209	35,67
273,425	150,36
273,64	29,52
273,856	99,16
274,072	84,82
274,287	-38,06
274,503	127,83
274,719	43,86
274,934	-31,91
275,15	-48,3
275,366	70,48
275,581	27,48
275,797	72,53
276,012	113,49
276,228	-19,63
276,444	45,91
276,659	131,92
276,875	-33,96
277,09	2,9
277,306	82,77
277,521	121,68
277,737	-31,91
277,952	154,45
278,168	60,24
278,383	52,05
278,599	66,39
278,814	133,97
279,03	62,29
279,245	160,59
279,461	60,24
279,676	74,58
279,892	11,09
280,107	-64,68
280,322	52,05
280,538	107,35
280,753	15,19
280,969	74,58
281,184	9,05
281,399	185,17
281,615	2,9
281,83	105,3
282,045	7
282,26	4,95
282,476	7
282,691	181,07
282,906	136,02
283,122	84,82
283,337	4,95
283,552	23,38
283,767	82,77
283,983	115,54
284,198	19,29
284,413	84,82
284,628	-72,87
284,843	138,07
285,058	99,16
285,274	90,96
285,489	9,05
285,704	86,87
285,919	-13,48
286,134	15,19
286,349	74,58
286,564	47,96
286,779	47,96
286,995	4,95
287,21	-1,19
287,425	27,48
287,64	13,14
287,855	93,01
288,07	-56,49
288,285	228,18
288,5	199,51
288,715	107,35
288,93	43,86
289,145	-62,63
289,36	50
289,575	35,67
289,79	228,18
290,004	88,92
290,219	84,82
290,434	60,24
290,649	13,14
290,864	-19,63
291,079	19,29
291,294	80,72
291,509	113,49
291,724	47,96
291,938	99,16
292,153	68,44
292,368	-11,43
292,583	74,58
292,798	146,26
293,012	101,2
293,227	131,92
293,442	68,44
293,657	181,07
293,871	160,59
294,086	72,53
294,301	121,68
294,516	107,35
294,73	117,59
294,945	-21,67
295,16	64,34
295,374	166,74
295,589	125,78
295,804	-38,06
296,018	86,87
296,233	68,44
296,447	183,12
296,662	4,95
296,877	162,64
297,091	195,41
297,306	15,19
297,52	86,87
297,735	90,96
297,949	93,01
298,164	25,43
298,378	39,76
298,593	-72,87
298,807	54,1
299,022	101,2
299,236	174,93
299,451	-58,54
299,665	39,76
299,88	50
300,094	68,44
300,309	109,4
300,523	17,24
300,737	-54,44
300,952	21,33
301,166	111,44
301,381	21,33
301,595	11,09
301,809	39,76
302,024	64,34
302,238	11,09
302,452	146,26
302,667	23,38
302,881	129,88
303,095	86,87
303,309	80,72
303,524	33,62
303,738	97,11
303,952	-11,43
304,166	76,63
304,381	-72,87
304,595	170,83
304,809	90,96
305,023	35,67
305,237	50
305,452	70,48
305,666	-9,39
305,88	43,86
306,094	80,72
306,308	93,01
306,522	78,68
306,736	56,15
306,95	105,3
307,164	105,3
307,379	15,19
307,593	215,89
307,807	84,82
308,021	140,12
308,235	84,82
308,449	-17,58
308,663	-9,39
308,877	146,26
309,091	74,58
309,305	93,01
309,519	-58,54
309,733	127,83
309,947	-17,58
310,161	90,96
310,374	127,83
310,588	174,93
310,802	-29,87
311,016	-11,43
311,23	113,49
311,444	11,09
311,658	43,86
311,872	181,07
312,085	166,74
312,299	224,08
312,513	133,97
312,727	138,07
312,941	-15,53
313,154	72,53
313,368	64,34
313,582	113,49
313,796	103,25
314,009	52,05
314,223	164,69
314,437	7
314,651	168,79
314,864	33,62
315,078	78,68
315,292	17,24
315,505	131,92
315,719	107,35
315,933	133,97
316,146	93,01
316,36	37,72
316,573	142,16
316,787	127,83
317,001	115,54
317,214	21,33
317,428	80,72
317,641	-33,96
317,855	68,44
318,068	39,76
318,282	97,11
318,495	232,27
318,709	136,02
318,922	72,53
319,136	154,45
319,349	129,88
319,563	17,24
319,776	152,4
319,99	-42,15
320,203	146,26
320,417	97,11
320,63	138,07
320,843	181,07
321,057	123,73
321,27	148,31
321,483	86,87
321,697	140,12
321,91	39,76
322,124	62,29
322,337	136,02
322,55	27,48
322,763	90,96
322,977	11,09
323,19	23,38
323,403	99,16
323,617	72,53
323,83	166,74
324,043	19,29
324,256	56,15
324,469	-79,02
324,683	187,22
324,896	9,05
325,109	82,77
325,322	-38,06
325,535	105,3
325,748	226,13
325,962	-27,82
326,175	76,63
326,388	129,88
326,601	111,44
326,814	17,24
327,027	101,2
327,24	41,81
327,453	-64,68
327,666	129,88
327,879	189,27
328,092	113,49
328,305	101,2
328,518	50
328,731	23,38
328,944	50
329,157	119,64
329,37	43,86
329,583	211,79
329,796	150,36
330,009	-9,39
330,222	105,3
330,435	142,16
330,648	50
330,861	70,48
331,073	150,36
331,286	121,68
331,499	86,87
331,712	86,87
331,925	111,44
332,138	11,09
332,35	154,45
332,563	-11,43
332,776	140,12
332,989	56,15
333,202	-1,19
333,414	47,96
333,627	99,16
333,84	121,68
334,053	109,4
334,265	60,24
334,478	23,38
334,691	27,48
334,903	25,43
335,116	88,92
335,329	66,39
335,541	162,64
335,754	166,74
335,966	76,63
336,179	82,77
336,392	109,4
336,604	76,63
336,817	152,4
337,029	93,01
337,242	80,72
337,454	76,63
337,667	146,26
337,88	162,64
338,092	99,16
338,305	88,92
338,517	52,05
338,729	158,55
338,942	277,33
339,154	25,43
339,367	-17,58
339,579	123,73
339,792	-42,15
340,004	156,5
340,217	70,48
340,429	97,11
340,641	56,15
340,854	-27,82
341,066	19,29
341,278	189,27
341,491	240,47
341,703	84,82
341,915	41,81
342,128	164,69
342,34	111,44
342,552	17,24
342,764	54,1
342,977	109,4
343,189	97,11
343,401	133,97
343,613	13,14
343,826	86,87
344,038	9,05
344,25	117,59
344,462	11,09
344,674	103,25
344,886	64,34
345,099	76,63
345,311	80,72
345,523	9,05
345,735	-3,24
345,947	64,34
346,159	117,59
346,371	50
346,583	27,48
346,795	303,95
347,007	7
347,219	123,73
347,431	123,73
347,643	150,36
347,855	90,96
348,067	158,55
348,279	23,38
348,491	21,33
348,703	187,22
348,915	66,39
349,127	90,96
349,339	88,92
349,551	52,05
349,763	138,07
349,975	115,54
350,187	170,83
350,399	213,84
350,61	115,54
350,822	41,81
351,034	152,4
351,246	7
351,458	109,4
351,669	109,4
351,881	148,31
352,093	174,93
352,305	107,35
352,517	95,06
352,728	131,92
352,94	64,34
353,152	66,39
353,363	31,57
353,575	162,64
353,787	209,75
353,999	88,92
354,21	232,27
354,422	9,05
354,633	80,72
354,845	105,3
355,057	105,3
355,268	60,24
355,48	136,02
355,692	33,62
355,903	80,72
356,115	47,96
356,326	19,29
356,538	152,4
356,749	176,98
356,961	183,12
357,172	103,25
357,384	11,09
357,595	328,53
357,807	84,82
358,018	72,53
358,23	115,54
358,441	176,98
358,653	82,77
358,864	99,16
359,075	105,3
359,287	84,82
359,498	109,4
359,709	119,64
359,921	29,52
360,132	64,34
360,344	88,92
360,555	50
360,766	197,46
360,977	58,2
361,189	207,7
361,4	121,68
361,611	113,49
361,823	232,27
362,034	60,24
362,245	15,19
362,456	50
362,667	140,12
362,879	56,15
363,09	76,63
363,301	109,4
363,512	129,88
363,723	54,1
363,935	117,59
364,146	168,79
364,357	82,77
364,568	125,78
364,779	-15,53
364,99	172,88
365,201	7
365,412	162,64
365,623	15,19
365,834	138,07
366,045	52,05
366,256	156,5
366,467	158,55
366,678	45,91
366,889	133,97
367,1	140,12
367,311	158,55
367,522	56,15
367,733	74,58
367,944	174,93
368,155	64,34
368,366	101,2
368,577	172,88
368,788	293,71
368,999	72,53
369,209	103,25
369,42	297,81
369,631	363,34
369,842	195,41
370,053	82,77
370,264	205,65
370,474	50
370,685	123,73
370,896	60,24
371,107	181,07
371,317	205,65
371,528	78,68
371,739	181,07
371,95	187,22
372,16	127,83
372,371	-27,82
372,582	105,3
372,792	172,88
373,003	115,54
373,214	115,54
373,424	80,72
373,635	23,38
373,846	193,36
374,056	125,78
374,267	19,29
374,477	146,26
374,688	4,95
374,898	97,11
375,109	80,72
375,319	115,54
375,53	121,68
375,74	150,36
375,951	76,63
376,161	164,69
376,372	156,5
376,582	140,12
376,793	117,59
377,003	148,31
377,214	9,05
377,424	82,77
377,635	115,54
377,845	93,01
378,055	172,88
378,266	-13,48
378,476	109,4
378,686	97,11
378,897	179,03
379,107	174,93
379,317	99,16
379,528	78,68
379,738	105,3
379,948	-15,53
380,158	191,31
380,369	80,72
380,579	222,03
380,789	158,55
380,999	168,79
381,21	158,55
381,42	232,27
381,63	105,3
381,84	148,31
382,05	154,45
382,261	219,99
382,471	148,31
382,681	90,96
382,891	324,43
383,101	148,31
383,311	-7,34
383,521	111,44
383,731	160,59
383,941	283,47
384,151	133,97
384,361	58,2
384,571	105,3
384,781	107,35
384,991	195,41
385,201	224,08
385,411	224,08
385,621	103,25
385,831	127,83
386,041	176,98
386,251	70,48
386,461	146,26
386,671	43,86
386,881	88,92
387,091	70,48
387,301	187,22
387,511	72,53
387,72	115,54
387,93	183,12
388,14	-1,19
388,35	82,77
388,56	248,66
388,769	262,99
388,979	150,36
389,189	70,48
389,399	19,29
389,609	84,82
389,818	150,36
390,028	113,49
390,238	170,83
390,447	27,48
390,657	121,68
390,867	117,59
391,076	-29,87
391,286	97,11
391,496	50
391,705	146,26
391,915	222,03
392,125	160,59
392,334	72,53
392,544	191,31
392,753	123,73
392,963	74,58
393,172	23,38
393,382	39,76
393,591	258,9
393,801	21,33
394,01	293,71
394,22	133,97
394,429	127,83
394,639	84,82
394,848	199,51
395,058	230,23
395,267	138,07
395,477	215,89
395,686	199,51
395,895	254,8
396,105	273,23
396,314	156,5
396,524	133,97
396,733	189,27
396,942	242,51
397,152	166,74
397,361	234,32
397,57	156,5
397,78	172,88
397,989	164,69
398,198	326,48
398,407	68,44
398,617	109,4
398,826	90,96
399,035	93,01
399,244	140,12
399,453	117,59
399,663	115,54
399,872	131,92
400,081	25,43
400,29	209,75
400,499	0,85
400,708	209,75
400,917	11,09
401,127	56,15
401,336	31,57
401,545	201,55
401,754	152,4
401,963	138,07
402,172	162,64
402,381	-54,44
402,59	47,96
402,799	68,44
403,008	193,36
403,217	93,01
403,426	156,5
403,635	-3,24
403,844	97,11
404,053	45,91
404,262	66,39
404,471	205,65
404,68	127,83
404,888	50
405,097	56,15
405,306	127,83
405,515	95,06
405,724	13,14
405,933	269,14
406,142	88,92
406,35	181,07
406,559	64,34
406,768	58,2
406,977	326,48
407,185	129,88
407,394	101,2
407,603	21,33
407,812	164,69
408,02	152,4
408,229	66,39
408,438	199,51
408,646	41,81
408,855	174,93
409,064	256,85
409,272	172,88
409,481	306
409,69	142,16
409,898	215,89
410,107	273,23
410,315	328,53
410,524	183,12
410,733	181,07
410,941	246,61
411,15	267,09
411,358	250,71
411,567	189,27
411,775	158,55
411,984	121,68
412,192	189,27
412,401	138,07
412,609	265,04
412,818	127,83
413,026	93,01
413,234	113,49
413,443	88,92
413,651	39,76
413,86	103,25
414,068	179,03
414,276	201,55
414,485	78,68
414,693	203,6
414,901	162,64
415,11	113,49
415,318	99,16
415,526	58,2
415,734	160,59
415,943	82,77
416,151	117,59
416,359	82,77
416,567	105,3
416,776	138,07
416,984	109,4
417,192	226,13
417,4	113,49
417,608	27,48
417,817	-9,39
418,025	52,05
418,233	156,5
418,441	7
418,649	-9,39
418,857	144,21
419,065	154,45
419,273	37,72
419,481	113,49
419,689	131,92
419,897	74,58
420,105	7
420,313	70,48
420,521	197,46
420,729	127,83
420,937	47,96
421,145	56,15
421,353	154,45
421,561	179,03
421,769	72,53
421,977	9,05
422,185	103,25
422,393	60,24
422,601	158,55
422,809	52,05
423,017	115,54
423,224	105,3
423,432	125,78
423,64	107,35
423,848	193,36
424,056	2,9
424,263	113,49
424,471	84,82
424,679	193,36
424,887	-13,48
425,094	162,64
425,302	99,16
425,51	43,86
425,718	74,58
425,925	72,53
426,133	-36,01
426,341	215,89
426,548	103,25
426,756	45,91
426,964	111,44
427,171	-1,19
427,379	54,1
427,586	29,52
427,794	97,11
428,001	222,03
428,209	78,68
428,417	121,68
428,624	41,81
428,832	133,97
429,039	109,4
429,247	11,09
429,454	97,11
429,662	213,84
429,869	160,59
430,076	93,01
430,284	154,45
430,491	236,37
430,699	179,03
430,906	193,36
431,114	148,31
431,321	97,11
431,528	76,63
431,736	166,74
431,943	238,42
432,15	346,96
432,358	342,86
432,565	594,76
432,772	422,73
432,979	746,31
433,187	627,53
433,394	824,14
433,601	867,14
433,808	965,45
434,016	1022,79
434,223	981,83
434,43	908,1
434,637	869,19
434,844	797,51
435,052	592,72
435,259	539,47
435,466	381,78
435,673	367,44
435,88	322,38
436,087	244,56
436,294	279,38
436,501	144,21
436,708	88,92
436,915	101,2
437,122	121,68
437,329	39,76
437,537	88,92
437,743	74,58
437,95	152,4
438,157	109,4
438,364	68,44
438,571	58,2
438,778	117,59
438,985	133,97
439,192	146,26
439,399	23,38
439,606	156,5
439,813	193,36
440,02	281,43
440,227	197,46
440,433	187,22
440,64	64,34
440,847	78,68
441,054	105,3
441,261	125,78
441,467	52,05
441,674	66,39
441,881	113,49
442,088	117,59
442,294	101,2
442,501	164,69
442,708	88,92
442,914	107,35
443,121	148,31
443,328	164,69
443,534	162,64
443,741	64,34
443,948	-29,87
444,154	74,58
444,361	306
444,568	82,77
444,774	123,73
444,981	-25,77
445,187	195,41
445,394	88,92
445,6	70,48
445,807	62,29
446,013	101,2
446,22	-44,2
446,426	76,63
446,633	54,1
446,839	224,08
447,046	4,95
447,252	99,16
447,459	131,92
447,665	-13,48
447,871	121,68
448,078	152,4
448,284	109,4
448,491	148,31
448,697	156,5
448,903	105,3
449,11	88,92
449,316	39,76
449,522	131,92
449,728	43,86
449,935	142,16
450,141	19,29
450,347	228,18
450,553	88,92
450,76	58,2
450,966	-74,92
451,172	113,49
451,378	97,11
451,584	136,02
451,791	152,4
451,997	181,07
452,203	125,78
452,409	244,56
452,615	93,01
452,821	56,15
453,027	-17,58
453,233	238,42
453,44	90,96
453,646	97,11
453,852	113,49
454,058	-27,82
454,264	41,81
454,47	80,72
454,676	27,48
454,882	142,16
455,088	131,92
455,294	111,44
455,5	119,64
455,705	150,36
455,911	82,77
456,117	7
456,323	101,2
456,529	158,55
456,735	68,44
456,941	142,16
457,147	226,13
457,352	211,79
457,558	-83,11
457,764	101,2
457,97	-46,25
458,176	74,58
458,381	56,15
458,587	203,6
458,793	72,53
458,999	-38,06
459,204	113,49
459,41	60,24
459,616	-21,67
459,821	97,11
460,027	-42,15
460,233	232,27
460,438	154,45
460,644	86,87
460,85	160,59
461,055	88,92
461,261	111,44
461,466	88,92
461,672	105,3
461,878	-62,63
462,083	129,88
462,289	-66,73
462,494	66,39
462,7	244,56
462,905	39,76
463,111	158,55
463,316	95,06
463,522	150,36
463,727	86,87
463,932	90,96
464,138	58,2
464,343	121,68
464,549	158,55
464,754	168,79
464,959	203,6
465,165	76,63
465,37	86,87
465,575	33,62
465,781	97,11
465,986	-1,19
466,191	107,35
466,397	174,93
466,602	238,42
466,807	107,35
467,012	144,21
467,218	199,51
467,423	86,87
467,628	115,54
467,833	27,48
468,038	99,16
468,244	64,34
468,449	27,48
468,654	54,1
468,859	25,43
469,064	76,63
469,269	93,01
469,474	93,01
469,679	176,98
469,885	170,83
470,09	29,52
470,295	70,48
470,5	35,67
470,705	164,69
470,91	15,19
471,115	285,52
471,32	99,16
471,525	219,99
471,73	252,75
471,935	127,83
472,139	4,95
472,344	29,52
472,549	29,52
472,754	101,2
472,959	123,73
473,164	60,24
473,369	131,92
473,574	230,23
473,778	66,39
473,983	154,45
474,188	179,03
474,393	113,49
474,598	164,69
474,802	136,02
475,007	105,3
475,212	211,79
475,417	56,15
475,621	215,89
475,826	33,62
476,031	162,64
476,235	99,16
476,44	60,24
476,645	129,88
476,849	50
477,054	142,16
477,259	93,01
477,463	56,15
477,668	359,25
477,872	172,88
478,077	101,2
478,282	33,62
478,486	142,16
478,691	119,64
478,895	131,92
479,1	187,22
479,304	199,51
479,509	117,59
479,713	187,22
479,918	217,94
480,122	105,3
480,326	129,88
480,531	52,05
480,735	121,68
480,94	43,86
481,144	101,2
481,348	176,98
481,553	179,03
481,757	82,77
481,961	29,52
482,166	97,11
482,37	43,86
482,574	136,02
482,778	62,29
482,983	170,83
483,187	160,59
483,391	203,6
483,595	285,52
483,8	447,31
484,004	858,95
484,208	1352,51
484,412	2104,12
484,616	3167,01
484,821	4576,02
485,025	5890,81
485,229	7533,28
485,433	8745,68
485,637	9984,7
485,841	10457,78
486,045	10740,4
486,249	10724,02
486,453	10009,28
486,657	8970,96
486,861	8004,32
487,065	6593,26
487,269	5544,7
487,473	4332,31
487,677	3822,36
487,881	3234,6
488,085	2304,82
488,289	1895,22
488,493	1311,55
488,697	1153,86
488,901	762,7
489,105	383,82
489,309	267,09
489,512	351,06
489,716	248,66
489,92	236,37
490,124	222,03
490,328	355,15
490,531	138,07
490,735	252,75
490,939	93,01
491,143	148,31
491,346	138,07
491,55	111,44
491,754	99,16
491,958	205,65
492,161	140,12
492,365	107,35
492,569	88,92
492,772	129,88
492,976	166,74
493,18	117,59
493,383	-1,19
493,587	115,54
493,79	107,35
493,994	99,16
494,197	90,96
494,401	66,39
494,605	-5,29
494,808	80,72
495,012	97,11
495,215	213,84
495,419	207,7
495,622	78,68
495,825	37,72
496,029	86,87
496,232	191,31
496,436	45,91
496,639	164,69
496,843	123,73
497,046	-15,53
497,249	156,5
497,453	217,94
497,656	-17,58
497,859	95,06
498,063	172,88
498,266	117,59
498,469	11,09
498,673	15,19
498,876	50
499,079	66,39
499,282	84,82
499,485	324,43
499,689	123,73
499,892	117,59
500,095	21,33
500,298	125,78
500,501	17,24
500,705	70,48
500,908	15,19
501,111	4,95
501,314	133,97
501,517	207,7
501,72	140,12
501,923	41,81
502,126	31,57
502,329	197,46
502,532	168,79
502,735	109,4
502,938	107,35
503,141	107,35
503,344	-7,34
503,547	187,22
503,75	76,63
503,953	27,48
504,156	56,15
504,359	121,68
504,562	64,34
504,765	19,29
504,968	105,3
505,17	86,87
505,373	115,54
505,576	109,4
505,779	88,92
505,982	-36,01
506,185	107,35
506,387	31,57
506,59	222,03
506,793	39,76
506,996	-5,29
507,198	187,22
507,401	236,37
507,604	152,4
507,807	121,68
508,009	117,59
508,212	170,83
508,415	60,24
508,617	41,81
508,82	84,82
509,022	74,58
509,225	103,25
509,428	113,49
509,63	88,92
509,833	72,53
510,035	283,47
510,238	160,59
510,44	-9,39
510,643	121,68
510,845	17,24
511,048	205,65
511,25	84,82
511,453	156,5
511,655	144,21
511,858	215,89
512,06	230,23
512,262	4,95
512,465	31,57
512,667	113,49
512,87	-13,48
513,072	262,99
513,274	125,78
513,477	-81,07
513,679	115,54
513,881	103,25
514,084	54,1
514,286	78,68
514,488	25,43
514,69	101,2
514,893	19,29
515,095	-7,34
515,297	-17,58
515,499	97,11
515,701	-25,77
515,904	109,4
516,106	179,03
516,308	113,49
516,51	80,72
516,712	131,92
516,914	80,72
517,116	105,3
517,318	68,44
517,52	64,34
517,722	123,73
517,925	47,96
518,127	80,72
518,329	197,46
518,531	7
518,733	103,25
518,935	-3,24
519,136	113,49
519,338	-36,01
519,54	107,35
519,742	56,15
519,944	211,79
520,146	115,54
520,348	23,38
520,55	189,27
520,752	64,34
520,954	64,34
521,155	80,72
521,357	107,35
521,559	113,49
521,761	316,24
521,963	39,76
522,164	74,58
522,366	138,07
522,568	127,83
522,77	179,03
522,971	199,51
523,173	-5,29
523,375	211,79
523,576	-5,29
523,778	74,58
523,98	66,39
524,181	168,79
524,383	93,01
524,584	31,57
524,786	113,49
524,988	74,58
525,189	74,58
525,391	158,55
525,592	9,05
525,794	45,91
525,995	56,15
526,197	97,11
526,398	209,75
526,6	160,59
526,801	111,44
527,003	-91,31
527,204	64,34
527,406	41,81
527,607	80,72
527,808	23,38
528,01	97,11
528,211	129,88
528,412	-19,63
528,614	217,94
528,815	174,93
529,016	179,03
529,218	111,44
529,419	97,11
529,62	11,09
529,822	160,59
530,023	41,81
530,224	140,12
530,425	117,59
530,626	56,15
530,828	105,3
531,029	109,4
531,23	47,96
531,431	43,86
531,632	144,21
531,833	52,05
532,035	93,01
532,236	72,53
532,437	78,68
532,638	99,16
532,839	-33,96
533,04	133,97
533,241	170,83
533,442	97,11
533,643	50
533,844	66,39
534,045	-13,48
534,246	88,92
534,447	31,57
534,648	78,68
534,849	152,4
535,05	58,2
535,251	2,9
535,451	113,49
535,652	35,67
535,853	60,24
536,054	115,54
536,255	72,53
536,456	97,11
536,657	56,15
536,857	66,39
537,058	172,88
537,259	43,86
537,46	74,58
537,66	80,72
537,861	43,86
538,062	88,92
538,263	-58,54
538,463	131,92
538,664	58,2
538,865	-21,67
539,065	62,29
539,266	47,96
539,466	0,85
539,667	187,22
539,868	140,12
540,068	113,49
540,269	121,68
540,469	111,44
540,67	64,34
540,87	74,58
541,071	-40,11
541,271	97,11
541,472	176,98
541,672	125,78
541,873	99,16
542,073	138,07
542,274	70,48
542,474	144,21
542,675	47,96
542,875	72,53
543,075	-5,29
543,276	-21,67
543,476	125,78
543,676	146,26
543,877	-29,87
544,077	123,73
544,277	170,83
544,478	70,48
544,678	121,68
544,878	103,25
545,078	7
545,279	41,81
545,479	4,95
545,679	37,72
545,879	93,01
546,079	17,24
546,28	2,9
546,48	11,09
546,68	84,82
546,88	117,59
547,08	76,63
547,28	125,78
547,48	-36,01
547,68	168,79
547,88	84,82
548,081	82,77
548,281	-48,3
548,481	19,29
548,681	84,82
548,881	150,36
549,081	15,19
549,28	52,05
549,48	82,77
549,68	74,58
549,88	19,29
550,08	2,9
550,28	19,29
550,48	121,68
550,68	54,1
550,88	-38,06
551,08	17,24
551,279	170,83
551,479	101,2
551,679	123,73
551,879	-62,63
552,079	72,53
552,278	58,2
552,478	232,27
552,678	39,76
552,878	121,68
553,077	95,06
553,277	66,39
553,477	80,72
553,676	158,55
553,876	150,36
554,076	88,92
554,275	127,83
554,475	-21,67
554,674	93,01
554,874	62,29
555,074	41,81
555,273	7
555,473	60,24
555,672	31,57
555,872	72,53
556,071	23,38
556,271	193,36
556,47	113,49
556,67	103,25
556,869	31,57
557,068	4,95
557,268	68,44
557,467	129,88
557,667	129,88
557,866	80,72
558,065	58,2
558,265	121,68
558,464	84,82
558,663	41,81
558,863	138,07
559,062	64,34
559,261	115,54
559,461	33,62
559,66	78,68
559,859	-11,43
560,058	-3,24
560,258	-48,3
560,457	111,44
560,656	187,22
560,855	-5,29
561,054	166,74
561,253	131,92
561,453	148,31
561,652	74,58
561,851	76,63
562,05	-33,96
562,249	-48,3
562,448	93,01
562,647	-23,72
562,846	72,53
563,045	146,26
563,244	121,68
563,443	95,06
563,642	39,76
563,841	43,86
564,04	50
564,239	60,24
564,438	39,76
564,637	-62,63
564,836	50
565,035	60,24
565,234	41,81
565,432	99,16
565,631	131,92
565,83	103,25
566,029	111,44
566,228	105,3
566,427	179,03
566,625	-27,82
566,824	80,72
567,023	50
567,222	17,24
567,42	138,07
567,619	90,96
567,818	70,48
568,016	330,58
568,215	97,11
568,414	150,36
568,612	97,11
568,811	127,83
569,01	64,34
569,208	121,68
569,407	211,79
569,605	136,02
569,804	105,3
570,002	140,12
570,201	35,67
570,4	148,31
570,598	99,16
570,797	185,17
570,995	58,2
571,193	156,5
571,392	90,96
571,59	72,53
571,789	205,65
571,987	211,79
572,186	179,03
572,384	113,49
572,582	52,05
572,781	219,99
572,979	23,38
573,177	121,68
573,376	129,88
573,574	154,45
573,772	140,12
573,971	86,87
574,169	9,05
574,367	131,92
574,565	37,72
574,763	90,96
574,962	146,26
575,16	84,82
575,358	88,92
575,556	127,83
575,754	209,75
575,952	176,98
576,151	154,45
576,349	258,9
576,547	50
576,745	113,49
576,943	101,2
577,141	60,24
577,339	54,1
577,537	156,5
577,735	211,79
577,933	217,94
578,131	64,34
578,329	242,51
578,527	78,68
578,725	185,17
578,923	-1,19
579,121	181,07
579,319	11,09
579,516	99,16
579,714	314,19
579,912	187,22
580,11	58,2
580,308	199,51
580,506	179,03
580,704	13,14
580,901	97,11
581,099	230,23
581,297	121,68
581,495	121,68
581,692	195,41
581,89	217,94
582,088	219,99
582,285	156,5
582,483	105,3
582,681	156,5
582,878	148,31
583,076	271,19
583,274	129,88
583,471	340,82
583,669	195,41
583,866	47,96
584,064	78,68
584,262	0,85
584,459	80,72
584,657	164,69
584,854	170,83
585,052	162,64
585,249	174,93
585,447	191,31
585,644	117,59
585,841	179,03
586,039	138,07
586,236	176,98
586,434	131,92
586,631	52,05
586,828	107,35
587,026	140,12
587,223	74,58
587,42	82,77
587,618	164,69
587,815	217,94
588,012	136,02
588,21	131,92
588,407	197,46
588,604	125,78
588,801	78,68
588,999	146,26
589,196	154,45
589,393	82,77
589,59	121,68
589,787	142,16
589,984	88,92
590,182	121,68
590,379	80,72
590,576	119,64
590,773	62,29
590,97	50
591,167	158,55
591,364	205,65
591,561	64,34
591,758	271,19
591,955	93,01
592,152	136,02
592,349	80,72
592,546	82,77
592,743	107,35
592,94	156,5
593,137	80,72
593,334	244,56
593,531	170,83
593,727	228,18
593,924	74,58
594,121	213,84
594,318	25,43
594,515	129,88
594,712	244,56
594,908	158,55
595,105	60,24
595,302	207,7
595,499	64,34
595,696	138,07
595,892	17,24
596,089	215,89
596,286	58,2
596,482	267,09
596,679	86,87
596,876	66,39
597,072	248,66
597,269	152,4
597,466	84,82
597,662	99,16
597,859	60,24
598,055	70,48
598,252	133,97
598,448	136,02
598,645	160,59
598,841	162,64
599,038	293,71
599,234	289,62
599,431	209,75
599,627	174,93
599,824	107,35
600,02	9,05
600,217	84,82
600,413	150,36
600,609	90,96
600,806	387,92
601,002	144,21
601,198	45,91
601,395	262,99
601,591	152,4
601,787	172,88
601,984	213,84
602,18	123,73
602,376	148,31
602,572	179,03
602,769	203,6
602,965	142,16
603,161	154,45
603,357	127,83
603,553	244,56
603,75	2,9
603,946	133,97
604,142	54,1
604,338	355,15
604,534	101,2
604,73	133,97
604,926	9,05
605,122	219,99
605,318	70,48
605,514	148,31
605,71	35,67
605,906	146,26
606,102	43,86
606,298	133,97
606,494	150,36
606,69	187,22
606,886	113,49
607,082	95,06
607,278	54,1
607,474	156,5
607,67	99,16
607,866	-50,35
608,062	138,07
608,257	111,44
608,453	-29,87
608,649	187,22
608,845	25,43
609,041	33,62
609,236	101,2
609,432	80,72
609,628	152,4
609,824	170,83
610,019	33,62
610,215	82,77
610,411	131,92
610,606	174,93
610,802	4,95
610,998	133,97
611,193	136,02
611,389	-9,39
611,584	125,78
611,78	62,29
611,976	70,48
612,171	326,48
612,367	131,92
612,562	138,07
612,758	113,49
612,953	-31,91
613,149	50
613,344	125,78
613,539	35,67
613,735	234,32
613,93	64,34
614,126	119,64
614,321	119,64
614,517	189,27
614,712	113,49
614,907	170,83
615,103	166,74
615,298	162,64
615,493	60,24
615,688	50
615,884	148,31
616,079	140,12
616,274	105,3
616,47	-15,53
616,665	47,96
616,86	76,63
617,055	31,57
617,25	41,81
617,445	156,5
617,641	70,48
617,836	86,87
618,031	21,33
618,226	47,96
618,421	154,45
618,616	82,77
618,811	101,2
619,006	-17,58
619,201	246,61
619,396	111,44
619,591	35,67
619,786	80,72
619,981	101,2
620,176	136,02
620,371	88,92
620,566	25,43
620,761	84,82
620,956	111,44
621,151	58,2
621,346	199,51
621,541	0,85
621,735	222,03
621,93	31,57
622,125	7
622,32	-23,72
622,515	27,48
622,709	142,16
622,904	183,12
623,099	70,48
623,294	183,12
623,488	138,07
623,683	84,82
623,878	70,48
624,072	201,55
624,267	-25,77
624,462	64,34
624,656	11,09
624,851	90,96
625,046	68,44
625,24	97,11
625,435	35,67
625,629	72,53
625,824	172,88
626,018	88,92
626,213	187,22
626,407	88,92
626,602	170,83
626,796	35,67
626,991	168,79
627,185	101,2
627,38	41,81
627,574	131,92
627,768	109,4
627,963	107,35
628,157	144,21
628,352	9,05
628,546	15,19
628,74	80,72
628,935	47,96
629,129	97,11
629,323	76,63
629,517	13,14
629,712	23,38
629,906	31,57
630,1	144,21
630,294	189,27
630,489	88,92
630,683	39,76
630,877	84,82
631,071	181,07
631,265	43,86
631,459	78,68
631,653	64,34
631,848	58,2
632,042	150,36
632,236	-44,2
632,43	105,3
632,624	90,96
632,818	62,29
633,012	76,63
633,206	82,77
633,4	17,24
633,594	113,49
633,788	54,1
633,982	148,31
634,176	211,79
634,369	68,44
634,563	52,05
634,757	-56,49
634,951	174,93
635,145	168,79
635,339	90,96
635,533	90,96
635,726	170,83
635,92	101,2
636,114	43,86
636,308	86,87
636,501	41,81
636,695	113,49
636,889	13,14
637,083	90,96
637,276	80,72
637,47	54,1
637,664	27,48
637,857	72,53
638,051	31,57
638,244	242,51
638,438	74,58
638,632	140,12
638,825	56,15
639,019	146,26
639,212	35,67
639,406	162,64
639,599	35,67
639,793	41,81
639,986	113,49
640,18	211,79
640,373	76,63
640,567	115,54
640,76	121,68
640,954	181,07
641,147	56,15
641,34	33,62
641,534	136,02
641,727	174,93
641,92	33,62
642,114	174,93
642,307	70,48
642,5	256,85
642,694	-58,54
642,887	52,05
643,08	234,32
643,273	183,12
643,467	37,72
643,66	62,29
643,853	142,16
644,046	160,59
644,239	86,87
644,432	62,29
644,626	-7,34
644,819	56,15
645,012	52,05
645,205	115,54
645,398	189,27
645,591	60,24
645,784	76,63
645,977	56,15
646,17	133,97
646,363	119,64
646,556	66,39
646,749	68,44
646,942	158,55
647,135	133,97
647,328	52,05
647,521	189,27
647,714	80,72
647,907	107,35
648,099	60,24
648,292	156,5
648,485	113,49
648,678	21,33
648,871	23,38
649,064	74,58
649,256	99,16
649,449	-91,31
649,642	-38,06
649,835	113,49
650,027	-15,53
650,22	209,75
650,413	90,96
650,605	168,79
650,798	39,76
650,991	76,63
651,183	133,97
651,376	179,03
651,568	166,74
651,761	84,82
651,954	166,74
652,146	95,06
652,339	226,13
652,531	236,37
652,724	150,36
652,916	93,01
653,109	29,52
653,301	283,47
653,494	209,75
653,686	203,6
653,879	238,42
654,071	246,61
654,263	346,96
654,456	617,29
654,648	2249,52
654,84	6767,34
655,033	15370,86
655,225	26110,41
655,417	37464,35
655,61	48224,37
655,802	56061,95
655,994	61093,81
656,186	62513,05
656,379	59928,51
656,571	56154,11
656,763	50151,51
656,955	45303,97
657,148	41388,25
657,34	37765,4
657,532	33612,12
657,724	30288,26
657,916	27103,67
658,108	23218,68
658,3	19448,36
658,492	16110,18
658,684	13087,37
658,876	10937,01
659,068	8698,58
659,26	6677,23
659,452	4956,94
659,644	3730,2
659,836	2751,28
660,028	1895,22
660,22	1272,64
660,412	963,4
660,604	858,95
660,796	508,75
660,988	545,61
661,18	441,17
661,372	457,55
661,563	248,66
661,755	205,65
661,947	158,55
662,139	109,4
662,331	238,42
662,522	254,8
662,714	183,12
662,906	101,2
663,097	160,59
663,289	86,87
663,481	43,86
663,673	203,6
663,864	162,64
664,056	154,45
664,247	47,96
664,439	154,45
664,631	119,64
664,822	138,07
665,014	105,3
665,205	121,68
665,397	35,67
665,588	58,2
665,78	174,93
665,971	80,72
666,163	95,06
666,354	164,69
666,546	0,85
666,737	107,35
666,929	127,83
667,12	47,96
667,311	105,3
667,503	99,16
667,694	183,12
667,885	70,48
668,077	138,07
668,268	11,09
668,459	-38,06
668,651	111,44
668,842	115,54
669,033	-33,96
669,224	-13,48
669,416	240,47
669,607	15,19
669,798	-11,43
669,989	172,88
670,18	9,05
670,371	76,63
670,563	-60,59
670,754	154,45
670,945	111,44
671,136	181,07
671,327	82,77
671,518	142,16
671,709	217,94
671,9	111,44
672,091	156,5
672,282	80,72
672,473	72,53
672,664	15,19
672,855	105,3
673,046	123,73
673,237	187,22
673,428	41,81
673,619	191,31
673,809	13,14
674	105,3
674,191	90,96
674,382	74,58
674,573	19,29
674,764	35,67
674,954	133,97
675,145	-33,96
675,336	121,68
675,527	74,58
675,717	-38,06
675,908	64,34
676,099	47,96
676,289	148,31
676,48	-68,78
676,671	99,16
676,861	25,43
677,052	80,72
677,243	39,76
677,433	11,09
677,624	76,63
677,814	172,88
678,005	50
678,195	162,64
678,386	-11,43
678,576	90,96
678,767	43,86
678,957	70,48
679,148	64,34
679,338	154,45
679,529	105,3
679,719	-5,29
679,909	119,64
680,1	80,72
680,29	154,45
680,481	-113,83
680,671	90,96
680,861	39,76
681,052	115,54
681,242	0,85
681,432	95,06
681,622	54,1
681,813	17,24
682,003	90,96
682,193	54,1
682,383	70,48
682,573	-1,19
682,764	54,1
682,954	31,57
683,144	80,72
683,334	-72,87
683,524	29,52
683,714	123,73
683,904	76,63
684,094	35,67
684,284	21,33
684,474	144,21
684,664	164,69
684,854	115,54
685,044	-13,48
685,234	70,48
685,424	219,99
685,614	7
685,804	136,02
685,994	97,11
686,184	-23,72
686,374	115,54
686,564	56,15
686,753	52,05
686,943	-56,49
687,133	-44,2
687,323	97,11
687,513	93,01
687,702	66,39
687,892	66,39
688,082	80,72
688,272	41,81
688,461	84,82
688,651	211,79
688,841	109,4
689,03	-25,77
689,22	-13,48
689,41	74,58
689,599	121,68
689,789	-31,91
689,979	115,54
690,168	0,85
690,358	121,68
690,547	52,05
690,737	82,77
690,926	37,72
691,116	72,53
691,305	41,81
691,495	105,3
691,684	39,76
691,874	-31,91
692,063	119,64
692,252	90,96
692,442	113,49
692,631	-13,48
692,82	21,33
693,01	99,16
693,199	31,57
693,388	154,45
693,578	109,4
693,767	105,3
693,956	131,92
694,146	68,44
694,335	47,96
694,524	-9,39
694,713	54,1
694,902	19,29
695,092	29,52
695,281	86,87
695,47	-29,87
695,659	99,16
695,848	-7,34
696,037	-15,53
696,226	101,2
696,415	-19,63
696,604	170,83
696,793	84,82
696,982	50
697,171	213,84
697,36	15,19
697,549	43,86
697,738	-113,83
697,927	29,52
698,116	-56,49
698,305	27,48
698,494	103,25
698,683	103,25
698,872	209,75
699,061	9,05
699,25	119,64
699,438	43,86
699,627	29,52
699,816	152,4
700,005	-1,19
700,193	4,95
700,382	121,68
700,571	82,77
700,76	115,54
700,948	64,34
701,137	144,21
701,326	129,88
701,514	-5,29
701,703	138,07
701,892	88,92
702,08	232,27
702,269	27,48
702,457	-13,48
702,646	66,39
702,834	-25,77
703,023	129,88
703,212	45,91
703,4	29,52
703,589	-91,31
703,777	-19,63
703,965	-3,24
704,154	-13,48
704,342	-58,54
704,531	15,19
704,719	2,9
704,907	115,54
705,096	-13,48
705,284	-11,43
705,472	121,68
705,661	103,25
705,849	31,57
706,037	160,59
706,226	80,72
706,414	15,19
706,602	-29,87
706,79	23,38
706,979	-9,39
707,167	17,24
707,355	-50,35
707,543	93,01
707,731	64,34
707,919	15,19
708,107	-7,34
708,296	-17,58
708,484	35,67
708,672	45,91
708,86	64,34
709,048	13,14
709,236	15,19
709,424	15,19
709,612	90,96
709,8	-44,2
709,988	35,67
710,176	127,83
710,364	136,02
710,551	60,24
710,739	-11,43
710,927	-11,43
711,115	-9,39
711,303	31,57
711,491	224,08
711,679	-9,39
711,866	170,83
712,054	-13,48
712,242	84,82
712,43	62,29
712,617	9,05
712,805	144,21
712,993	-23,72
713,181	-58,54
713,368	52,05
713,556	52,05
713,744	-9,39
713,931	260,95
714,119	60,24
714,306	25,43
714,494	-11,43
714,682	-54,44
714,869	-48,3
715,057	54,1
715,244	-11,43
715,432	23,38
715,619	27,48
715,807	9,05
715,994	-11,43
716,182	35,67
716,369	103,25
716,556	105,3
716,744	-162,98
716,931	-122,02
717,119	93,01
717,306	43,86
717,493	113,49
717,681	-33,96
717,868	2,9
718,055	86,87
718,242	-33,96
718,43	80,72
718,617	84,82
718,804	45,91
718,991	72,53
719,179	99,16
719,366	39,76
719,553	66,39
719,74	4,95
719,927	43,86
720,114	95,06
720,301	13,14
720,488	11,09
720,676	-105,64
720,863	131,92
721,05	166,74
721,237	39,76
721,424	60,24
721,611	15,19
721,798	-1,19
721,985	-19,63
722,172	-66,73
722,358	-48,3
722,545	74,58
722,732	88,92
722,919	119,64
723,106	35,67
723,293	-3,24
723,48	93,01
723,667	-17,58
723,853	78,68
724,04	15,19
724,227	113,49
724,414	41,81
724,6	107,35
724,787	129,88
724,974	191,31
725,161	11,09
725,347	-3,24
725,534	62,29
725,72	82,77
725,907	66,39
726,094	144,21
726,28	2,9
726,467	50
726,653	31,57
726,84	174,93
727,027	146,26
727,213	80,72
727,4	90,96
727,586	129,88
727,773	21,33
727,959	90,96
728,145	148,31
728,332	-3,24
728,518	29,52
728,705	47,96
728,891	47,96
729,077	72,53
729,264	-40,11
729,45	41,81
729,636	160,59
729,823	125,78
730,009	125,78
730,195	39,76
730,382	125,78
730,568	-42,15
730,754	121,68
730,94	-44,2
731,126	50
731,313	93,01
731,499	64,34
731,685	187,22
731,871	33,62
732,057	2,9
732,243	150,36
732,429	70,48
732,615	183,12
732,801	113,49
732,987	23,38
733,173	90,96
733,359	-25,77
733,545	50
733,731	2,9
733,917	164,69
734,103	78,68
734,289	56,15
734,475	-72,87
734,661	197,46
734,847	21,33
735,033	17,24
735,219	4,95
735,404	7
735,59	78,68
735,776	-40,11
735,962	66,39
736,148	84,82
736,333	203,6
736,519	56,15
736,705	-11,43
736,89	-17,58
737,076	23,38
737,262	37,72
737,447	-25,77
737,633	43,86
737,819	119,64
738,004	52,05
738,19	-11,43
738,375	39,76
738,561	172,88
738,747	47,96
738,932	7
739,118	146,26
739,303	127,83
739,489	31,57
739,674	-7,34
739,859	-5,29
740,045	170,83
740,23	31,57
740,416	-136,36
740,601	4,95
740,786	35,67
740,972	-33,96
741,157	11,09
741,342	9,05
741,528	-33,96
741,713	131,92
741,898	-1,19
742,084	117,59
742,269	-17,58
742,454	133,97
742,639	121,68
742,824	74,58
743,01	162,64
743,195	232,27
743,38	84,82
743,565	41,81
743,75	41,81
743,935	70,48
744,12	107,35
744,305	-40,11
744,49	47,96
744,675	84,82
744,86	-11,43
745,045	88,92
745,23	111,44
745,415	52,05
745,6	129,88
745,785	2,9
745,97	164,69
746,155	99,16
746,34	136,02
746,525	82,77
746,71	123,73
746,895	-101,55
747,079	-42,15
747,264	43,86
747,449	152,4
747,634	107,35
747,819	50
748,003	70,48
748,188	15,19
748,373	31,57
748,557	115,54
748,742	25,43
748,927	19,29
749,111	78,68
749,296	15,19
749,481	129,88
749,665	97,11
749,85	-9,39
750,034	101,2
750,219	88,92
750,404	-19,63
750,588	54,1
750,773	-27,82
750,957	80,72
751,141	52,05
751,326	111,44
751,51	31,57
751,695	0,85
751,879	-38,06
752,064	211,79
752,248	133,97
752,432	162,64
752,617	78,68
752,801	156,5
752,985	-46,25
753,17	119,64
753,354	19,29
753,538	39,76
753,722	72,53
753,907	-33,96
754,091	-7,34
754,275	154,45
754,459	-46,25
754,643	-38,06
754,828	37,72
755,012	76,63
755,196	-68,78
755,38	4,95
755,564	72,53
755,748	80,72
755,932	133,97
756,116	62,29
756,3	97,11
756,484	19,29
756,668	170,83
756,852	-87,21
757,036	35,67
757,22	-9,39
757,404	-5,29
757,588	-48,3
757,772	113,49
757,956	23,38
758,14	244,56
758,323	-27,82
758,507	80,72
758,691	-1,19
758,875	113,49
759,059	119,64
759,242	31,57
759,426	58,2
759,61	105,3
759,794	64,34
759,977	115,54
760,161	301,9
760,345	156,5
760,528	162,64
760,712	129,88
760,895	154,45
761,079	-5,29
761,263	-38,06
761,446	33,62
761,63	33,62
761,813	170,83
761,997	39,76
762,18	-33,96
762,364	97,11
762,547	-27,82
762,731	15,19
762,914	45,91
763,098	11,09
763,281	-9,39
763,464	2,9
763,648	-38,06
763,831	0,85
764,015	56,15
764,198	129,88
764,381	-19,63
764,564	-58,54
764,748	78,68
764,931	90,96
765,114	21,33
765,297	105,3
765,481	25,43
765,664	4,95
765,847	99,16
766,03	93,01
766,213	-13,48
766,397	45,91
766,58	-66,73
766,763	93,01
766,946	45,91
767,129	23,38
767,312	-29,87
767,495	11,09
767,678	35,67
767,861	-17,58
768,044	-11,43
768,227	-9,39
768,41	9,05
768,593	27,48
768,776	66,39
768,959	68,44
769,142	97,11
769,324	27,48
769,507	-33,96
769,69	-9,39
769,873	23,38
770,056	265,04
770,239	52,05
770,421	84,82
770,604	7
770,787	33,62
770,97	72,53
771,152	2,9
771,335	121,68
771,518	2,9
771,7	131,92
771,883	176,98
772,066	17,24
772,248	47,96
772,431	170,83
772,613	176,98
772,796	23,38
772,978	56,15
773,161	88,92
773,343	39,76
773,526	39,76
773,708	31,57
773,891	-58,54
774,073	58,2
774,256	-13,48
774,438	113,49
774,621	43,86
774,803	113,49
774,985	-46,25
775,168	97,11
775,35	-9,39
775,532	152,4
775,715	-1,19
775,897	144,21
776,079	47,96
776,261	146,26
776,444	334,67
776,626	500,56
776,808	641,87
776,99	791,37
777,173	838,47
777,355	1000,26
777,537	1049,41
777,719	973,64
777,901	922,44
778,083	688,97
778,265	682,83
778,447	703,31
778,629	420,69
778,811	516,94
778,993	467,79
779,175	392,02
779,357	392,02
779,539	209,75
779,721	238,42
779,903	295,76
780,085	154,45
780,267	172,88
780,449	66,39
780,631	148,31
780,812	162,64
780,994	129,88
781,176	64,34
781,358	19,29
781,54	21,33
781,721	109,4
781,903	90,96
782,085	-11,43
782,267	127,83
782,448	-83,11
782,63	0,85
782,812	15,19
782,993	133,97
783,175	54,1
783,357	35,67
783,538	68,44
783,72	-7,34
783,901	-19,63
784,083	148,31
784,264	78,68
784,446	-33,96
784,627	-93,35
784,809	2,9
784,99	-74,92
785,172	74,58
785,353	45,91
785,535	11,09
785,716	-31,91
785,897	-1,19
786,079	45,91
786,26	45,91
786,441	105,3
786,623	-107,69
786,804	-33,96
786,985	74,58
787,167	103,25
787,348	33,62
787,529	82,77
787,71	162,64
787,891	17,24
788,073	-58,54
788,254	-38,06
788,435	150,36
788,616	29,52
788,797	-17,58
788,978	-40,11
789,159	62,29
789,34	45,91
789,522	7
789,703	7
789,884	117,59
790,065	121,68
790,246	156,5
790,427	-13,48
790,607	111,44
790,788	205,65
790,969	19,29
791,15	86,87
791,331	-38,06
791,512	37,72
791,693	-48,3
791,874	-42,15
792,054	277,33
792,235	86,87
792,416	-33,96
792,597	23,38
792,778	15,19
792,958	121,68
793,139	31,57
793,32	90,96
793,5	-19,63
793,681	82,77
793,862	58,2
794,042	15,19
794,223	-105,64
794,404	-1,19
794,584	-83,11
794,765	-1,19
794,945	-9,39
795,126	78,68
795,306	117,59
795,487	-29,87
795,667	43,86
795,848	117,59
796,028	-25,77
796,209	121,68
796,389	74,58
796,57	43,86
796,75	19,29
796,93	50
797,111	-25,77
797,291	60,24
797,471	54,1
797,652	-17,58
797,832	-83,11
798,012	93,01
798,192	-23,72
798,373	-13,48
798,553	9,05
798,733	82,77
798,913	-50,35
799,093	11,09
799,274	21,33
799,454	142,16
799,634	50
799,814	54,1
799,994	80,72
800,174	105,3
800,354	82,77
800,534	-152,74
800,714	25,43
800,894	-74,92
801,074	-91,31
801,254	7
801,434	113,49
801,614	21,33
801,794	-89,26
801,974	1940,28
802,154	7
802,334	107,35
802,514	-46,25
802,693	-7,34
802,873	9,05
803,053	150,36
803,233	60,24
803,413	-3,24
803,592	4,95
803,772	-5,29
803,952	-29,87
804,131	-36,01
804,311	74,58
804,491	86,87
804,67	31,57
804,85	-5,29
805,03	80,72
805,209	138,07
805,389	7
805,568	-1,19
805,748	25,43
805,928	19,29
806,107	154,45
806,287	39,76
806,466	105,3
806,646	27,48
806,825	-40,11
807,004	-60,59
807,184	-7,34
807,363	76,63
807,543	50
807,722	-58,54
807,901	140,12
808,081	58,2
808,26	-115,88
808,439	33,62
808,619	39,76
808,798	62,29
808,977	25,43
809,156	148,31
809,336	103,25
809,515	127,83
809,694	-15,53
809,873	-27,82
810,052	113,49
810,231	142,16
810,411	50
810,59	90,96
810,769	39,76
810,948	68,44
811,127	-54,44
811,306	-66,73
811,485	39,76
811,664	213,84
811,843	-7,34
812,022	90,96
812,201	25,43
812,38	-56,49
812,559	66,39
812,737	56,15
812,916	-9,39
813,095	-52,39
813,274	31,57
813,453	17,24
813,632	7
813,811	97,11
813,989	-44,2
814,168	70,48
814,347	-31,91
814,526	50
814,704	93,01
814,883	117,59
815,062	-50,35
815,24	33,62
815,419	-58,54
815,598	88,92
815,776	-40,11
815,955	-13,48
816,133	-103,59
816,312	95,06
816,49	-48,3
816,669	76,63
816,847	43,86
817,026	52,05
817,204	-5,29
817,383	-21,67
817,561	-79,02
817,74	11,09
817,918	82,77
818,097	-56,49
818,275	-5,29
818,453	27,48
818,632	80,72
818,81	-48,3
818,988	-19,63
819,167	-64,68
819,345	7
819,523	-17,58
819,701	13,14
819,879	97,11
820,058	35,67
820,236	-9,39
820,414	-13,48
820,592	-40,11
820,77	-1,19
820,948	-64,68
821,127	-85,16
821,305	-5,29
821,483	-13,48
821,661	88,92
821,839	156,5
822,017	-56,49
822,195	7
822,373	90,96
822,551	2,9
822,729	113,49
822,907	-23,72
823,085	97,11
823,262	-9,39
823,44	-5,29
823,618	15,19
823,796	11,09
823,974	-29,87
824,152	-40,11
824,329	-38,06
824,507	-58,54
824,685	45,91
824,863	-17,58
825,04	7
825,218	70,48
825,396	37,72
825,574	35,67
825,751	-1,19
825,929	13,14
826,107	-60,59
826,284	-31,91
826,462	29,52
826,639	-13,48
826,817	-44,2
826,994	56,15
827,172	-70,83
827,349	66,39
827,527	60,24
827,704	72,53
827,882	129,88
828,059	-15,53
828,237	-40,11
828,414	95,06
828,591	-140,46
828,769	78,68
828,946	-62,63
829,124	52,05
829,301	152,4
829,478	-48,3
829,655	-31,91
829,833	11,09
830,01	-83,11
830,187	37,72
830,364	37,72
830,542	70,48
830,719	127,83
830,896	47,96
831,073	39,76
831,25	131,92
831,427	142,16
831,604	-7,34
831,782	31,57
831,959	17,24
832,136	-66,73
832,313	90,96
832,49	35,67
832,667	9,05
832,844	-50,35
833,021	58,2
833,198	43,86
833,374	11,09
833,551	7
833,728	-31,91
833,905	76,63
834,082	-109,74
834,259	-5,29
834,436	115,54
834,612	31,57
834,789	95,06
834,966	-42,15
835,143	54,1
835,319	-40,11
835,496	45,91
835,673	97,11
835,85	111,44
836,026	70,48
836,203	195,41
836,38	-29,87
836,556	52,05
836,733	-13,48
836,909	47,96
837,086	88,92
837,262	-60,59
837,439	50
837,616	-21,67
837,792	4,95
837,968	25,43
838,145	0,85
838,321	41,81
838,498	95,06
838,674	80,72
838,851	25,43
839,027	-7,34
839,203	-13,48
839,38	113,49
839,556	-29,87
839,732	62,29
839,909	-11,43
840,085	-58,54
840,261	-13,48
840,437	52,05
840,614	-19,63
840,79	93,01
840,966	-9,39
841,142	31,57
841,318	-50,35
841,494	103,25
841,671	136,02
841,847	-15,53
842,023	4,95
842,199	88,92
842,375	160,59
842,551	-115,88
842,727	-74,92
842,903	170,83
843,079	4,95
843,255	152,4
843,431	35,67
843,607	97,11
843,783	-76,97
843,959	191,31
844,134	185,17
844,31	365,39
844,486	314,19
844,662	308,05
844,838	392,02
845,013	287,57
845,189	289,62
845,365	232,27
845,541	183,12
845,716	213,84
845,892	232,27
846,068	47,96
846,244	41,81
846,419	97,11
846,595	62,29
846,77	58,2
846,946	160,59
847,122	97,11
847,297	90,96
847,473	211,79
847,648	-79,02
847,824	-29,87
847,999	-119,98
848,175	68,44
848,35	84,82
848,526	99,16
848,701	43,86
848,876	80,72
849,052	74,58
849,227	47,96
849,403	47,96
849,578	31,57
849,753	15,19
849,929	23,38
850,104	-95,4
850,279	4,95
850,454	60,24
850,63	76,63
850,805	-31,91
850,98	35,67
851,155	-76,97
851,33	50
851,505	-119,98
851,681	82,77
851,856	-17,58
852,031	90,96
852,206	-54,44
852,381	-54,44
852,556	-9,39
852,731	29,52
852,906	107,35
853,081	15,19
853,256	129,88
853,431	39,76
853,606	72,53
853,781	-25,77
853,956	-122,02
854,131	50
854,305	-23,72
854,48	-1,19
854,655	-36,01
854,83	-15,53
855,005	7
855,18	4,95
855,354	-68,78
855,529	7
855,704	-66,73
855,879	43,86
856,053	-42,15
856,228	97,11
856,403	-87,21
856,577	74,58
856,752	17,24
856,926	15,19
857,101	56,15
857,276	-64,68
857,45	-1,19
857,625	111,44
857,799	25,43
857,974	0,85
858,148	-171,18
858,323	56,15
858,497	7
858,672	-42,15
858,846	-3,24
859,02	41,81
859,195	-3,24
859,369	7
859,543	52,05
859,718	56,15
859,892	68,44
860,066	58,2
860,241	-66,73
860,415	-19,63
860,589	-103,59
860,763	13,14
860,938	78,68
861,112	50
861,286	-11,43
861,46	62,29
861,634	-7,34
861,808	101,2
861,982	-56,49
862,157	-74,92
862,331	7
862,505	-58,54
862,679	35,67
862,853	-5,29
863,027	29,52
863,201	166,74
863,375	33,62
863,549	64,34
863,722	90,96
863,896	168,79
864,07	-89,26
864,244	31,57
864,418	0,85
864,592	29,52
864,766	47,96
864,939	47,96
865,113	-91,31
865,287	84,82
865,461	-83,11
865,634	11,09
865,808	0,85
865,982	17,24
866,156	11,09
866,329	-23,72
866,503	7
866,676	43,86
866,85	64,34
867,024	-27,82
867,197	56,15
867,371	86,87
867,544	31,57
867,718	-40,11
867,891	70,48
868,065	-91,31
868,238	11,09
868,412	146,26
868,585	-21,67
868,759	-58,54
868,932	-46,25
869,105	-113,83
869,279	-42,15
869,452	-109,74
869,625	27,48
869,799	-15,53
869,972	-105,64
870,145	-99,5
870,319	78,68
870,492	-60,59
870,665	-5,29
870,838	-87,21
871,011	-36,01
871,185	-42,15
871,358	-21,67
871,531	76,63
871,704	4,95
871,877	-1,19
872,05	-15,53
872,223	21,33
872,396	76,63
872,569	27,48
872,742	-31,91
872,915	86,87
873,088	72,53
873,261	-50,35
873,434	78,68
873,607	-48,3
873,78	50
873,953	-56,49
874,126	-15,53
874,299	64,34
874,471	-15,53
874,644	17,24
874,817	21,33
874,99	174,93
875,163	11,09
875,335	15,19
875,508	-60,59
875,681	82,77
875,853	-31,91
876,026	-1,19
876,199	70,48
876,371	93,01
876,544	33,62
876,717	82,77
876,889	-66,73
877,062	62,29
877,234	-44,2
877,407	-44,2
877,579	-17,58
877,752	35,67
877,924	78,68
878,097	72,53
878,269	-17,58
878,442	11,09
878,614	2,9
878,786	31,57
878,959	33,62
879,131	25,43
879,303	-33,96
879,476	80,72
879,648	129,88
879,82	72,53
879,993	-5,29
880,165	33,62
880,337	-46,25
880,509	25,43
880,681	-46,25
880,854	-44,2
881,026	47,96
881,198	123,73
881,37	58,2
881,542	7
881,714	-31,91
881,886	-50,35
882,058	9,05
882,23	31,57
882,402	15,19
882,574	-1,19
882,746	72,53
882,918	138,07
883,09	72,53
883,262	9,05
883,434	93,01
883,606	-23,72
883,778	64,34
883,95	86,87
884,122	-48,3
884,293	156,5
884,465	56,15
884,637	72,53
884,809	15,19
884,98	7
885,152	31,57
885,324	45,91
885,496	0,85
885,667	-27,82
885,839	-17,58
886,011	113,49
886,182	68,44
886,354	29,52
886,525	64,34
886,697	-33,96
886,869	-25,77
887,04	2,9
887,212	107,35
887,383	199,51
887,555	31,57
887,726	-17,58
887,897	0,85
888,069	9,05
888,24	131,92
888,412	-7,34
888,583	-33,96
888,754	-1,19
888,926	-101,55
889,097	-74,92
889,268	-95,4
889,44	58,2
889,611	-99,5
889,782	-46,25
889,953	-25,77
890,125	129,88
890,296	13,14
890,467	-40,11
890,638	-23,72
890,809	-7,34
890,98	-44,2
891,151	54,1
891,323	113,49
891,494	-115,88
891,665	17,24
891,836	-23,72
892,007	-19,63
892,178	97,11
892,349	31,57
892,52	2,9
892,691	31,57
892,862	11,09
893,032	4,95
893,203	0,85
893,374	39,76
893,545	95,06
893,716	35,67
893,887	90,96
894,057	-62,63
894,228	4,95
894,399	-52,39
894,57	162,64
894,74	66,39
894,911	45,91
895,082	7
895,253	-72,87
895,423	113,49
895,594	-3,24
895,764	90,96
895,935	-138,41
896,106	68,44
896,276	-74,92
896,447	11,09
896,617	4,95
896,788	-79,02
896,958	-1,19
897,129	-72,87
897,299	-1,19
897,47	58,2
897,64	90,96
897,81	78,68
897,981	-1,19
898,151	2,9
898,322	50
898,492	-9,39
898,662	-52,39
898,832	-15,53
899,003	-3,24
899,173	109,4
899,343	-68,78
899,513	-56,49
