Data from deuterium_USB4F104151__19__10-57-07-547.txt Node

Date: Wed Apr 15 10:57:07 EDT 2026
User: LaboPhy
Spectrometer: USB4F10415
Trigger mode: 4
Integration Time (sec): 1,000000E-1
Scans to average: 1
Electric dark correction enabled: true
Nonlinearity correction enabled: false
Boxcar width: 0
XAxis mode: Wavelengths
Number of Pixels in Spectrum: 3648
>>>>>Begin Spectral Data<<<<<
178,204	-525,65
178,424	-525,65
178,644	-525,65
178,864	-494,93
179,084	-484,69
179,304	-11,61
179,524	12,97
179,744	-25,94
179,964	17,07
180,184	37,55
180,404	47,79
180,624	-27,99
180,844	-19,8
181,064	-93,52
181,283	58,03
181,503	-62,8
181,723	68,27
181,943	-124,24
182,163	160,42
182,383	-11,61
182,602	39,59
182,822	68,27
183,042	15,02
183,262	-62,8
183,482	-34,13
183,701	-36,18
183,921	70,31
184,141	-34,13
184,361	21,16
184,58	10,92
184,8	49,83
185,02	-17,75
185,239	82,6
185,459	-54,61
185,679	107,18
185,898	-32,08
186,118	15,02
186,338	62,12
186,557	133,8
186,777	-56,66
186,997	-21,84
187,216	-9,56
187,436	205,48
187,655	84,65
187,875	80,55
188,095	29,35
188,314	144,04
188,534	141,99
188,753	-48,47
188,973	172,71
189,192	109,23
189,412	21,16
189,631	-52,56
189,851	64,17
190,07	133,8
190,29	-66,9
190,509	-60,76
190,729	-5,46
190,948	191,14
191,168	207,53
191,387	80,55
191,607	70,31
191,826	-11,61
192,045	21,16
192,265	-3,41
192,484	43,69
192,704	47,79
192,923	-107,86
193,142	156,33
193,362	64,17
193,581	64,17
193,8	4,78
194,02	109,23
194,239	53,93
194,458	94,89
194,678	-5,46
194,897	0,68
195,116	15,02
195,335	76,46
195,555	78,51
195,774	10,92
195,993	82,6
196,212	23,21
196,432	21,16
196,651	-50,52
196,87	-7,51
197,089	246,44
197,308	84,65
197,528	55,98
197,747	-52,56
197,966	-36,18
198,185	58,03
198,404	-48,47
198,623	125,61
198,842	127,66
199,062	39,59
199,281	117,42
199,5	-7,51
199,719	29,35
199,938	31,4
200,157	33,45
200,376	25,26
200,595	125,61
200,814	33,45
201,033	-32,08
201,252	185
201,471	-48,47
201,69	15,02
201,909	-1,37
202,128	88,75
202,347	185
202,566	2,73
202,785	-42,32
203,004	-54,61
203,223	289,45
203,442	15,02
203,661	-17,75
203,879	90,79
204,098	113,32
204,317	-21,84
204,536	82,6
204,755	92,84
204,974	43,69
205,193	-32,08
205,411	90,79
205,63	86,7
205,849	-17,75
206,068	-58,71
206,287	-11,61
206,505	133,8
206,724	21,16
206,943	-66,9
207,162	-56,66
207,381	45,74
207,599	-25,94
207,818	-34,13
208,037	-93,52
208,255	12,97
208,474	-38,23
208,693	27,31
208,911	-25,94
209,13	109,23
209,349	41,64
209,567	49,83
209,786	41,64
210,005	101,03
210,223	60,07
210,442	-81,24
210,661	0,68
210,879	39,59
211,098	31,4
211,316	-9,56
211,535	80,55
211,753	-64,85
211,972	-21,84
212,191	-52,56
212,409	6,83
212,628	121,51
212,846	-107,86
213,065	25,26
213,283	53,93
213,502	-3,41
213,72	45,74
213,938	-50,52
214,157	-66,9
214,375	111,27
214,594	-101,72
214,812	45,74
215,031	-34,13
215,249	53,93
215,467	4,78
215,686	68,27
215,904	-1,37
216,122	62,12
216,341	105,13
216,559	53,93
216,778	101,03
216,996	189,1
217,214	10,92
217,432	-56,66
217,651	-109,91
217,869	76,46
218,087	58,03
218,306	-38,23
218,524	-30,04
218,742	31,4
218,96	80,55
219,179	103,08
219,397	-66,9
219,615	262,82
219,833	158,38
220,051	-109,91
220,27	31,4
220,488	10,92
220,706	35,5
220,924	-91,48
221,142	-30,04
221,36	6,83
221,578	80,55
221,796	39,59
222,015	-7,51
222,233	-25,94
222,451	58,03
222,669	-27,99
222,887	82,6
223,105	-56,66
223,323	-11,61
223,541	-50,52
223,759	119,46
223,977	12,97
224,195	166,57
224,413	86,7
224,631	8,87
224,849	68,27
225,067	254,63
225,285	-52,56
225,503	-23,89
225,721	-87,38
225,939	21,16
226,157	8,87
226,375	113,32
226,592	37,55
226,81	23,21
227,028	152,23
227,246	53,93
227,464	111,27
227,682	84,65
227,9	70,31
228,117	-3,41
228,335	31,4
228,553	43,69
228,771	39,59
228,989	29,35
229,206	68,27
229,424	17,07
229,642	8,87
229,86	-89,43
230,077	107,18
230,295	25,26
230,513	76,46
230,731	-21,84
230,948	213,67
231,166	113,32
231,384	19,11
231,601	-93,52
231,819	213,67
232,037	-1,37
232,254	-54,61
232,472	-3,41
232,689	-109,91
232,907	127,66
233,125	-32,08
233,342	-52,56
233,56	-62,8
233,777	37,55
233,995	-1,37
234,213	31,4
234,43	53,93
234,648	-68,95
234,865	-42,32
235,083	-3,41
235,3	82,6
235,518	66,22
235,735	152,23
235,953	53,93
236,17	-75,09
236,388	-11,61
236,605	4,78
236,822	94,89
237,04	144,04
237,257	33,45
237,475	-91,48
237,692	68,27
237,909	80,55
238,127	-19,8
238,344	58,03
238,562	55,98
238,779	-103,76
238,996	-79,19
239,214	-68,95
239,431	82,6
239,648	-118,1
239,865	58,03
240,083	62,12
240,3	-109,91
240,517	-52,56
240,735	0,68
240,952	82,6
241,169	25,26
241,386	39,59
241,603	-48,47
241,821	-91,48
242,038	107,18
242,255	74,41
242,472	-89,43
242,689	98,99
242,907	64,17
243,124	82,6
243,341	35,5
243,558	-118,1
243,775	-161,11
243,992	-165,2
244,209	53,93
244,426	135,85
244,643	88,75
244,86	-58,71
245,078	101,03
245,295	45,74
245,512	-54,61
245,729	-19,8
245,946	8,87
246,163	10,92
246,38	-15,7
246,597	6,83
246,814	70,31
247,031	0,68
247,248	6,83
247,464	53,93
247,681	17,07
247,898	94,89
248,115	-17,75
248,332	-17,75
248,549	103,08
248,766	148,14
248,983	47,79
249,2	92,84
249,417	58,03
249,633	-32,08
249,85	62,12
250,067	-42,32
250,284	55,98
250,501	127,66
250,717	-1,37
250,934	-64,85
251,151	15,02
251,368	-62,8
251,585	-25,94
251,801	-27,99
252,018	-64,85
252,235	156,33
252,451	-109,91
252,668	-3,41
252,885	129,7
253,102	103,08
253,318	-73,04
253,535	-62,8
253,752	-9,56
253,968	-9,56
254,185	-23,89
254,401	47,79
254,618	62,12
254,835	31,4
255,051	49,83
255,268	70,31
255,484	131,75
255,701	-15,7
255,917	21,16
256,134	-27,99
256,351	-25,94
256,567	-50,52
256,784	98,99
257	-167,25
257,217	45,74
257,433	49,83
257,65	62,12
257,866	45,74
258,082	-109,91
258,299	-87,38
258,515	-23,89
258,732	35,5
258,948	-85,33
259,165	41,64
259,381	-42,32
259,597	62,12
259,814	-19,8
260,03	25,26
260,246	-44,37
260,463	60,07
260,679	113,32
260,895	47,79
261,112	-17,75
261,328	-52,56
261,544	-75,09
261,761	94,89
261,977	-54,61
262,193	-71
262,409	39,59
262,626	2,73
262,842	-42,32
263,058	53,93
263,274	113,32
263,49	41,64
263,707	8,87
263,923	43,69
264,139	-56,66
264,355	39,59
264,571	64,17
264,787	25,26
265,004	113,32
265,22	27,31
265,436	-34,13
265,652	8,87
265,868	-17,75
266,084	-71
266,3	-83,28
266,516	-93,52
266,732	-7,51
266,948	19,11
267,164	-34,13
267,38	127,66
267,596	70,31
267,812	78,51
268,028	-40,28
268,244	10,92
268,46	10,92
268,676	-1,37
268,892	125,61
269,108	-3,41
269,324	-48,47
269,54	-7,51
269,756	62,12
269,972	-81,24
270,188	-81,24
270,403	-68,95
270,619	21,16
270,835	35,5
271,051	33,45
271,267	-52,56
271,483	-93,52
271,698	72,36
271,914	49,83
272,13	37,55
272,346	12,97
272,562	0,68
272,777	70,31
272,993	72,36
273,209	-34,13
273,425	88,75
273,64	-71
273,856	-3,41
274,072	-27,99
274,287	2,73
274,503	78,51
274,719	144,04
274,934	-124,24
275,15	-150,87
275,366	53,93
275,581	-34,13
275,797	-91,48
276,012	58,03
276,228	-42,32
276,444	-62,8
276,659	47,79
276,875	-58,71
277,09	2,73
277,306	-25,94
277,521	82,6
277,737	31,4
277,952	-23,89
278,168	53,93
278,383	-7,51
278,599	-9,56
278,814	-11,61
279,03	53,93
279,245	92,84
279,461	74,41
279,676	80,55
279,892	-130,39
280,107	-79,19
280,322	-30,04
280,538	6,83
280,753	-1,37
280,969	31,4
281,184	66,22
281,399	96,94
281,615	19,11
281,83	17,07
282,045	-109,91
282,26	-83,28
282,476	-15,7
282,691	41,64
282,906	33,45
283,122	8,87
283,337	-25,94
283,552	47,79
283,767	-99,67
283,983	144,04
284,198	15,02
284,413	123,56
284,628	-116,05
284,843	0,68
285,058	21,16
285,274	-48,47
285,489	-17,75
285,704	88,75
285,919	-77,14
286,134	4,78
286,349	-15,7
286,564	8,87
286,779	131,75
286,995	-5,46
287,21	-50,52
287,425	55,98
287,64	-38,23
287,855	-5,46
288,07	-114
288,285	111,27
288,5	72,36
288,715	43,69
288,93	-36,18
289,145	-17,75
289,36	47,79
289,575	-27,99
289,79	125,61
290,004	58,03
290,219	29,35
290,434	-91,48
290,649	-25,94
290,864	-27,99
291,079	8,87
291,294	41,64
291,509	49,83
291,724	12,97
291,938	-27,99
292,153	-27,99
292,368	-11,61
292,583	35,5
292,798	37,55
293,012	19,11
293,227	25,26
293,442	-62,8
293,657	41,64
293,871	78,51
294,086	94,89
294,301	197,29
294,516	111,27
294,73	0,68
294,945	-21,84
295,16	0,68
295,374	74,41
295,589	29,35
295,804	37,55
296,018	70,31
296,233	72,36
296,447	23,21
296,662	-34,13
296,877	74,41
297,091	37,55
297,306	21,16
297,52	27,31
297,735	41,64
297,949	43,69
298,164	21,16
298,378	47,79
298,593	25,26
298,807	-107,86
299,022	-75,09
299,236	228,01
299,451	8,87
299,665	-7,51
299,88	-52,56
300,094	66,22
300,309	15,02
300,523	68,27
300,737	12,97
300,952	58,03
301,166	70,31
301,381	15,02
301,595	-56,66
301,809	-3,41
302,024	-50,52
302,238	-56,66
302,452	82,6
302,667	15,02
302,881	141,99
303,095	-3,41
303,309	90,79
303,524	-38,23
303,738	17,07
303,952	-62,8
304,166	113,32
304,381	-157,01
304,595	107,18
304,809	-15,7
305,023	68,27
305,237	29,35
305,452	15,02
305,666	127,66
305,88	105,13
306,094	86,7
306,308	113,32
306,522	107,18
306,736	-25,94
306,95	35,5
307,164	23,21
307,379	-21,84
307,593	185
307,807	148,14
308,021	58,03
308,235	53,93
308,449	-66,9
308,663	-64,85
308,877	250,53
309,091	-58,71
309,305	55,98
309,519	-42,32
309,733	127,66
309,947	-54,61
310,161	66,22
310,374	137,9
310,588	66,22
310,802	-68,95
311,016	2,73
311,23	31,4
311,444	-68,95
311,658	47,79
311,872	107,18
312,085	41,64
312,299	119,46
312,513	135,85
312,727	41,64
312,941	-73,04
313,154	35,5
313,368	103,08
313,582	12,97
313,796	103,08
314,009	-21,84
314,223	119,46
314,437	86,7
314,651	88,75
314,864	23,21
315,078	-13,65
315,292	-11,61
315,505	-23,89
315,719	23,21
315,933	33,45
316,146	39,59
316,36	4,78
316,573	150,18
316,787	113,32
317,001	39,59
317,214	21,16
317,428	-17,75
317,641	-73,04
317,855	-40,28
318,068	64,17
318,282	8,87
318,495	133,8
318,709	31,4
318,922	47,79
319,136	152,23
319,349	123,56
319,563	-25,94
319,776	137,9
319,99	-91,48
320,203	105,13
320,417	58,03
320,63	92,84
320,843	119,46
321,057	98,99
321,27	37,55
321,483	47,79
321,697	121,51
321,91	94,89
322,124	105,13
322,337	27,31
322,55	4,78
322,763	4,78
322,977	-85,33
323,19	15,02
323,403	78,51
323,617	43,69
323,83	70,31
324,043	-15,7
324,256	74,41
324,469	15,02
324,683	82,6
324,896	33,45
325,109	21,16
325,322	-60,76
325,535	162,47
325,748	41,64
325,962	17,07
326,175	31,4
326,388	17,07
326,601	101,03
326,814	70,31
327,027	29,35
327,24	146,09
327,453	-48,47
327,666	15,02
327,879	117,42
328,092	31,4
328,305	43,69
328,518	33,45
328,731	15,02
328,944	94,89
329,157	31,4
329,37	23,21
329,583	115,37
329,796	127,66
330,009	-68,95
330,222	125,61
330,435	135,85
330,648	35,5
330,861	64,17
331,073	4,78
331,286	88,75
331,499	21,16
331,712	-68,95
331,925	37,55
332,138	58,03
332,35	113,32
332,563	-34,13
332,776	121,51
332,989	-66,9
333,202	-25,94
333,414	76,46
333,627	45,74
333,84	-1,37
334,053	62,12
334,265	47,79
334,478	-17,75
334,691	74,41
334,903	10,92
335,116	-3,41
335,329	90,79
335,541	12,97
335,754	250,53
335,966	31,4
336,179	96,94
336,392	64,17
336,604	51,88
336,817	115,37
337,029	66,22
337,242	-13,65
337,454	135,85
337,667	4,78
337,88	166,57
338,092	131,75
338,305	103,08
338,517	0,68
338,729	43,69
338,942	90,79
339,154	-99,67
339,367	-36,18
339,579	49,83
339,792	15,02
340,004	39,59
340,217	55,98
340,429	113,32
340,641	-79,19
340,854	-50,52
341,066	-7,51
341,278	47,79
341,491	219,82
341,703	90,79
341,915	17,07
342,128	76,46
342,34	80,55
342,552	-38,23
342,764	37,55
342,977	-21,84
343,189	25,26
343,401	62,12
343,613	-36,18
343,826	-21,84
344,038	-19,8
344,25	39,59
344,462	51,88
344,674	125,61
344,886	-13,65
345,099	6,83
345,311	80,55
345,523	-9,56
345,735	-81,24
345,947	55,98
346,159	115,37
346,371	98,99
346,583	60,07
346,795	197,29
347,007	64,17
347,219	92,84
347,431	-19,8
347,643	180,9
347,855	2,73
348,067	160,42
348,279	-83,28
348,491	62,12
348,703	117,42
348,915	-7,51
349,127	-25,94
349,339	66,22
349,551	12,97
349,763	113,32
349,975	21,16
350,187	64,17
350,399	64,17
350,61	103,08
350,822	-44,37
351,034	-44,37
351,246	105,13
351,458	62,12
351,669	94,89
351,881	123,56
352,093	174,76
352,305	162,47
352,517	107,18
352,728	105,13
352,94	4,78
353,152	152,23
353,363	-1,37
353,575	27,31
353,787	160,42
353,999	96,94
354,21	160,42
354,422	-25,94
354,633	-32,08
354,845	78,51
355,057	45,74
355,268	86,7
355,48	127,66
355,692	-87,38
355,903	47,79
356,115	47,79
356,326	0,68
356,538	141,99
356,749	109,23
356,961	158,38
357,172	80,55
357,384	72,36
357,595	262,82
357,807	37,55
358,018	-38,23
358,23	117,42
358,441	156,33
358,653	92,84
358,864	103,08
359,075	37,55
359,287	47,79
359,498	37,55
359,709	58,03
359,921	139,94
360,132	55,98
360,344	-9,56
360,555	-19,8
360,766	74,41
360,977	0,68
361,189	178,86
361,4	88,75
361,611	123,56
361,823	152,23
362,034	41,64
362,245	-81,24
362,456	47,79
362,667	21,16
362,879	6,83
363,09	45,74
363,301	103,08
363,512	70,31
363,723	66,22
363,935	29,35
364,146	185
364,357	43,69
364,568	47,79
364,779	-30,04
364,99	160,42
365,201	21,16
365,412	107,18
365,623	-89,43
365,834	55,98
366,045	86,7
366,256	64,17
366,467	223,91
366,678	86,7
366,889	119,46
367,1	49,83
367,311	53,93
367,522	-25,94
367,733	117,42
367,944	127,66
368,155	17,07
368,366	53,93
368,577	201,38
368,788	158,38
368,999	33,45
369,209	17,07
369,42	238,25
369,631	197,29
369,842	78,51
370,053	23,21
370,264	33,45
370,474	25,26
370,685	94,89
370,896	-23,89
371,107	197,29
371,317	39,59
371,528	25,26
371,739	92,84
371,95	123,56
372,16	139,94
372,371	-56,66
372,582	-25,94
372,792	103,08
373,003	78,51
373,214	125,61
373,424	115,37
373,635	35,5
373,846	152,23
374,056	92,84
374,267	88,75
374,477	148,14
374,688	-25,94
374,898	23,21
375,109	70,31
375,319	96,94
375,53	176,81
375,74	146,09
375,951	21,16
376,161	168,62
376,372	119,46
376,582	-101,72
376,793	21,16
377,003	23,21
377,214	-66,9
377,424	70,31
377,635	62,12
377,845	17,07
378,055	156,33
378,266	-103,76
378,476	94,89
378,686	47,79
378,897	17,07
379,107	103,08
379,317	33,45
379,528	53,93
379,738	135,85
379,948	47,79
380,158	160,42
380,369	74,41
380,579	80,55
380,789	80,55
380,999	170,66
381,21	101,03
381,42	187,05
381,63	25,26
381,84	154,28
382,05	111,27
382,261	121,51
382,471	144,04
382,681	-13,65
382,891	193,19
383,101	-5,46
383,311	-19,8
383,521	113,32
383,731	101,03
383,941	60,07
384,151	90,79
384,361	45,74
384,571	172,71
384,781	86,7
384,991	225,96
385,201	203,43
385,411	58,03
385,621	72,36
385,831	17,07
386,041	103,08
386,251	64,17
386,461	125,61
386,671	4,78
386,881	111,27
387,091	31,4
387,301	176,81
387,511	8,87
387,72	86,7
387,93	37,55
388,14	-60,76
388,35	64,17
388,56	168,62
388,769	137,9
388,979	62,12
389,189	37,55
389,399	49,83
389,609	199,34
389,818	123,56
390,028	19,11
390,238	127,66
390,447	78,51
390,657	103,08
390,867	111,27
391,076	-19,8
391,286	185
391,496	31,4
391,705	-13,65
391,915	123,56
392,125	49,83
392,334	29,35
392,544	176,81
392,753	78,51
392,963	12,97
393,172	37,55
393,382	31,4
393,591	209,58
393,801	4,78
394,01	160,42
394,22	119,46
394,429	-19,8
394,639	29,35
394,848	113,32
395,058	125,61
395,267	55,98
395,477	144,04
395,686	88,75
395,895	268,97
396,105	279,21
396,314	131,75
396,524	133,8
396,733	70,31
396,942	236,2
397,152	137,9
397,361	217,77
397,57	94,89
397,78	127,66
397,989	72,36
398,198	281,25
398,407	94,89
398,617	82,6
398,826	53,93
399,035	-58,71
399,244	92,84
399,453	131,75
399,663	35,5
399,872	-17,75
400,081	21,16
400,29	176,81
400,499	-27,99
400,708	123,56
400,917	31,4
401,127	-11,61
401,336	-9,56
401,545	221,86
401,754	113,32
401,963	135,85
402,172	53,93
402,381	-7,51
402,59	55,98
402,799	86,7
403,008	109,23
403,217	12,97
403,426	84,65
403,635	-36,18
403,844	-15,7
404,053	39,59
404,262	43,69
404,471	193,19
404,68	115,37
404,888	53,93
405,097	-9,56
405,306	49,83
405,515	84,65
405,724	17,07
405,933	96,94
406,142	127,66
406,35	33,45
406,559	6,83
406,768	41,64
406,977	144,04
407,185	105,13
407,394	160,42
407,603	12,97
407,812	17,07
408,02	178,86
408,229	64,17
408,438	146,09
408,646	15,02
408,855	187,05
409,064	209,58
409,272	148,14
409,481	201,38
409,69	252,58
409,898	166,57
410,107	285,35
410,315	289,45
410,524	225,96
410,733	203,43
410,941	195,24
411,15	279,21
411,358	164,52
411,567	191,14
411,775	115,37
411,984	119,46
412,192	88,75
412,401	31,4
412,609	168,62
412,818	113,32
413,026	78,51
413,234	25,26
413,443	43,69
413,651	33,45
413,86	113,32
414,068	98,99
414,276	139,94
414,485	-9,56
414,693	170,66
414,901	195,24
415,11	62,12
415,318	19,11
415,526	-54,61
415,734	105,13
415,943	141,99
416,151	144,04
416,359	62,12
416,567	31,4
416,776	51,88
416,984	78,51
417,192	148,14
417,4	29,35
417,608	-17,75
417,817	-107,86
418,025	158,38
418,233	150,18
418,441	12,97
418,649	45,74
418,857	80,55
419,065	180,9
419,273	-5,46
419,481	76,46
419,689	70,31
419,897	37,55
420,105	-44,37
420,313	119,46
420,521	141,99
420,729	168,62
420,937	-68,95
421,145	-124,24
421,353	139,94
421,561	82,6
421,769	-11,61
421,977	15,02
422,185	76,46
422,393	8,87
422,601	49,83
422,809	96,94
423,017	94,89
423,224	107,18
423,432	29,35
423,64	43,69
423,848	39,59
424,056	-15,7
424,263	66,22
424,471	29,35
424,679	174,76
424,887	-77,14
425,094	144,04
425,302	47,79
425,51	35,5
425,718	64,17
425,925	101,03
426,133	-32,08
426,341	215,72
426,548	-23,89
426,756	21,16
426,964	53,93
427,171	-9,56
427,379	121,51
427,586	60,07
427,794	58,03
428,001	41,64
428,209	86,7
428,417	123,56
428,624	88,75
428,832	43,69
429,039	25,26
429,247	64,17
429,454	39,59
429,662	111,27
429,869	60,07
430,076	39,59
430,284	88,75
430,491	127,66
430,699	70,31
430,906	86,7
431,114	121,51
431,321	68,27
431,528	15,02
431,736	103,08
431,943	168,62
432,15	322,21
432,358	303,78
432,565	625,31
432,772	279,21
432,979	649,89
433,187	621,22
433,394	789,15
433,601	858,78
433,808	961,18
434,016	1051,29
434,223	1012,38
434,43	965,28
434,637	805,53
434,844	670,37
435,052	629,41
435,259	459,43
435,466	350,89
435,673	283,3
435,88	279,21
436,087	197,29
436,294	209,58
436,501	152,23
436,708	107,18
436,915	23,21
437,122	101,03
437,329	-32,08
437,537	107,18
437,743	15,02
437,95	154,28
438,157	8,87
438,364	62,12
438,571	82,6
438,778	105,13
438,985	21,16
439,192	74,41
439,399	2,73
439,606	27,31
439,813	105,13
440,02	189,1
440,227	234,15
440,433	-3,41
440,64	-5,46
440,847	78,51
441,054	66,22
441,261	201,38
441,467	53,93
441,674	-44,37
441,881	105,13
442,088	31,4
442,294	70,31
442,501	103,08
442,708	94,89
442,914	21,16
443,121	66,22
443,328	103,08
443,534	45,74
443,741	19,11
443,948	-122,2
444,154	31,4
444,361	248,49
444,568	82,6
444,774	-32,08
444,981	6,83
445,187	164,52
445,394	-19,8
445,6	-40,28
445,807	25,26
446,013	111,27
446,22	-101,72
446,426	10,92
446,633	19,11
446,839	223,91
447,046	-23,89
447,252	121,51
447,459	0,68
447,665	82,6
447,871	66,22
448,078	170,66
448,284	-5,46
448,491	168,62
448,697	109,23
448,903	111,27
449,11	70,31
449,316	76,46
449,522	129,7
449,728	47,79
449,935	131,75
450,141	-50,52
450,347	133,8
450,553	72,36
450,76	0,68
450,966	47,79
451,172	64,17
451,378	70,31
451,584	68,27
451,791	180,9
451,997	119,46
452,203	-21,84
452,409	219,82
452,615	111,27
452,821	-58,71
453,027	64,17
453,233	205,48
453,44	62,12
453,646	37,55
453,852	58,03
454,058	-71
454,264	80,55
454,47	62,12
454,676	-5,46
454,882	39,59
455,088	94,89
455,294	47,79
455,5	64,17
455,705	60,07
455,911	27,31
456,117	21,16
456,323	62,12
456,529	80,55
456,735	17,07
456,941	-27,99
457,147	135,85
457,352	70,31
457,558	-73,04
457,764	103,08
457,97	-27,99
458,176	15,02
458,381	62,12
458,587	195,24
458,793	125,61
458,999	-58,71
459,204	-36,18
459,41	49,83
459,616	47,79
459,821	74,41
460,027	-120,15
460,233	90,79
460,438	156,33
460,644	-32,08
460,85	66,22
461,055	78,51
461,261	113,32
461,466	53,93
461,672	-7,51
461,878	35,5
462,083	129,7
462,289	-89,43
462,494	-48,47
462,7	121,51
462,905	31,4
463,111	43,69
463,316	107,18
463,522	178,86
463,727	-27,99
463,932	10,92
464,138	58,03
464,343	150,18
464,549	121,51
464,754	133,8
464,959	121,51
465,165	80,55
465,37	92,84
465,575	88,75
465,781	21,16
465,986	33,45
466,191	25,26
466,397	70,31
466,602	185
466,807	-3,41
467,012	121,51
467,218	113,32
467,423	84,65
467,628	103,08
467,833	-9,56
468,038	-11,61
468,244	-30,04
468,449	4,78
468,654	74,41
468,859	6,83
469,064	27,31
469,269	-1,37
469,474	62,12
469,679	127,66
469,885	70,31
470,09	0,68
470,295	70,31
470,5	4,78
470,705	96,94
470,91	121,51
471,115	107,18
471,32	82,6
471,525	193,19
471,73	172,71
471,935	55,98
472,139	-5,46
472,344	-15,7
472,549	45,74
472,754	166,57
472,959	37,55
473,164	92,84
473,369	105,13
473,574	211,62
473,778	31,4
473,983	107,18
474,188	92,84
474,393	21,16
474,598	101,03
474,802	45,74
475,007	-15,7
475,212	203,43
475,417	66,22
475,621	152,23
475,826	45,74
476,031	84,65
476,235	62,12
476,44	10,92
476,645	-3,41
476,849	66,22
477,054	-44,37
477,259	6,83
477,463	172,71
477,668	205,48
477,872	127,66
478,077	96,94
478,282	-46,42
478,486	-27,99
478,691	8,87
478,895	-9,56
479,1	135,85
479,304	203,43
479,509	45,74
479,713	168,62
479,918	113,32
480,122	10,92
480,326	74,41
480,531	113,32
480,735	72,36
480,94	25,26
481,144	174,76
481,348	101,03
481,553	125,61
481,757	45,74
481,961	-7,51
482,166	-5,46
482,37	58,03
482,574	117,42
482,778	17,07
482,983	158,38
483,187	39,59
483,391	164,52
483,595	223,91
483,8	414,37
484,004	830,11
484,208	1165,98
484,412	2017,93
484,616	3103,36
484,821	4524,65
485,025	5825,11
485,229	7262,78
485,433	8700,45
485,637	9624,09
485,841	10385,93
486,045	10781,19
486,249	10754,57
486,453	9724,44
486,657	8942,11
486,861	7526,97
487,065	6683,2
487,269	5456,47
487,473	4301,42
487,677	3730,03
487,881	3148,41
488,085	2249,35
488,289	1895,05
488,493	1215,13
488,697	991,9
488,901	727,71
489,105	383,65
489,309	328,36
489,512	342,69
489,716	225,96
489,92	187,05
490,124	205,48
490,328	172,71
490,531	103,08
490,735	152,23
490,939	72,36
491,143	92,84
491,346	92,84
491,55	90,79
491,754	76,46
491,958	82,6
492,161	80,55
492,365	115,37
492,569	45,74
492,772	107,18
492,976	154,28
493,18	19,11
493,383	129,7
493,587	53,93
493,79	96,94
493,994	98,99
494,197	68,27
494,401	86,7
494,605	-19,8
494,808	150,18
495,012	121,51
495,215	144,04
495,419	215,72
495,622	23,21
495,825	45,74
496,029	94,89
496,232	72,36
496,436	55,98
496,639	146,09
496,843	8,87
497,046	4,78
497,249	185
497,453	43,69
497,656	-42,32
497,859	72,36
498,063	88,75
498,266	117,42
498,469	-75,09
498,673	-66,9
498,876	6,83
499,079	-5,46
499,282	31,4
499,485	262,82
499,689	121,51
499,892	176,81
500,095	119,46
500,298	45,74
500,501	-58,71
500,705	-32,08
500,908	21,16
501,111	-34,13
501,314	123,56
501,517	262,82
501,72	80,55
501,923	33,45
502,126	12,97
502,329	121,51
502,532	176,81
502,735	10,92
502,938	154,28
503,141	76,46
503,344	-27,99
503,547	185
503,75	-34,13
503,953	25,26
504,156	72,36
504,359	12,97
504,562	39,59
504,765	6,83
504,968	45,74
505,17	113,32
505,373	70,31
505,576	41,64
505,779	39,59
505,982	19,11
506,185	58,03
506,387	-17,75
506,59	125,61
506,793	17,07
506,996	94,89
507,198	152,23
507,401	152,23
507,604	129,7
507,807	68,27
508,009	62,12
508,212	45,74
508,415	62,12
508,617	17,07
508,82	113,32
509,022	55,98
509,225	27,31
509,428	-17,75
509,63	6,83
509,833	-36,18
510,035	248,49
510,238	172,71
510,44	-44,37
510,643	103,08
510,845	139,94
511,048	141,99
511,25	6,83
511,453	47,79
511,655	90,79
511,858	129,7
512,06	197,29
512,262	35,5
512,465	53,93
512,667	160,42
512,87	-62,8
513,072	111,27
513,274	109,23
513,477	-1,37
513,679	90,79
513,881	6,83
514,084	4,78
514,286	129,7
514,488	58,03
514,69	35,5
514,893	-46,42
515,095	58,03
515,297	21,16
515,499	43,69
515,701	-32,08
515,904	154,28
516,106	287,4
516,308	76,46
516,51	27,31
516,712	168,62
516,914	45,74
517,116	-30,04
517,318	45,74
517,52	74,41
517,722	88,75
517,925	-25,94
518,127	31,4
518,329	205,48
518,531	-64,85
518,733	96,94
518,935	53,93
519,136	119,46
519,338	-21,84
519,54	86,7
519,742	25,26
519,944	154,28
520,146	64,17
520,348	29,35
520,55	-32,08
520,752	-38,23
520,954	-85,33
521,155	12,97
521,357	15,02
521,559	84,65
521,761	66,22
521,963	78,51
522,164	127,66
522,366	80,55
522,568	47,79
522,77	137,9
522,971	74,41
523,173	15,02
523,375	111,27
523,576	-44,37
523,778	-21,84
523,98	31,4
524,181	113,32
524,383	133,8
524,584	43,69
524,786	43,69
524,988	-11,61
525,189	2,73
525,391	86,7
525,592	-32,08
525,794	-62,8
525,995	-40,28
526,197	58,03
526,398	236,2
526,6	92,84
526,801	127,66
527,003	-130,39
527,204	62,12
527,406	45,74
527,607	47,79
527,808	41,64
528,01	-3,41
528,211	29,35
528,412	-34,13
528,614	137,9
528,815	135,85
529,016	103,08
529,218	29,35
529,419	58,03
529,62	-34,13
529,822	127,66
530,023	49,83
530,224	31,4
530,425	35,5
530,626	123,56
530,828	6,83
531,029	-109,91
531,23	41,64
531,431	-48,47
531,632	72,36
531,833	0,68
532,035	62,12
532,236	4,78
532,437	103,08
532,638	12,97
532,839	-48,47
533,04	148,14
533,241	168,62
533,442	49,83
533,643	-19,8
533,844	-7,51
534,045	-7,51
534,246	0,68
534,447	-62,8
534,648	-77,14
534,849	80,55
535,05	31,4
535,251	-17,75
535,451	160,42
535,652	-9,56
535,853	-66,9
536,054	41,64
536,255	64,17
536,456	60,07
536,657	-9,56
536,857	39,59
537,058	35,5
537,259	27,31
537,46	23,21
537,66	-11,61
537,861	23,21
538,062	12,97
538,263	-175,44
538,463	21,16
538,664	58,03
538,865	35,5
539,065	19,11
539,266	60,07
539,466	-83,28
539,667	123,56
539,868	-44,37
540,068	84,65
540,269	62,12
540,469	12,97
540,67	74,41
540,87	189,1
541,071	70,31
541,271	127,66
541,472	68,27
541,672	139,94
541,873	25,26
542,073	-11,61
542,274	35,5
542,474	78,51
542,675	39,59
542,875	4,78
543,075	-48,47
543,276	-36,18
543,476	-11,61
543,676	105,13
543,877	-66,9
544,077	113,32
544,277	70,31
544,478	62,12
544,678	98,99
544,878	8,87
545,078	-25,94
545,279	-38,23
545,479	-48,47
545,679	-23,89
545,879	6,83
546,079	31,4
546,28	-40,28
546,48	62,12
546,68	123,56
546,88	8,87
547,08	41,64
547,28	168,62
547,48	-50,52
547,68	201,38
547,88	47,79
548,081	74,41
548,281	-99,67
548,481	8,87
548,681	-11,61
548,881	96,94
549,081	60,07
549,28	64,17
549,48	47,79
549,68	78,51
549,88	25,26
550,08	-52,56
550,28	-50,52
550,48	74,41
550,68	-5,46
550,88	0,68
551,08	37,55
551,279	31,4
551,479	25,26
551,679	152,23
551,879	-58,71
552,079	-3,41
552,278	-9,56
552,478	185
552,678	78,51
552,878	64,17
553,077	45,74
553,277	-85,33
553,477	74,41
553,676	98,99
553,876	43,69
554,076	-13,65
554,275	35,5
554,475	8,87
554,674	141,99
554,874	43,69
555,074	-85,33
555,273	45,74
555,473	-3,41
555,672	4,78
555,872	-11,61
556,071	47,79
556,271	96,94
556,47	21,16
556,67	78,51
556,869	64,17
557,068	-60,76
557,268	0,68
557,467	47,79
557,667	113,32
557,866	25,26
558,065	-1,37
558,265	21,16
558,464	-3,41
558,663	144,04
558,863	113,32
559,062	33,45
559,261	-19,8
559,461	60,07
559,66	55,98
559,859	-9,56
560,058	-77,14
560,258	-116,05
560,457	-9,56
560,656	203,43
560,855	-25,94
561,054	98,99
561,253	10,92
561,453	41,64
561,652	15,02
561,851	55,98
562,05	-3,41
562,249	-48,47
562,448	62,12
562,647	-68,95
562,846	8,87
563,045	84,65
563,244	0,68
563,443	109,23
563,642	43,69
563,841	53,93
564,04	-46,42
564,239	66,22
564,438	-23,89
564,637	-56,66
564,836	17,07
565,035	-1,37
565,234	-27,99
565,432	43,69
565,631	86,7
565,83	-7,51
566,029	-36,18
566,228	-27,99
566,427	90,79
566,625	-99,67
566,824	182,95
567,023	-42,32
567,222	4,78
567,42	-1,37
567,619	8,87
567,818	62,12
568,016	174,76
568,215	78,51
568,414	107,18
568,612	47,79
568,811	53,93
569,01	2,73
569,208	62,12
569,407	49,83
569,605	150,18
569,804	33,45
570,002	129,7
570,201	8,87
570,4	90,79
570,598	53,93
570,797	72,36
570,995	41,64
571,193	70,31
571,392	133,8
571,59	-30,04
571,789	121,51
571,987	39,59
572,186	223,91
572,384	55,98
572,582	107,18
572,781	154,28
572,979	-25,94
573,177	53,93
573,376	49,83
573,574	137,9
573,772	53,93
573,971	35,5
574,169	17,07
574,367	137,9
574,565	37,55
574,763	88,75
574,962	127,66
575,16	88,75
575,358	101,03
575,556	135,85
575,754	68,27
575,952	70,31
576,151	80,55
576,349	146,09
576,547	12,97
576,745	86,7
576,943	137,9
577,141	76,46
577,339	-3,41
577,537	78,51
577,735	133,8
577,933	189,1
578,131	41,64
578,329	193,19
578,527	60,07
578,725	68,27
578,923	-34,13
579,121	158,38
579,319	-5,46
579,516	105,13
579,714	291,49
579,912	105,13
580,11	68,27
580,308	137,9
580,506	49,83
580,704	-85,33
580,901	123,56
581,099	201,38
581,297	139,94
581,495	207,53
581,692	94,89
581,89	193,19
582,088	129,7
582,285	123,56
582,483	29,35
582,681	74,41
582,878	166,57
583,076	211,62
583,274	160,42
583,471	197,29
583,669	68,27
583,866	47,79
584,064	72,36
584,262	-15,7
584,459	55,98
584,657	117,42
584,854	127,66
585,052	101,03
585,249	185
585,447	86,7
585,644	-1,37
585,841	168,62
586,039	123,56
586,236	70,31
586,434	98,99
586,631	-3,41
586,828	76,46
587,026	135,85
587,223	8,87
587,42	-27,99
587,618	135,85
587,815	234,15
588,012	86,7
588,21	-23,89
588,407	84,65
588,604	139,94
588,801	31,4
588,999	60,07
589,196	144,04
589,393	37,55
589,59	109,23
589,787	17,07
589,984	119,46
590,182	193,19
590,379	-34,13
590,576	17,07
590,773	47,79
590,97	4,78
591,167	35,5
591,364	139,94
591,561	23,21
591,758	236,2
591,955	203,43
592,152	96,94
592,349	-9,56
592,546	82,6
592,743	-42,32
592,94	70,31
593,137	98,99
593,334	154,28
593,531	154,28
593,727	133,8
593,924	107,18
594,121	129,7
594,318	121,51
594,515	111,27
594,712	156,33
594,908	195,24
595,105	47,79
595,302	185
595,499	96,94
595,696	154,28
595,892	43,69
596,089	193,19
596,286	-7,51
596,482	254,63
596,679	105,13
596,876	17,07
597,072	78,51
597,269	103,08
597,466	53,93
597,662	72,36
597,859	27,31
598,055	80,55
598,252	70,31
598,448	137,9
598,645	35,5
598,841	-5,46
599,038	170,66
599,234	141,99
599,431	129,7
599,627	129,7
599,824	137,9
600,02	115,37
600,217	8,87
600,413	148,14
600,609	51,88
600,806	397,99
601,002	150,18
601,198	58,03
601,395	133,8
601,591	127,66
601,787	168,62
601,984	172,71
602,18	107,18
602,376	31,4
602,572	127,66
602,769	189,1
602,965	109,23
603,161	98,99
603,357	185
603,553	221,86
603,75	43,69
603,946	80,55
604,142	78,51
604,338	133,8
604,534	-13,65
604,73	141,99
604,926	-5,46
605,122	187,05
605,318	86,7
605,514	123,56
605,71	82,6
605,906	158,38
606,102	51,88
606,298	148,14
606,494	176,81
606,69	203,43
606,886	98,99
607,082	90,79
607,278	8,87
607,474	133,8
607,67	88,75
607,866	-36,18
608,062	144,04
608,257	72,36
608,453	-42,32
608,649	80,55
608,845	47,79
609,041	6,83
609,236	60,07
609,432	25,26
609,628	74,41
609,824	111,27
610,019	33,45
610,215	23,21
610,411	154,28
610,606	170,66
610,802	-3,41
610,998	-21,84
611,193	72,36
611,389	-91,48
611,584	133,8
611,78	0,68
611,976	115,37
612,171	297,64
612,367	47,79
612,562	55,98
612,758	111,27
612,953	-52,56
613,149	-64,85
613,344	64,17
613,539	-60,76
613,735	60,07
613,93	92,84
614,126	15,02
614,321	117,42
614,517	141,99
614,712	180,9
614,907	164,52
615,103	96,94
615,298	86,7
615,493	-3,41
615,688	23,21
615,884	172,71
616,079	21,16
616,274	70,31
616,47	-27,99
616,665	-21,84
616,86	78,51
617,055	31,4
617,25	-7,51
617,445	21,16
617,641	35,5
617,836	-48,47
618,031	-19,8
618,226	101,03
618,421	103,08
618,616	-1,37
618,811	78,51
619,006	-9,56
619,201	6,83
619,396	74,41
619,591	-56,66
619,786	123,56
619,981	129,7
620,176	31,4
620,371	49,83
620,566	4,78
620,761	105,13
620,956	35,5
621,151	23,21
621,346	119,46
621,541	35,5
621,735	105,13
621,93	80,55
622,125	-36,18
622,32	-38,23
622,515	-19,8
622,709	146,09
622,904	152,23
623,099	43,69
623,294	117,42
623,488	-17,75
623,683	92,84
623,878	62,12
624,072	78,51
624,267	-99,67
624,462	133,8
624,656	-60,76
624,851	6,83
625,046	-13,65
625,24	-19,8
625,435	47,79
625,629	-9,56
625,824	148,14
626,018	125,61
626,213	47,79
626,407	6,83
626,602	148,14
626,796	37,55
626,991	152,23
627,185	-3,41
627,38	98,99
627,574	101,03
627,768	131,75
627,963	-50,52
628,157	107,18
628,352	2,73
628,546	-7,51
628,74	33,45
628,935	58,03
629,129	45,74
629,323	96,94
629,517	-54,61
629,712	-27,99
629,906	37,55
630,1	105,13
630,294	121,51
630,489	31,4
630,683	-40,28
630,877	12,97
631,071	172,71
631,265	12,97
631,459	4,78
631,653	-32,08
631,848	-21,84
632,042	49,83
632,236	25,26
632,43	94,89
632,624	-1,37
632,818	66,22
633,012	41,64
633,206	62,12
633,4	-5,46
633,594	37,55
633,788	70,31
633,982	29,35
634,176	172,71
634,369	-7,51
634,563	-91,48
634,757	-142,68
634,951	49,83
635,145	70,31
635,339	29,35
635,533	152,23
635,726	185
635,92	76,46
636,114	6,83
636,308	-38,23
636,501	27,31
636,695	189,1
636,889	-87,38
637,083	113,32
637,276	-1,37
637,47	-56,66
637,664	70,31
637,857	76,46
638,051	-36,18
638,244	164,52
638,438	31,4
638,632	133,8
638,825	-32,08
639,019	148,14
639,212	10,92
639,406	103,08
639,599	33,45
639,793	66,22
639,986	115,37
640,18	96,94
640,373	4,78
640,567	66,22
640,76	19,11
640,954	127,66
641,147	58,03
641,34	51,88
641,534	72,36
641,727	154,28
641,92	80,55
642,114	109,23
642,307	25,26
642,5	115,37
642,694	39,59
642,887	152,23
643,08	101,03
643,273	139,94
643,467	47,79
643,66	15,02
643,853	2,73
644,046	131,75
644,239	6,83
644,432	-56,66
644,626	-50,52
644,819	31,4
645,012	33,45
645,205	150,18
645,398	195,24
645,591	41,64
645,784	53,93
645,977	35,5
646,17	98,99
646,363	35,5
646,556	-44,37
646,749	33,45
646,942	43,69
647,135	146,09
647,328	29,35
647,521	113,32
647,714	90,79
647,907	101,03
648,099	33,45
648,292	174,76
648,485	68,27
648,678	49,83
648,871	-42,32
649,064	76,46
649,256	-34,13
649,449	-19,8
649,642	-60,76
649,835	-19,8
650,027	2,73
650,22	98,99
650,413	19,11
650,605	90,79
650,798	47,79
650,991	101,03
651,183	101,03
651,376	160,42
651,568	133,8
651,761	72,36
651,954	160,42
652,146	103,08
652,339	209,58
652,531	238,25
652,724	107,18
652,916	113,32
653,109	-13,65
653,301	154,28
653,494	203,43
653,686	148,14
653,879	195,24
654,071	295,59
654,263	301,73
654,456	570,02
654,648	2290,31
654,84	6664,77
655,033	15342,02
655,225	25901,34
655,417	37062,77
655,61	47630,29
655,802	55611,23
655,994	60620,56
656,186	62426,87
656,379	59594,53
656,571	55433,05
656,763	50300,84
656,955	45492,21
657,148	41193,53
657,34	37486,7
657,532	33527,98
657,724	29960,42
657,916	26712,34
658,108	23222,6
658,3	19390,85
658,492	15903,16
658,684	12933,61
658,876	10904,07
659,068	8622,63
659,26	6427,21
659,452	5057,12
659,644	3594,87
659,836	2667,14
660,028	1948,3
660,22	1299,09
660,412	985,76
660,604	694,94
660,796	676,51
660,988	496,29
661,18	397,99
661,372	363,17
661,563	287,4
661,755	258,73
661,947	86,7
662,139	33,45
662,331	176,81
662,522	129,7
662,714	139,94
662,906	90,79
663,097	88,75
663,289	-5,46
663,481	15,02
663,673	107,18
663,864	88,75
664,056	121,51
664,247	-44,37
664,439	191,14
664,631	137,9
664,822	111,27
665,014	60,07
665,205	55,98
665,397	39,59
665,588	37,55
665,78	62,12
665,971	203,43
666,163	6,83
666,354	62,12
666,546	12,97
666,737	41,64
666,929	-23,89
667,12	23,21
667,311	103,08
667,503	90,79
667,694	127,66
667,885	45,74
668,077	135,85
668,268	-27,99
668,459	-13,65
668,651	41,64
668,842	78,51
669,033	-75,09
669,224	2,73
669,416	105,13
669,607	-48,47
669,798	19,11
669,989	141,99
670,18	-11,61
670,371	80,55
670,563	-85,33
670,754	135,85
670,945	103,08
671,136	43,69
671,327	21,16
671,518	80,55
671,709	115,37
671,9	4,78
672,091	205,48
672,282	-36,18
672,473	-9,56
672,664	0,68
672,855	-25,94
673,046	55,98
673,237	109,23
673,428	2,73
673,619	101,03
673,809	-79,19
674	144,04
674,191	141,99
674,382	-40,28
674,573	-19,8
674,764	10,92
674,954	80,55
675,145	-21,84
675,336	-60,76
675,527	-11,61
675,717	55,98
675,908	-93,52
676,099	-21,84
676,289	107,18
676,48	-30,04
676,671	25,26
676,861	-27,99
677,052	-60,76
677,243	33,45
677,433	-1,37
677,624	109,23
677,814	101,03
678,005	-27,99
678,195	84,65
678,386	-99,67
678,576	4,78
678,767	-105,81
678,957	-32,08
679,148	107,18
679,338	55,98
679,529	15,02
679,719	-50,52
679,909	137,9
680,1	41,64
680,29	47,79
680,481	-11,61
680,671	72,36
680,861	45,74
681,052	111,27
681,242	-9,56
681,432	-13,65
681,622	-25,94
681,813	-66,9
682,003	19,11
682,193	-83,28
682,383	53,93
682,573	15,02
682,764	-38,23
682,954	21,16
683,144	92,84
683,334	-36,18
683,524	0,68
683,714	113,32
683,904	23,21
684,094	37,55
684,284	23,21
684,474	41,64
684,664	103,08
684,854	10,92
685,044	-19,8
685,234	10,92
685,424	4,78
685,614	-52,56
685,804	82,6
685,994	45,74
686,184	15,02
686,374	45,74
686,564	-11,61
686,753	8,87
686,943	-152,91
687,133	-5,46
687,323	-60,76
687,513	49,83
687,702	-36,18
687,892	-36,18
688,082	-9,56
688,272	45,74
688,461	23,21
688,651	178,86
688,841	53,93
689,03	47,79
689,22	31,4
689,41	121,51
689,599	74,41
689,789	-25,94
689,979	96,94
690,168	-44,37
690,358	101,03
690,547	-44,37
690,737	29,35
690,926	23,21
691,116	33,45
691,305	47,79
691,495	68,27
691,684	4,78
691,874	-27,99
692,063	-116,05
692,252	23,21
692,442	105,13
692,631	-46,42
692,82	-36,18
693,01	2,73
693,199	-42,32
693,388	88,75
693,578	47,79
693,767	66,22
693,956	80,55
694,146	-50,52
694,335	70,31
694,524	-81,24
694,713	70,31
694,902	15,02
695,092	-83,28
695,281	-25,94
695,47	17,07
695,659	0,68
695,848	-87,38
696,037	-44,37
696,226	94,89
696,415	41,64
696,604	217,77
696,793	135,85
696,982	-5,46
697,171	156,33
697,36	-3,41
697,549	-9,56
697,738	-152,91
697,927	-54,61
698,116	-81,24
698,305	37,55
698,494	12,97
698,683	-60,76
698,872	221,86
699,061	70,31
699,25	-11,61
699,438	12,97
699,627	-11,61
699,816	154,28
700,005	-44,37
700,193	-36,18
700,382	-15,7
700,571	94,89
700,76	94,89
700,948	84,65
701,137	86,7
701,326	12,97
701,514	-32,08
701,703	58,03
701,892	-42,32
702,08	162,47
702,269	-40,28
702,457	-27,99
702,646	-25,94
702,834	-17,75
703,023	115,37
703,212	72,36
703,4	-60,76
703,589	-11,61
703,777	49,83
703,965	-66,9
704,154	-40,28
704,342	-66,9
704,531	-73,04
704,719	12,97
704,907	156,33
705,096	-85,33
705,284	-48,47
705,472	15,02
705,661	17,07
705,849	21,16
706,037	121,51
706,226	45,74
706,414	43,69
706,602	-48,47
706,79	41,64
706,979	-50,52
707,167	-44,37
707,355	-85,33
707,543	-15,7
707,731	35,5
707,919	25,26
708,107	6,83
708,296	-3,41
708,484	-21,84
708,672	-3,41
708,86	45,74
709,048	8,87
709,236	-101,72
709,424	43,69
709,612	41,64
709,8	-56,66
709,988	-3,41
710,176	39,59
710,364	121,51
710,551	17,07
710,739	6,83
710,927	-13,65
711,115	-3,41
711,303	39,59
711,491	31,4
711,679	-85,33
711,866	10,92
712,054	-30,04
712,242	70,31
712,43	92,84
712,617	-34,13
712,805	74,41
712,993	-9,56
713,181	-89,43
713,368	101,03
713,556	-15,7
713,744	-34,13
713,931	207,53
714,119	-40,28
714,306	37,55
714,494	8,87
714,682	29,35
714,869	-21,84
715,057	-58,71
715,244	-150,87
715,432	62,12
715,619	-60,76
715,807	-173,39
715,994	-109,91
716,182	33,45
716,369	37,55
716,556	92,84
716,744	-15,7
716,931	-71
717,119	-13,65
717,306	12,97
717,493	70,31
717,681	-73,04
717,868	-99,67
718,055	43,69
718,242	-5,46
718,43	43,69
718,617	37,55
718,804	-30,04
718,991	2,73
719,179	-83,28
719,366	51,88
719,553	-27,99
719,74	21,16
719,927	-62,8
720,114	25,26
720,301	-85,33
720,488	-118,1
720,676	-17,75
720,863	92,84
721,05	172,71
721,237	78,51
721,424	-5,46
721,611	-64,85
721,798	-91,48
721,985	21,16
722,172	-48,47
722,358	-48,47
722,545	49,83
722,732	-7,51
722,919	139,94
723,106	39,59
723,293	-44,37
723,48	-5,46
723,667	-85,33
723,853	107,18
724,04	27,31
724,227	43,69
724,414	-50,52
724,6	49,83
724,787	127,66
724,974	211,62
725,161	8,87
725,347	-95,57
725,534	29,35
725,72	-30,04
725,907	62,12
726,094	15,02
726,28	-9,56
726,467	45,74
726,653	-19,8
726,84	53,93
727,027	115,37
727,213	10,92
727,4	35,5
727,586	25,26
727,773	94,89
727,959	-25,94
728,145	35,5
728,332	-27,99
728,518	-3,41
728,705	66,22
728,891	-11,61
729,077	-19,8
729,264	-56,66
729,45	-66,9
729,636	60,07
729,823	17,07
730,009	96,94
730,195	70,31
730,382	41,64
730,568	-83,28
730,754	6,83
730,94	-7,51
731,126	47,79
731,313	55,98
731,499	-89,43
731,685	43,69
731,871	68,27
732,057	-19,8
732,243	27,31
732,429	12,97
732,615	55,98
732,801	86,7
732,987	-5,46
733,173	4,78
733,359	-13,65
733,545	49,83
733,731	-15,7
733,917	45,74
734,103	49,83
734,289	-7,51
734,475	-30,04
734,661	246,44
734,847	-44,37
735,033	-38,23
735,219	33,45
735,404	-40,28
735,59	23,21
735,776	-83,28
735,962	2,73
736,148	35,5
736,333	160,42
736,519	-19,8
736,705	-52,56
736,89	-32,08
737,076	55,98
737,262	-91,48
737,447	-85,33
737,633	-118,1
737,819	78,51
738,004	-15,7
738,19	6,83
738,375	51,88
738,561	45,74
738,747	23,21
738,932	-136,53
739,118	234,15
739,303	29,35
739,489	-27,99
739,674	-54,61
739,859	-68,95
740,045	64,17
740,23	4,78
740,416	-173,39
740,601	-11,61
740,786	0,68
740,972	-79,19
741,157	-46,42
741,342	-40,28
741,528	-71
741,713	64,17
741,898	-48,47
742,084	8,87
742,269	-23,89
742,454	45,74
742,639	58,03
742,824	-25,94
743,01	121,51
743,195	176,81
743,38	-9,56
743,565	33,45
743,75	94,89
743,935	53,93
744,12	74,41
744,305	-75,09
744,49	6,83
744,675	15,02
744,86	-71
745,045	39,59
745,23	-19,8
745,415	-19,8
745,6	150,18
745,785	-79,19
745,97	66,22
746,155	125,61
746,34	53,93
746,525	29,35
746,71	131,75
746,895	-107,86
747,079	-93,52
747,264	47,79
747,449	70,31
747,634	51,88
747,819	37,55
748,003	27,31
748,188	-52,56
748,373	12,97
748,557	74,41
748,742	-32,08
748,927	58,03
749,111	-60,76
749,296	92,84
749,481	23,21
749,665	74,41
749,85	-9,56
750,034	62,12
750,219	0,68
750,404	8,87
750,588	105,13
750,773	-27,99
750,957	31,4
751,141	27,31
751,326	33,45
751,51	-38,23
751,695	-60,76
751,879	12,97
752,064	107,18
752,248	21,16
752,432	82,6
752,617	62,12
752,801	84,65
752,985	-3,41
753,17	94,89
753,354	66,22
753,538	-15,7
753,722	-3,41
753,907	23,21
754,091	-118,1
754,275	37,55
754,459	-87,38
754,643	47,79
754,828	39,59
755,012	41,64
755,196	-66,9
755,38	6,83
755,564	-13,65
755,748	62,12
755,932	80,55
756,116	88,75
756,3	53,93
756,484	-40,28
756,668	125,61
756,852	-85,33
757,036	-58,71
757,22	-3,41
757,404	-56,66
757,588	-1,37
757,772	43,69
757,956	41,64
758,14	103,08
758,323	-73,04
758,507	101,03
758,691	23,21
758,875	74,41
759,059	178,86
759,242	15,02
759,426	-21,84
759,61	45,74
759,794	-15,7
759,977	15,02
760,161	170,66
760,345	113,32
760,528	180,9
760,712	31,4
760,895	88,75
761,079	-15,7
761,263	-101,72
761,446	-40,28
761,63	23,21
761,813	80,55
761,997	-134,48
762,18	-66,9
762,364	33,45
762,547	-87,38
762,731	-5,46
762,914	-15,7
763,098	-17,75
763,281	-5,46
763,464	-52,56
763,648	41,64
763,831	-11,61
764,015	-54,61
764,198	70,31
764,381	-52,56
764,564	-3,41
764,748	23,21
764,931	-21,84
765,114	-32,08
765,297	27,31
765,481	-36,18
765,664	-46,42
765,847	-58,71
766,03	80,55
766,213	-81,24
766,397	-68,95
766,58	-89,43
766,763	88,75
766,946	-60,76
767,129	-130,39
767,312	-38,23
767,495	39,59
767,678	-40,28
767,861	27,31
768,044	-62,8
768,227	6,83
768,41	-25,94
768,593	15,02
768,776	-9,56
768,959	-11,61
769,142	105,13
769,324	-40,28
769,507	-17,75
769,69	-83,28
769,873	4,78
770,056	166,57
770,239	39,59
770,421	23,21
770,604	70,31
770,787	25,26
770,97	37,55
771,152	-58,71
771,335	35,5
771,518	-27,99
771,7	49,83
771,883	148,14
772,066	-89,43
772,248	12,97
772,431	49,83
772,613	2,73
772,796	4,78
772,978	53,93
773,161	78,51
773,343	25,26
773,526	-50,52
773,708	-103,76
773,891	-48,47
774,073	-17,75
774,256	-71
774,438	88,75
774,621	-50,52
774,803	78,51
774,985	19,11
775,168	144,04
775,35	8,87
775,532	113,32
775,715	-56,66
775,897	-3,41
776,079	23,21
776,261	174,76
776,444	307,88
776,626	404,13
776,808	570,02
776,99	649,89
777,173	887,45
777,355	891,55
777,537	1016,48
777,719	819,87
777,901	731,81
778,083	703,14
778,265	610,98
778,447	731,81
778,629	473,76
778,811	443,04
778,993	447,14
779,175	406,18
779,357	234,15
779,539	203,43
779,721	271,01
779,903	281,25
780,085	-3,41
780,267	113,32
780,449	74,41
780,631	207,53
780,812	115,37
780,994	-17,75
781,176	-46,42
781,358	0,68
781,54	31,4
781,721	94,89
781,903	53,93
782,085	-50,52
782,267	-13,65
782,448	-134,48
782,63	-52,56
782,812	78,51
782,993	98,99
783,175	84,65
783,357	-40,28
783,538	53,93
783,72	-38,23
783,901	-13,65
784,083	47,79
784,264	6,83
784,446	-11,61
784,627	-64,85
784,809	-11,61
784,99	-3,41
785,172	53,93
785,353	-9,56
785,535	43,69
785,716	-99,67
785,897	-101,72
786,079	-25,94
786,26	53,93
786,441	-3,41
786,623	-111,96
786,804	-75,09
786,985	-7,51
787,167	0,68
787,348	0,68
787,529	-85,33
787,71	129,7
787,891	31,4
788,073	-91,48
788,254	-165,2
788,435	160,42
788,616	62,12
788,797	-9,56
788,978	31,4
789,159	-34,13
789,34	111,27
789,522	58,03
789,703	-32,08
789,884	15,02
790,065	25,26
790,246	156,33
790,427	-9,56
790,607	62,12
790,788	39,59
790,969	-71
791,15	17,07
791,331	-38,23
791,512	-25,94
791,693	-68,95
791,874	-114
792,054	168,62
792,235	74,41
792,416	-93,52
792,597	-105,81
792,778	94,89
792,958	-36,18
793,139	-11,61
793,32	21,16
793,5	-64,85
793,681	168,62
793,862	-7,51
794,042	-77,14
794,223	-30,04
794,404	21,16
794,584	-140,63
794,765	-89,43
794,945	-27,99
795,126	-19,8
795,306	78,51
795,487	-36,18
795,667	-32,08
795,848	-9,56
796,028	60,07
796,209	8,87
796,389	45,74
796,57	-23,89
796,75	-23,89
796,93	-23,89
797,111	-89,43
797,291	-101,72
797,471	62,12
797,652	-13,65
797,832	-32,08
798,012	-3,41
798,192	-34,13
798,373	-103,76
798,553	-48,47
798,733	-11,61
798,913	-66,9
799,093	-68,95
799,274	-9,56
799,454	-32,08
799,634	84,65
799,814	58,03
799,994	86,7
800,174	-1,37
800,354	-60,76
800,534	-154,96
800,714	84,65
800,894	-89,43
801,074	-79,19
801,254	6,83
801,434	86,7
801,614	-25,94
801,794	-107,86
801,974	2005,64
802,154	-42,32
802,334	49,83
802,514	-34,13
802,693	33,45
802,873	-81,24
803,053	109,23
803,233	-1,37
803,413	-44,37
803,592	-89,43
803,772	-36,18
803,952	111,27
804,131	-105,81
804,311	21,16
804,491	88,75
804,67	-95,57
804,85	-79,19
805,03	8,87
805,209	131,75
805,389	-44,37
805,568	-52,56
805,748	-146,77
805,928	8,87
806,107	72,36
806,287	43,69
806,466	-46,42
806,646	12,97
806,825	-36,18
807,004	-89,43
807,184	19,11
807,363	31,4
807,543	-15,7
807,722	-44,37
807,901	94,89
808,081	105,13
808,26	-130,39
808,439	-15,7
808,619	0,68
808,798	0,68
808,977	-7,51
809,156	35,5
809,336	17,07
809,515	35,5
809,694	-21,84
809,873	-85,33
810,052	80,55
810,231	105,13
810,411	-19,8
810,59	72,36
810,769	-23,89
810,948	8,87
811,127	-95,57
811,306	-11,61
811,485	-48,47
811,664	55,98
811,843	-9,56
812,022	-38,23
812,201	-5,46
812,38	-17,75
812,559	-64,85
812,737	-34,13
812,916	-132,44
813,095	-109,91
813,274	51,88
813,453	-3,41
813,632	45,74
813,811	68,27
813,989	-165,2
814,168	25,26
814,347	-56,66
814,526	-89,43
814,704	129,7
814,883	29,35
815,062	-34,13
815,24	23,21
815,419	-62,8
815,598	43,69
815,776	-138,58
815,955	-79,19
816,133	-122,2
816,312	29,35
816,49	-62,8
816,669	-44,37
816,847	0,68
817,026	15,02
817,204	-23,89
817,383	-15,7
817,561	-95,57
817,74	66,22
817,918	-7,51
818,097	-122,2
818,275	-73,04
818,453	-3,41
818,632	105,13
818,81	-60,76
818,988	-159,06
819,167	-56,66
819,345	-30,04
819,523	-75,09
819,701	-25,94
819,879	6,83
820,058	33,45
820,236	-50,52
820,414	-40,28
820,592	-60,76
820,77	-11,61
820,948	-38,23
821,127	68,27
821,305	4,78
821,483	-107,86
821,661	21,16
821,839	-3,41
822,017	-77,14
822,195	-30,04
822,373	41,64
822,551	-36,18
822,729	41,64
822,907	-7,51
823,085	68,27
823,262	15,02
823,44	-40,28
823,618	-116,05
823,796	-34,13
823,974	-34,13
824,152	-93,52
824,329	-60,76
824,507	-1,37
824,685	92,84
824,863	-25,94
825,04	-97,62
825,218	-11,61
825,396	-97,62
825,574	-5,46
825,751	25,26
825,929	27,31
826,107	-140,63
826,284	4,78
826,462	12,97
826,639	-132,44
826,817	-79,19
826,994	49,83
827,172	-42,32
827,349	146,09
827,527	78,51
827,704	-83,28
827,882	19,11
828,059	-9,56
828,237	-101,72
828,414	76,46
828,591	-109,91
828,769	-44,37
828,946	-50,52
829,124	12,97
829,301	96,94
829,478	-52,56
829,655	-36,18
829,833	23,21
830,01	-107,86
830,187	45,74
830,364	-23,89
830,542	-17,75
830,719	103,08
830,896	21,16
831,073	-44,37
831,25	-17,75
831,427	51,88
831,604	12,97
831,782	-79,19
831,959	-34,13
832,136	-75,09
832,313	2,73
832,49	-66,9
832,667	-15,7
832,844	-73,04
833,021	80,55
833,198	35,5
833,374	15,02
833,551	-19,8
833,728	-93,52
833,905	82,6
834,082	-154,96
834,259	-25,94
834,436	37,55
834,612	-122,2
834,789	25,26
834,966	-44,37
835,143	-15,7
835,319	-52,56
835,496	35,5
835,673	31,4
835,85	119,46
836,026	47,79
836,203	53,93
836,38	-138,58
836,556	29,35
836,733	-81,24
836,909	78,51
837,086	-146,77
837,262	-167,25
837,439	-66,9
837,616	-97,62
837,792	-11,61
837,968	-27,99
838,145	-179,54
838,321	-46,42
838,498	37,55
838,674	8,87
838,851	4,78
839,027	-58,71
839,203	0,68
839,38	117,42
839,556	-15,7
839,732	146,09
839,909	-105,81
840,085	-7,51
840,261	-71
840,437	-15,7
840,614	-85,33
840,79	94,89
840,966	35,5
841,142	-27,99
841,318	-50,52
841,494	62,12
841,671	49,83
841,847	-120,15
842,023	-91,48
842,199	76,46
842,375	139,94
842,551	-146,77
842,727	-154,96
842,903	55,98
843,079	-71
843,255	72,36
843,431	47,79
843,607	-21,84
843,783	2,73
843,959	164,52
844,134	275,11
844,31	369,32
844,486	250,53
844,662	291,49
844,838	357,03
845,013	316,07
845,189	209,58
845,365	209,58
845,541	90,79
845,716	166,57
845,892	242,34
846,068	21,16
846,244	45,74
846,419	141,99
846,595	-7,51
846,77	47,79
846,946	144,04
847,122	-44,37
847,297	29,35
847,473	268,97
847,648	-77,14
847,824	60,07
847,999	-118,1
848,175	-7,51
848,35	170,66
848,526	98,99
848,701	94,89
848,876	80,55
849,052	96,94
849,227	-23,89
849,403	23,21
849,578	-25,94
849,753	21,16
849,929	64,17
850,104	-99,67
850,279	12,97
850,454	23,21
850,63	49,83
850,805	17,07
850,98	-19,8
851,155	-23,89
851,33	-89,43
851,505	-128,34
851,681	137,9
851,856	-91,48
852,031	64,17
852,206	23,21
852,381	-52,56
852,556	-134,48
852,731	2,73
852,906	17,07
853,081	37,55
853,256	86,7
853,431	-27,99
853,606	-9,56
853,781	-189,78
853,956	-132,44
854,131	37,55
854,305	-103,76
854,48	-114
854,655	-89,43
854,83	-87,38
855,005	-40,28
855,18	31,4
855,354	-79,19
855,529	98,99
855,704	-66,9
855,879	62,12
856,053	-44,37
856,228	66,22
856,403	-44,37
856,577	-19,8
856,752	-87,38
856,926	2,73
857,101	17,07
857,276	-40,28
857,45	-50,52
857,625	74,41
857,799	27,31
857,974	35,5
858,148	-122,2
858,323	-7,51
858,497	-9,56
858,672	-36,18
858,846	-11,61
859,02	80,55
859,195	-140,63
859,369	-46,42
859,543	-73,04
859,718	8,87
859,892	-68,95
860,066	-9,56
860,241	-48,47
860,415	-81,24
860,589	-83,28
860,763	10,92
860,938	-81,24
861,112	53,93
861,286	-60,76
861,46	29,35
861,634	-52,56
861,808	74,41
861,982	-175,44
862,157	-83,28
862,331	-64,85
862,505	-111,96
862,679	-77,14
862,853	-93,52
863,027	-60,76
863,201	74,41
863,375	-93,52
863,549	-64,85
863,722	-15,7
863,896	8,87
864,07	-132,44
864,244	-27,99
864,418	-1,37
864,592	-64,85
864,766	4,78
864,939	-19,8
865,113	-97,62
865,287	84,65
865,461	-105,81
865,634	-11,61
865,808	4,78
865,982	-56,66
866,156	-73,04
866,329	-99,67
866,503	41,64
866,676	82,6
866,85	101,03
867,024	-134,48
867,197	64,17
867,371	60,07
867,544	53,93
867,718	-122,2
867,891	121,51
868,065	-85,33
868,238	-1,37
868,412	96,94
868,585	-52,56
868,759	0,68
868,932	-56,66
869,105	-134,48
869,279	12,97
869,452	-85,33
869,625	39,59
869,799	29,35
869,972	-111,96
870,145	-109,91
870,319	33,45
870,492	-85,33
870,665	-54,61
870,838	-36,18
871,011	-177,49
871,185	-58,71
871,358	-52,56
871,531	-7,51
871,704	-77,14
871,877	-81,24
872,05	-73,04
872,223	-132,44
872,396	31,4
872,569	86,7
872,742	-128,34
872,915	-34,13
873,088	-9,56
873,261	-189,78
873,434	107,18
873,607	6,83
873,78	115,37
873,953	-154,96
874,126	35,5
874,299	41,64
874,471	31,4
874,644	-38,23
874,817	-11,61
874,99	148,14
875,163	-21,84
875,335	53,93
875,508	-38,23
875,681	-5,46
875,853	-99,67
876,026	-54,61
876,199	70,31
876,371	-38,23
876,544	-85,33
876,717	25,26
876,889	-21,84
877,062	21,16
877,234	-114
877,407	-75,09
877,579	-23,89
877,752	-58,71
877,924	53,93
878,097	-21,84
878,269	-15,7
878,442	-15,7
878,614	2,73
878,786	-34,13
878,959	53,93
879,131	-34,13
879,303	-150,87
879,476	-7,51
879,648	2,73
879,82	-21,84
879,993	-124,24
880,165	-40,28
880,337	-75,09
880,509	19,11
880,681	-118,1
880,854	-19,8
881,026	60,07
881,198	176,81
881,37	25,26
881,542	-52,56
881,714	17,07
881,886	4,78
882,058	-7,51
882,23	-58,71
882,402	2,73
882,574	-25,94
882,746	-1,37
882,918	37,55
883,09	-40,28
883,262	-126,29
883,434	-44,37
883,606	-157,01
883,778	19,11
883,95	146,09
884,122	-75,09
884,293	47,79
884,465	-52,56
884,637	39,59
884,809	-97,62
884,98	25,26
885,152	4,78
885,324	43,69
885,496	-130,39
885,667	-48,47
885,839	-7,51
886,011	53,93
886,182	47,79
886,354	15,02
886,525	-1,37
886,697	12,97
886,869	-64,85
887,04	-42,32
887,212	39,59
887,383	96,94
887,555	29,35
887,726	-52,56
887,897	-116,05
888,069	-17,75
888,24	23,21
888,412	-36,18
888,583	-77,14
888,754	-15,7
888,926	-173,39
889,097	-163,15
889,268	-132,44
889,44	60,07
889,611	-44,37
889,782	-101,72
889,953	-146,77
890,125	105,13
890,296	-95,57
890,467	-50,52
890,638	-36,18
890,809	-68,95
890,98	-154,96
891,151	2,73
891,323	47,79
891,494	31,4
891,665	45,74
891,836	-34,13
892,007	-95,57
892,178	21,16
892,349	23,21
892,52	-27,99
892,691	-25,94
892,862	-79,19
893,032	-89,43
893,203	-58,71
893,374	-17,75
893,545	-11,61
893,716	-40,28
893,887	96,94
894,057	-62,8
894,228	-50,52
894,399	-62,8
894,57	82,6
894,74	15,02
894,911	21,16
895,082	-126,29
895,253	-91,48
895,423	-52,56
895,594	66,22
895,764	12,97
895,935	-38,23
896,106	29,35
896,276	-66,9
896,447	-13,65
896,617	-140,63
896,788	-126,29
896,958	-50,52
897,129	-56,66
897,299	-109,91
897,47	39,59
897,64	80,55
897,81	-99,67
897,981	-15,7
898,151	-116,05
898,322	-34,13
898,492	-30,04
898,662	-103,76
898,832	-77,14
899,003	-81,24
899,173	-19,8
899,343	-116,05
899,513	-105,81
