Data from deuterium_USB4F104151__27__10-57-07-613.txt Node

Date: Wed Apr 15 10:57:07 EDT 2026
User: LaboPhy
Spectrometer: USB4F10415
Trigger mode: 4
Integration Time (sec): 1,000000E-1
Scans to average: 1
Electric dark correction enabled: true
Nonlinearity correction enabled: false
Boxcar width: 0
XAxis mode: Wavelengths
Number of Pixels in Spectrum: 3648
>>>>>Begin Spectral Data<<<<<
178,204	-441,34
178,424	-441,34
178,644	-441,34
178,864	-461,82
179,084	-463,86
179,304	46,08
179,524	-103,42
179,744	-33,79
179,964	89,09
180,184	84,99
180,404	21,5
180,624	-39,94
180,844	-31,74
181,064	-78,85
181,283	25,6
181,503	3,07
181,723	17,41
181,943	-64,51
182,163	234,49
182,383	9,22
182,602	66,56
182,822	164,86
183,042	-5,12
183,262	-46,08
183,482	11,26
183,701	68,61
183,921	156,67
184,141	-39,94
184,361	70,65
184,58	37,89
184,8	58,37
185,02	3,07
185,239	140,29
185,459	144,38
185,679	91,13
185,898	-128
186,118	23,55
186,338	37,89
186,557	93,18
186,777	-54,27
186,997	44,03
187,216	50,18
187,436	242,68
187,655	80,89
187,875	54,27
188,095	46,08
188,314	132,09
188,534	142,33
188,753	11,26
188,973	97,28
189,192	248,83
189,412	99,33
189,631	52,22
189,851	160,77
190,07	189,44
190,29	-70,65
190,509	25,6
190,729	13,31
190,948	173,05
191,168	252,92
191,387	128
191,607	15,36
191,826	121,85
192,045	9,22
192,265	72,7
192,484	66,56
192,704	9,22
192,923	-3,07
193,142	173,05
193,362	207,87
193,581	179,2
193,8	103,42
194,02	76,8
194,239	7,17
194,458	148,48
194,678	68,61
194,897	-17,41
195,116	109,57
195,335	105,47
195,555	115,71
195,774	7,17
195,993	150,53
196,212	33,79
196,432	7,17
196,651	-60,42
196,87	11,26
197,089	277,5
197,308	48,13
197,528	166,91
197,747	-62,46
197,966	150,53
198,185	21,5
198,404	48,13
198,623	74,75
198,842	259,07
199,062	72,7
199,281	66,56
199,5	91,13
199,719	41,98
199,938	84,99
200,157	76,8
200,376	89,09
200,595	171,01
200,814	44,03
201,033	-13,31
201,252	140,29
201,471	115,71
201,69	25,6
201,909	-15,36
202,128	146,43
202,347	156,67
202,566	60,42
202,785	-41,98
203,004	11,26
203,223	252,92
203,442	13,31
203,661	-15,36
203,879	105,47
204,098	115,71
204,317	-1,02
204,536	123,9
204,755	111,61
204,974	117,76
205,193	-29,7
205,411	162,81
205,63	177,15
205,849	156,67
206,068	17,41
206,287	-35,84
206,505	185,34
206,724	66,56
206,943	27,65
207,162	5,12
207,381	115,71
207,599	64,51
207,818	27,65
208,037	3,07
208,255	101,37
208,474	-5,12
208,693	37,89
208,911	35,84
209,13	140,29
209,349	54,27
209,567	82,94
209,786	62,46
210,005	134,14
210,223	52,22
210,442	-78,85
210,661	56,32
210,879	138,24
211,098	29,7
211,316	115,71
211,535	115,71
211,753	19,46
211,972	107,52
212,191	-54,27
212,409	15,36
212,628	136,19
212,846	56,32
213,065	46,08
213,283	97,28
213,502	25,6
213,72	115,71
213,938	52,22
214,157	35,84
214,375	156,67
214,594	3,07
214,812	84,99
215,031	60,42
215,249	62,46
215,467	41,98
215,686	62,46
215,904	175,1
216,122	19,46
216,341	117,76
216,559	89,09
216,778	95,23
216,996	254,97
217,214	-13,31
217,432	13,31
217,651	-62,46
217,869	21,5
218,087	27,65
218,306	41,98
218,524	-23,55
218,742	58,37
218,96	152,57
219,179	-19,46
219,397	33,79
219,615	271,36
219,833	89,09
220,051	52,22
220,27	87,04
220,488	156,67
220,706	115,71
220,924	13,31
221,142	-23,55
221,36	17,41
221,578	19,46
221,796	7,17
222,015	44,03
222,233	37,89
222,451	173,05
222,669	39,94
222,887	113,66
223,105	37,89
223,323	111,61
223,541	11,26
223,759	107,52
223,977	48,13
224,195	146,43
224,413	138,24
224,631	80,89
224,849	25,6
225,067	220,16
225,285	60,42
225,503	19,46
225,721	-60,42
225,939	74,75
226,157	25,6
226,375	156,67
226,592	17,41
226,81	15,36
227,028	87,04
227,246	199,68
227,464	78,85
227,682	144,38
227,9	11,26
228,117	27,65
228,335	142,33
228,553	-29,7
228,771	58,37
228,989	140,29
229,206	99,33
229,424	78,85
229,642	-5,12
229,86	-7,17
230,077	220,16
230,295	58,37
230,513	160,77
230,731	56,32
230,948	193,53
231,166	150,53
231,384	-52,22
231,601	-68,61
231,819	250,88
232,037	3,07
232,254	41,98
232,472	44,03
232,689	3,07
232,907	111,61
233,125	54,27
233,342	-35,84
233,56	7,17
233,777	-11,26
233,995	-23,55
234,213	140,29
234,43	64,51
234,648	-7,17
234,865	21,5
235,083	11,26
235,3	44,03
235,518	91,13
235,735	119,81
235,953	115,71
236,17	54,27
236,388	52,22
236,605	17,41
236,822	74,75
237,04	189,44
237,257	144,38
237,475	-84,99
237,692	68,61
237,909	164,86
238,127	-13,31
238,344	136,19
238,562	-29,7
238,779	-56,32
238,996	-62,46
239,214	52,22
239,431	23,55
239,648	1,02
239,865	101,37
240,083	78,85
240,3	62,46
240,517	-25,6
240,735	101,37
240,952	128
241,169	76,8
241,386	111,61
241,603	80,89
241,821	-7,17
242,038	130,05
242,255	234,49
242,472	-31,74
242,689	13,31
242,907	168,96
243,124	-5,12
243,341	54,27
243,558	-15,36
243,775	-84,99
243,992	-7,17
244,209	68,61
244,426	222,2
244,643	70,65
244,86	-7,17
245,078	78,85
245,295	39,94
245,512	111,61
245,729	-19,46
245,946	29,7
246,163	23,55
246,38	76,8
246,597	130,05
246,814	84,99
247,031	52,22
247,248	66,56
247,464	91,13
247,681	58,37
247,898	78,85
248,115	68,61
248,332	48,13
248,549	175,1
248,766	205,82
248,983	97,28
249,2	95,23
249,417	66,56
249,633	23,55
249,85	56,32
250,067	-29,7
250,284	72,7
250,501	-9,22
250,717	48,13
250,934	-31,74
251,151	13,31
251,368	41,98
251,585	89,09
251,801	62,46
252,018	-48,13
252,235	119,81
252,451	-50,18
252,668	-21,5
252,885	171,01
253,102	78,85
253,318	-56,32
253,535	70,65
253,752	27,65
253,968	-41,98
254,185	-41,98
254,401	144,38
254,618	48,13
254,835	-87,04
255,051	82,94
255,268	175,1
255,484	101,37
255,701	68,61
255,917	76,8
256,134	9,22
256,351	21,5
256,567	-5,12
256,784	11,26
257	-130,05
257,217	125,95
257,433	82,94
257,65	54,27
257,866	130,05
258,082	-17,41
258,299	-7,17
258,515	68,61
258,732	58,37
258,948	27,65
259,165	123,9
259,381	-25,6
259,597	150,53
259,814	68,61
260,03	19,46
260,246	21,5
260,463	58,37
260,679	58,37
260,895	74,75
261,112	25,6
261,328	74,75
261,544	44,03
261,761	168,96
261,977	-7,17
262,193	-78,85
262,409	183,29
262,626	54,27
262,842	29,7
263,058	1,02
263,274	173,05
263,49	9,22
263,707	29,7
263,923	150,53
264,139	-23,55
264,355	74,75
264,571	121,85
264,787	91,13
265,004	80,89
265,22	29,7
265,436	-9,22
265,652	103,42
265,868	109,57
266,084	-44,03
266,3	41,98
266,516	84,99
266,732	78,85
266,948	37,89
267,164	60,42
267,38	74,75
267,596	27,65
267,812	91,13
268,028	-23,55
268,244	19,46
268,46	-21,5
268,676	-5,12
268,892	54,27
269,108	17,41
269,324	-35,84
269,54	-1,02
269,756	101,37
269,972	-17,41
270,188	9,22
270,403	-111,61
270,619	15,36
270,835	125,95
271,051	58,37
271,267	19,46
271,483	-21,5
271,698	152,57
271,914	74,75
272,13	103,42
272,346	-52,22
272,562	25,6
272,777	76,8
272,993	76,8
273,209	-29,7
273,425	103,42
273,64	-62,46
273,856	72,7
274,072	21,5
274,287	27,65
274,503	111,61
274,719	115,71
274,934	-27,65
275,15	-93,18
275,366	58,37
275,581	33,79
275,797	46,08
276,012	66,56
276,228	-39,94
276,444	50,18
276,659	191,49
276,875	27,65
277,09	11,26
277,306	-1,02
277,521	60,42
277,737	-19,46
277,952	156,67
278,168	25,6
278,383	-29,7
278,599	62,46
278,814	107,52
279,03	-7,17
279,245	95,23
279,461	33,79
279,676	97,28
279,892	11,26
280,107	-48,13
280,322	50,18
280,538	105,47
280,753	13,31
280,969	109,57
281,184	82,94
281,399	160,77
281,615	70,65
281,83	72,7
282,045	-7,17
282,26	5,12
282,476	64,51
282,691	115,71
282,906	113,66
283,122	46,08
283,337	-11,26
283,552	46,08
283,767	-37,89
283,983	142,33
284,198	84,99
284,413	37,89
284,628	-35,84
284,843	132,09
285,058	58,37
285,274	-27,65
285,489	3,07
285,704	89,09
285,919	-25,6
286,134	66,56
286,349	31,74
286,564	33,79
286,779	166,91
286,995	-29,7
287,21	-84,99
287,425	117,76
287,64	-21,5
287,855	70,65
288,07	-31,74
288,285	115,71
288,5	171,01
288,715	82,94
288,93	19,46
289,145	-11,26
289,36	52,22
289,575	58,37
289,79	205,82
290,004	3,07
290,219	107,52
290,434	-56,32
290,649	-48,13
290,864	25,6
291,079	35,84
291,294	1,02
291,509	27,65
291,724	-23,55
291,938	41,98
292,153	37,89
292,368	-7,17
292,583	80,89
292,798	121,85
293,012	97,28
293,227	107,52
293,442	21,5
293,657	89,09
293,871	89,09
294,086	76,8
294,301	134,14
294,516	134,14
294,73	19,46
294,945	-35,84
295,16	41,98
295,374	138,24
295,589	41,98
295,804	-46,08
296,018	23,55
296,233	136,19
296,447	89,09
296,662	1,02
296,877	148,48
297,091	121,85
297,306	7,17
297,52	-19,46
297,735	76,8
297,949	17,41
298,164	66,56
298,378	52,22
298,593	-60,42
298,807	62,46
299,022	74,75
299,236	138,24
299,451	3,07
299,665	-29,7
299,88	39,94
300,094	64,51
300,309	9,22
300,523	-5,12
300,737	-21,5
300,952	11,26
301,166	54,27
301,381	1,02
301,595	41,98
301,809	37,89
302,024	31,74
302,238	21,5
302,452	119,81
302,667	41,98
302,881	164,86
303,095	99,33
303,309	64,51
303,524	-11,26
303,738	9,22
303,952	-3,07
304,166	54,27
304,381	-113,66
304,595	140,29
304,809	27,65
305,023	76,8
305,237	-27,65
305,452	-19,46
305,666	37,89
305,88	46,08
306,094	166,91
306,308	99,33
306,522	74,75
306,736	74,75
306,95	218,11
307,164	66,56
307,379	46,08
307,593	148,48
307,807	134,14
308,021	78,85
308,235	72,7
308,449	-103,42
308,663	99,33
308,877	275,45
309,091	39,94
309,305	76,8
309,519	-70,65
309,733	168,96
309,947	-31,74
310,161	111,61
310,374	111,61
310,588	117,76
310,802	19,46
311,016	82,94
311,23	87,04
311,444	-17,41
311,658	128
311,872	68,61
312,085	125,95
312,299	142,33
312,513	103,42
312,727	50,18
312,941	39,94
313,154	95,23
313,368	64,51
313,582	66,56
313,796	128
314,009	31,74
314,223	121,85
314,437	95,23
314,651	101,37
314,864	60,42
315,078	33,79
315,292	29,7
315,505	25,6
315,719	113,66
315,933	33,79
316,146	58,37
316,36	1,02
316,573	146,43
316,787	89,09
317,001	82,94
317,214	-19,46
317,428	54,27
317,641	-76,8
317,855	132,09
318,068	97,28
318,282	52,22
318,495	117,76
318,709	175,1
318,922	70,65
319,136	144,38
319,349	119,81
319,563	58,37
319,776	168,96
319,99	31,74
320,203	214,01
320,417	62,46
320,63	146,43
320,843	246,78
321,057	35,84
321,27	70,65
321,483	117,76
321,697	156,67
321,91	70,65
322,124	27,65
322,337	134,14
322,55	134,14
322,763	162,81
322,977	74,75
323,19	-5,12
323,403	44,03
323,617	-11,26
323,83	105,47
324,043	5,12
324,256	117,76
324,469	-39,94
324,683	148,48
324,896	66,56
325,109	46,08
325,322	7,17
325,535	203,77
325,748	80,89
325,962	33,79
326,175	103,42
326,388	125,95
326,601	130,05
326,814	23,55
327,027	144,38
327,24	107,52
327,453	-54,27
327,666	89,09
327,879	99,33
328,092	119,81
328,305	109,57
328,518	-5,12
328,731	68,61
328,944	37,89
329,157	48,13
329,37	74,75
329,583	179,2
329,796	142,33
330,009	17,41
330,222	48,13
330,435	156,67
330,648	107,52
330,861	103,42
331,073	136,19
331,286	136,19
331,499	103,42
331,712	-13,31
331,925	68,61
332,138	140,29
332,35	82,94
332,563	84,99
332,776	240,64
332,989	31,74
333,202	50,18
333,414	91,13
333,627	93,18
333,84	39,94
334,053	41,98
334,265	44,03
334,478	9,22
334,691	-7,17
334,903	13,31
335,116	35,84
335,329	-17,41
335,541	181,25
335,754	193,53
335,966	29,7
336,179	25,6
336,392	111,61
336,604	113,66
336,817	166,91
337,029	9,22
337,242	25,6
337,454	144,38
337,667	136,19
337,88	197,63
338,092	66,56
338,305	82,94
338,517	33,79
338,729	181,25
338,942	144,38
339,154	-19,46
339,367	9,22
339,579	195,58
339,792	64,51
340,004	115,71
340,217	78,85
340,429	68,61
340,641	-29,7
340,854	9,22
341,066	111,61
341,278	134,14
341,491	281,6
341,703	58,37
341,915	101,37
342,128	123,9
342,34	148,48
342,552	-66,56
342,764	48,13
342,977	82,94
343,189	64,51
343,401	91,13
343,613	-1,02
343,826	82,94
344,038	15,36
344,25	37,89
344,462	-13,31
344,674	93,18
344,886	84,99
345,099	132,09
345,311	164,86
345,523	84,99
345,735	21,5
345,947	76,8
346,159	154,62
346,371	111,61
346,583	-35,84
346,795	277,5
347,007	5,12
347,219	156,67
347,431	70,65
347,643	199,68
347,855	-5,12
348,067	197,63
348,279	-3,07
348,491	156,67
348,703	144,38
348,915	66,56
349,127	15,36
349,339	113,66
349,551	99,33
349,763	138,24
349,975	117,76
350,187	95,23
350,399	199,68
350,61	103,42
350,822	80,89
351,034	41,98
351,246	111,61
351,458	113,66
351,669	140,29
351,881	156,67
352,093	164,86
352,305	142,33
352,517	82,94
352,728	240,64
352,94	166,91
353,152	99,33
353,363	31,74
353,575	125,95
353,787	211,96
353,999	54,27
354,21	183,29
354,422	13,31
354,633	146,43
354,845	87,04
355,057	60,42
355,268	177,15
355,48	132,09
355,692	-46,08
355,903	136,19
356,115	-76,8
356,326	15,36
356,538	187,39
356,749	148,48
356,961	179,2
357,172	119,81
357,384	-1,02
357,595	283,64
357,807	21,5
358,018	54,27
358,23	37,89
358,441	205,82
358,653	113,66
358,864	64,51
359,075	37,89
359,287	162,81
359,498	183,29
359,709	97,28
359,921	123,9
360,132	171,01
360,344	128
360,555	-27,65
360,766	48,13
360,977	58,37
361,189	173,05
361,4	109,57
361,611	191,49
361,823	113,66
362,034	50,18
362,245	-39,94
362,456	107,52
362,667	134,14
362,879	23,55
363,09	144,38
363,301	109,57
363,512	119,81
363,723	66,56
363,935	58,37
364,146	80,89
364,357	-17,41
364,568	171,01
364,779	21,5
364,99	181,25
365,201	29,7
365,412	173,05
365,623	-31,74
365,834	87,04
366,045	46,08
366,256	140,29
366,467	150,53
366,678	62,46
366,889	93,18
367,1	95,23
367,311	76,8
367,522	113,66
367,733	197,63
367,944	115,71
368,155	72,7
368,366	154,62
368,577	230,4
368,788	115,71
368,999	123,9
369,209	146,43
369,42	205,82
369,631	295,93
369,842	70,65
370,053	89,09
370,264	142,33
370,474	41,98
370,685	193,53
370,896	72,7
371,107	250,88
371,317	103,42
371,528	130,05
371,739	234,49
371,95	171,01
372,16	193,53
372,371	25,6
372,582	62,46
372,792	130,05
373,003	101,37
373,214	132,09
373,424	214,01
373,635	70,65
373,846	203,77
374,056	111,61
374,267	97,28
374,477	150,53
374,688	82,94
374,898	95,23
375,109	84,99
375,319	134,14
375,53	138,24
375,74	183,29
375,951	68,61
376,161	166,91
376,372	201,72
376,582	66,56
376,793	136,19
377,003	13,31
377,214	113,66
377,424	125,95
377,635	70,65
377,845	41,98
378,055	216,06
378,266	7,17
378,476	72,7
378,686	105,47
378,897	101,37
379,107	179,2
379,317	134,14
379,528	29,7
379,738	138,24
379,948	35,84
380,158	238,59
380,369	89,09
380,579	109,57
380,789	111,61
380,999	166,91
381,21	173,05
381,42	314,36
381,63	60,42
381,84	185,34
382,05	68,61
382,261	164,86
382,471	209,92
382,681	58,37
382,891	175,1
383,101	152,57
383,311	50,18
383,521	99,33
383,731	177,15
383,941	193,53
384,151	93,18
384,361	72,7
384,571	109,57
384,781	84,99
384,991	312,32
385,201	216,06
385,411	177,15
385,621	121,85
385,831	136,19
386,041	41,98
386,251	78,85
386,461	179,2
386,671	107,52
386,881	97,28
387,091	74,75
387,301	226,3
387,511	240,64
387,72	44,03
387,93	168,96
388,14	27,65
388,35	144,38
388,56	263,16
388,769	222,2
388,979	105,47
389,189	103,42
389,399	115,71
389,609	148,48
389,818	123,9
390,028	156,67
390,238	152,57
390,447	46,08
390,657	113,66
390,867	78,85
391,076	19,46
391,286	142,33
391,496	41,98
391,705	111,61
391,915	144,38
392,125	142,33
392,334	62,46
392,544	156,67
392,753	128
392,963	-3,07
393,172	82,94
393,382	93,18
393,591	189,44
393,801	11,26
394,01	216,06
394,22	214,01
394,429	134,14
394,639	140,29
394,848	181,25
395,058	201,72
395,267	23,55
395,477	232,44
395,686	179,2
395,895	343,03
396,105	310,27
396,314	119,81
396,524	74,75
396,733	125,95
396,942	207,87
397,152	132,09
397,361	224,25
397,57	74,75
397,78	158,72
397,989	224,25
398,198	302,08
398,407	123,9
398,617	46,08
398,826	21,5
399,035	148,48
399,244	195,58
399,453	31,74
399,663	54,27
399,872	113,66
400,081	19,46
400,29	171,01
400,499	60,42
400,708	226,3
400,917	82,94
401,127	70,65
401,336	33,79
401,545	179,2
401,754	197,63
401,963	82,94
402,172	89,09
402,381	-3,07
402,59	64,51
402,799	68,61
403,008	148,48
403,217	154,62
403,426	183,29
403,635	-64,51
403,844	72,7
404,053	11,26
404,262	68,61
404,471	250,88
404,68	105,47
404,888	134,14
405,097	41,98
405,306	164,86
405,515	189,44
405,724	44,03
405,933	93,18
406,142	115,71
406,35	205,82
406,559	72,7
406,768	132,09
406,977	244,73
407,185	46,08
407,394	136,19
407,603	60,42
407,812	97,28
408,02	125,95
408,229	121,85
408,438	140,29
408,646	52,22
408,855	207,87
409,064	117,76
409,272	199,68
409,481	263,16
409,69	164,86
409,898	168,96
410,107	340,99
410,315	338,94
410,524	175,1
410,733	238,59
410,941	209,92
411,15	230,4
411,358	224,25
411,567	183,29
411,775	150,53
411,984	140,29
412,192	224,25
412,401	70,65
412,609	183,29
412,818	185,34
413,026	113,66
413,234	91,13
413,443	35,84
413,651	44,03
413,86	76,8
414,068	173,05
414,276	132,09
414,485	35,84
414,693	74,75
414,901	240,64
415,11	138,24
415,318	46,08
415,526	70,65
415,734	99,33
415,943	138,24
416,151	179,2
416,359	5,12
416,567	35,84
416,776	156,67
416,984	80,89
417,192	164,86
417,4	23,55
417,608	31,74
417,817	-13,31
418,025	101,37
418,233	228,35
418,441	46,08
418,649	9,22
418,857	80,89
419,065	181,25
419,273	97,28
419,481	74,75
419,689	-9,22
419,897	-7,17
420,105	46,08
420,313	152,57
420,521	185,34
420,729	257,02
420,937	56,32
421,145	-13,31
421,353	183,29
421,561	134,14
421,769	173,05
421,977	62,46
422,185	136,19
422,393	76,8
422,601	97,28
422,809	29,7
423,017	130,05
423,224	101,37
423,432	58,37
423,64	123,9
423,848	191,49
424,056	-7,17
424,263	58,37
424,471	138,24
424,679	166,91
424,887	-25,6
425,094	140,29
425,302	164,86
425,51	123,9
425,718	111,61
425,925	156,67
426,133	-9,22
426,341	156,67
426,548	3,07
426,756	-48,13
426,964	97,28
427,171	-17,41
427,379	95,23
427,586	-29,7
427,794	74,75
428,001	111,61
428,209	54,27
428,417	89,09
428,624	84,99
428,832	29,7
429,039	54,27
429,247	56,32
429,454	33,79
429,662	150,53
429,869	60,42
430,076	72,7
430,284	191,49
430,491	203,77
430,699	134,14
430,906	189,44
431,114	50,18
431,321	107,52
431,528	134,14
431,736	150,53
431,943	187,39
432,15	263,16
432,358	297,98
432,565	523,26
432,772	338,94
432,979	646,13
433,187	648,18
433,394	875,51
433,601	818,16
433,808	1055,73
434,016	1047,54
434,223	963,57
434,43	891,89
434,637	861,17
434,844	773,11
435,052	656,37
435,259	492,54
435,466	375,8
435,673	375,8
435,88	271,36
436,087	254,97
436,294	211,96
436,501	189,44
436,708	119,81
436,915	97,28
437,122	117,76
437,329	-9,22
437,537	115,71
437,743	107,52
437,95	250,88
438,157	15,36
438,364	25,6
438,571	89,09
438,778	66,56
438,985	132,09
439,192	60,42
439,399	33,79
439,606	134,14
439,813	130,05
440,02	150,53
440,227	279,55
440,433	168,96
440,64	107,52
440,847	54,27
441,054	148,48
441,261	201,72
441,467	125,95
441,674	31,74
441,881	82,94
442,088	15,36
442,294	87,04
442,501	140,29
442,708	181,25
442,914	9,22
443,121	82,94
443,328	121,85
443,534	97,28
443,741	9,22
443,948	46,08
444,154	91,13
444,361	228,35
444,568	58,37
444,774	84,99
444,981	5,12
445,187	189,44
445,394	54,27
445,6	9,22
445,807	117,76
446,013	64,51
446,22	7,17
446,426	123,9
446,633	142,33
446,839	246,78
447,046	-97,28
447,252	160,77
447,459	84,99
447,665	21,5
447,871	95,23
448,078	166,91
448,284	76,8
448,491	109,57
448,697	97,28
448,903	109,57
449,11	35,84
449,316	-7,17
449,522	164,86
449,728	84,99
449,935	134,14
450,141	99,33
450,347	175,1
450,553	125,95
450,76	134,14
450,966	105,47
451,172	113,66
451,378	103,42
451,584	27,65
451,791	271,36
451,997	117,76
452,203	17,41
452,409	175,1
452,615	103,42
452,821	-37,89
453,027	1,02
453,233	246,78
453,44	66,56
453,646	41,98
453,852	52,22
454,058	52,22
454,264	152,57
454,47	140,29
454,676	87,04
454,882	123,9
455,088	134,14
455,294	144,38
455,5	164,86
455,705	33,79
455,911	84,99
456,117	7,17
456,323	33,79
456,529	156,67
456,735	62,46
456,941	68,61
457,147	158,72
457,352	152,57
457,558	-21,5
457,764	171,01
457,97	140,29
458,176	95,23
458,381	21,5
458,587	197,63
458,793	68,61
458,999	-11,26
459,204	87,04
459,41	-19,46
459,616	115,71
459,821	62,46
460,027	-113,66
460,233	125,95
460,438	128
460,644	121,85
460,85	148,48
461,055	74,75
461,261	142,33
461,466	-11,26
461,672	35,84
461,878	3,07
462,083	125,95
462,289	-35,84
462,494	62,46
462,7	101,37
462,905	76,8
463,111	236,54
463,316	117,76
463,522	226,3
463,727	82,94
463,932	144,38
464,138	78,85
464,343	128
464,549	171,01
464,754	250,88
464,959	183,29
465,165	125,95
465,37	156,67
465,575	72,7
465,781	27,65
465,986	95,23
466,191	58,37
466,397	21,5
466,602	177,15
466,807	82,94
467,012	140,29
467,218	150,53
467,423	113,66
467,628	128
467,833	-21,5
468,038	99,33
468,244	37,89
468,449	76,8
468,654	62,46
468,859	46,08
469,064	87,04
469,269	80,89
469,474	103,42
469,679	214,01
469,885	78,85
470,09	50,18
470,295	152,57
470,5	74,75
470,705	201,72
470,91	103,42
471,115	142,33
471,32	39,94
471,525	113,66
471,73	238,59
471,935	91,13
472,139	-11,26
472,344	-9,22
472,549	27,65
472,754	181,25
472,959	136,19
473,164	84,99
473,369	111,61
473,574	181,25
473,778	109,57
473,983	50,18
474,188	140,29
474,393	-17,41
474,598	84,99
474,802	123,9
475,007	19,46
475,212	205,82
475,417	37,89
475,621	181,25
475,826	-17,41
476,031	146,43
476,235	132,09
476,44	97,28
476,645	140,29
476,849	35,84
477,054	46,08
477,259	107,52
477,463	128
477,668	257,02
477,872	236,54
478,077	66,56
478,282	111,61
478,486	189,44
478,691	-5,12
478,895	117,76
479,1	189,44
479,304	162,81
479,509	72,7
479,713	181,25
479,918	185,34
480,122	50,18
480,326	117,76
480,531	111,61
480,735	95,23
480,94	95,23
481,144	121,85
481,348	84,99
481,553	195,58
481,757	19,46
481,961	130,05
482,166	46,08
482,37	39,94
482,574	173,05
482,778	27,65
482,983	99,33
483,187	142,33
483,391	162,81
483,595	257,02
483,8	437,24
484,004	834,55
484,208	1313,77
484,412	2190,3
484,616	3202
484,821	4613,05
485,025	5847,97
485,229	7592,84
485,433	8620,92
485,637	9812,84
485,841	10449,76
486,045	10709,85
486,249	10629,98
486,453	9945,96
486,657	9057,14
486,861	7803,78
487,065	6550,43
487,269	5512,11
487,473	4338,62
487,677	3693,51
487,881	3195,86
488,085	2380,76
488,289	1895,4
488,493	1264,62
488,697	1057,78
488,901	586,74
489,105	427
489,309	295,93
489,512	383,99
489,716	218,11
489,92	240,64
490,124	158,72
490,328	205,82
490,531	74,75
490,735	265,21
490,939	76,8
491,143	132,09
491,346	183,29
491,55	136,19
491,754	72,7
491,958	91,13
492,161	148,48
492,365	125,95
492,569	50,18
492,772	150,53
492,976	211,96
493,18	101,37
493,383	121,85
493,587	164,86
493,79	160,77
493,994	95,23
494,197	72,7
494,401	156,67
494,605	89,09
494,808	31,74
495,012	164,86
495,215	171,01
495,419	144,38
495,622	50,18
495,825	91,13
496,029	142,33
496,232	82,94
496,436	13,31
496,639	142,33
496,843	101,37
497,046	15,36
497,249	205,82
497,453	132,09
497,656	93,18
497,859	148,48
498,063	160,77
498,266	148,48
498,469	35,84
498,673	50,18
498,876	87,04
499,079	48,13
499,282	-21,5
499,485	240,64
499,689	183,29
499,892	146,43
500,095	33,79
500,298	99,33
500,501	-37,89
500,705	31,74
500,908	35,84
501,111	-117,76
501,314	123,9
501,517	183,29
501,72	70,65
501,923	31,74
502,126	123,9
502,329	166,91
502,532	183,29
502,735	138,24
502,938	240,64
503,141	150,53
503,344	-29,7
503,547	250,88
503,75	103,42
503,953	11,26
504,156	140,29
504,359	44,03
504,562	41,98
504,765	52,22
504,968	113,66
505,17	105,47
505,373	158,72
505,576	125,95
505,779	93,18
505,982	93,18
506,185	113,66
506,387	46,08
506,59	193,53
506,793	7,17
506,996	175,1
507,198	140,29
507,401	142,33
507,604	214,01
507,807	146,43
508,009	123,9
508,212	183,29
508,415	25,6
508,617	-15,36
508,82	37,89
509,022	64,51
509,225	62,46
509,428	1,02
509,63	60,42
509,833	9,22
510,035	314,36
510,238	117,76
510,44	-7,17
510,643	128
510,845	121,85
511,048	191,49
511,25	15,36
511,453	-23,55
511,655	134,14
511,858	148,48
512,06	271,36
512,262	-15,36
512,465	97,28
512,667	84,99
512,87	23,55
513,072	119,81
513,274	76,8
513,477	-11,26
513,679	132,09
513,881	164,86
514,084	7,17
514,286	205,82
514,488	105,47
514,69	56,32
514,893	93,18
515,095	37,89
515,297	-9,22
515,499	84,99
515,701	21,5
515,904	128
516,106	193,53
516,308	160,77
516,51	125,95
516,712	150,53
516,914	87,04
517,116	58,37
517,318	125,95
517,52	25,6
517,722	171,01
517,925	44,03
518,127	136,19
518,329	195,58
518,531	-29,7
518,733	60,42
518,935	78,85
519,136	148,48
519,338	19,46
519,54	142,33
519,742	177,15
519,944	187,39
520,146	125,95
520,348	58,37
520,55	185,34
520,752	99,33
520,954	44,03
521,155	89,09
521,357	82,94
521,559	111,61
521,761	162,81
521,963	140,29
522,164	140,29
522,366	125,95
522,568	142,33
522,77	162,81
522,971	173,05
523,173	25,6
523,375	164,86
523,576	9,22
523,778	50,18
523,98	166,91
524,181	62,46
524,383	111,61
524,584	41,98
524,786	80,89
524,988	29,7
525,189	76,8
525,391	31,74
525,592	-31,74
525,794	33,79
525,995	72,7
526,197	68,61
526,398	254,97
526,6	97,28
526,801	82,94
527,003	-64,51
527,204	173,05
527,406	-19,46
527,607	66,56
527,808	111,61
528,01	-3,07
528,211	222,2
528,412	41,98
528,614	105,47
528,815	128
529,016	234,49
529,218	76,8
529,419	132,09
529,62	33,79
529,822	150,53
530,023	54,27
530,224	142,33
530,425	168,96
530,626	54,27
530,828	109,57
531,029	-27,65
531,23	154,62
531,431	-52,22
531,632	144,38
531,833	-13,31
532,035	-17,41
532,236	52,22
532,437	78,85
532,638	3,07
532,839	-78,85
533,04	66,56
533,241	154,62
533,442	66,56
533,643	109,57
533,844	-44,03
534,045	58,37
534,246	117,76
534,447	-44,03
534,648	13,31
534,849	105,47
535,05	103,42
535,251	-9,22
535,451	103,42
535,652	-74,75
535,853	23,55
536,054	146,43
536,255	31,74
536,456	95,23
536,657	5,12
536,857	46,08
537,058	95,23
537,259	-35,84
537,46	111,61
537,66	23,55
537,861	13,31
538,062	111,61
538,263	-74,75
538,463	97,28
538,664	132,09
538,865	-5,12
539,065	99,33
539,266	111,61
539,466	-3,07
539,667	183,29
539,868	44,03
540,068	115,71
540,269	158,72
540,469	132,09
540,67	191,49
540,87	183,29
541,071	33,79
541,271	95,23
541,472	168,96
541,672	101,37
541,873	54,27
542,073	27,65
542,274	95,23
542,474	148,48
542,675	128
542,875	78,85
543,075	-7,17
543,276	31,74
543,476	103,42
543,676	189,44
543,877	87,04
544,077	44,03
544,277	168,96
544,478	37,89
544,678	103,42
544,878	44,03
545,078	103,42
545,279	44,03
545,479	-19,46
545,679	-52,22
545,879	50,18
546,079	99,33
546,28	-11,26
546,48	82,94
546,68	128
546,88	130,05
547,08	74,75
547,28	160,77
547,48	-1,02
547,68	134,14
547,88	117,76
548,081	138,24
548,281	-19,46
548,481	107,52
548,681	103,42
548,881	109,57
549,081	91,13
549,28	76,8
549,48	29,7
549,68	119,81
549,88	123,9
550,08	-44,03
550,28	99,33
550,48	277,5
550,68	97,28
550,88	72,7
551,08	3,07
551,279	191,49
551,479	17,41
551,679	125,95
551,879	60,42
552,079	142,33
552,278	54,27
552,478	267,26
552,678	136,19
552,878	115,71
553,077	62,46
553,277	37,89
553,477	31,74
553,676	107,52
553,876	91,13
554,076	140,29
554,275	140,29
554,475	76,8
554,674	134,14
554,874	13,31
555,074	-27,65
555,273	-15,36
555,473	13,31
555,672	142,33
555,872	70,65
556,071	125,95
556,271	156,67
556,47	80,89
556,67	72,7
556,869	105,47
557,068	66,56
557,268	13,31
557,467	-11,26
557,667	99,33
557,866	105,47
558,065	125,95
558,265	144,38
558,464	9,22
558,663	140,29
558,863	187,39
559,062	41,98
559,261	17,41
559,461	52,22
559,66	74,75
559,859	-23,55
560,058	-37,89
560,258	-25,6
560,457	17,41
560,656	160,77
560,855	35,84
561,054	54,27
561,253	119,81
561,453	97,28
561,652	1,02
561,851	111,61
562,05	-37,89
562,249	-62,46
562,448	54,27
562,647	-31,74
562,846	33,79
563,045	224,25
563,244	160,77
563,443	160,77
563,642	25,6
563,841	70,65
564,04	74,75
564,239	13,31
564,438	58,37
564,637	-113,66
564,836	9,22
565,035	105,47
565,234	5,12
565,432	72,7
565,631	97,28
565,83	1,02
566,029	7,17
566,228	31,74
566,427	156,67
566,625	37,89
566,824	91,13
567,023	87,04
567,222	50,18
567,42	99,33
567,619	117,76
567,818	103,42
568,016	230,4
568,215	105,47
568,414	144,38
568,612	101,37
568,811	109,57
569,01	58,37
569,208	99,33
569,407	128
569,605	205,82
569,804	17,41
570,002	197,63
570,201	-44,03
570,4	162,81
570,598	130,05
570,797	84,99
570,995	60,42
571,193	115,71
571,392	158,72
571,59	1,02
571,789	214,01
571,987	214,01
572,186	238,59
572,384	84,99
572,582	50,18
572,781	232,44
572,979	29,7
573,177	93,18
573,376	68,61
573,574	111,61
573,772	70,65
573,971	44,03
574,169	50,18
574,367	142,33
574,565	80,89
574,763	99,33
574,962	123,9
575,16	166,91
575,358	25,6
575,556	103,42
575,754	76,8
575,952	107,52
576,151	173,05
576,349	218,11
576,547	52,22
576,745	105,47
576,943	205,82
577,141	160,77
577,339	103,42
577,537	173,05
577,735	207,87
577,933	113,66
578,131	27,65
578,329	297,98
578,527	109,57
578,725	166,91
578,923	-11,26
579,121	181,25
579,319	78,85
579,516	103,42
579,714	347,13
579,912	199,68
580,11	11,26
580,308	142,33
580,506	113,66
580,704	-13,31
580,901	54,27
581,099	306,17
581,297	111,61
581,495	228,35
581,692	121,85
581,89	316,41
582,088	220,16
582,285	107,52
582,483	222,2
582,681	164,86
582,878	70,65
583,076	222,2
583,274	205,82
583,471	347,13
583,669	193,53
583,866	91,13
584,064	50,18
584,262	21,5
584,459	128
584,657	146,43
584,854	158,72
585,052	128
585,249	224,25
585,447	97,28
585,644	17,41
585,841	252,92
586,039	214,01
586,236	179,2
586,434	17,41
586,631	82,94
586,828	11,26
587,026	158,72
587,223	60,42
587,42	134,14
587,618	125,95
587,815	156,67
588,012	144,38
588,21	25,6
588,407	230,4
588,604	189,44
588,801	89,09
588,999	76,8
589,196	218,11
589,393	25,6
589,59	164,86
589,787	99,33
589,984	95,23
590,182	132,09
590,379	52,22
590,576	128
590,773	107,52
590,97	68,61
591,167	164,86
591,364	132,09
591,561	72,7
591,758	269,31
591,955	134,14
592,152	138,24
592,349	66,56
592,546	56,32
592,743	-19,46
592,94	168,96
593,137	125,95
593,334	240,64
593,531	226,3
593,727	211,96
593,924	205,82
594,121	128
594,318	113,66
594,515	160,77
594,712	226,3
594,908	240,64
595,105	9,22
595,302	171,01
595,499	101,37
595,696	246,78
595,892	76,8
596,089	240,64
596,286	44,03
596,482	189,44
596,679	119,81
596,876	46,08
597,072	150,53
597,269	87,04
597,466	158,72
597,662	91,13
597,859	35,84
598,055	216,06
598,252	175,1
598,448	109,57
598,645	146,43
598,841	179,2
599,038	211,96
599,234	193,53
599,431	142,33
599,627	173,05
599,824	136,19
600,02	82,94
600,217	70,65
600,413	125,95
600,609	150,53
600,806	390,14
601,002	121,85
601,198	44,03
601,395	203,77
601,591	162,81
601,787	103,42
601,984	183,29
602,18	125,95
602,376	113,66
602,572	201,72
602,769	240,64
602,965	121,85
603,161	125,95
603,357	177,15
603,553	248,83
603,75	93,18
603,946	115,71
604,142	62,46
604,338	201,72
604,534	130,05
604,73	134,14
604,926	-11,26
605,122	146,43
605,318	101,37
605,514	189,44
605,71	164,86
605,906	158,72
606,102	78,85
606,298	248,83
606,494	138,24
606,69	211,96
606,886	130,05
607,082	50,18
607,278	56,32
607,474	166,91
607,67	152,57
607,866	-23,55
608,062	181,25
608,257	173,05
608,453	-29,7
608,649	134,14
608,845	144,38
609,041	27,65
609,236	183,29
609,432	193,53
609,628	107,52
609,824	144,38
610,019	25,6
610,215	66,56
610,411	152,57
610,606	185,34
610,802	29,7
610,998	123,9
611,193	138,24
611,389	56,32
611,584	136,19
611,78	3,07
611,976	156,67
612,171	283,64
612,367	158,72
612,562	74,75
612,758	156,67
612,953	1,02
613,149	74,75
613,344	109,57
613,539	3,07
613,735	164,86
613,93	89,09
614,126	84,99
614,321	136,19
614,517	191,49
614,712	144,38
614,907	168,96
615,103	148,48
615,298	95,23
615,493	41,98
615,688	-52,22
615,884	224,25
616,079	82,94
616,274	109,57
616,47	48,13
616,665	119,81
616,86	64,51
617,055	46,08
617,25	50,18
617,445	58,37
617,641	48,13
617,836	128
618,031	44,03
618,226	132,09
618,421	115,71
618,616	17,41
618,811	84,99
619,006	-7,17
619,201	119,81
619,396	3,07
619,591	60,42
619,786	105,47
619,981	136,19
620,176	97,28
620,371	25,6
620,566	27,65
620,761	134,14
620,956	115,71
621,151	62,46
621,346	64,51
621,541	9,22
621,735	134,14
621,93	80,89
622,125	3,07
622,32	21,5
622,515	-1,02
622,709	158,72
622,904	187,39
623,099	41,98
623,294	140,29
623,488	144,38
623,683	-17,41
623,878	144,38
624,072	166,91
624,267	1,02
624,462	56,32
624,656	-7,17
624,851	123,9
625,046	7,17
625,24	56,32
625,435	74,75
625,629	37,89
625,824	177,15
626,018	107,52
626,213	146,43
626,407	31,74
626,602	76,8
626,796	74,75
626,991	175,1
627,185	-7,17
627,38	60,42
627,574	162,81
627,768	158,72
627,963	101,37
628,157	72,7
628,352	7,17
628,546	-48,13
628,74	39,94
628,935	89,09
629,129	58,37
629,323	162,81
629,517	-13,31
629,712	-7,17
629,906	29,7
630,1	160,77
630,294	128
630,489	95,23
630,683	54,27
630,877	15,36
631,071	166,91
631,265	21,5
631,459	95,23
631,653	-21,5
631,848	171,01
632,042	84,99
632,236	125,95
632,43	142,33
632,624	84,99
632,818	144,38
633,012	158,72
633,206	68,61
633,4	5,12
633,594	164,86
633,788	44,03
633,982	164,86
634,176	207,87
634,369	101,37
634,563	121,85
634,757	13,31
634,951	123,9
635,145	175,1
635,339	99,33
635,533	74,75
635,726	107,52
635,92	46,08
636,114	156,67
636,308	52,22
636,501	68,61
636,695	166,91
636,889	-33,79
637,083	132,09
637,276	58,37
637,47	50,18
637,664	89,09
637,857	33,79
638,051	87,04
638,244	224,25
638,438	105,47
638,632	187,39
638,825	44,03
639,019	222,2
639,212	29,7
639,406	93,18
639,599	11,26
639,793	31,74
639,986	111,61
640,18	166,91
640,373	-1,02
640,567	44,03
640,76	54,27
640,954	156,67
641,147	11,26
641,34	21,5
641,534	68,61
641,727	177,15
641,92	99,33
642,114	189,44
642,307	35,84
642,5	128
642,694	50,18
642,887	44,03
643,08	111,61
643,273	134,14
643,467	23,55
643,66	33,79
643,853	37,89
644,046	58,37
644,239	91,13
644,432	-35,84
644,626	-87,04
644,819	84,99
645,012	117,76
645,205	207,87
645,398	220,16
645,591	66,56
645,784	-37,89
645,977	-5,12
646,17	144,38
646,363	64,51
646,556	5,12
646,749	46,08
646,942	162,81
647,135	80,89
647,328	84,99
647,521	132,09
647,714	70,65
647,907	78,85
648,099	-48,13
648,292	150,53
648,485	87,04
648,678	33,79
648,871	50,18
649,064	115,71
649,256	25,6
649,449	13,31
649,642	52,22
649,835	62,46
650,027	-76,8
650,22	125,95
650,413	164,86
650,605	84,99
650,798	128
650,991	66,56
651,183	119,81
651,376	125,95
651,568	244,73
651,761	152,57
651,954	193,53
652,146	97,28
652,339	209,92
652,531	173,05
652,724	95,23
652,916	134,14
653,109	17,41
653,301	254,97
653,494	242,68
653,686	199,68
653,879	246,78
654,071	216,06
654,263	214,01
654,456	500,73
654,648	2370,52
654,84	6841,24
655,033	15170,33
655,225	25977,46
655,417	37528
655,61	47552,81
655,802	55738,54
655,994	60878,94
656,186	62341,19
656,379	59560,05
656,571	55832,75
656,763	50045,19
656,955	45848,9
657,148	41200,01
657,34	37579,2
657,532	33696,25
657,724	30214,71
657,916	26905,19
658,108	23372,44
658,3	19143,39
658,492	16247,56
658,684	13089,59
658,876	10728,28
659,068	8551,29
659,26	6450,08
659,452	4955,06
659,644	3701,7
659,836	2726,87
660,028	1725,41
660,22	1287,15
660,412	992,24
660,604	838,64
660,796	556,02
660,988	562,17
661,18	410,62
661,372	392,19
661,563	254,97
661,755	336,89
661,947	254,97
662,139	105,47
662,331	242,68
662,522	183,29
662,714	109,57
662,906	76,8
663,097	121,85
663,289	103,42
663,481	33,79
663,673	205,82
663,864	189,44
664,056	224,25
664,247	82,94
664,439	230,4
664,631	152,57
664,822	162,81
665,014	154,62
665,205	107,52
665,397	164,86
665,588	25,6
665,78	89,09
665,971	74,75
666,163	80,89
666,354	140,29
666,546	25,6
666,737	136,19
666,929	146,43
667,12	115,71
667,311	138,24
667,503	87,04
667,694	166,91
667,885	130,05
668,077	154,62
668,268	1,02
668,459	113,66
668,651	150,53
668,842	162,81
669,033	84,99
669,224	-15,36
669,416	232,44
669,607	62,46
669,798	-29,7
669,989	187,39
670,18	-1,02
670,371	70,65
670,563	-97,28
670,754	146,43
670,945	17,41
671,136	142,33
671,327	11,26
671,518	113,66
671,709	248,83
671,9	89,09
672,091	226,3
672,282	60,42
672,473	-13,31
672,664	-5,12
672,855	39,94
673,046	82,94
673,237	222,2
673,428	48,13
673,619	166,91
673,809	66,56
674	173,05
674,191	177,15
674,382	21,5
674,573	113,66
674,764	9,22
674,954	125,95
675,145	-29,7
675,336	78,85
675,527	-70,65
675,717	15,36
675,908	119,81
676,099	60,42
676,289	17,41
676,48	-52,22
676,671	52,22
676,861	-35,84
677,052	31,74
677,243	-1,02
677,433	52,22
677,624	150,53
677,814	35,84
678,005	-25,6
678,195	168,96
678,386	31,74
678,576	66,56
678,767	-35,84
678,957	29,7
679,148	115,71
679,338	115,71
679,529	117,76
679,719	35,84
679,909	185,34
680,1	136,19
680,29	56,32
680,481	-33,79
680,671	82,94
680,861	68,61
681,052	21,5
681,242	-37,89
681,432	78,85
681,622	44,03
681,813	-84,99
682,003	9,22
682,193	-41,98
682,383	72,7
682,573	76,8
682,764	82,94
682,954	25,6
683,144	128
683,334	-15,36
683,524	191,49
683,714	60,42
683,904	41,98
684,094	1,02
684,284	54,27
684,474	177,15
684,664	68,61
684,854	93,18
685,044	48,13
685,234	76,8
685,424	-13,31
685,614	33,79
685,804	132,09
685,994	82,94
686,184	58,37
686,374	132,09
686,564	66,56
686,753	-13,31
686,943	17,41
687,133	78,85
687,323	52,22
687,513	91,13
687,702	97,28
687,892	60,42
688,082	125,95
688,272	113,66
688,461	33,79
688,651	205,82
688,841	82,94
689,03	41,98
689,22	41,98
689,41	87,04
689,599	130,05
689,789	17,41
689,979	111,61
690,168	-1,02
690,358	152,57
690,547	66,56
690,737	93,18
690,926	89,09
691,116	62,46
691,305	128
691,495	115,71
691,684	11,26
691,874	-35,84
692,063	-13,31
692,252	132,09
692,442	56,32
692,631	13,31
692,82	29,7
693,01	3,07
693,199	-25,6
693,388	144,38
693,578	-54,27
693,767	115,71
693,956	29,7
694,146	29,7
694,335	80,89
694,524	29,7
694,713	113,66
694,902	-5,12
695,092	99,33
695,281	123,9
695,47	62,46
695,659	-50,18
695,848	41,98
696,037	19,46
696,226	132,09
696,415	121,85
696,604	166,91
696,793	156,67
696,982	19,46
697,171	166,91
697,36	-52,22
697,549	87,04
697,738	-15,36
697,927	-31,74
698,116	-128
698,305	93,18
698,494	-35,84
698,683	11,26
698,872	150,53
699,061	9,22
699,25	-31,74
699,438	84,99
699,627	25,6
699,816	166,91
700,005	-142,33
700,193	74,75
700,382	64,51
700,571	99,33
700,76	58,37
700,948	134,14
701,137	58,37
701,326	-7,17
701,514	-56,32
701,703	125,95
701,892	41,98
702,08	218,11
702,269	64,51
702,457	74,75
702,646	74,75
702,834	-46,08
703,023	134,14
703,212	72,7
703,4	-19,46
703,589	-25,6
703,777	-15,36
703,965	3,07
704,154	-60,42
704,342	9,22
704,531	-44,03
704,719	68,61
704,907	136,19
705,096	-31,74
705,284	15,36
705,472	21,5
705,661	25,6
705,849	72,7
706,037	107,52
706,226	82,94
706,414	80,89
706,602	-31,74
706,79	78,85
706,979	-25,6
707,167	91,13
707,355	-80,89
707,543	121,85
707,731	150,53
707,919	1,02
708,107	-37,89
708,296	-33,79
708,484	-23,55
708,672	142,33
708,86	41,98
709,048	60,42
709,236	-31,74
709,424	78,85
709,612	17,41
709,8	-60,42
709,988	9,22
710,176	84,99
710,364	140,29
710,551	1,02
710,739	70,65
710,927	-39,94
711,115	68,61
711,303	62,46
711,491	132,09
711,679	44,03
711,866	54,27
712,054	31,74
712,242	33,79
712,43	64,51
712,617	19,46
712,805	195,58
712,993	44,03
713,181	-84,99
713,368	78,85
713,556	-7,17
713,744	29,7
713,931	216,06
714,119	115,71
714,306	54,27
714,494	15,36
714,682	27,65
714,869	-72,7
715,057	50,18
715,244	-48,13
715,432	78,85
715,619	-39,94
715,807	1,02
715,994	-3,07
716,182	72,7
716,369	29,7
716,556	132,09
716,744	3,07
716,931	-31,74
717,119	134,14
717,306	-1,02
717,493	41,98
717,681	3,07
717,868	-33,79
718,055	103,42
718,242	44,03
718,43	37,89
718,617	84,99
718,804	25,6
718,991	62,46
719,179	52,22
719,366	78,85
719,553	89,09
719,74	87,04
719,927	19,46
720,114	41,98
720,301	-70,65
720,488	-46,08
720,676	-35,84
720,863	107,52
721,05	148,48
721,237	74,75
721,424	111,61
721,611	74,75
721,798	-70,65
721,985	17,41
722,172	39,94
722,358	-23,55
722,545	78,85
722,732	60,42
722,919	121,85
723,106	72,7
723,293	7,17
723,48	9,22
723,667	41,98
723,853	93,18
724,04	66,56
724,227	125,95
724,414	27,65
724,6	140,29
724,787	168,96
724,974	142,33
725,161	44,03
725,347	-99,33
725,534	60,42
725,72	101,37
725,907	93,18
726,094	150,53
726,28	17,41
726,467	17,41
726,653	5,12
726,84	171,01
727,027	158,72
727,213	-5,12
727,4	48,13
727,586	3,07
727,773	64,51
727,959	-31,74
728,145	-9,22
728,332	46,08
728,518	-48,13
728,705	72,7
728,891	13,31
729,077	84,99
729,264	-31,74
729,45	21,5
729,636	101,37
729,823	29,7
730,009	125,95
730,195	54,27
730,382	37,89
730,568	-46,08
730,754	87,04
730,94	62,46
731,126	25,6
731,313	50,18
731,499	46,08
731,685	44,03
731,871	80,89
732,057	58,37
732,243	113,66
732,429	93,18
732,615	82,94
732,801	56,32
732,987	9,22
733,173	-13,31
733,359	29,7
733,545	91,13
733,731	-46,08
733,917	199,68
734,103	72,7
734,289	60,42
734,475	-39,94
734,661	181,25
734,847	35,84
735,033	-5,12
735,219	111,61
735,404	27,65
735,59	-25,6
735,776	21,5
735,962	66,56
736,148	72,7
736,333	99,33
736,519	23,55
736,705	-72,7
736,89	17,41
737,076	13,31
737,262	-11,26
737,447	-58,37
737,633	-17,41
737,819	107,52
738,004	-33,79
738,19	-5,12
738,375	44,03
738,561	46,08
738,747	-80,89
738,932	-70,65
739,118	130,05
739,303	101,37
739,489	70,65
739,674	13,31
739,859	-29,7
740,045	103,42
740,23	11,26
740,416	-101,37
740,601	50,18
740,786	35,84
740,972	-72,7
741,157	-11,26
741,342	-25,6
741,528	-156,67
741,713	-9,22
741,898	-76,8
742,084	23,55
742,269	50,18
742,454	134,14
742,639	68,61
742,824	54,27
743,01	136,19
743,195	166,91
743,38	52,22
743,565	41,98
743,75	74,75
743,935	95,23
744,12	107,52
744,305	-62,46
744,49	27,65
744,675	76,8
744,86	31,74
745,045	60,42
745,23	101,37
745,415	21,5
745,6	121,85
745,785	-9,22
745,97	134,14
746,155	60,42
746,34	58,37
746,525	25,6
746,71	228,35
746,895	48,13
747,079	-54,27
747,264	48,13
747,449	103,42
747,634	99,33
747,819	97,28
748,003	-1,02
748,188	-46,08
748,373	93,18
748,557	3,07
748,742	97,28
748,927	84,99
749,111	80,89
749,296	48,13
749,481	91,13
749,665	44,03
749,85	-23,55
750,034	82,94
750,219	68,61
750,404	41,98
750,588	74,75
750,773	17,41
750,957	9,22
751,141	-70,65
751,326	111,61
751,51	9,22
751,695	60,42
751,879	-15,36
752,064	226,3
752,248	21,5
752,432	168,96
752,617	87,04
752,801	109,57
752,985	-31,74
753,17	187,39
753,354	95,23
753,538	89,09
753,722	41,98
753,907	-56,32
754,091	-46,08
754,275	105,47
754,459	-21,5
754,643	41,98
754,828	134,14
755,012	113,66
755,196	-60,42
755,38	41,98
755,564	13,31
755,748	48,13
755,932	66,56
756,116	72,7
756,3	87,04
756,484	29,7
756,668	148,48
756,852	-76,8
757,036	17,41
757,22	76,8
757,404	46,08
757,588	17,41
757,772	134,14
757,956	-17,41
758,14	111,61
758,323	78,85
758,507	84,99
758,691	46,08
758,875	117,76
759,059	189,44
759,242	-1,02
759,426	44,03
759,61	46,08
759,794	29,7
759,977	58,37
760,161	216,06
760,345	136,19
760,528	179,2
760,712	87,04
760,895	-13,31
761,079	62,46
761,263	5,12
761,446	-72,7
761,63	107,52
761,813	136,19
761,997	-35,84
762,18	152,57
762,364	15,36
762,547	-89,09
762,731	46,08
762,914	11,26
763,098	95,23
763,281	9,22
763,464	62,46
763,648	74,75
763,831	-35,84
764,015	-35,84
764,198	144,38
764,381	-23,55
764,564	44,03
764,748	-46,08
764,931	115,71
765,114	7,17
765,297	39,94
765,481	9,22
765,664	-46,08
765,847	68,61
766,03	146,43
766,213	-21,5
766,397	-60,42
766,58	3,07
766,763	109,57
766,946	21,5
767,129	46,08
767,312	-27,65
767,495	11,26
767,678	39,94
767,861	144,38
768,044	41,98
768,227	9,22
768,41	17,41
768,593	91,13
768,776	60,42
768,959	15,36
769,142	162,81
769,324	11,26
769,507	62,46
769,69	105,47
769,873	-15,36
770,056	222,2
770,239	60,42
770,421	111,61
770,604	134,14
770,787	35,84
770,97	33,79
771,152	-44,03
771,335	-19,46
771,518	-64,51
771,7	168,96
771,883	205,82
772,066	29,7
772,248	-1,02
772,431	140,29
772,613	54,27
772,796	1,02
772,978	132,09
773,161	160,77
773,343	15,36
773,526	21,5
773,708	-39,94
773,891	-105,47
774,073	66,56
774,256	-7,17
774,438	117,76
774,621	-31,74
774,803	52,22
774,985	136,19
775,168	62,46
775,35	23,55
775,532	109,57
775,715	25,6
775,897	27,65
776,079	125,95
776,261	195,58
776,444	228,35
776,626	406,52
776,808	603,13
776,99	676,85
777,173	857,07
777,355	881,65
777,537	906,23
777,719	1016,82
777,901	805,88
778,083	674,81
778,265	553,98
778,447	629,75
778,629	498,68
778,811	601,08
778,993	478,2
779,175	482,3
779,357	285,69
779,539	205,82
779,721	199,68
779,903	238,59
780,085	117,76
780,267	183,29
780,449	115,71
780,631	146,43
780,812	211,96
780,994	119,81
781,176	99,33
781,358	17,41
781,54	74,75
781,721	44,03
781,903	134,14
782,085	33,79
782,267	140,29
782,448	-13,31
782,63	-5,12
782,812	35,84
782,993	11,26
783,175	95,23
783,357	5,12
783,538	115,71
783,72	25,6
783,901	93,18
784,083	138,24
784,264	115,71
784,446	-23,55
784,627	-48,13
784,809	50,18
784,99	-29,7
785,172	35,84
785,353	-1,02
785,535	105,47
785,716	46,08
785,897	-46,08
786,079	44,03
786,26	58,37
786,441	50,18
786,623	-74,75
786,804	-31,74
786,985	-35,84
787,167	132,09
787,348	58,37
787,529	11,26
787,71	107,52
787,891	15,36
788,073	-41,98
788,254	-87,04
788,435	132,09
788,616	62,46
788,797	-19,46
788,978	52,22
789,159	-35,84
789,34	-11,26
789,522	54,27
789,703	29,7
789,884	50,18
790,065	62,46
790,246	214,01
790,427	13,31
790,607	119,81
790,788	91,13
790,969	-74,75
791,15	132,09
791,331	-54,27
791,512	-17,41
791,693	-3,07
791,874	-87,04
792,054	187,39
792,235	121,85
792,416	-52,22
792,597	-15,36
792,778	80,89
792,958	64,51
793,139	74,75
793,32	11,26
793,5	-130,05
793,681	134,14
793,862	66,56
794,042	13,31
794,223	-62,46
794,404	54,27
794,584	-91,13
794,765	35,84
794,945	19,46
795,126	99,33
795,306	93,18
795,487	-23,55
795,667	-56,32
795,848	84,99
796,028	-29,7
796,209	5,12
796,389	58,37
796,57	-46,08
796,75	-54,27
796,93	-15,36
797,111	-97,28
797,291	70,65
797,471	119,81
797,652	5,12
797,832	-58,37
798,012	11,26
798,192	9,22
798,373	-64,51
798,553	21,5
798,733	15,36
798,913	5,12
799,093	-21,5
799,274	29,7
799,454	68,61
799,634	101,37
799,814	121,85
799,994	-17,41
800,174	103,42
800,354	31,74
800,534	-89,09
800,714	97,28
800,894	-39,94
801,074	-25,6
801,254	-109,57
801,434	107,52
801,614	41,98
801,794	-29,7
801,974	1942,5
802,154	-82,94
802,334	91,13
802,514	-68,61
802,693	-21,5
802,873	41,98
803,053	171,01
803,233	84,99
803,413	-5,12
803,592	-37,89
803,772	-62,46
803,952	31,74
804,131	-72,7
804,311	123,9
804,491	95,23
804,67	-66,56
804,85	-76,8
805,03	-15,36
805,209	74,75
805,389	17,41
805,568	1,02
805,748	1,02
805,928	15,36
806,107	103,42
806,287	44,03
806,466	111,61
806,646	-66,56
806,825	-25,6
807,004	5,12
807,184	29,7
807,363	121,85
807,543	23,55
807,722	13,31
807,901	117,76
808,081	89,09
808,26	-138,24
808,439	72,7
808,619	17,41
808,798	-15,36
808,977	41,98
809,156	35,84
809,336	15,36
809,515	50,18
809,694	44,03
809,873	-39,94
810,052	109,57
810,231	132,09
810,411	-39,94
810,59	107,52
810,769	50,18
810,948	154,62
811,127	-107,52
811,306	-39,94
811,485	-23,55
811,664	166,91
811,843	-84,99
812,022	-31,74
812,201	-9,22
812,38	15,36
812,559	-9,22
812,737	121,85
812,916	-78,85
813,095	-64,51
813,274	-11,26
813,453	23,55
813,632	33,79
813,811	41,98
813,989	-15,36
814,168	84,99
814,347	-37,89
814,526	31,74
814,704	140,29
814,883	107,52
815,062	-23,55
815,24	95,23
815,419	-64,51
815,598	89,09
815,776	-60,42
815,955	3,07
816,133	-113,66
816,312	-15,36
816,49	-91,13
816,669	9,22
816,847	23,55
817,026	31,74
817,204	-72,7
817,383	46,08
817,561	-111,61
817,74	27,65
817,918	107,52
818,097	29,7
818,275	-5,12
818,453	17,41
818,632	99,33
818,81	-29,7
818,988	-21,5
819,167	29,7
819,345	60,42
819,523	-37,89
819,701	11,26
819,879	91,13
820,058	27,65
820,236	97,28
820,414	-21,5
820,592	-97,28
820,77	21,5
820,948	-60,42
821,127	-58,37
821,305	37,89
821,483	-68,61
821,661	95,23
821,839	41,98
822,017	-33,79
822,195	-60,42
822,373	123,9
822,551	15,36
822,729	44,03
822,907	13,31
823,085	60,42
823,262	-29,7
823,44	-84,99
823,618	-76,8
823,796	-72,7
823,974	-23,55
824,152	-111,61
824,329	-7,17
824,507	-41,98
824,685	52,22
824,863	1,02
825,04	-5,12
825,218	23,55
825,396	-29,7
825,574	-3,07
825,751	41,98
825,929	50,18
826,107	-162,81
826,284	-31,74
826,462	48,13
826,639	-37,89
826,817	-54,27
826,994	46,08
827,172	-39,94
827,349	166,91
827,527	5,12
827,704	56,32
827,882	105,47
828,059	23,55
828,237	-25,6
828,414	33,79
828,591	-74,75
828,769	109,57
828,946	-39,94
829,124	82,94
829,301	54,27
829,478	3,07
829,655	-9,22
829,833	13,31
830,01	-148,48
830,187	9,22
830,364	-3,07
830,542	39,94
830,719	195,58
830,896	140,29
831,073	80,89
831,25	175,1
831,427	37,89
831,604	11,26
831,782	-48,13
831,959	64,51
832,136	-3,07
832,313	78,85
832,49	-48,13
832,667	37,89
832,844	-48,13
833,021	117,76
833,198	93,18
833,374	48,13
833,551	-23,55
833,728	19,46
833,905	29,7
834,082	-138,24
834,259	-9,22
834,436	140,29
834,612	-64,51
834,789	125,95
834,966	33,79
835,143	66,56
835,319	-46,08
835,496	52,22
835,673	-31,74
835,85	80,89
836,026	44,03
836,203	146,43
836,38	-5,12
836,556	-37,89
836,733	-48,13
836,909	150,53
837,086	31,74
837,262	-66,56
837,439	3,07
837,616	-68,61
837,792	60,42
837,968	11,26
838,145	-87,04
838,321	-15,36
838,498	9,22
838,674	33,79
838,851	64,51
839,027	-27,65
839,203	46,08
839,38	66,56
839,556	-21,5
839,732	44,03
839,909	17,41
840,085	82,94
840,261	-41,98
840,437	17,41
840,614	-60,42
840,79	123,9
840,966	93,18
841,142	58,37
841,318	-9,22
841,494	146,43
841,671	37,89
841,847	-62,46
842,023	-117,76
842,199	148,48
842,375	179,2
842,551	-89,09
842,727	-11,26
842,903	189,44
843,079	-70,65
843,255	80,89
843,431	72,7
843,607	150,53
843,783	-23,55
843,959	222,2
844,134	224,25
844,31	441,34
844,486	273,4
844,662	334,84
844,838	353,27
845,013	300,03
845,189	293,88
845,365	271,36
845,541	263,16
845,716	115,71
845,892	211,96
846,068	72,7
846,244	95,23
846,419	203,77
846,595	17,41
846,77	-7,17
846,946	285,69
847,122	123,9
847,297	160,77
847,473	218,11
847,648	-13,31
847,824	150,53
847,999	-117,76
848,175	-21,5
848,35	64,51
848,526	175,1
848,701	80,89
848,876	105,47
849,052	54,27
849,227	13,31
849,403	-19,46
849,578	19,46
849,753	68,61
849,929	68,61
850,104	-101,37
850,279	84,99
850,454	54,27
850,63	-7,17
850,805	9,22
850,98	66,56
851,155	25,6
851,33	19,46
851,505	-70,65
851,681	154,62
851,856	-103,42
852,031	70,65
852,206	64,51
852,381	-103,42
852,556	13,31
852,731	19,46
852,906	46,08
853,081	-13,31
853,256	183,29
853,431	-89,09
853,606	-19,46
853,781	9,22
853,956	-89,09
854,131	72,7
854,305	-54,27
854,48	-3,07
854,655	-56,32
854,83	33,79
855,005	23,55
855,18	89,09
855,354	1,02
855,529	39,94
855,704	3,07
855,879	44,03
856,053	-5,12
856,228	-54,27
856,403	-62,46
856,577	44,03
856,752	-64,51
856,926	17,41
857,101	-19,46
857,276	-101,37
857,45	35,84
857,625	156,67
857,799	48,13
857,974	17,41
858,148	-25,6
858,323	99,33
858,497	-39,94
858,672	13,31
858,846	-54,27
859,02	37,89
859,195	-136,19
859,369	-9,22
859,543	-9,22
859,718	-7,17
859,892	-7,17
860,066	64,51
860,241	33,79
860,415	-60,42
860,589	1,02
860,763	39,94
860,938	-66,56
861,112	-5,12
861,286	25,6
861,46	41,98
861,634	19,46
861,808	150,53
861,982	-37,89
862,157	-62,46
862,331	33,79
862,505	-89,09
862,679	-56,32
862,853	-35,84
863,027	21,5
863,201	187,39
863,375	56,32
863,549	78,85
863,722	7,17
863,896	179,2
864,07	35,84
864,244	25,6
864,418	62,46
864,592	-7,17
864,766	15,36
864,939	-15,36
865,113	-80,89
865,287	93,18
865,461	-15,36
865,634	-9,22
865,808	-80,89
865,982	29,7
866,156	-44,03
866,329	-89,09
866,503	39,94
866,676	48,13
866,85	76,8
867,024	-105,47
867,197	58,37
867,371	29,7
867,544	3,07
867,718	-44,03
867,891	132,09
868,065	-80,89
868,238	1,02
868,412	93,18
868,585	-7,17
868,759	-23,55
868,932	-23,55
869,105	-136,19
869,279	-15,36
869,452	-99,33
869,625	89,09
869,799	41,98
869,972	-56,32
870,145	15,36
870,319	58,37
870,492	-17,41
870,665	23,55
870,838	-99,33
871,011	-119,81
871,185	19,46
871,358	-76,8
871,531	99,33
871,704	-62,46
871,877	76,8
872,05	-74,75
872,223	3,07
872,396	33,79
872,569	44,03
872,742	-76,8
872,915	115,71
873,088	-60,42
873,261	-138,24
873,434	17,41
873,607	84,99
873,78	125,95
873,953	-46,08
874,126	39,94
874,299	107,52
874,471	17,41
874,644	44,03
874,817	74,75
874,99	164,86
875,163	-46,08
875,335	58,37
875,508	-11,26
875,681	148,48
875,853	-41,98
876,026	9,22
876,199	91,13
876,371	41,98
876,544	21,5
876,717	-3,07
876,889	9,22
877,062	84,99
877,234	-78,85
877,407	-105,47
877,579	29,7
877,752	91,13
877,924	76,8
878,097	1,02
878,269	35,84
878,442	29,7
878,614	21,5
878,786	15,36
878,959	33,79
879,131	48,13
879,303	-134,14
879,476	13,31
879,648	132,09
879,82	17,41
879,993	-11,26
880,165	11,26
880,337	-7,17
880,509	91,13
880,681	1,02
880,854	3,07
881,026	134,14
881,198	244,73
881,37	44,03
881,542	-29,7
881,714	21,5
881,886	-58,37
882,058	-21,5
882,23	27,65
882,402	-46,08
882,574	-39,94
882,746	109,57
882,918	187,39
883,09	3,07
883,262	-17,41
883,434	-3,07
883,606	-3,07
883,778	29,7
883,95	62,46
884,122	-29,7
884,293	121,85
884,465	52,22
884,637	189,44
884,809	-70,65
884,98	17,41
885,152	84,99
885,324	25,6
885,496	-46,08
885,667	-19,46
885,839	3,07
886,011	173,05
886,182	56,32
886,354	93,18
886,525	46,08
886,697	-13,31
886,869	-62,46
887,04	-3,07
887,212	148,48
887,383	199,68
887,555	44,03
887,726	-66,56
887,897	-19,46
888,069	25,6
888,24	66,56
888,412	50,18
888,583	54,27
888,754	-41,98
888,926	-158,72
889,097	-56,32
889,268	-39,94
889,44	44,03
889,611	-93,18
889,782	-31,74
889,953	-46,08
890,125	23,55
890,296	-78,85
890,467	-64,51
890,638	-56,32
890,809	9,22
890,98	-56,32
891,151	25,6
891,323	82,94
891,494	-31,74
891,665	-66,56
891,836	-31,74
892,007	-1,02
892,178	52,22
892,349	-23,55
892,52	-58,37
892,691	9,22
892,862	-99,33
893,032	-103,42
893,203	1,02
893,374	3,07
893,545	54,27
893,716	-1,02
893,887	1,02
894,057	-33,79
894,228	9,22
894,399	-125,95
894,57	103,42
894,74	11,26
894,911	-15,36
895,082	35,84
895,253	-39,94
895,423	70,65
895,594	111,61
895,764	9,22
895,935	-123,9
896,106	60,42
896,276	3,07
896,447	33,79
896,617	-56,32
896,788	-93,18
896,958	-23,55
897,129	-121,85
897,299	-64,51
897,47	60,42
897,64	107,52
897,81	-56,32
897,981	-17,41
898,151	-17,41
898,322	84,99
898,492	62,46
898,662	3,07
898,832	-11,26
899,003	-29,7
899,173	33,79
899,343	-19,46
899,513	-21,5
