Data from deuterium_USB4F104151__8__10-57-07-457.txt Node

Date: Wed Apr 15 10:57:07 EDT 2026
User: LaboPhy
Spectrometer: USB4F10415
Trigger mode: 4
Integration Time (sec): 1,000000E-1
Scans to average: 1
Electric dark correction enabled: true
Nonlinearity correction enabled: false
Boxcar width: 0
XAxis mode: Wavelengths
Number of Pixels in Spectrum: 3648
>>>>>Begin Spectral Data<<<<<
178,204	-463,52
178,424	-463,52
178,644	-463,52
178,864	-492,2
179,084	-445,09
179,304	-29,35
179,524	54,61
179,744	-141,99
179,964	30,04
180,184	-19,11
180,404	34,13
180,624	-21,16
180,844	17,75
181,064	-12,97
181,283	52,56
181,503	-4,78
181,723	40,28
181,943	-133,8
182,163	204,11
182,383	15,7
182,602	34,13
182,822	189,78
183,042	181,59
183,262	30,04
183,482	-70,31
183,701	-31,4
183,921	85,33
184,141	-2,73
184,361	46,42
184,58	50,52
184,8	-0,68
185,02	9,56
185,239	128,34
185,459	118,1
185,679	197,97
185,898	-47,79
186,118	93,52
186,338	7,51
186,557	220,5
186,777	-64,17
186,997	-125,61
187,216	21,84
187,436	157,01
187,655	101,72
187,875	185,68
188,095	-12,97
188,314	142,68
188,534	52,56
188,753	-33,45
188,973	124,24
189,192	230,74
189,412	36,18
189,631	-29,35
189,851	111,96
190,07	200,02
190,29	-78,51
190,509	25,94
190,729	48,47
190,948	138,58
191,168	228,69
191,387	52,56
191,607	36,18
191,826	77,14
192,045	5,46
192,265	-6,83
192,484	91,48
192,704	-29,35
192,923	-31,4
193,142	171,35
193,362	183,63
193,581	130,39
193,8	81,24
194,02	97,62
194,239	54,61
194,458	77,14
194,678	30,04
194,897	3,41
195,116	101,72
195,335	101,72
195,555	60,76
195,774	3,41
195,993	138,58
196,212	89,43
196,432	-25,26
196,651	19,8
196,87	89,43
197,089	259,41
197,308	140,63
197,528	54,61
197,747	-25,26
197,966	134,48
198,185	140,63
198,404	-62,12
198,623	124,24
198,842	118,1
199,062	134,48
199,281	68,95
199,5	36,18
199,719	83,28
199,938	99,67
200,157	56,66
200,376	130,39
200,595	130,39
200,814	97,62
201,033	15,7
201,252	118,1
201,471	-29,35
201,69	54,61
201,909	19,8
202,128	103,76
202,347	177,49
202,566	40,28
202,785	-19,11
203,004	54,61
203,223	243,03
203,442	11,61
203,661	5,46
203,879	56,66
204,098	163,15
204,317	-8,87
204,536	97,62
204,755	173,39
204,974	77,14
205,193	-17,07
205,411	77,14
205,63	132,44
205,849	64,85
206,068	34,13
206,287	-39,59
206,505	175,44
206,724	83,28
206,943	-23,21
207,162	3,41
207,381	150,87
207,599	50,52
207,818	11,61
208,037	-0,68
208,255	60,76
208,474	52,56
208,693	83,28
208,911	-37,55
209,13	167,25
209,349	101,72
209,567	116,05
209,786	111,96
210,005	185,68
210,223	42,32
210,442	-88,75
210,661	48,47
210,879	154,96
211,098	34,13
211,316	23,89
211,535	105,81
211,753	1,37
211,972	71
212,191	1,37
212,409	-6,83
212,628	134,48
212,846	7,51
213,065	19,8
213,283	64,85
213,502	99,67
213,72	32,08
213,938	-4,78
214,157	17,75
214,375	154,96
214,594	40,28
214,812	107,86
215,031	93,52
215,249	11,61
215,467	97,62
215,686	-55,98
215,904	148,82
216,122	56,66
216,341	130,39
216,559	103,76
216,778	109,91
216,996	99,67
217,214	87,38
217,432	32,08
217,651	-6,83
217,869	58,71
218,087	44,37
218,306	17,75
218,524	-19,11
218,742	54,61
218,96	144,72
219,179	-4,78
219,397	17,75
219,615	310,61
219,833	81,24
220,051	7,51
220,27	111,96
220,488	114
220,706	109,91
220,924	40,28
221,142	25,94
221,36	11,61
221,578	87,38
221,796	17,75
222,015	21,84
222,233	138,58
222,451	173,39
222,669	-45,74
222,887	50,52
223,105	-6,83
223,323	52,56
223,541	7,51
223,759	93,52
223,977	120,15
224,195	214,35
224,413	132,44
224,631	32,08
224,849	75,09
225,067	214,35
225,285	-68,27
225,503	25,94
225,721	-19,11
225,939	64,85
226,157	60,76
226,375	167,25
226,592	-15,02
226,81	75,09
227,028	109,91
227,246	154,96
227,464	116,05
227,682	81,24
227,9	105,81
228,117	25,94
228,335	118,1
228,553	114
228,771	-15,02
228,989	7,51
229,206	171,35
229,424	52,56
229,642	23,89
229,86	-88,75
230,077	189,78
230,295	83,28
230,513	165,2
230,731	73,04
230,948	154,96
231,166	208,21
231,384	1,37
231,601	-103,08
231,819	222,55
232,037	-17,07
232,254	58,71
232,472	19,8
232,689	-23,21
232,907	169,3
233,125	23,89
233,342	34,13
233,56	46,42
233,777	81,24
233,995	34,13
234,213	25,94
234,43	23,89
234,648	89,43
234,865	-21,16
235,083	44,37
235,3	77,14
235,518	73,04
235,735	175,44
235,953	81,24
236,17	103,76
236,388	62,8
236,605	50,52
236,822	89,43
237,04	142,68
237,257	77,14
237,475	-82,6
237,692	95,57
237,909	66,9
238,127	21,84
238,344	181,59
238,562	103,76
238,779	7,51
238,996	-72,36
239,214	7,51
239,431	95,57
239,648	-31,4
239,865	140,63
240,083	66,9
240,3	5,46
240,517	34,13
240,735	58,71
240,952	263,51
241,169	130,39
241,386	75,09
241,603	130,39
241,821	40,28
242,038	120,15
242,255	148,82
242,472	19,8
242,689	118,1
242,907	62,8
243,124	34,13
243,341	-25,26
243,558	17,75
243,775	-2,73
243,992	-49,83
244,209	126,29
244,426	114
244,643	66,9
244,86	11,61
245,078	85,33
245,295	15,7
245,512	-27,31
245,729	-29,35
245,946	71
246,163	27,99
246,38	-0,68
246,597	83,28
246,814	52,56
247,031	42,32
247,248	1,37
247,464	103,76
247,681	71
247,898	91,48
248,115	93,52
248,332	54,61
248,549	136,53
248,766	187,73
248,983	34,13
249,2	77,14
249,417	171,35
249,633	34,13
249,85	34,13
250,067	15,7
250,284	66,9
250,501	64,85
250,717	105,81
250,934	-45,74
251,151	11,61
251,368	23,89
251,585	107,86
251,801	71
252,018	-31,4
252,235	138,58
252,451	1,37
252,668	38,23
252,885	140,63
253,102	50,52
253,318	56,66
253,535	-33,45
253,752	19,8
253,968	5,46
254,185	-25,26
254,401	50,52
254,618	81,24
254,835	-25,26
255,051	152,91
255,268	71
255,484	114
255,701	-10,92
255,917	144,72
256,134	-17,07
256,351	-35,5
256,567	-74,41
256,784	44,37
257	-60,07
257,217	142,68
257,433	85,33
257,65	71
257,866	146,77
258,082	-35,5
258,299	-2,73
258,515	93,52
258,732	19,8
258,948	83,28
259,165	19,8
259,381	-45,74
259,597	38,23
259,814	81,24
260,03	40,28
260,246	-2,73
260,463	220,5
260,679	148,82
260,895	58,71
261,112	87,38
261,328	25,94
261,544	-8,87
261,761	161,11
261,977	62,8
262,193	-80,55
262,409	99,67
262,626	7,51
262,842	60,76
263,058	-0,68
263,274	101,72
263,49	60,76
263,707	130,39
263,923	120,15
264,139	-53,93
264,355	91,48
264,571	109,91
264,787	118,1
265,004	193,87
265,22	81,24
265,436	-0,68
265,652	5,46
265,868	56,66
266,084	-86,7
266,3	50,52
266,516	68,95
266,732	38,23
266,948	-33,45
267,164	-66,22
267,38	40,28
267,596	34,13
267,812	226,64
268,028	64,85
268,244	48,47
268,46	68,95
268,676	42,32
268,892	91,48
269,108	9,56
269,324	-74,41
269,54	-64,17
269,756	50,52
269,972	-23,21
270,188	-8,87
270,403	-47,79
270,619	9,56
270,835	152,91
271,051	50,52
271,267	-78,51
271,483	64,85
271,698	89,43
271,914	157,01
272,13	109,91
272,346	23,89
272,562	79,19
272,777	146,77
272,993	19,8
273,209	-55,98
273,425	109,91
273,64	-33,45
273,856	191,83
274,072	-49,83
274,287	-17,07
274,503	81,24
274,719	25,94
274,934	34,13
275,15	-107,18
275,366	103,76
275,581	11,61
275,797	48,47
276,012	62,8
276,228	34,13
276,444	9,56
276,659	138,58
276,875	64,85
277,09	32,08
277,306	-90,79
277,521	68,95
277,737	118,1
277,952	134,48
278,168	3,41
278,383	73,04
278,599	9,56
278,814	140,63
279,03	79,19
279,245	210,26
279,461	-0,68
279,676	99,67
279,892	-15,02
280,107	-31,4
280,322	-76,46
280,538	87,38
280,753	-84,65
280,969	126,29
281,184	99,67
281,399	177,49
281,615	46,42
281,83	13,65
282,045	-23,21
282,26	15,7
282,476	32,08
282,691	146,77
282,906	91,48
283,122	50,52
283,337	44,37
283,552	5,46
283,767	-8,87
283,983	126,29
284,198	-25,26
284,413	159,06
284,628	56,66
284,843	68,95
285,058	77,14
285,274	1,37
285,489	1,37
285,704	114
285,919	-25,26
286,134	1,37
286,349	-0,68
286,564	19,8
286,779	114
286,995	17,75
287,21	-92,84
287,425	148,82
287,64	15,7
287,855	17,75
288,07	-51,88
288,285	118,1
288,5	140,63
288,715	114
288,93	-17,07
289,145	75,09
289,36	64,85
289,575	-8,87
289,79	134,48
290,004	-21,16
290,219	68,95
290,434	-12,97
290,649	-70,31
290,864	9,56
291,079	-19,11
291,294	107,86
291,509	54,61
291,724	-0,68
291,938	75,09
292,153	118,1
292,368	-12,97
292,583	60,76
292,798	79,19
293,012	122,2
293,227	124,24
293,442	58,71
293,657	101,72
293,871	171,35
294,086	75,09
294,301	204,11
294,516	118,1
294,73	64,85
294,945	44,37
295,16	40,28
295,374	105,81
295,589	60,76
295,804	32,08
296,018	52,56
296,233	95,57
296,447	54,61
296,662	-2,73
296,877	148,82
297,091	83,28
297,306	58,71
297,52	15,7
297,735	44,37
297,949	3,41
298,164	-0,68
298,378	111,96
298,593	25,94
298,807	-53,93
299,022	38,23
299,236	142,68
299,451	50,52
299,665	36,18
299,88	83,28
300,094	128,34
300,309	-2,73
300,523	3,41
300,737	73,04
300,952	132,44
301,166	132,44
301,381	-39,59
301,595	56,66
301,809	77,14
302,024	50,52
302,238	-6,83
302,452	148,82
302,667	40,28
302,881	159,06
303,095	56,66
303,309	-35,5
303,524	60,76
303,738	-23,21
303,952	-39,59
304,166	99,67
304,381	-10,92
304,595	81,24
304,809	-15,02
305,023	23,89
305,237	-74,41
305,452	5,46
305,666	75,09
305,88	126,29
306,094	148,82
306,308	48,47
306,522	163,15
306,736	56,66
306,95	95,57
307,164	46,42
307,379	58,71
307,593	202,07
307,807	175,44
308,021	122,2
308,235	19,8
308,449	-6,83
308,663	13,65
308,877	232,79
309,091	114
309,305	93,52
309,519	-98,99
309,733	181,59
309,947	-58,03
310,161	89,43
310,374	114
310,588	150,87
310,802	-39,59
311,016	64,85
311,23	154,96
311,444	-19,11
311,658	-2,73
311,872	154,96
312,085	161,11
312,299	130,39
312,513	148,82
312,727	3,41
312,941	-68,27
313,154	87,38
313,368	101,72
313,582	52,56
313,796	85,33
314,009	68,95
314,223	130,39
314,437	97,62
314,651	93,52
314,864	64,85
315,078	25,94
315,292	56,66
315,505	42,32
315,719	109,91
315,933	101,72
316,146	42,32
316,36	17,75
316,573	132,44
316,787	165,2
317,001	40,28
317,214	-19,11
317,428	101,72
317,641	-37,55
317,855	60,76
318,068	64,85
318,282	62,8
318,495	216,4
318,709	130,39
318,922	-17,07
319,136	154,96
319,349	167,25
319,563	-17,07
319,776	101,72
319,99	-33,45
320,203	79,19
320,417	21,84
320,63	97,62
320,843	273,75
321,057	64,85
321,27	19,8
321,483	60,76
321,697	132,44
321,91	111,96
322,124	50,52
322,337	89,43
322,55	122,2
322,763	46,42
322,977	34,13
323,19	46,42
323,403	93,52
323,617	134,48
323,83	191,83
324,043	83,28
324,256	77,14
324,469	-41,64
324,683	105,81
324,896	1,37
325,109	99,67
325,322	-6,83
325,535	97,62
325,748	181,59
325,962	36,18
326,175	21,84
326,388	19,8
326,601	140,63
326,814	68,95
327,027	21,84
327,24	154,96
327,453	-6,83
327,666	134,48
327,879	118,1
328,092	17,75
328,305	126,29
328,518	7,51
328,731	58,71
328,944	-0,68
329,157	177,49
329,37	23,89
329,583	212,31
329,796	197,97
330,009	-37,55
330,222	62,8
330,435	116,05
330,648	107,86
330,861	142,68
331,073	34,13
331,286	122,2
331,499	27,99
331,712	54,61
331,925	32,08
332,138	91,48
332,35	173,39
332,563	46,42
332,776	89,43
332,989	44,37
333,202	25,94
333,414	77,14
333,627	40,28
333,84	103,76
334,053	89,43
334,265	64,85
334,478	21,84
334,691	36,18
334,903	142,68
335,116	-37,55
335,329	36,18
335,541	19,8
335,754	269,65
335,966	50,52
336,179	95,57
336,392	97,62
336,604	44,37
336,817	208,21
337,029	130,39
337,242	44,37
337,454	103,76
337,667	93,52
337,88	200,02
338,092	181,59
338,305	85,33
338,517	11,61
338,729	73,04
338,942	134,48
339,154	23,89
339,367	-53,93
339,579	142,68
339,792	-33,45
340,004	206,16
340,217	54,61
340,429	89,43
340,641	97,62
340,854	95,57
341,066	32,08
341,278	163,15
341,491	222,55
341,703	66,9
341,915	-2,73
342,128	220,5
342,34	77,14
342,552	15,7
342,764	77,14
342,977	19,8
343,189	157,01
343,401	91,48
343,613	-35,5
343,826	64,85
344,038	-55,98
344,25	66,9
344,462	40,28
344,674	32,08
344,886	15,7
345,099	150,87
345,311	148,82
345,523	64,85
345,735	-105,13
345,947	40,28
346,159	111,96
346,371	111,96
346,583	44,37
346,795	263,51
347,007	85,33
347,219	73,04
347,431	124,24
347,643	154,96
347,855	15,7
348,067	105,81
348,279	-4,78
348,491	64,85
348,703	152,91
348,915	23,89
349,127	40,28
349,339	103,76
349,551	11,61
349,763	132,44
349,975	93,52
350,187	208,21
350,399	107,86
350,61	159,06
350,822	79,19
351,034	99,67
351,246	101,72
351,458	138,58
351,669	159,06
351,881	77,14
352,093	236,88
352,305	179,54
352,517	85,33
352,728	97,62
352,94	23,89
353,152	111,96
353,363	-4,78
353,575	1,37
353,787	210,26
353,999	159,06
354,21	226,64
354,422	44,37
354,633	87,38
354,845	105,81
355,057	159,06
355,268	36,18
355,48	195,92
355,692	-23,21
355,903	114
356,115	50,52
356,326	-27,31
356,538	150,87
356,749	181,59
356,961	218,45
357,172	54,61
357,384	11,61
357,595	257,36
357,807	27,99
358,018	48,47
358,23	38,23
358,441	200,02
358,653	109,91
358,864	56,66
359,075	-39,59
359,287	111,96
359,498	111,96
359,709	187,73
359,921	87,38
360,132	128,34
360,344	122,2
360,555	77,14
360,766	71
360,977	48,47
361,189	105,81
361,4	48,47
361,611	163,15
361,823	91,48
362,034	89,43
362,245	-39,59
362,456	32,08
362,667	142,68
362,879	17,75
363,09	128,34
363,301	64,85
363,512	46,42
363,723	105,81
363,935	97,62
364,146	226,64
364,357	58,71
364,568	130,39
364,779	-33,45
364,99	171,35
365,201	32,08
365,412	185,68
365,623	-21,16
365,834	105,81
366,045	130,39
366,256	154,96
366,467	206,16
366,678	159,06
366,889	50,52
367,1	68,95
367,311	111,96
367,522	91,48
367,733	101,72
367,944	58,71
368,155	50,52
368,366	171,35
368,577	138,58
368,788	99,67
368,999	21,84
369,209	91,48
369,42	314,7
369,631	245,07
369,842	175,44
370,053	38,23
370,264	134,48
370,474	23,89
370,685	130,39
370,896	27,99
371,107	224,59
371,317	179,54
371,528	107,86
371,739	197,97
371,95	177,49
372,16	195,92
372,371	-4,78
372,582	93,52
372,792	114
373,003	50,52
373,214	187,73
373,424	171,35
373,635	25,94
373,846	255,31
374,056	193,87
374,267	58,71
374,477	144,72
374,688	-23,21
374,898	167,25
375,109	73,04
375,319	109,91
375,53	163,15
375,74	30,04
375,951	60,76
376,161	128,34
376,372	179,54
376,582	56,66
376,793	161,11
377,003	27,99
377,214	132,44
377,424	204,11
377,635	87,38
377,845	107,86
378,055	187,73
378,266	-17,07
378,476	109,91
378,686	171,35
378,897	64,85
379,107	140,63
379,317	126,29
379,528	60,76
379,738	163,15
379,948	-53,93
380,158	251,22
380,369	66,9
380,579	118,1
380,789	52,56
380,999	107,86
381,21	154,96
381,42	277,84
381,63	95,57
381,84	195,92
382,05	210,26
382,261	187,73
382,471	171,35
382,681	97,62
382,891	232,79
383,101	87,38
383,311	-31,4
383,521	40,28
383,731	142,68
383,941	138,58
384,151	83,28
384,361	66,9
384,571	87,38
384,781	93,52
384,991	269,65
385,201	253,27
385,411	163,15
385,621	167,25
385,831	109,91
386,041	122,2
386,251	42,32
386,461	165,2
386,671	126,29
386,881	114
387,091	97,62
387,301	202,07
387,511	95,57
387,72	138,58
387,93	130,39
388,14	-78,51
388,35	132,44
388,56	226,64
388,769	171,35
388,979	91,48
389,189	71
389,399	75,09
389,609	163,15
389,818	173,39
390,028	105,81
390,238	130,39
390,447	32,08
390,657	40,28
390,867	120,15
391,076	-8,87
391,286	154,96
391,496	54,61
391,705	114
391,915	179,54
392,125	214,35
392,334	114
392,544	283,98
392,753	89,43
392,963	71
393,172	97,62
393,382	25,94
393,591	238,93
393,801	40,28
394,01	243,03
394,22	181,59
394,429	44,37
394,639	66,9
394,848	138,58
395,058	97,62
395,267	73,04
395,477	204,11
395,686	181,59
395,895	195,92
396,105	314,7
396,314	197,97
396,524	136,53
396,733	91,48
396,942	197,97
397,152	128,34
397,361	222,55
397,57	187,73
397,78	93,52
397,989	226,64
398,198	273,75
398,407	118,1
398,617	99,67
398,826	116,05
399,035	87,38
399,244	163,15
399,453	54,61
399,663	40,28
399,872	42,32
400,081	19,8
400,29	179,54
400,499	64,85
400,708	144,72
400,917	73,04
401,127	-19,11
401,336	58,71
401,545	310,61
401,754	175,44
401,963	126,29
402,172	32,08
402,381	-10,92
402,59	25,94
402,799	85,33
403,008	177,49
403,217	148,82
403,426	107,86
403,635	-0,68
403,844	68,95
404,053	130,39
404,262	60,76
404,471	214,35
404,68	99,67
404,888	30,04
405,097	146,77
405,306	97,62
405,515	179,54
405,724	17,75
405,933	122,2
406,142	60,76
406,35	157,01
406,559	56,66
406,768	109,91
406,977	175,44
407,185	136,53
407,394	134,48
407,603	1,37
407,812	126,29
408,02	236,88
408,229	120,15
408,438	247,12
408,646	60,76
408,855	114
409,064	298,32
409,272	193,87
409,481	165,2
409,69	200,02
409,898	152,91
410,107	359,76
410,315	329,04
410,524	224,59
410,733	331,09
410,941	245,07
411,15	333,14
411,358	296,27
411,567	265,55
411,775	75,09
411,984	195,92
412,192	183,63
412,401	17,75
412,609	138,58
412,818	167,25
413,026	118,1
413,234	66,9
413,443	116,05
413,651	56,66
413,86	1,37
414,068	83,28
414,276	273,75
414,485	25,94
414,693	173,39
414,901	273,75
415,11	109,91
415,318	17,75
415,526	154,96
415,734	116,05
415,943	154,96
416,151	179,54
416,359	75,09
416,567	97,62
416,776	124,24
416,984	93,52
417,192	281,94
417,4	-88,75
417,608	25,94
417,817	-33,45
418,025	114
418,233	193,87
418,441	3,41
418,649	-86,7
418,857	-10,92
419,065	150,87
419,273	34,13
419,481	109,91
419,689	73,04
419,897	-8,87
420,105	-17,07
420,313	154,96
420,521	109,91
420,729	163,15
420,937	-76,46
421,145	15,7
421,353	161,11
421,561	138,58
421,769	107,86
421,977	3,41
422,185	99,67
422,393	126,29
422,601	136,53
422,809	173,39
423,017	85,33
423,224	114
423,432	191,83
423,64	19,8
423,848	138,58
424,056	83,28
424,263	140,63
424,471	7,51
424,679	120,15
424,887	-6,83
425,094	130,39
425,302	83,28
425,51	30,04
425,718	126,29
425,925	124,24
426,133	-15,02
426,341	220,5
426,548	107,86
426,756	56,66
426,964	114
427,171	25,94
427,379	132,44
427,586	77,14
427,794	97,62
428,001	87,38
428,209	83,28
428,417	173,39
428,624	83,28
428,832	126,29
429,039	68,95
429,247	116,05
429,454	165,2
429,662	185,68
429,869	40,28
430,076	77,14
430,284	89,43
430,491	175,44
430,699	42,32
430,906	214,35
431,114	44,37
431,321	159,06
431,528	109,91
431,736	157,01
431,943	208,21
432,15	261,46
432,358	304,46
432,565	458,06
432,772	392,53
432,979	701,77
433,187	582,99
433,394	836,94
433,601	789,83
433,808	1097,03
434,016	1099,08
434,223	1015,11
434,43	884,04
434,637	892,23
434,844	724,3
435,052	646,48
435,259	574,8
435,466	437,58
435,673	292,18
435,88	331,09
436,087	335,18
436,294	240,98
436,501	116,05
436,708	27,99
436,915	116,05
437,122	179,54
437,329	1,37
437,537	34,13
437,743	64,85
437,95	220,5
438,157	64,85
438,364	54,61
438,571	97,62
438,778	105,81
438,985	107,86
439,192	126,29
439,399	64,85
439,606	138,58
439,813	107,86
440,02	154,96
440,227	265,55
440,433	173,39
440,64	44,37
440,847	71
441,054	109,91
441,261	177,49
441,467	54,61
441,674	9,56
441,881	138,58
442,088	56,66
442,294	60,76
442,501	218,45
442,708	132,44
442,914	68,95
443,121	85,33
443,328	144,72
443,534	89,43
443,741	66,9
443,948	-12,97
444,154	99,67
444,361	302,42
444,568	17,75
444,774	103,76
444,981	-29,35
445,187	177,49
445,394	40,28
445,6	40,28
445,807	83,28
446,013	73,04
446,22	-33,45
446,426	23,89
446,633	101,72
446,839	261,46
447,046	-21,16
447,252	175,44
447,459	46,42
447,665	-15,02
447,871	77,14
448,078	154,96
448,284	97,62
448,491	97,62
448,697	146,77
448,903	154,96
449,11	99,67
449,316	3,41
449,522	169,3
449,728	171,35
449,935	93,52
450,141	42,32
450,347	157,01
450,553	62,8
450,76	99,67
450,966	171,35
451,172	34,13
451,378	77,14
451,584	114
451,791	202,07
451,997	126,29
452,203	95,57
452,409	118,1
452,615	138,58
452,821	95,57
453,027	-27,31
453,233	150,87
453,44	-6,83
453,646	66,9
453,852	71
454,058	-27,31
454,264	77,14
454,47	114
454,676	114
454,882	101,72
455,088	150,87
455,294	81,24
455,5	91,48
455,705	23,89
455,911	103,76
456,117	109,91
456,323	50,52
456,529	107,86
456,735	40,28
456,941	142,68
457,147	83,28
457,352	132,44
457,558	3,41
457,764	128,34
457,97	93,52
458,176	32,08
458,381	25,94
458,587	189,78
458,793	116,05
458,999	81,24
459,204	68,95
459,41	1,37
459,616	109,91
459,821	64,85
460,027	-90,79
460,233	64,85
460,438	116,05
460,644	48,47
460,85	138,58
461,055	107,86
461,261	150,87
461,466	27,99
461,672	89,43
461,878	-0,68
462,083	126,29
462,289	-47,79
462,494	40,28
462,7	34,13
462,905	32,08
463,111	134,48
463,316	226,64
463,522	116,05
463,727	64,85
463,932	83,28
464,138	154,96
464,343	60,76
464,549	134,48
464,754	216,4
464,959	111,96
465,165	9,56
465,37	128,34
465,575	89,43
465,781	48,47
465,986	19,8
466,191	134,48
466,397	165,2
466,602	218,45
466,807	75,09
467,012	38,23
467,218	79,19
467,423	111,96
467,628	50,52
467,833	38,23
468,038	62,8
468,244	-23,21
468,449	3,41
468,654	66,9
468,859	54,61
469,064	1,37
469,269	103,76
469,474	44,37
469,679	105,81
469,885	81,24
470,09	64,85
470,295	58,71
470,5	46,42
470,705	154,96
470,91	148,82
471,115	179,54
471,32	3,41
471,525	263,51
471,73	130,39
471,935	103,76
472,139	40,28
472,344	46,42
472,549	165,2
472,754	154,96
472,959	116,05
473,164	103,76
473,369	95,57
473,574	187,73
473,778	107,86
473,983	107,86
474,188	212,31
474,393	42,32
474,598	87,38
474,802	93,52
475,007	105,81
475,212	48,47
475,417	118,1
475,621	171,35
475,826	81,24
476,031	73,04
476,235	132,44
476,44	62,8
476,645	109,91
476,849	114
477,054	-6,83
477,259	-8,87
477,463	185,68
477,668	257,36
477,872	206,16
478,077	105,81
478,282	19,8
478,486	75,09
478,691	99,67
478,895	42,32
479,1	187,73
479,304	218,45
479,509	111,96
479,713	197,97
479,918	189,78
480,122	66,9
480,326	66,9
480,531	150,87
480,735	183,63
480,94	101,72
481,144	216,4
481,348	99,67
481,553	191,83
481,757	132,44
481,961	81,24
482,166	134,48
482,37	30,04
482,574	146,77
482,778	56,66
482,983	118,1
483,187	105,81
483,391	161,11
483,595	118,1
483,8	462,16
484,004	935,24
484,208	1273,15
484,412	2200,88
484,616	3145
484,821	4467,99
485,025	5803,26
485,229	7529,7
485,433	8666,32
485,637	9909,44
485,841	10593,46
486,045	10955,95
486,249	10509,49
486,453	9876,67
486,657	8836,3
486,861	7820,51
487,065	6743,28
487,269	5590,27
487,473	4338,96
487,677	3659,04
487,881	3214,63
488,085	2364,72
488,289	1940,79
488,493	1342,78
488,697	1039,69
488,901	669
489,105	429,39
489,309	310,61
489,512	259,41
489,716	181,59
489,92	220,5
490,124	159,06
490,328	214,35
490,531	103,76
490,735	304,46
490,939	56,66
491,143	140,63
491,346	169,3
491,55	193,87
491,754	101,72
491,958	114
492,161	161,11
492,365	73,04
492,569	60,76
492,772	189,78
492,976	189,78
493,18	34,13
493,383	185,68
493,587	44,37
493,79	197,97
493,994	38,23
494,197	34,13
494,401	130,39
494,605	81,24
494,808	87,38
495,012	128,34
495,215	185,68
495,419	157,01
495,622	165,2
495,825	-80,55
496,029	116,05
496,232	144,72
496,436	77,14
496,639	191,83
496,843	111,96
497,046	54,61
497,249	216,4
497,453	142,68
497,656	-64,17
497,859	52,56
498,063	66,9
498,266	161,11
498,469	105,81
498,673	-82,6
498,876	62,8
499,079	27,99
499,282	44,37
499,485	298,32
499,689	120,15
499,892	169,3
500,095	48,47
500,298	7,51
500,501	19,8
500,705	120,15
500,908	154,96
501,111	64,85
501,314	109,91
501,517	136,53
501,72	68,95
501,923	87,38
502,126	48,47
502,329	126,29
502,532	95,57
502,735	116,05
502,938	232,79
503,141	73,04
503,344	15,7
503,547	101,72
503,75	66,9
503,953	40,28
504,156	73,04
504,359	73,04
504,562	40,28
504,765	75,09
504,968	114
505,17	34,13
505,373	97,62
505,576	136,53
505,779	81,24
505,982	40,28
506,185	48,47
506,387	99,67
506,59	107,86
506,793	79,19
506,996	60,76
507,198	150,87
507,401	173,39
507,604	109,91
507,807	109,91
508,009	91,48
508,212	48,47
508,415	32,08
508,617	13,65
508,82	48,47
509,022	81,24
509,225	99,67
509,428	23,89
509,63	132,44
509,833	19,8
510,035	271,7
510,238	142,68
510,44	85,33
510,643	56,66
510,845	163,15
511,048	228,69
511,25	36,18
511,453	128,34
511,655	66,9
511,858	187,73
512,06	243,03
512,262	13,65
512,465	118,1
512,667	132,44
512,87	-88,75
513,072	136,53
513,274	56,66
513,477	27,99
513,679	32,08
513,881	126,29
514,084	36,18
514,286	204,11
514,488	77,14
514,69	32,08
514,893	50,52
515,095	81,24
515,297	48,47
515,499	27,99
515,701	7,51
515,904	175,44
516,106	187,73
516,308	191,83
516,51	138,58
516,712	109,91
516,914	89,43
517,116	-21,16
517,318	23,89
517,52	91,48
517,722	142,68
517,925	85,33
518,127	-4,78
518,329	224,59
518,531	-103,08
518,733	7,51
518,935	-8,87
519,136	122,2
519,338	-41,64
519,54	99,67
519,742	163,15
519,944	191,83
520,146	58,71
520,348	163,15
520,55	154,96
520,752	36,18
520,954	107,86
521,155	89,43
521,357	95,57
521,559	118,1
521,761	56,66
521,963	107,86
522,164	161,11
522,366	204,11
522,568	118,1
522,77	146,77
522,971	87,38
523,173	44,37
523,375	99,67
523,576	77,14
523,778	17,75
523,98	93,52
524,181	120,15
524,383	105,81
524,584	-58,03
524,786	13,65
524,988	107,86
525,189	40,28
525,391	91,48
525,592	107,86
525,794	1,37
525,995	56,66
526,197	109,91
526,398	230,74
526,6	-0,68
526,801	83,28
527,003	-45,74
527,204	50,52
527,406	42,32
527,607	89,43
527,808	87,38
528,01	128,34
528,211	193,87
528,412	-53,93
528,614	245,07
528,815	173,39
529,016	134,48
529,218	36,18
529,419	114
529,62	50,52
529,822	169,3
530,023	52,56
530,224	66,9
530,425	195,92
530,626	103,76
530,828	140,63
531,029	17,75
531,23	183,63
531,431	-35,5
531,632	138,58
531,833	-23,21
532,035	-2,73
532,236	124,24
532,437	152,91
532,638	87,38
532,839	-4,78
533,04	179,54
533,241	138,58
533,442	116,05
533,643	99,67
533,844	-41,64
534,045	114
534,246	66,9
534,447	-17,07
534,648	58,71
534,849	159,06
535,05	183,63
535,251	19,8
535,451	130,39
535,652	122,2
535,853	38,23
536,054	97,62
536,255	3,41
536,456	11,61
536,657	48,47
536,857	99,67
537,058	138,58
537,259	25,94
537,46	36,18
537,66	11,61
537,861	23,89
538,062	132,44
538,263	-53,93
538,463	64,85
538,664	79,19
538,865	-2,73
539,065	114
539,266	122,2
539,466	-6,83
539,667	148,82
539,868	46,42
540,068	81,24
540,269	105,81
540,469	105,81
540,67	114
540,87	200,02
541,071	-41,64
541,271	87,38
541,472	124,24
541,672	261,46
541,873	44,37
542,073	71
542,274	42,32
542,474	144,72
542,675	107,86
542,875	60,76
543,075	-76,46
543,276	79,19
543,476	13,65
543,676	148,82
543,877	42,32
544,077	116,05
544,277	159,06
544,478	34,13
544,678	68,95
544,878	91,48
545,078	19,8
545,279	17,75
545,479	-0,68
545,679	34,13
545,879	-41,64
546,079	79,19
546,28	-55,98
546,48	58,71
546,68	200,02
546,88	99,67
547,08	114
547,28	89,43
547,48	-8,87
547,68	144,72
547,88	173,39
548,081	34,13
548,281	-17,07
548,481	-33,45
548,681	27,99
548,881	36,18
549,081	107,86
549,28	42,32
549,48	3,41
549,68	124,24
549,88	-33,45
550,08	-60,07
550,28	25,94
550,48	220,5
550,68	154,96
550,88	58,71
551,08	9,56
551,279	159,06
551,479	77,14
551,679	224,59
551,879	44,37
552,079	122,2
552,278	25,94
552,478	169,3
552,678	42,32
552,878	128,34
553,077	73,04
553,277	-51,88
553,477	-33,45
553,676	154,96
553,876	58,71
554,076	-0,68
554,275	109,91
554,475	73,04
554,674	64,85
554,874	38,23
555,074	23,89
555,273	93,52
555,473	-6,83
555,672	40,28
555,872	77,14
556,071	93,52
556,271	236,88
556,47	40,28
556,67	77,14
556,869	83,28
557,068	3,41
557,268	105,81
557,467	34,13
557,667	189,78
557,866	17,75
558,065	25,94
558,265	109,91
558,464	27,99
558,663	140,63
558,863	99,67
559,062	85,33
559,261	23,89
559,461	187,73
559,66	79,19
559,859	-47,79
560,058	60,76
560,258	-133,8
560,457	68,95
560,656	161,11
560,855	-25,26
561,054	222,55
561,253	99,67
561,453	114
561,652	85,33
561,851	105,81
562,05	-21,16
562,249	-58,03
562,448	109,91
562,647	-8,87
562,846	58,71
563,045	95,57
563,244	122,2
563,443	150,87
563,642	54,61
563,841	183,63
564,04	23,89
564,239	7,51
564,438	95,57
564,637	-90,79
564,836	23,89
565,035	77,14
565,234	62,8
565,432	73,04
565,631	50,52
565,83	50,52
566,029	32,08
566,228	7,51
566,427	138,58
566,625	-39,59
566,824	89,43
567,023	-53,93
567,222	46,42
567,42	66,9
567,619	89,43
567,818	146,77
568,016	214,35
568,215	58,71
568,414	171,35
568,612	68,95
568,811	64,85
569,01	83,28
569,208	23,89
569,407	107,86
569,605	95,57
569,804	52,56
570,002	173,39
570,201	52,56
570,4	126,29
570,598	124,24
570,797	62,8
570,995	56,66
571,193	181,59
571,392	159,06
571,59	40,28
571,789	210,26
571,987	218,45
572,186	238,93
572,384	81,24
572,582	99,67
572,781	251,22
572,979	85,33
573,177	159,06
573,376	27,99
573,574	228,69
573,772	60,76
573,971	179,54
574,169	46,42
574,367	150,87
574,565	91,48
574,763	52,56
574,962	95,57
575,16	128,34
575,358	79,19
575,556	177,49
575,754	109,91
575,952	97,62
576,151	138,58
576,349	318,8
576,547	13,65
576,745	128,34
576,943	169,3
577,141	99,67
577,339	23,89
577,537	138,58
577,735	226,64
577,933	165,2
578,131	73,04
578,329	208,21
578,527	114
578,725	275,79
578,923	77,14
579,121	95,57
579,319	1,37
579,516	114
579,714	359,76
579,912	154,96
580,11	-0,68
580,308	148,82
580,506	136,53
580,704	103,76
580,901	46,42
581,099	236,88
581,297	212,31
581,495	200,02
581,692	175,44
581,89	322,9
582,088	236,88
582,285	130,39
582,483	165,2
582,681	161,11
582,878	130,39
583,076	134,48
583,274	105,81
583,471	326,99
583,669	34,13
583,866	87,38
584,064	81,24
584,262	77,14
584,459	62,8
584,657	132,44
584,854	222,55
585,052	189,78
585,249	105,81
585,447	163,15
585,644	62,8
585,841	220,5
586,039	154,96
586,236	187,73
586,434	150,87
586,631	44,37
586,828	-4,78
587,026	116,05
587,223	30,04
587,42	71
587,618	126,29
587,815	224,59
588,012	38,23
588,21	7,51
588,407	95,57
588,604	210,26
588,801	105,81
588,999	130,39
589,196	179,54
589,393	-8,87
589,59	97,62
589,787	171,35
589,984	169,3
590,182	146,77
590,379	17,75
590,576	66,9
590,773	25,94
590,97	140,63
591,167	101,72
591,364	163,15
591,561	3,41
591,758	273,75
591,955	118,1
592,152	154,96
592,349	-19,11
592,546	97,62
592,743	75,09
592,94	173,39
593,137	122,2
593,334	142,68
593,531	122,2
593,727	187,73
593,924	148,82
594,121	114
594,318	93,52
594,515	130,39
594,712	298,32
594,908	238,93
595,105	-45,74
595,302	128,34
595,499	206,16
595,696	232,79
595,892	58,71
596,089	138,58
596,286	58,71
596,482	234,83
596,679	81,24
596,876	58,71
597,072	165,2
597,269	-33,45
597,466	122,2
597,662	105,81
597,859	109,91
598,055	105,81
598,252	89,43
598,448	140,63
598,645	173,39
598,841	210,26
599,038	169,3
599,234	191,83
599,431	128,34
599,627	177,49
599,824	146,77
600,02	101,72
600,217	75,09
600,413	189,78
600,609	66,9
600,806	341,33
601,002	148,82
601,198	75,09
601,395	179,54
601,591	73,04
601,787	146,77
601,984	197,97
602,18	140,63
602,376	150,87
602,572	134,48
602,769	261,46
602,965	161,11
603,161	189,78
603,357	212,31
603,553	216,4
603,75	62,8
603,946	175,44
604,142	130,39
604,338	232,79
604,534	85,33
604,73	126,29
604,926	103,76
605,122	165,2
605,318	91,48
605,514	132,44
605,71	54,61
605,906	232,79
606,102	21,84
606,298	269,65
606,494	204,11
606,69	218,45
606,886	9,56
607,082	154,96
607,278	54,61
607,474	73,04
607,67	126,29
607,866	30,04
608,062	157,01
608,257	173,39
608,453	-0,68
608,649	40,28
608,845	5,46
609,041	-23,21
609,236	60,76
609,432	91,48
609,628	150,87
609,824	122,2
610,019	34,13
610,215	64,85
610,411	191,83
610,606	290,13
610,802	54,61
610,998	79,19
611,193	154,96
611,389	-37,55
611,584	142,68
611,78	25,94
611,976	109,91
612,171	220,5
612,367	124,24
612,562	177,49
612,758	134,48
612,953	-15,02
613,149	-2,73
613,344	54,61
613,539	73,04
613,735	187,73
613,93	99,67
614,126	77,14
614,321	126,29
614,517	214,35
614,712	185,68
614,907	181,59
615,103	99,67
615,298	60,76
615,493	13,65
615,688	75,09
615,884	126,29
616,079	173,39
616,274	81,24
616,47	-0,68
616,665	83,28
616,86	134,48
617,055	114
617,25	44,37
617,445	68,95
617,641	15,7
617,836	36,18
618,031	30,04
618,226	36,18
618,421	148,82
618,616	118,1
618,811	89,43
619,006	38,23
619,201	193,87
619,396	91,48
619,591	5,46
619,786	54,61
619,981	163,15
620,176	83,28
620,371	3,41
620,566	40,28
620,761	206,16
620,956	62,8
621,151	56,66
621,346	157,01
621,541	50,52
621,735	79,19
621,93	97,62
622,125	103,76
622,32	23,89
622,515	-6,83
622,709	99,67
622,904	138,58
623,099	126,29
623,294	171,35
623,488	116,05
623,683	66,9
623,878	56,66
624,072	134,48
624,267	48,47
624,462	40,28
624,656	17,75
624,851	105,81
625,046	46,42
625,24	50,52
625,435	15,7
625,629	81,24
625,824	224,59
626,018	128,34
626,213	42,32
626,407	40,28
626,602	32,08
626,796	40,28
626,991	130,39
627,185	34,13
627,38	114
627,574	163,15
627,768	159,06
627,963	142,68
628,157	107,86
628,352	-74,41
628,546	-45,74
628,74	97,62
628,935	114
629,129	30,04
629,323	140,63
629,517	-70,31
629,712	68,95
629,906	3,41
630,1	191,83
630,294	109,91
630,489	52,56
630,683	52,56
630,877	30,04
631,071	195,92
631,265	97,62
631,459	87,38
631,653	-4,78
631,848	66,9
632,042	66,9
632,236	13,65
632,43	83,28
632,624	36,18
632,818	11,61
633,012	134,48
633,206	114
633,4	95,57
633,594	140,63
633,788	187,73
633,982	148,82
634,176	177,49
634,369	11,61
634,563	79,19
634,757	-78,51
634,951	204,11
635,145	234,83
635,339	140,63
635,533	111,96
635,726	93,52
635,92	99,67
636,114	13,65
636,308	32,08
636,501	58,71
636,695	77,14
636,889	3,41
637,083	152,91
637,276	-21,16
637,47	-74,41
637,664	34,13
637,857	64,85
638,051	81,24
638,244	154,96
638,438	54,61
638,632	187,73
638,825	1,37
639,019	230,74
639,212	19,8
639,406	193,87
639,599	107,86
639,793	126,29
639,986	148,82
640,18	204,11
640,373	1,37
640,567	95,57
640,76	81,24
640,954	68,95
641,147	27,99
641,34	116,05
641,534	64,85
641,727	169,3
641,92	157,01
642,114	144,72
642,307	95,57
642,5	179,54
642,694	25,94
642,887	144,72
643,08	222,55
643,273	181,59
643,467	52,56
643,66	99,67
643,853	11,61
644,046	81,24
644,239	101,72
644,432	-15,02
644,626	1,37
644,819	77,14
645,012	87,38
645,205	101,72
645,398	228,69
645,591	42,32
645,784	83,28
645,977	-19,11
646,17	97,62
646,363	44,37
646,556	5,46
646,749	-8,87
646,942	105,81
647,135	240,98
647,328	9,56
647,521	232,79
647,714	95,57
647,907	128,34
648,099	-2,73
648,292	93,52
648,485	58,71
648,678	93,52
648,871	58,71
649,064	73,04
649,256	11,61
649,449	46,42
649,642	34,13
649,835	25,94
650,027	118,1
650,22	99,67
650,413	64,85
650,605	159,06
650,798	142,68
650,991	40,28
651,183	111,96
651,376	152,91
651,568	122,2
651,761	91,48
651,954	253,27
652,146	173,39
652,339	212,31
652,531	183,63
652,724	130,39
652,916	99,67
653,109	71
653,301	222,55
653,494	144,72
653,686	204,11
653,879	298,32
654,071	318,8
654,263	224,59
654,456	572,75
654,648	2188,6
654,84	6749,42
655,033	15428,71
655,225	26074,06
655,417	37585,69
655,61	48126,58
655,802	56250,87
655,994	60930,48
656,186	62630,3
656,379	59849,16
656,571	56089,09
656,763	49984,09
656,955	45535,9
657,148	41302,75
657,34	37430,04
657,532	33485,65
657,724	30073,74
657,916	27034,55
658,108	23120,88
658,3	19399,73
658,492	16034,91
658,684	12965,01
658,876	10927,28
659,068	8514,77
659,26	6618,35
659,452	5319,94
659,644	3775,77
659,836	2753,84
660,028	1850,68
660,22	1303,87
660,412	918,86
660,604	748,87
660,796	597,32
660,988	609,61
661,18	353,62
661,372	408,91
661,563	257,36
661,755	171,35
661,947	175,44
662,139	163,15
662,331	212,31
662,522	107,86
662,714	195,92
662,906	171,35
663,097	179,54
663,289	36,18
663,481	-45,74
663,673	142,68
663,864	120,15
664,056	206,16
664,247	-33,45
664,439	222,55
664,631	71
664,822	142,68
665,014	54,61
665,205	21,84
665,397	109,91
665,588	56,66
665,78	97,62
665,971	126,29
666,163	81,24
666,354	124,24
666,546	32,08
666,737	30,04
666,929	107,86
667,12	73,04
667,311	179,54
667,503	99,67
667,694	130,39
667,885	71
668,077	146,77
668,268	85,33
668,459	142,68
668,651	93,52
668,842	83,28
669,033	19,8
669,224	52,56
669,416	339,28
669,607	-25,26
669,798	-23,21
669,989	197,97
670,18	25,94
670,371	107,86
670,563	-58,03
670,754	167,25
670,945	89,43
671,136	163,15
671,327	7,51
671,518	105,81
671,709	191,83
671,9	103,76
672,091	208,21
672,282	109,91
672,473	93,52
672,664	5,46
672,855	132,44
673,046	101,72
673,237	161,11
673,428	62,8
673,619	73,04
673,809	-2,73
674	200,02
674,191	93,52
674,382	32,08
674,573	48,47
674,764	7,51
674,954	107,86
675,145	19,8
675,336	42,32
675,527	71
675,717	42,32
675,908	103,76
676,099	48,47
676,289	34,13
676,48	-33,45
676,671	85,33
676,861	38,23
677,052	-19,11
677,243	-8,87
677,433	-8,87
677,624	68,95
677,814	40,28
678,005	-8,87
678,195	175,44
678,386	-41,64
678,576	75,09
678,767	-88,75
678,957	87,38
679,148	58,71
679,338	138,58
679,529	44,37
679,719	-6,83
679,909	87,38
680,1	140,63
680,29	144,72
680,481	-10,92
680,671	165,2
680,861	99,67
681,052	-0,68
681,242	-72,36
681,432	60,76
681,622	111,96
681,813	-37,55
682,003	81,24
682,193	-37,55
682,383	17,75
682,573	1,37
682,764	93,52
682,954	81,24
683,144	111,96
683,334	81,24
683,524	7,51
683,714	83,28
683,904	64,85
684,094	30,04
684,284	136,53
684,474	185,68
684,664	83,28
684,854	132,44
685,044	19,8
685,234	7,51
685,424	81,24
685,614	27,99
685,804	179,54
685,994	64,85
686,184	21,84
686,374	44,37
686,564	15,7
686,753	21,84
686,943	-49,83
687,133	30,04
687,323	-0,68
687,513	56,66
687,702	56,66
687,892	21,84
688,082	103,76
688,272	50,52
688,461	7,51
688,651	191,83
688,841	93,52
689,03	-33,45
689,22	64,85
689,41	101,72
689,599	87,38
689,789	-51,88
689,979	214,35
690,168	36,18
690,358	79,19
690,547	73,04
690,737	75,09
690,926	-15,02
691,116	21,84
691,305	103,76
691,495	105,81
691,684	-70,31
691,874	1,37
692,063	58,71
692,252	163,15
692,442	107,86
692,631	-35,5
692,82	85,33
693,01	9,56
693,199	21,84
693,388	97,62
693,578	42,32
693,767	120,15
693,956	99,67
694,146	25,94
694,335	109,91
694,524	11,61
694,713	109,91
694,902	56,66
695,092	77,14
695,281	34,13
695,47	46,42
695,659	71
695,848	-4,78
696,037	11,61
696,226	111,96
696,415	64,85
696,604	124,24
696,793	75,09
696,982	-25,26
697,171	200,02
697,36	50,52
697,549	77,14
697,738	-47,79
697,927	-35,5
698,116	-25,26
698,305	75,09
698,494	21,84
698,683	3,41
698,872	181,59
699,061	68,95
699,25	34,13
699,438	15,7
699,627	50,52
699,816	175,44
700,005	-15,02
700,193	11,61
700,382	142,68
700,571	101,72
700,76	32,08
700,948	140,63
701,137	73,04
701,326	48,47
701,514	52,56
701,703	38,23
701,892	97,62
702,08	232,79
702,269	-27,31
702,457	-55,98
702,646	120,15
702,834	-41,64
703,023	165,2
703,212	73,04
703,4	79,19
703,589	-33,45
703,777	-55,98
703,965	23,89
704,154	-35,5
704,342	-43,69
704,531	1,37
704,719	9,56
704,907	77,14
705,096	-0,68
705,284	11,61
705,472	103,76
705,661	32,08
705,849	62,8
706,037	189,78
706,226	54,61
706,414	75,09
706,602	-88,75
706,79	52,56
706,979	-105,13
707,167	42,32
707,355	-92,84
707,543	87,38
707,731	120,15
707,919	36,18
708,107	44,37
708,296	-10,92
708,484	-27,31
708,672	46,42
708,86	81,24
709,048	77,14
709,236	-0,68
709,424	68,95
709,612	30,04
709,8	-76,46
709,988	48,47
710,176	132,44
710,364	144,72
710,551	48,47
710,739	-17,07
710,927	-43,69
711,115	36,18
711,303	17,75
711,491	93,52
711,679	46,42
711,866	42,32
712,054	1,37
712,242	54,61
712,43	136,53
712,617	42,32
712,805	46,42
712,993	93,52
713,181	-60,07
713,368	73,04
713,556	19,8
713,744	73,04
713,931	169,3
714,119	120,15
714,306	-53,93
714,494	50,52
714,682	40,28
714,869	-137,9
715,057	77,14
715,244	-33,45
715,432	42,32
715,619	-10,92
715,807	11,61
715,994	-39,59
716,182	81,24
716,369	46,42
716,556	79,19
716,744	-17,07
716,931	-78,51
717,119	23,89
717,306	17,75
717,493	66,9
717,681	-62,12
717,868	-74,41
718,055	73,04
718,242	13,65
718,43	97,62
718,617	114
718,804	23,89
718,991	89,43
719,179	68,95
719,366	140,63
719,553	-12,97
719,74	32,08
719,927	-12,97
720,114	9,56
720,301	-0,68
720,488	-33,45
720,676	-70,31
720,863	50,52
721,05	183,63
721,237	116,05
721,424	132,44
721,611	81,24
721,798	-39,59
721,985	-58,03
722,172	23,89
722,358	40,28
722,545	95,57
722,732	42,32
722,919	97,62
723,106	48,47
723,293	42,32
723,48	116,05
723,667	9,56
723,853	62,8
724,04	9,56
724,227	132,44
724,414	-25,26
724,6	136,53
724,787	142,68
724,974	142,68
725,161	34,13
725,347	-35,5
725,534	-2,73
725,72	71
725,907	79,19
726,094	140,63
726,28	5,46
726,467	11,61
726,653	-41,64
726,84	122,2
727,027	204,11
727,213	48,47
727,4	185,68
727,586	11,61
727,773	27,99
727,959	38,23
728,145	64,85
728,332	58,71
728,518	-37,55
728,705	11,61
728,891	40,28
729,077	50,52
729,264	-86,7
729,45	9,56
729,636	103,76
729,823	58,71
730,009	83,28
730,195	17,75
730,382	81,24
730,568	-88,75
730,754	48,47
730,94	62,8
731,126	107,86
731,313	32,08
731,499	15,7
731,685	75,09
731,871	32,08
732,057	42,32
732,243	146,77
732,429	42,32
732,615	179,54
732,801	19,8
732,987	11,61
733,173	21,84
733,359	11,61
733,545	71
733,731	-15,02
733,917	99,67
734,103	50,52
734,289	30,04
734,475	19,8
734,661	189,78
734,847	-2,73
735,033	71
735,219	62,8
735,404	-53,93
735,59	19,8
735,776	-17,07
735,962	9,56
736,148	7,51
736,333	107,86
736,519	118,1
736,705	-0,68
736,89	75,09
737,076	3,41
737,262	3,41
737,447	-21,16
737,633	-53,93
737,819	114
738,004	-2,73
738,19	-0,68
738,375	62,8
738,561	89,43
738,747	7,51
738,932	-19,11
739,118	165,2
739,303	161,11
739,489	81,24
739,674	-43,69
739,859	-58,03
740,045	95,57
740,23	64,85
740,416	-96,94
740,601	-10,92
740,786	-0,68
740,972	-23,21
741,157	-29,35
741,342	-47,79
741,528	-43,69
741,713	91,48
741,898	42,32
742,084	-10,92
742,269	56,66
742,454	-10,92
742,639	77,14
742,824	11,61
743,01	120,15
743,195	93,52
743,38	111,96
743,565	5,46
743,75	73,04
743,935	32,08
744,12	124,24
744,305	-21,16
744,49	-53,93
744,675	5,46
744,86	-117,42
745,045	-4,78
745,23	38,23
745,415	56,66
745,6	191,83
745,785	27,99
745,97	97,62
746,155	122,2
746,34	118,1
746,525	103,76
746,71	138,58
746,895	-47,79
747,079	-101,03
747,264	-17,07
747,449	11,61
747,634	191,83
747,819	56,66
748,003	3,41
748,188	-27,31
748,373	105,81
748,557	-4,78
748,742	40,28
748,927	85,33
749,111	40,28
749,296	118,1
749,481	64,85
749,665	81,24
749,85	81,24
750,034	91,48
750,219	21,84
750,404	-33,45
750,588	52,56
750,773	21,84
750,957	25,94
751,141	48,47
751,326	17,75
751,51	-66,22
751,695	42,32
751,879	97,62
752,064	99,67
752,248	136,53
752,432	138,58
752,617	138,58
752,801	154,96
752,985	58,71
753,17	226,64
753,354	34,13
753,538	21,84
753,722	-72,36
753,907	-80,55
754,091	-76,46
754,275	120,15
754,459	-58,03
754,643	-49,83
754,828	114
755,012	13,65
755,196	-47,79
755,38	89,43
755,564	-23,21
755,748	34,13
755,932	111,96
756,116	179,54
756,3	48,47
756,484	62,8
756,668	85,33
756,852	-35,5
757,036	44,37
757,22	44,37
757,404	-47,79
757,588	-6,83
757,772	126,29
757,956	54,61
758,14	191,83
758,323	46,42
758,507	157,01
758,691	7,51
758,875	89,43
759,059	140,63
759,242	17,75
759,426	34,13
759,61	19,8
759,794	32,08
759,977	134,48
760,161	306,51
760,345	124,24
760,528	85,33
760,712	60,76
760,895	81,24
761,079	58,71
761,263	11,61
761,446	19,8
761,63	23,89
761,813	171,35
761,997	-8,87
762,18	1,37
762,364	109,91
762,547	-0,68
762,731	73,04
762,914	21,84
763,098	48,47
763,281	73,04
763,464	-62,12
763,648	34,13
763,831	15,7
764,015	-90,79
764,198	81,24
764,381	-21,16
764,564	81,24
764,748	58,71
764,931	101,72
765,114	56,66
765,297	95,57
765,481	-66,22
765,664	42,32
765,847	40,28
766,03	159,06
766,213	-72,36
766,397	19,8
766,58	-64,17
766,763	128,34
766,946	-39,59
767,129	54,61
767,312	-10,92
767,495	-23,21
767,678	-74,41
767,861	60,76
768,044	-6,83
768,227	36,18
768,41	-4,78
768,593	99,67
768,776	7,51
768,959	1,37
769,142	132,44
769,324	52,56
769,507	21,84
769,69	-35,5
769,873	71
770,056	259,41
770,239	44,37
770,421	89,43
770,604	46,42
770,787	-8,87
770,97	-17,07
771,152	44,37
771,335	77,14
771,518	-29,35
771,7	19,8
771,883	193,87
772,066	-23,21
772,248	48,47
772,431	91,48
772,613	68,95
772,796	58,71
772,978	171,35
773,161	107,86
773,343	60,76
773,526	64,85
773,708	-8,87
773,891	-33,45
774,073	66,9
774,256	38,23
774,438	171,35
774,621	-19,11
774,803	40,28
774,985	56,66
775,168	111,96
775,35	15,7
775,532	83,28
775,715	-68,27
775,897	105,81
776,079	146,77
776,261	200,02
776,444	294,22
776,626	468,3
776,808	646,48
776,99	726,35
777,173	904,52
777,355	908,62
777,537	1023,3
777,719	867,66
777,901	761,16
778,083	673,1
778,265	607,56
778,447	623,95
778,629	519,5
778,811	533,84
778,993	427,34
779,175	476,49
779,357	355,66
779,539	238,93
779,721	195,92
779,903	238,93
780,085	197,97
780,267	193,87
780,449	122,2
780,631	204,11
780,812	220,5
780,994	15,7
781,176	77,14
781,358	-15,02
781,54	32,08
781,721	36,18
781,903	68,95
782,085	60,76
782,267	109,91
782,448	-45,74
782,63	1,37
782,812	81,24
782,993	167,25
783,175	44,37
783,357	1,37
783,538	109,91
783,72	64,85
783,901	-2,73
784,083	52,56
784,264	114
784,446	-17,07
784,627	-107,18
784,809	124,24
784,99	-25,26
785,172	103,76
785,353	-15,02
785,535	109,91
785,716	3,41
785,897	36,18
786,079	48,47
786,26	42,32
786,441	89,43
786,623	-90,79
786,804	-74,41
786,985	-8,87
787,167	97,62
787,348	-2,73
787,529	73,04
787,71	163,15
787,891	114
788,073	13,65
788,254	-76,46
788,435	140,63
788,616	25,94
788,797	-6,83
788,978	30,04
789,159	15,7
789,34	83,28
789,522	58,71
789,703	-125,61
789,884	40,28
790,065	50,52
790,246	130,39
790,427	-2,73
790,607	105,81
790,788	193,87
790,969	-96,94
791,15	32,08
791,331	23,89
791,512	-37,55
791,693	-82,6
791,874	25,94
792,054	154,96
792,235	111,96
792,416	-105,13
792,597	9,56
792,778	3,41
792,958	71
793,139	19,8
793,32	13,65
793,5	-4,78
793,681	165,2
793,862	85,33
794,042	-21,16
794,223	-23,21
794,404	-47,79
794,584	-111,27
794,765	66,9
794,945	25,94
795,126	103,76
795,306	101,72
795,487	25,94
795,667	48,47
795,848	126,29
796,028	-0,68
796,209	46,42
796,389	48,47
796,57	32,08
796,75	-53,93
796,93	5,46
797,111	-49,83
797,291	25,94
797,471	62,8
797,652	-55,98
797,832	-29,35
798,012	64,85
798,192	-27,31
798,373	-58,03
798,553	13,65
798,733	68,95
798,913	-10,92
799,093	52,56
799,274	17,75
799,454	97,62
799,634	79,19
799,814	128,34
799,994	83,28
800,174	1,37
800,354	15,7
800,534	-76,46
800,714	91,48
800,894	-107,18
801,074	-88,75
801,254	36,18
801,434	46,42
801,614	27,99
801,794	-111,27
801,974	1959,22
802,154	-41,64
802,334	177,49
802,514	-49,83
802,693	-43,69
802,873	-23,21
803,053	144,72
803,233	89,43
803,413	-41,64
803,592	-41,64
803,772	-33,45
803,952	-41,64
804,131	-64,17
804,311	81,24
804,491	87,38
804,67	-88,75
804,85	15,7
805,03	101,72
805,209	64,85
805,389	-49,83
805,568	-39,59
805,748	38,23
805,928	-88,75
806,107	-15,02
806,287	89,43
806,466	-4,78
806,646	-0,68
806,825	-60,07
807,004	-55,98
807,184	25,94
807,363	157,01
807,543	34,13
807,722	15,7
807,901	138,58
808,081	73,04
808,26	-135,85
808,439	21,84
808,619	64,85
808,798	-41,64
808,977	42,32
809,156	132,44
809,336	-4,78
809,515	75,09
809,694	-31,4
809,873	15,7
810,052	17,75
810,231	97,62
810,411	5,46
810,59	118,1
810,769	-15,02
810,948	48,47
811,127	-119,46
811,306	34,13
811,485	3,41
811,664	132,44
811,843	54,61
812,022	3,41
812,201	-27,31
812,38	109,91
812,559	7,51
812,737	71
812,916	-135,85
813,095	-31,4
813,274	-49,83
813,453	-8,87
813,632	3,41
813,811	34,13
813,989	-82,6
814,168	-15,02
814,347	-49,83
814,526	-15,02
814,704	99,67
814,883	148,82
815,062	-137,9
815,24	146,77
815,419	-41,64
815,598	36,18
815,776	-21,16
815,955	-37,55
816,133	-146,09
816,312	17,75
816,49	-17,07
816,669	-25,26
816,847	44,37
817,026	42,32
817,204	-25,26
817,383	36,18
817,561	-47,79
817,74	17,75
817,918	15,7
818,097	27,99
818,275	-125,61
818,453	38,23
818,632	62,8
818,81	1,37
818,988	23,89
819,167	-76,46
819,345	75,09
819,523	-60,07
819,701	71
819,879	79,19
820,058	7,51
820,236	-23,21
820,414	60,76
820,592	-8,87
820,77	48,47
820,948	-58,03
821,127	-72,36
821,305	-6,83
821,483	-47,79
821,661	50,52
821,839	3,41
822,017	-72,36
822,195	-8,87
822,373	132,44
822,551	46,42
822,729	132,44
822,907	-2,73
823,085	116,05
823,262	36,18
823,44	-49,83
823,618	36,18
823,796	54,61
823,974	-25,26
824,152	-78,51
824,329	-6,83
824,507	58,71
824,685	75,09
824,863	60,76
825,04	25,94
825,218	-21,16
825,396	-21,16
825,574	1,37
825,751	7,51
825,929	42,32
826,107	27,99
826,284	81,24
826,462	36,18
826,639	-33,45
826,817	-88,75
826,994	23,89
827,172	-103,08
827,349	109,91
827,527	99,67
827,704	66,9
827,882	46,42
828,059	-21,16
828,237	-58,03
828,414	105,81
828,591	-166,57
828,769	25,94
828,946	40,28
829,124	101,72
829,301	101,72
829,478	91,48
829,655	136,53
829,833	-8,87
830,01	-76,46
830,187	83,28
830,364	62,8
830,542	11,61
830,719	146,77
830,896	9,56
831,073	99,67
831,25	107,86
831,427	32,08
831,604	-6,83
831,782	17,75
831,959	101,72
832,136	-49,83
832,313	62,8
832,49	7,51
832,667	-15,02
832,844	-41,64
833,021	36,18
833,198	116,05
833,374	58,71
833,551	118,1
833,728	-2,73
833,905	83,28
834,082	-185
834,259	-8,87
834,436	91,48
834,612	-80,55
834,789	99,67
834,966	-8,87
835,143	60,76
835,319	-41,64
835,496	75,09
835,673	21,84
835,85	66,9
836,026	42,32
836,203	81,24
836,38	-15,02
836,556	-78,51
836,733	7,51
836,909	120,15
837,086	-33,45
837,262	-115,37
837,439	44,37
837,616	-6,83
837,792	23,89
837,968	44,37
838,145	-137,9
838,321	-53,93
838,498	87,38
838,674	66,9
838,851	-27,31
839,027	-58,03
839,203	-8,87
839,38	89,43
839,556	9,56
839,732	189,78
839,909	-31,4
840,085	-4,78
840,261	-21,16
840,437	-25,26
840,614	-64,17
840,79	50,52
840,966	17,75
841,142	15,7
841,318	-12,97
841,494	13,65
841,671	130,39
841,847	-39,59
842,023	58,71
842,199	50,52
842,375	126,29
842,551	-37,55
842,727	-35,5
842,903	120,15
843,079	-66,22
843,255	122,2
843,431	13,65
843,607	208,21
843,783	-19,11
843,959	263,51
844,134	240,98
844,31	458,06
844,486	232,79
844,662	269,65
844,838	296,27
845,013	279,89
845,189	281,94
845,365	175,44
845,541	171,35
845,716	183,63
845,892	214,35
846,068	42,32
846,244	13,65
846,419	200,02
846,595	-33,45
846,77	-41,64
846,946	206,16
847,122	23,89
847,297	44,37
847,473	195,92
847,648	30,04
847,824	83,28
847,999	-39,59
848,175	1,37
848,35	105,81
848,526	152,91
848,701	42,32
848,876	148,82
849,052	99,67
849,227	-55,98
849,403	1,37
849,578	56,66
849,753	27,99
849,929	66,9
850,104	-101,03
850,279	44,37
850,454	19,8
850,63	7,51
850,805	32,08
850,98	73,04
851,155	81,24
851,33	19,8
851,505	-35,5
851,681	146,77
851,856	-47,79
852,031	138,58
852,206	25,94
852,381	42,32
852,556	40,28
852,731	-25,26
852,906	32,08
853,081	95,57
853,256	52,56
853,431	21,84
853,606	-41,64
853,781	-37,55
853,956	-88,75
854,131	79,19
854,305	-53,93
854,48	-29,35
854,655	-76,46
854,83	-21,16
855,005	50,52
855,18	11,61
855,354	13,65
855,529	68,95
855,704	-76,46
855,879	75,09
856,053	-39,59
856,228	40,28
856,403	-90,79
856,577	60,76
856,752	-162,47
856,926	7,51
857,101	-33,45
857,276	-117,42
857,45	58,71
857,625	93,52
857,799	122,2
857,974	-47,79
858,148	-25,26
858,323	25,94
858,497	-72,36
858,672	62,8
858,846	-27,31
859,02	34,13
859,195	40,28
859,369	17,75
859,543	5,46
859,718	23,89
859,892	85,33
860,066	36,18
860,241	-86,7
860,415	-101,03
860,589	-21,16
860,763	-29,35
860,938	-35,5
861,112	-15,02
861,286	-43,69
861,46	11,61
861,634	7,51
861,808	134,48
861,982	-76,46
862,157	-8,87
862,331	-35,5
862,505	-113,32
862,679	-70,31
862,853	-23,21
863,027	58,71
863,201	146,77
863,375	-74,41
863,549	15,7
863,722	15,7
863,896	218,45
864,07	-12,97
864,244	-49,83
864,418	66,9
864,592	3,41
864,766	-12,97
864,939	89,43
865,113	27,99
865,287	142,68
865,461	-62,12
865,634	-17,07
865,808	15,7
865,982	-17,07
866,156	5,46
866,329	-92,84
866,503	-31,4
866,676	66,9
866,85	-47,79
867,024	-45,74
867,197	83,28
867,371	83,28
867,544	60,76
867,718	-74,41
867,891	122,2
868,065	-19,11
868,238	21,84
868,412	15,7
868,585	15,7
868,759	32,08
868,932	-43,69
869,105	-29,35
869,279	-0,68
869,452	-103,08
869,625	99,67
869,799	-35,5
869,972	3,41
870,145	56,66
870,319	89,43
870,492	-33,45
870,665	-47,79
870,838	-21,16
871,011	-164,52
871,185	-0,68
871,358	-37,55
871,531	50,52
871,704	-60,07
871,877	50,52
872,05	-41,64
872,223	-82,6
872,396	79,19
872,569	-17,07
872,742	-101,03
872,915	38,23
873,088	-84,65
873,261	-45,74
873,434	46,42
873,607	30,04
873,78	165,2
873,953	-135,85
874,126	-76,46
874,299	83,28
874,471	-0,68
874,644	-33,45
874,817	60,76
874,99	191,83
875,163	-62,12
875,335	21,84
875,508	-8,87
875,681	58,71
875,853	-37,55
876,026	32,08
876,199	17,75
876,371	15,7
876,544	-25,26
876,717	32,08
876,889	-66,22
877,062	23,89
877,234	-58,03
877,407	-8,87
877,579	-25,26
877,752	118,1
877,924	62,8
878,097	89,43
878,269	32,08
878,442	42,32
878,614	48,47
878,786	50,52
878,959	17,75
879,131	-10,92
879,303	-131,75
879,476	54,61
879,648	73,04
879,82	56,66
879,993	40,28
880,165	-70,31
880,337	-51,88
880,509	36,18
880,681	-25,26
880,854	7,51
881,026	48,47
881,198	128,34
881,37	-101,03
881,542	-80,55
881,714	23,89
881,886	-25,26
882,058	-25,26
882,23	23,89
882,402	-12,97
882,574	52,56
882,746	89,43
882,918	140,63
883,09	71
883,262	11,61
883,434	-72,36
883,606	-129,7
883,778	25,94
883,95	183,63
884,122	-45,74
884,293	68,95
884,465	44,37
884,637	97,62
884,809	-2,73
884,98	-0,68
885,152	73,04
885,324	109,91
885,496	-115,37
885,667	-41,64
885,839	-23,21
886,011	97,62
886,182	32,08
886,354	64,85
886,525	7,51
886,697	1,37
886,869	-88,75
887,04	36,18
887,212	124,24
887,383	142,68
887,555	5,46
887,726	-31,4
887,897	40,28
888,069	25,94
888,24	42,32
888,412	34,13
888,583	-86,7
888,754	30,04
888,926	-113,32
889,097	-8,87
889,268	-105,13
889,44	30,04
889,611	-51,88
889,782	-49,83
889,953	-98,99
890,125	165,2
890,296	-21,16
890,467	21,84
890,638	-47,79
890,809	-6,83
890,98	-70,31
891,151	-2,73
891,323	91,48
891,494	-17,07
891,665	-33,45
891,836	32,08
892,007	73,04
892,178	81,24
892,349	36,18
892,52	-21,16
892,691	-60,07
892,862	-53,93
893,032	-103,08
893,203	-82,6
893,374	36,18
893,545	120,15
893,716	-82,6
893,887	109,91
894,057	-88,75
894,228	30,04
894,399	-8,87
894,57	99,67
894,74	81,24
894,911	89,43
895,082	36,18
895,253	27,99
895,423	11,61
895,594	73,04
895,764	34,13
895,935	-115,37
896,106	62,8
896,276	44,37
896,447	62,8
896,617	-80,55
896,788	-80,55
896,958	11,61
897,129	-6,83
897,299	9,56
897,47	116,05
897,64	64,85
897,81	-33,45
897,981	107,86
898,151	-39,59
898,322	71
898,492	34,13
898,662	-10,92
898,832	-8,87
899,003	46,42
899,173	128,34
899,343	-27,31
899,513	-39,59
