Data from deuterium_USB4F104151__4__10-57-07-428.txt Node

Date: Wed Apr 15 10:57:07 EDT 2026
User: LaboPhy
Spectrometer: USB4F10415
Trigger mode: 4
Integration Time (sec): 1,000000E-1
Scans to average: 1
Electric dark correction enabled: true
Nonlinearity correction enabled: false
Boxcar width: 0
XAxis mode: Wavelengths
Number of Pixels in Spectrum: 3648
>>>>>Begin Spectral Data<<<<<
178,204	-473,42
178,424	-473,42
178,644	-473,42
178,864	-448,85
179,084	-379,22
179,304	30,38
179,524	1,71
179,744	24,23
179,964	-8,53
180,184	-2,39
180,404	20,14
180,624	3,75
180,844	28,33
181,064	-82,26
181,283	40,62
181,503	-112,98
181,723	57
181,943	-88,4
182,163	157,35
182,383	-29,01
182,602	61,1
182,822	155,3
183,042	75,43
183,262	46,76
183,482	59,05
183,701	-8,53
183,921	48,81
184,141	-37,2
184,361	50,86
184,58	63,15
184,8	-12,63
185,02	5,8
185,239	79,53
185,459	73,39
185,679	97,96
185,898	-18,77
186,118	81,58
186,338	116,39
186,557	81,58
186,777	-96,6
186,997	-82,26
187,216	20,14
187,436	171,69
187,655	134,82
187,875	52,91
188,095	-22,87
188,314	151,21
188,534	114,34
188,753	16,04
188,973	245,41
189,192	112,3
189,412	5,8
189,631	87,72
189,851	59,05
190,07	186,02
190,29	-43,35
190,509	-57,68
190,729	30,38
190,948	200,36
191,168	224,94
191,387	69,29
191,607	30,38
191,826	91,82
192,045	48,81
192,265	-41,3
192,484	59,05
192,704	95,91
192,923	-63,83
193,142	186,02
193,362	147,11
193,581	151,21
193,8	134,82
194,02	91,82
194,239	-0,34
194,458	134,82
194,678	28,33
194,897	5,8
195,116	50,86
195,335	87,72
195,555	38,57
195,774	-14,68
195,993	61,1
196,212	30,38
196,432	-41,3
196,651	1,71
196,87	9,9
197,089	245,41
197,308	130,73
197,528	114,34
197,747	-20,82
197,966	65,19
198,185	134,82
198,404	18,09
198,623	69,29
198,842	134,82
199,062	48,81
199,281	112,3
199,5	48,81
199,719	108,2
199,938	124,58
200,157	100,01
200,376	120,49
200,595	155,3
200,814	-0,34
201,033	-80,21
201,252	153,26
201,471	5,8
201,69	67,24
201,909	30,38
202,128	89,77
202,347	173,74
202,566	65,19
202,785	-84,31
203,004	24,23
203,223	269,99
203,442	44,71
203,661	-47,44
203,879	28,33
204,098	167,59
204,317	-12,63
204,536	190,12
204,755	143,02
204,974	220,84
205,193	-47,44
205,411	91,82
205,63	67,24
205,849	124,58
206,068	-8,53
206,287	-63,83
206,505	114,34
206,724	40,62
206,943	-37,2
207,162	-22,87
207,381	134,82
207,599	32,43
207,818	-14,68
208,037	-8,53
208,255	40,62
208,474	63,15
208,693	24,23
208,911	22,19
209,13	100,01
209,349	130,73
209,567	124,58
209,786	59,05
210,005	110,25
210,223	57
210,442	-96,6
210,661	1,71
210,879	106,15
211,098	44,71
211,316	-12,63
211,535	95,91
211,753	57
211,972	42,67
212,191	16,04
212,409	-4,44
212,628	89,77
212,846	-37,2
213,065	50,86
213,283	114,34
213,502	-6,49
213,72	24,23
213,938	112,3
214,157	-37,2
214,375	89,77
214,594	22,19
214,812	46,76
215,031	-8,53
215,249	83,63
215,467	50,86
215,686	-0,34
215,904	57
216,122	28,33
216,341	220,84
216,559	97,96
216,778	136,87
216,996	106,15
217,214	9,9
217,432	120,49
217,651	-86,36
217,869	-4,44
218,087	59,05
218,306	1,71
218,524	48,81
218,742	32,43
218,96	102,06
219,179	-41,3
219,397	77,48
219,615	192,17
219,833	50,86
220,051	5,8
220,27	124,58
220,488	102,06
220,706	44,71
220,924	-49,49
221,142	24,23
221,36	34,47
221,578	89,77
221,796	32,43
222,015	48,81
222,233	34,47
222,451	155,3
222,669	-49,49
222,887	87,72
223,105	32,43
223,323	16,04
223,541	-6,49
223,759	-41,3
223,977	126,63
224,195	190,12
224,413	106,15
224,631	79,53
224,849	32,43
225,067	251,56
225,285	-41,3
225,503	-16,73
225,721	-127,32
225,939	65,19
226,157	69,29
226,375	267,94
226,592	-108,88
226,81	-6,49
227,028	132,78
227,246	171,69
227,464	52,91
227,682	200,36
227,9	26,28
228,117	40,62
228,335	110,25
228,553	81,58
228,771	-31,06
228,989	32,43
229,206	112,3
229,424	22,19
229,642	-4,44
229,86	-12,63
230,077	239,27
230,295	108,2
230,513	77,48
230,731	16,04
230,948	130,73
231,166	274,09
231,384	40,62
231,601	-45,4
231,819	149,16
232,037	-8,53
232,254	-24,92
232,472	5,8
232,689	-0,34
232,907	124,58
233,125	-35,16
233,342	16,04
233,56	54,95
233,777	-35,16
233,995	32,43
234,213	95,91
234,43	124,58
234,648	59,05
234,865	102,06
235,083	87,72
235,3	89,77
235,518	81,58
235,735	69,29
235,953	32,43
236,17	13,99
236,388	24,23
236,605	36,52
236,822	106,15
237,04	167,59
237,257	36,52
237,475	26,28
237,692	44,71
237,909	100,01
238,127	-84,31
238,344	69,29
238,562	63,15
238,779	-26,96
238,996	5,8
239,214	-20,82
239,431	110,25
239,648	20,14
239,865	91,82
240,083	151,21
240,3	32,43
240,517	79,53
240,735	77,48
240,952	81,58
241,169	46,76
241,386	71,34
241,603	28,33
241,821	-67,92
242,038	75,43
242,255	106,15
242,472	-49,49
242,689	46,76
242,907	132,78
243,124	114,34
243,341	5,8
243,558	24,23
243,775	-47,44
243,992	-129,36
244,209	108,2
244,426	165,54
244,643	52,91
244,86	-6,49
245,078	151,21
245,295	114,34
245,512	-29,01
245,729	-18,77
245,946	128,68
246,163	18,09
246,38	24,23
246,597	59,05
246,814	-6,49
247,031	34,47
247,248	97,96
247,464	-4,44
247,681	54,95
247,898	93,87
248,115	61,1
248,332	-12,63
248,549	134,82
248,766	186,02
248,983	91,82
249,2	50,86
249,417	100,01
249,633	-6,49
249,85	93,87
250,067	-0,34
250,284	120,49
250,501	38,57
250,717	75,43
250,934	-2,39
251,151	-0,34
251,368	30,38
251,585	73,39
251,801	3,75
252,018	-57,68
252,235	155,3
252,451	32,43
252,668	77,48
252,885	110,25
253,102	112,3
253,318	69,29
253,535	48,81
253,752	48,81
253,968	-6,49
254,185	-22,87
254,401	52,91
254,618	59,05
254,835	-10,58
255,051	57
255,268	151,21
255,484	-39,25
255,701	-49,49
255,917	7,85
256,134	-16,73
256,351	120,49
256,567	-59,73
256,784	46,76
257	50,86
257,217	155,3
257,433	91,82
257,65	57
257,866	155,3
258,082	-78,16
258,299	28,33
258,515	24,23
258,732	-12,63
258,948	-51,54
259,165	104,11
259,381	5,8
259,597	61,1
259,814	36,52
260,03	30,38
260,246	42,67
260,463	210,6
260,679	95,91
260,895	28,33
261,112	48,81
261,328	-6,49
261,544	-57,68
261,761	196,26
261,977	5,8
262,193	1,71
262,409	91,82
262,626	30,38
262,842	38,57
263,058	-47,44
263,274	112,3
263,49	128,68
263,707	34,47
263,923	77,48
264,139	9,9
264,355	71,34
264,571	138,92
264,787	38,57
265,004	122,54
265,22	13,99
265,436	-0,34
265,652	34,47
265,868	128,68
266,084	-88,4
266,3	52,91
266,516	28,33
266,732	-39,25
266,948	83,63
267,164	67,24
267,38	-49,49
267,596	75,43
267,812	155,3
268,028	30,38
268,244	-22,87
268,46	69,29
268,676	-41,3
268,892	93,87
269,108	-0,34
269,324	-0,34
269,54	-53,59
269,756	54,95
269,972	-51,54
270,188	16,04
270,403	-106,84
270,619	7,85
270,835	163,5
271,051	67,24
271,267	9,9
271,483	-47,44
271,698	44,71
271,914	26,28
272,13	52,91
272,346	57
272,562	36,52
272,777	118,44
272,993	1,71
273,209	-33,11
273,425	65,19
273,64	-51,54
273,856	95,91
274,072	16,04
274,287	-39,25
274,503	116,39
274,719	157,35
274,934	20,14
275,15	-106,84
275,366	34,47
275,581	36,52
275,797	11,95
276,012	54,95
276,228	42,67
276,444	108,2
276,659	85,67
276,875	9,9
277,09	-33,11
277,306	1,71
277,521	126,63
277,737	-33,11
277,952	61,1
278,168	102,06
278,383	36,52
278,599	40,62
278,814	106,15
279,03	24,23
279,245	118,44
279,461	-8,53
279,676	151,21
279,892	-119,12
280,107	-31,06
280,322	-41,3
280,538	100,01
280,753	-63,83
280,969	65,19
281,184	-0,34
281,399	132,78
281,615	42,67
281,83	73,39
282,045	7,85
282,26	-12,63
282,476	9,9
282,691	85,67
282,906	183,98
283,122	140,97
283,337	-4,44
283,552	106,15
283,767	3,75
283,983	183,98
284,198	83,63
284,413	7,85
284,628	-49,49
284,843	67,24
285,058	61,1
285,274	24,23
285,489	-90,45
285,704	102,06
285,919	-12,63
286,134	-0,34
286,349	132,78
286,564	34,47
286,779	126,63
286,995	-0,34
287,21	-24,92
287,425	85,67
287,64	18,09
287,855	50,86
288,07	-80,21
288,285	112,3
288,5	165,54
288,715	-24,92
288,93	-14,68
289,145	-57,68
289,36	7,85
289,575	18,09
289,79	145,06
290,004	73,39
290,219	75,43
290,434	7,85
290,649	-88,4
290,864	54,95
291,079	-2,39
291,294	65,19
291,509	42,67
291,724	77,48
291,938	1,71
292,153	28,33
292,368	63,15
292,583	36,52
292,798	67,24
293,012	9,9
293,227	114,34
293,442	42,67
293,657	140,97
293,871	128,68
294,086	46,76
294,301	188,07
294,516	124,58
294,73	50,86
294,945	-61,78
295,16	-12,63
295,374	73,39
295,589	159,4
295,804	-0,34
296,018	67,24
296,233	48,81
296,447	89,77
296,662	57
296,877	132,78
297,091	28,33
297,306	40,62
297,52	9,9
297,735	-35,16
297,949	44,71
298,164	57
298,378	-18,77
298,593	5,8
298,807	-35,16
299,022	7,85
299,236	128,68
299,451	44,71
299,665	-43,35
299,88	-0,34
300,094	26,28
300,309	50,86
300,523	50,86
300,737	91,82
300,952	75,43
301,166	77,48
301,381	-35,16
301,595	-10,58
301,809	122,54
302,024	85,67
302,238	20,14
302,452	114,34
302,667	50,86
302,881	100,01
303,095	114,34
303,309	-49,49
303,524	-33,11
303,738	30,38
303,952	63,15
304,166	104,11
304,381	-57,68
304,595	85,67
304,809	40,62
305,023	28,33
305,237	-4,44
305,452	-2,39
305,666	134,82
305,88	65,19
306,094	153,26
306,308	114,34
306,522	110,25
306,736	102,06
306,95	212,65
307,164	-51,54
307,379	5,8
307,593	177,83
307,807	138,92
308,021	165,54
308,235	134,82
308,449	-110,93
308,663	40,62
308,877	200,36
309,091	16,04
309,305	155,3
309,519	-94,55
309,733	155,3
309,947	-47,44
310,161	85,67
310,374	108,2
310,588	81,58
310,802	7,85
311,016	85,67
311,23	87,72
311,444	-0,34
311,658	75,43
311,872	102,06
312,085	59,05
312,299	222,89
312,513	171,69
312,727	69,29
312,941	61,1
313,154	114,34
313,368	112,3
313,582	48,81
313,796	59,05
314,009	-24,92
314,223	151,21
314,437	50,86
314,651	138,92
314,864	20,14
315,078	-26,96
315,292	20,14
315,505	-10,58
315,719	122,54
315,933	38,57
316,146	-0,34
316,36	-0,34
316,573	188,07
316,787	104,11
317,001	97,96
317,214	-61,78
317,428	89,77
317,641	-2,39
317,855	46,76
318,068	61,1
318,282	42,67
318,495	194,22
318,709	87,72
318,922	57
319,136	200,36
319,349	128,68
319,563	-0,34
319,776	163,5
319,99	-29,01
320,203	110,25
320,417	54,95
320,63	69,29
320,843	183,98
321,057	112,3
321,27	36,52
321,483	128,68
321,697	173,74
321,91	85,67
322,124	73,39
322,337	83,63
322,55	130,73
322,763	65,19
322,977	34,47
323,19	-10,58
323,403	67,24
323,617	116,39
323,83	138,92
324,043	20,14
324,256	30,38
324,469	-88,4
324,683	114,34
324,896	65,19
325,109	-26,96
325,322	-98,64
325,535	71,34
325,748	186,02
325,962	26,28
326,175	42,67
326,388	30,38
326,601	134,82
326,814	42,67
327,027	54,95
327,24	122,54
327,453	-162,13
327,666	155,3
327,879	161,45
328,092	132,78
328,305	81,58
328,518	40,62
328,731	40,62
328,944	24,23
329,157	151,21
329,37	24,23
329,583	188,07
329,796	208,55
330,009	-61,78
330,222	114,34
330,435	186,02
330,648	145,06
330,861	91,82
331,073	36,52
331,286	122,54
331,499	97,96
331,712	26,28
331,925	73,39
332,138	65,19
332,35	79,53
332,563	24,23
332,776	173,74
332,989	87,72
333,202	42,67
333,414	69,29
333,627	77,48
333,84	61,1
334,053	93,87
334,265	30,38
334,478	57
334,691	75,43
334,903	16,04
335,116	-37,2
335,329	67,24
335,541	48,81
335,754	183,98
335,966	24,23
336,179	87,72
336,392	50,86
336,604	22,19
336,817	210,6
337,029	143,02
337,242	16,04
337,454	71,34
337,667	48,81
337,88	231,08
338,092	87,72
338,305	114,34
338,517	7,85
338,729	196,26
338,942	138,92
339,154	-53,59
339,367	16,04
339,579	136,87
339,792	22,19
340,004	77,48
340,217	-37,2
340,429	102,06
340,641	38,57
340,854	-31,06
341,066	3,75
341,278	73,39
341,491	175,78
341,703	112,3
341,915	-151,89
342,128	177,83
342,34	122,54
342,552	32,43
342,764	9,9
342,977	122,54
343,189	120,49
343,401	140,97
343,613	11,95
343,826	63,15
344,038	9,9
344,25	-6,49
344,462	5,8
344,674	126,63
344,886	97,96
345,099	1,71
345,311	204,46
345,523	40,62
345,735	-72,02
345,947	-0,34
346,159	143,02
346,371	38,57
346,583	3,75
346,795	190,12
347,007	36,52
347,219	108,2
347,431	-39,25
347,643	106,15
347,855	36,52
348,067	204,46
348,279	-8,53
348,491	140,97
348,703	138,92
348,915	48,81
349,127	-4,44
349,339	42,67
349,551	-29,01
349,763	97,96
349,975	79,53
350,187	204,46
350,399	171,69
350,61	134,82
350,822	48,81
351,034	122,54
351,246	134,82
351,458	130,73
351,669	22,19
351,881	198,31
352,093	206,5
352,305	194,22
352,517	114,34
352,728	188,07
352,94	30,38
353,152	120,49
353,363	-39,25
353,575	126,63
353,787	220,84
353,999	149,16
354,21	192,17
354,422	59,05
354,633	104,11
354,845	106,15
355,057	59,05
355,268	114,34
355,48	229,03
355,692	-37,2
355,903	40,62
356,115	18,09
356,326	-26,96
356,538	163,5
356,749	181,93
356,961	200,36
357,172	108,2
357,384	-14,68
357,595	253,61
357,807	104,11
358,018	130,73
358,23	85,67
358,441	214,7
358,653	38,57
358,864	85,67
359,075	-63,83
359,287	159,4
359,498	147,11
359,709	116,39
359,921	26,28
360,132	52,91
360,344	-6,49
360,555	91,82
360,766	7,85
360,977	159,4
361,189	161,45
361,4	-51,54
361,611	171,69
361,823	147,11
362,034	75,43
362,245	34,47
362,456	100,01
362,667	81,58
362,879	-0,34
363,09	102,06
363,301	89,77
363,512	30,38
363,723	65,19
363,935	85,67
364,146	93,87
364,357	91,82
364,568	147,11
364,779	-16,73
364,99	169,64
365,201	16,04
365,412	140,97
365,623	1,71
365,834	147,11
366,045	46,76
366,256	102,06
366,467	102,06
366,678	89,77
366,889	116,39
367,1	-49,49
367,311	188,07
367,522	112,3
367,733	108,2
367,944	171,69
368,155	63,15
368,366	157,35
368,577	245,41
368,788	175,78
368,999	52,91
369,209	130,73
369,42	282,28
369,631	255,65
369,842	116,39
370,053	40,62
370,264	161,45
370,474	69,29
370,685	194,22
370,896	97,96
371,107	155,3
371,317	89,77
371,528	73,39
371,739	200,36
371,95	186,02
372,16	116,39
372,371	13,99
372,582	118,44
372,792	95,91
373,003	63,15
373,214	54,95
373,424	126,63
373,635	93,87
373,846	128,68
374,056	136,87
374,267	163,5
374,477	134,82
374,688	16,04
374,898	75,43
375,109	77,48
375,319	106,15
375,53	165,54
375,74	179,88
375,951	40,62
376,161	97,96
376,372	233,13
376,582	61,1
376,793	63,15
377,003	89,77
377,214	11,95
377,424	112,3
377,635	57
377,845	52,91
378,055	198,31
378,266	24,23
378,476	173,74
378,686	89,77
378,897	91,82
379,107	143,02
379,317	138,92
379,528	42,67
379,738	165,54
379,948	40,62
380,158	237,22
380,369	34,47
380,579	167,59
380,789	36,52
380,999	183,98
381,21	116,39
381,42	267,94
381,63	11,95
381,84	138,92
382,05	171,69
382,261	83,63
382,471	192,17
382,681	24,23
382,891	183,98
383,101	132,78
383,311	-14,68
383,521	59,05
383,731	155,3
383,941	106,15
384,151	155,3
384,361	87,72
384,571	93,87
384,781	91,82
384,991	247,46
385,201	229,03
385,411	204,46
385,621	104,11
385,831	245,41
386,041	-0,34
386,251	83,63
386,461	188,07
386,671	134,82
386,881	75,43
387,091	26,28
387,301	130,73
387,511	79,53
387,72	122,54
387,93	186,02
388,14	-6,49
388,35	73,39
388,56	222,89
388,769	210,6
388,979	28,33
389,189	30,38
389,399	120,49
389,609	163,5
389,818	114,34
390,028	69,29
390,238	79,53
390,447	71,34
390,657	130,73
390,867	83,63
391,076	-14,68
391,286	116,39
391,496	163,5
391,705	110,25
391,915	153,26
392,125	145,06
392,334	-22,87
392,544	198,31
392,753	28,33
392,963	36,52
393,172	143,02
393,382	57
393,591	218,79
393,801	-4,44
394,01	192,17
394,22	106,15
394,429	46,76
394,639	42,67
394,848	91,82
395,058	216,74
395,267	108,2
395,477	216,74
395,686	89,77
395,895	362,15
396,105	245,41
396,314	186,02
396,524	95,91
396,733	120,49
396,942	292,52
397,152	138,92
397,361	310,95
397,57	145,06
397,78	136,87
397,989	106,15
398,198	220,84
398,407	71,34
398,617	69,29
398,826	42,67
399,035	32,43
399,244	161,45
399,453	112,3
399,663	114,34
399,872	106,15
400,081	-74,07
400,29	155,3
400,499	81,58
400,708	114,34
400,917	65,19
401,127	44,71
401,336	44,71
401,545	249,51
401,754	206,5
401,963	183,98
402,172	16,04
402,381	3,75
402,59	118,44
402,799	75,43
403,008	155,3
403,217	24,23
403,426	140,97
403,635	34,47
403,844	93,87
404,053	106,15
404,262	-6,49
404,471	186,02
404,68	91,82
404,888	77,48
405,097	20,14
405,306	30,38
405,515	171,69
405,724	54,95
405,933	126,63
406,142	147,11
406,35	124,58
406,559	65,19
406,768	36,52
406,977	130,73
407,185	83,63
407,394	114,34
407,603	26,28
407,812	100,01
408,02	200,36
408,229	155,3
408,438	173,74
408,646	63,15
408,855	63,15
409,064	159,4
409,272	237,22
409,481	229,03
409,69	167,59
409,898	196,26
410,107	290,47
410,315	274,09
410,524	222,89
410,733	245,41
410,941	181,93
411,15	235,18
411,358	265,89
411,567	231,08
411,775	200,36
411,984	91,82
412,192	155,3
412,401	67,24
412,609	204,46
412,818	155,3
413,026	235,18
413,234	32,43
413,443	65,19
413,651	7,85
413,86	48,81
414,068	188,07
414,276	85,67
414,485	102,06
414,693	237,22
414,901	249,51
415,11	102,06
415,318	36,52
415,526	81,58
415,734	114,34
415,943	110,25
416,151	198,31
416,359	30,38
416,567	102,06
416,776	108,2
416,984	159,4
417,192	214,7
417,4	-24,92
417,608	-22,87
417,817	-61,78
418,025	161,45
418,233	138,92
418,441	-82,26
418,649	-31,06
418,857	97,96
419,065	229,03
419,273	73,39
419,481	132,78
419,689	30,38
419,897	36,52
420,105	7,85
420,313	161,45
420,521	163,5
420,729	157,35
420,937	16,04
421,145	-4,44
421,353	165,54
421,561	118,44
421,769	54,95
421,977	-88,4
422,185	100,01
422,393	13,99
422,601	110,25
422,809	81,58
423,017	44,71
423,224	34,47
423,432	149,16
423,64	97,96
423,848	157,35
424,056	-45,4
424,263	157,35
424,471	-63,83
424,679	61,1
424,887	-0,34
425,094	81,58
425,302	89,77
425,51	38,57
425,718	126,63
425,925	81,58
426,133	-43,35
426,341	114,34
426,548	9,9
426,756	40,62
426,964	50,86
427,171	-4,44
427,379	44,71
427,586	24,23
427,794	85,67
428,001	75,43
428,209	54,95
428,417	128,68
428,624	140,97
428,832	42,67
429,039	34,47
429,247	38,57
429,454	85,67
429,662	155,3
429,869	108,2
430,076	169,64
430,284	173,74
430,491	134,82
430,699	102,06
430,906	120,49
431,114	34,47
431,321	118,44
431,528	120,49
431,736	179,88
431,943	147,11
432,15	284,33
432,358	294,57
432,565	472,74
432,772	382,63
432,979	683,68
433,187	679,58
433,394	818,85
433,601	835,23
433,808	962,2
434,016	1031,83
434,223	970,4
434,43	849,57
434,637	841,37
434,844	808,61
435,052	525,99
435,259	638,62
435,466	470,69
435,673	405,16
435,88	325,29
436,087	253,61
436,294	269,99
436,501	83,63
436,708	159,4
436,915	93,87
437,122	136,87
437,329	-20,82
437,537	116,39
437,743	75,43
437,95	161,45
438,157	126,63
438,364	28,33
438,571	40,62
438,778	132,78
438,985	57
439,192	132,78
439,399	124,58
439,606	128,68
439,813	147,11
440,02	198,31
440,227	231,08
440,433	106,15
440,64	50,86
440,847	-8,53
441,054	83,63
441,261	206,5
441,467	20,14
441,674	-18,77
441,881	106,15
442,088	-6,49
442,294	134,82
442,501	83,63
442,708	163,5
442,914	42,67
443,121	42,67
443,328	100,01
443,534	132,78
443,741	138,92
443,948	-55,64
444,154	93,87
444,361	313
444,568	34,47
444,774	122,54
444,981	-22,87
445,187	214,7
445,394	57
445,6	-6,49
445,807	91,82
446,013	73,39
446,22	-72,02
446,426	-26,96
446,633	89,77
446,839	169,64
447,046	-35,16
447,252	140,97
447,459	-10,58
447,665	-31,06
447,871	91,82
448,078	130,73
448,284	114,34
448,491	122,54
448,697	-18,77
448,903	116,39
449,11	59,05
449,316	-31,06
449,522	181,93
449,728	100,01
449,935	120,49
450,141	-2,39
450,347	81,58
450,553	73,39
450,76	52,91
450,966	22,19
451,172	57
451,378	9,9
451,584	91,82
451,791	151,21
451,997	46,76
452,203	-22,87
452,409	167,59
452,615	132,78
452,821	81,58
453,027	11,95
453,233	220,84
453,44	20,14
453,646	108,2
453,852	65,19
454,058	-55,64
454,264	75,43
454,47	79,53
454,676	32,43
454,882	48,81
455,088	128,68
455,294	112,3
455,5	169,64
455,705	102,06
455,911	32,43
456,117	3,75
456,323	34,47
456,529	122,54
456,735	-6,49
456,941	128,68
457,147	136,87
457,352	54,95
457,558	1,71
457,764	196,26
457,97	44,71
458,176	18,09
458,381	9,9
458,587	159,4
458,793	57
458,999	24,23
459,204	42,67
459,41	108,2
459,616	63,15
459,821	112,3
460,027	-31,06
460,233	159,4
460,438	177,83
460,644	106,15
460,85	97,96
461,055	124,58
461,261	91,82
461,466	63,15
461,672	91,82
461,878	13,99
462,083	163,5
462,289	-10,58
462,494	42,67
462,7	61,1
462,905	126,63
463,111	132,78
463,316	124,58
463,522	112,3
463,727	132,78
463,932	87,72
464,138	81,58
464,343	130,73
464,549	192,17
464,754	251,56
464,959	155,3
465,165	93,87
465,37	122,54
465,575	143,02
465,781	28,33
465,986	46,76
466,191	110,25
466,397	46,76
466,602	245,41
466,807	71,34
467,012	112,3
467,218	183,98
467,423	89,77
467,628	85,67
467,833	-0,34
468,038	95,91
468,244	-8,53
468,449	40,62
468,654	28,33
468,859	26,28
469,064	91,82
469,269	36,52
469,474	120,49
469,679	204,46
469,885	179,88
470,09	26,28
470,295	118,44
470,5	-4,44
470,705	147,11
470,91	102,06
471,115	97,96
471,32	57
471,525	204,46
471,73	190,12
471,935	61,1
472,139	-43,35
472,344	-39,25
472,549	118,44
472,754	179,88
472,959	165,54
473,164	61,1
473,369	132,78
473,574	161,45
473,778	151,21
473,983	130,73
474,188	130,73
474,393	93,87
474,598	79,53
474,802	163,5
475,007	91,82
475,212	198,31
475,417	65,19
475,621	157,35
475,826	-80,21
476,031	63,15
476,235	69,29
476,44	116,39
476,645	175,78
476,849	42,67
477,054	-20,82
477,259	112,3
477,463	224,94
477,668	181,93
477,872	116,39
478,077	147,11
478,282	57
478,486	104,11
478,691	100,01
478,895	65,19
479,1	190,12
479,304	259,75
479,509	130,73
479,713	102,06
479,918	136,87
480,122	67,24
480,326	75,43
480,531	151,21
480,735	116,39
480,94	89,77
481,144	241,32
481,348	130,73
481,553	149,16
481,757	20,14
481,961	75,43
482,166	52,91
482,37	110,25
482,574	108,2
482,778	30,38
482,983	161,45
483,187	110,25
483,391	91,82
483,595	171,69
483,8	442,02
484,004	741,02
484,208	1240,73
484,412	2133,64
484,616	3196,54
484,821	4636,26
485,025	5869,14
485,229	7384,63
485,433	8613,42
485,637	9795,09
485,841	10544,65
486,045	10853,89
486,249	10577,42
486,453	9768,47
486,657	8955,43
486,861	7798,32
487,065	6559,3
487,269	5598,81
487,473	4480,61
487,677	3745,39
487,881	3276,41
488,085	2399,88
488,289	1891,98
488,493	1384,09
488,697	1076,89
488,901	632,48
489,105	294,57
489,309	263,85
489,512	233,13
489,716	226,98
489,92	151,21
490,124	214,7
490,328	239,27
490,531	177,83
490,735	253,61
490,939	61,1
491,143	175,78
491,346	100,01
491,55	71,34
491,754	163,5
491,958	188,07
492,161	46,76
492,365	44,71
492,569	93,87
492,772	179,88
492,976	179,88
493,18	77,48
493,383	79,53
493,587	79,53
493,79	75,43
493,994	-4,44
494,197	93,87
494,401	124,58
494,605	161,45
494,808	143,02
495,012	116,39
495,215	192,17
495,419	118,44
495,622	34,47
495,825	50,86
496,029	57
496,232	161,45
496,436	65,19
496,639	216,74
496,843	163,5
497,046	-0,34
497,249	233,13
497,453	57
497,656	-16,73
497,859	24,23
498,063	173,74
498,266	73,39
498,469	-18,77
498,673	-37,2
498,876	-8,53
499,079	32,43
499,282	106,15
499,485	319,14
499,689	149,16
499,892	194,22
500,095	52,91
500,298	87,72
500,501	11,95
500,705	77,48
500,908	122,54
501,111	42,67
501,314	89,77
501,517	157,35
501,72	63,15
501,923	95,91
502,126	26,28
502,329	157,35
502,532	108,2
502,735	138,92
502,938	132,78
503,141	110,25
503,344	-131,41
503,547	100,01
503,75	-82,26
503,953	-22,87
504,156	163,5
504,359	57
504,562	26,28
504,765	11,95
504,968	89,77
505,17	110,25
505,373	140,97
505,576	128,68
505,779	50,86
505,982	-14,68
506,185	118,44
506,387	-35,16
506,59	136,87
506,793	52,91
506,996	112,3
507,198	81,58
507,401	157,35
507,604	159,4
507,807	32,43
508,009	126,63
508,212	140,97
508,415	52,91
508,617	44,71
508,82	75,43
509,022	97,96
509,225	122,54
509,428	38,57
509,63	140,97
509,833	140,97
510,035	253,61
510,238	169,64
510,44	85,67
510,643	110,25
510,845	108,2
511,048	130,73
511,25	32,43
511,453	114,34
511,655	149,16
511,858	161,45
512,06	212,65
512,262	-2,39
512,465	112,3
512,667	106,15
512,87	-20,82
513,072	159,4
513,274	75,43
513,477	22,19
513,679	-22,87
513,881	59,05
514,084	-14,68
514,286	112,3
514,488	169,64
514,69	22,19
514,893	-6,49
515,095	57
515,297	67,24
515,499	130,73
515,701	-80,21
515,904	69,29
516,106	214,7
516,308	91,82
516,51	-14,68
516,712	97,96
516,914	97,96
517,116	52,91
517,318	97,96
517,52	20,14
517,722	67,24
517,925	16,04
518,127	61,1
518,329	149,16
518,531	20,14
518,733	65,19
518,935	7,85
519,136	75,43
519,338	-6,49
519,54	30,38
519,742	147,11
519,944	220,84
520,146	71,34
520,348	95,91
520,55	93,87
520,752	34,47
520,954	22,19
521,155	83,63
521,357	120,49
521,559	124,58
521,761	83,63
521,963	128,68
522,164	34,47
522,366	61,1
522,568	79,53
522,77	122,54
522,971	130,73
523,173	-26,96
523,375	108,2
523,576	52,91
523,778	-51,54
523,98	65,19
524,181	116,39
524,383	147,11
524,584	38,57
524,786	124,58
524,988	28,33
525,189	69,29
525,391	210,6
525,592	40,62
525,794	-0,34
525,995	54,95
526,197	104,11
526,398	241,32
526,6	110,25
526,801	81,58
527,003	-69,97
527,204	67,24
527,406	87,72
527,607	87,72
527,808	44,71
528,01	116,39
528,211	157,35
528,412	-14,68
528,614	126,63
528,815	136,87
529,016	147,11
529,218	110,25
529,419	-2,39
529,62	-12,63
529,822	134,82
530,023	-6,49
530,224	100,01
530,425	239,27
530,626	-0,34
530,828	20,14
531,029	-65,88
531,23	87,72
531,431	42,67
531,632	61,1
531,833	-4,44
532,035	73,39
532,236	-29,01
532,437	65,19
532,638	65,19
532,839	-35,16
533,04	163,5
533,241	161,45
533,442	61,1
533,643	114,34
533,844	-8,53
534,045	-35,16
534,246	87,72
534,447	-41,3
534,648	1,71
534,849	177,83
535,05	75,43
535,251	-10,58
535,451	151,21
535,652	-41,3
535,853	-2,39
536,054	155,3
536,255	85,67
536,456	79,53
536,657	-20,82
536,857	87,72
537,058	89,77
537,259	63,15
537,46	159,4
537,66	42,67
537,861	-16,73
538,062	46,76
538,263	-33,11
538,463	159,4
538,664	40,62
538,865	48,81
539,065	87,72
539,266	136,87
539,466	48,81
539,667	171,69
539,868	65,19
540,068	-10,58
540,269	112,3
540,469	95,91
540,67	87,72
540,87	40,62
541,071	34,47
541,271	128,68
541,472	153,26
541,672	190,12
541,873	73,39
542,073	118,44
542,274	18,09
542,474	69,29
542,675	188,07
542,875	81,58
543,075	-43,35
543,276	7,85
543,476	65,19
543,676	171,69
543,877	28,33
544,077	89,77
544,277	175,78
544,478	79,53
544,678	134,82
544,878	-4,44
545,078	50,86
545,279	52,91
545,479	-8,53
545,679	1,71
545,879	11,95
546,079	54,95
546,28	-37,2
546,48	116,39
546,68	104,11
546,88	95,91
547,08	50,86
547,28	75,43
547,48	24,23
547,68	132,78
547,88	108,2
548,081	134,82
548,281	-49,49
548,481	-6,49
548,681	24,23
548,881	102,06
549,081	106,15
549,28	93,87
549,48	48,81
549,68	151,21
549,88	138,92
550,08	3,75
550,28	-6,49
550,48	188,07
550,68	-4,44
550,88	-37,2
551,08	18,09
551,279	181,93
551,479	65,19
551,679	239,27
551,879	5,8
552,079	65,19
552,278	57
552,478	171,69
552,678	48,81
552,878	73,39
553,077	36,52
553,277	-35,16
553,477	77,48
553,676	130,73
553,876	83,63
554,076	22,19
554,275	93,87
554,475	91,82
554,674	169,64
554,874	52,91
555,074	-102,74
555,273	87,72
555,473	7,85
555,672	122,54
555,872	-61,78
556,071	13,99
556,271	143,02
556,47	85,67
556,67	-4,44
556,869	130,73
557,068	-16,73
557,268	24,23
557,467	52,91
557,667	179,88
557,866	81,58
558,065	40,62
558,265	69,29
558,464	-20,82
558,663	30,38
558,863	110,25
559,062	122,54
559,261	-84,31
559,461	128,68
559,66	73,39
559,859	-82,26
560,058	36,52
560,258	-47,44
560,457	46,76
560,656	188,07
560,855	52,91
561,054	136,87
561,253	83,63
561,453	36,52
561,652	67,24
561,851	69,29
562,05	-6,49
562,249	7,85
562,448	112,3
562,647	5,8
562,846	40,62
563,045	124,58
563,244	9,9
563,443	75,43
563,642	28,33
563,841	36,52
564,04	11,95
564,239	57
564,438	89,77
564,637	7,85
564,836	-47,44
565,035	75,43
565,234	40,62
565,432	73,39
565,631	73,39
565,83	106,15
566,029	44,71
566,228	32,43
566,427	100,01
566,625	-55,64
566,824	134,82
567,023	-16,73
567,222	57
567,42	87,72
567,619	67,24
567,818	61,1
568,016	298,66
568,215	73,39
568,414	188,07
568,612	143,02
568,811	138,92
569,01	69,29
569,208	110,25
569,407	155,3
569,605	181,93
569,804	-22,87
570,002	151,21
570,201	22,19
570,4	175,78
570,598	104,11
570,797	153,26
570,995	67,24
571,193	120,49
571,392	-16,73
571,59	-8,53
571,789	108,2
571,987	122,54
572,186	186,02
572,384	124,58
572,582	83,63
572,781	253,61
572,979	24,23
573,177	87,72
573,376	110,25
573,574	157,35
573,772	75,43
573,971	-6,49
574,169	69,29
574,367	155,3
574,565	124,58
574,763	59,05
574,962	171,69
575,16	140,97
575,358	128,68
575,556	97,96
575,754	161,45
575,952	138,92
576,151	65,19
576,349	212,65
576,547	7,85
576,745	130,73
576,943	169,64
577,141	118,44
577,339	67,24
577,537	163,5
577,735	188,07
577,933	222,89
578,131	89,77
578,329	204,46
578,527	163,5
578,725	163,5
578,923	5,8
579,121	157,35
579,319	13,99
579,516	87,72
579,714	386,72
579,912	118,44
580,11	81,58
580,308	75,43
580,506	69,29
580,704	26,28
580,901	52,91
581,099	272,04
581,297	173,74
581,495	249,51
581,692	81,58
581,89	306,85
582,088	157,35
582,285	188,07
582,483	157,35
582,681	114,34
582,878	140,97
583,076	186,02
583,274	120,49
583,471	327,33
583,669	136,87
583,866	3,75
584,064	110,25
584,262	57
584,459	77,48
584,657	116,39
584,854	188,07
585,052	188,07
585,249	220,84
585,447	102,06
585,644	16,04
585,841	218,79
586,039	97,96
586,236	247,46
586,434	100,01
586,631	79,53
586,828	30,38
587,026	79,53
587,223	32,43
587,42	44,71
587,618	147,11
587,815	233,13
588,012	13,99
588,21	-2,39
588,407	79,53
588,604	122,54
588,801	34,47
588,999	81,58
589,196	145,06
589,393	61,1
589,59	151,21
589,787	97,96
589,984	114,34
590,182	140,97
590,379	28,33
590,576	67,24
590,773	102,06
590,97	116,39
591,167	110,25
591,364	212,65
591,561	40,62
591,758	149,16
591,955	132,78
592,152	138,92
592,349	26,28
592,546	30,38
592,743	79,53
592,94	97,96
593,137	177,83
593,334	155,3
593,531	167,59
593,727	200,36
593,924	188,07
594,121	79,53
594,318	100,01
594,515	89,77
594,712	202,41
594,908	257,7
595,105	46,76
595,302	114,34
595,499	97,96
595,696	190,12
595,892	81,58
596,089	157,35
596,286	32,43
596,482	206,5
596,679	143,02
596,876	136,87
597,072	145,06
597,269	11,95
597,466	112,3
597,662	26,28
597,859	93,87
598,055	97,96
598,252	181,93
598,448	91,82
598,645	120,49
598,841	122,54
599,038	239,27
599,234	202,41
599,431	116,39
599,627	130,73
599,824	108,2
600,02	28,33
600,217	50,86
600,413	149,16
600,609	116,39
600,806	405,16
601,002	149,16
601,198	48,81
601,395	183,98
601,591	114,34
601,787	132,78
601,984	204,46
602,18	145,06
602,376	87,72
602,572	255,65
602,769	247,46
602,965	159,4
603,161	186,02
603,357	196,26
603,553	186,02
603,75	7,85
603,946	161,45
604,142	108,2
604,338	222,89
604,534	57
604,73	54,95
604,926	65,19
605,122	239,27
605,318	143,02
605,514	196,26
605,71	71,34
605,906	147,11
606,102	57
606,298	198,31
606,494	110,25
606,69	220,84
606,886	175,78
607,082	108,2
607,278	22,19
607,474	138,92
607,67	130,73
607,866	48,81
608,062	167,59
608,257	149,16
608,453	3,75
608,649	132,78
608,845	57
609,041	-6,49
609,236	75,43
609,432	114,34
609,628	108,2
609,824	177,83
610,019	-20,82
610,215	79,53
610,411	200,36
610,606	179,88
610,802	20,14
610,998	100,01
611,193	100,01
611,389	5,8
611,584	159,4
611,78	-61,78
611,976	147,11
612,171	308,9
612,367	118,44
612,562	118,44
612,758	147,11
612,953	-37,2
613,149	-24,92
613,344	106,15
613,539	57
613,735	71,34
613,93	42,67
614,126	61,1
614,321	163,5
614,517	157,35
614,712	155,3
614,907	212,65
615,103	118,44
615,298	81,58
615,493	-2,39
615,688	-6,49
615,884	147,11
616,079	122,54
616,274	140,97
616,47	52,91
616,665	9,9
616,86	93,87
617,055	77,48
617,25	-24,92
617,445	147,11
617,641	116,39
617,836	69,29
618,031	11,95
618,226	13,99
618,421	171,69
618,616	5,8
618,811	106,15
619,006	11,95
619,201	140,97
619,396	57
619,591	-69,97
619,786	83,63
619,981	163,5
620,176	54,95
620,371	40,62
620,566	106,15
620,761	151,21
620,956	89,77
621,151	85,67
621,346	169,64
621,541	16,04
621,735	161,45
621,93	65,19
622,125	67,24
622,32	-16,73
622,515	-14,68
622,709	85,67
622,904	114,34
623,099	149,16
623,294	188,07
623,488	100,01
623,683	106,15
623,878	-35,16
624,072	161,45
624,267	-59,73
624,462	9,9
624,656	-35,16
624,851	67,24
625,046	26,28
625,24	9,9
625,435	-8,53
625,629	67,24
625,824	175,78
626,018	77,48
626,213	104,11
626,407	73,39
626,602	48,81
626,796	-20,82
626,991	163,5
627,185	32,43
627,38	46,76
627,574	190,12
627,768	69,29
627,963	151,21
628,157	36,52
628,352	42,67
628,546	-22,87
628,74	118,44
628,935	124,58
629,129	85,67
629,323	202,41
629,517	-33,11
629,712	63,15
629,906	83,63
630,1	200,36
630,294	165,54
630,489	159,4
630,683	59,05
630,877	-12,63
631,071	116,39
631,265	46,76
631,459	65,19
631,653	40,62
631,848	75,43
632,042	40,62
632,236	48,81
632,43	106,15
632,624	32,43
632,818	59,05
633,012	89,77
633,206	54,95
633,4	114,34
633,594	85,67
633,788	106,15
633,982	130,73
634,176	192,17
634,369	44,71
634,563	93,87
634,757	-39,25
634,951	85,67
635,145	196,26
635,339	44,71
635,533	151,21
635,726	97,96
635,92	126,63
636,114	11,95
636,308	7,85
636,501	30,38
636,695	167,59
636,889	-57,68
637,083	134,82
637,276	104,11
637,47	-53,59
637,664	40,62
637,857	63,15
638,051	16,04
638,244	85,67
638,438	128,68
638,632	163,5
638,825	-65,88
639,019	196,26
639,212	32,43
639,406	229,03
639,599	11,95
639,793	34,47
639,986	157,35
640,18	95,91
640,373	36,52
640,567	118,44
640,76	120,49
640,954	163,5
641,147	-14,68
641,34	52,91
641,534	108,2
641,727	167,59
641,92	114,34
642,114	114,34
642,307	183,98
642,5	104,11
642,694	130,73
642,887	71,34
643,08	208,55
643,273	196,26
643,467	-57,68
643,66	24,23
643,853	-35,16
644,046	67,24
644,239	104,11
644,432	-4,44
644,626	79,53
644,819	61,1
645,012	89,77
645,205	155,3
645,398	245,41
645,591	93,87
645,784	54,95
645,977	26,28
646,17	126,63
646,363	130,73
646,556	18,09
646,749	5,8
646,942	143,02
647,135	110,25
647,328	52,91
647,521	108,2
647,714	73,39
647,907	114,34
648,099	50,86
648,292	159,4
648,485	52,91
648,678	116,39
648,871	87,72
649,064	57
649,256	-24,92
649,449	-16,73
649,642	-6,49
649,835	97,96
650,027	-2,39
650,22	229,03
650,413	85,67
650,605	126,63
650,798	38,57
650,991	36,52
651,183	110,25
651,376	93,87
651,568	175,78
651,761	124,58
651,954	163,5
652,146	134,82
652,339	265,89
652,531	165,54
652,724	106,15
652,916	183,98
653,109	34,47
653,301	290,47
653,494	259,75
653,686	220,84
653,879	319,14
654,071	229,03
654,263	267,94
654,456	630,43
654,648	2227,85
654,84	6895,17
655,033	15005,13
655,225	25976,09
655,417	37450,86
655,61	47709,14
655,802	56154,96
655,994	60902,15
656,186	62561,01
656,379	59654,94
656,571	56476,49
656,763	50183,08
656,955	45779,95
657,148	41743,41
657,34	38132,84
657,532	33795,24
657,724	30549,21
657,916	26834,19
658,108	23145,8
658,3	19391,87
658,492	16291,25
658,684	13004,26
658,876	10765,83
659,068	8631,85
659,26	6596,17
659,452	5070,43
659,644	3718,77
659,836	2715,27
660,028	1887,89
660,22	1277,59
660,412	1015,45
660,604	755,36
660,796	542,37
660,988	599,71
661,18	382,63
661,372	421,54
661,563	286,37
661,755	175,78
661,947	196,26
662,139	118,44
662,331	136,87
662,522	194,22
662,714	153,26
662,906	77,48
663,097	124,58
663,289	85,67
663,481	3,75
663,673	128,68
663,864	116,39
664,056	116,39
664,247	40,62
664,439	202,41
664,631	120,49
664,822	196,26
665,014	83,63
665,205	52,91
665,397	54,95
665,588	138,92
665,78	136,87
665,971	161,45
666,163	20,14
666,354	128,68
666,546	44,71
666,737	59,05
666,929	81,58
667,12	42,67
667,311	136,87
667,503	77,48
667,694	132,78
667,885	147,11
668,077	61,1
668,268	-72,02
668,459	75,43
668,651	95,91
668,842	104,11
669,033	-16,73
669,224	-0,34
669,416	339,62
669,607	7,85
669,798	-41,3
669,989	118,44
670,18	85,67
670,371	97,96
670,563	-41,3
670,754	171,69
670,945	122,54
671,136	97,96
671,327	34,47
671,518	159,4
671,709	192,17
671,9	102,06
672,091	126,63
672,282	120,49
672,473	38,57
672,664	30,38
672,855	52,91
673,046	75,43
673,237	147,11
673,428	93,87
673,619	147,11
673,809	9,9
674	157,35
674,191	100,01
674,382	32,43
674,573	50,86
674,764	-24,92
674,954	132,78
675,145	32,43
675,336	-35,16
675,527	-6,49
675,717	26,28
675,908	11,95
676,099	-43,35
676,289	9,9
676,48	-22,87
676,671	38,57
676,861	34,47
677,052	81,58
677,243	34,47
677,433	-16,73
677,624	71,34
677,814	122,54
678,005	-4,44
678,195	114,34
678,386	-22,87
678,576	42,67
678,767	-74,07
678,957	57
679,148	77,48
679,338	145,06
679,529	7,85
679,719	1,71
679,909	87,72
680,1	32,43
680,29	155,3
680,481	-104,79
680,671	18,09
680,861	36,52
681,052	22,19
681,242	-22,87
681,432	87,72
681,622	75,43
681,813	-33,11
682,003	5,8
682,193	-35,16
682,383	57
682,573	-6,49
682,764	-20,82
682,954	34,47
683,144	75,43
683,334	-0,34
683,524	-63,83
683,714	13,99
683,904	79,53
684,094	44,71
684,284	42,67
684,474	85,67
684,664	46,76
684,854	157,35
685,044	44,71
685,234	63,15
685,424	42,67
685,614	50,86
685,804	138,92
685,994	140,97
686,184	-8,53
686,374	151,21
686,564	-0,34
686,753	-0,34
686,943	-14,68
687,133	16,04
687,323	-0,34
687,513	-0,34
687,702	16,04
687,892	9,9
688,082	87,72
688,272	89,77
688,461	-18,77
688,651	145,06
688,841	83,63
689,03	3,75
689,22	22,19
689,41	18,09
689,599	100,01
689,789	-72,02
689,979	130,73
690,168	52,91
690,358	91,82
690,547	-2,39
690,737	102,06
690,926	44,71
691,116	83,63
691,305	57
691,495	143,02
691,684	-33,11
691,874	-0,34
692,063	-12,63
692,252	97,96
692,442	118,44
692,631	40,62
692,82	67,24
693,01	79,53
693,199	59,05
693,388	20,14
693,578	67,24
693,767	73,39
693,956	59,05
694,146	34,47
694,335	20,14
694,524	40,62
694,713	126,63
694,902	42,67
695,092	54,95
695,281	106,15
695,47	42,67
695,659	26,28
695,848	16,04
696,037	-20,82
696,226	130,73
696,415	54,95
696,604	63,15
696,793	102,06
696,982	87,72
697,171	257,7
697,36	89,77
697,549	28,33
697,738	-82,26
697,927	69,29
698,116	-10,58
698,305	91,82
698,494	69,29
698,683	77,48
698,872	198,31
699,061	7,85
699,25	77,48
699,438	13,99
699,627	-14,68
699,816	239,27
700,005	-39,25
700,193	-22,87
700,382	57
700,571	59,05
700,76	75,43
700,948	167,59
701,137	165,54
701,326	89,77
701,514	-8,53
701,703	165,54
701,892	44,71
702,08	259,75
702,269	77,48
702,457	26,28
702,646	16,04
702,834	-14,68
703,023	173,74
703,212	124,58
703,4	54,95
703,589	63,15
703,777	-31,06
703,965	-16,73
704,154	18,09
704,342	-45,4
704,531	-16,73
704,719	59,05
704,907	108,2
705,096	-31,06
705,284	-10,58
705,472	5,8
705,661	57
705,849	106,15
706,037	134,82
706,226	138,92
706,414	71,34
706,602	-12,63
706,79	91,82
706,979	-53,59
707,167	63,15
707,355	-135,51
707,543	108,2
707,731	20,14
707,919	20,14
708,107	22,19
708,296	-20,82
708,484	7,85
708,672	116,39
708,86	7,85
709,048	126,63
709,236	-10,58
709,424	59,05
709,612	77,48
709,8	-88,4
709,988	-12,63
710,176	124,58
710,364	110,25
710,551	-4,44
710,739	-18,77
710,927	50,86
711,115	11,95
711,303	157,35
711,491	157,35
711,679	-24,92
711,866	42,67
712,054	-12,63
712,242	67,24
712,43	65,19
712,617	22,19
712,805	48,81
712,993	34,47
713,181	-115,03
713,368	65,19
713,556	26,28
713,744	48,81
713,931	255,65
714,119	97,96
714,306	22,19
714,494	-8,53
714,682	44,71
714,869	-10,58
715,057	46,76
715,244	-153,94
715,432	102,06
715,619	-37,2
715,807	-55,64
715,994	-31,06
716,182	77,48
716,369	52,91
716,556	67,24
716,744	-69,97
716,931	24,23
717,119	-16,73
717,306	-35,16
717,493	106,15
717,681	1,71
717,868	-33,11
718,055	128,68
718,242	-20,82
718,43	-0,34
718,617	100,01
718,804	42,67
718,991	108,2
719,179	5,8
719,366	89,77
719,553	65,19
719,74	-6,49
719,927	20,14
720,114	52,91
720,301	-100,69
720,488	3,75
720,676	-31,06
720,863	97,96
721,05	159,4
721,237	106,15
721,424	32,43
721,611	-8,53
721,798	-37,2
721,985	9,9
722,172	-82,26
722,358	3,75
722,545	124,58
722,732	32,43
722,919	202,41
723,106	73,39
723,293	-22,87
723,48	18,09
723,667	28,33
723,853	108,2
724,04	40,62
724,227	42,67
724,414	50,86
724,6	59,05
724,787	157,35
724,974	151,21
725,161	-35,16
725,347	16,04
725,534	57
725,72	32,43
725,907	104,11
726,094	102,06
726,28	-16,73
726,467	-12,63
726,653	-35,16
726,84	216,74
727,027	106,15
727,213	54,95
727,4	89,77
727,586	95,91
727,773	38,57
727,959	5,8
728,145	13,99
728,332	26,28
728,518	16,04
728,705	85,67
728,891	73,39
729,077	30,38
729,264	-47,44
729,45	-37,2
729,636	95,91
729,823	57
730,009	102,06
730,195	24,23
730,382	32,43
730,568	-78,16
730,754	85,67
730,94	-26,96
731,126	-33,11
731,313	83,63
731,499	-10,58
731,685	104,11
731,871	13,99
732,057	85,67
732,243	124,58
732,429	16,04
732,615	128,68
732,801	65,19
732,987	32,43
733,173	34,47
733,359	-35,16
733,545	-29,01
733,731	102,06
733,917	95,91
734,103	50,86
734,289	-10,58
734,475	-41,3
734,661	226,98
734,847	93,87
735,033	11,95
735,219	11,95
735,404	-31,06
735,59	-24,92
735,776	-72,02
735,962	36,52
736,148	110,25
736,333	36,52
736,519	97,96
736,705	22,19
736,89	48,81
737,076	28,33
737,262	-74,07
737,447	32,43
737,633	-39,25
737,819	106,15
738,004	-4,44
738,19	40,62
738,375	7,85
738,561	91,82
738,747	13,99
738,932	-0,34
739,118	206,5
739,303	67,24
739,489	83,63
739,674	32,43
739,859	20,14
740,045	79,53
740,23	-37,2
740,416	-98,64
740,601	-4,44
740,786	44,71
740,972	30,38
741,157	-0,34
741,342	-74,07
741,528	-45,4
741,713	104,11
741,898	18,09
742,084	69,29
742,269	36,52
742,454	63,15
742,639	32,43
742,824	38,57
743,01	202,41
743,195	169,64
743,38	81,58
743,565	20,14
743,75	42,67
743,935	73,39
744,12	126,63
744,305	-49,49
744,49	-84,31
744,675	-16,73
744,86	13,99
745,045	71,34
745,23	24,23
745,415	52,91
745,6	138,92
745,785	-31,06
745,97	91,82
746,155	63,15
746,34	134,82
746,525	16,04
746,71	114,34
746,895	-55,64
747,079	30,38
747,264	24,23
747,449	122,54
747,634	114,34
747,819	63,15
748,003	54,95
748,188	-110,93
748,373	71,34
748,557	18,09
748,742	-33,11
748,927	108,2
749,111	67,24
749,296	-20,82
749,481	126,63
749,665	71,34
749,85	36,52
750,034	102,06
750,219	112,3
750,404	-22,87
750,588	134,82
750,773	59,05
750,957	24,23
751,141	59,05
751,326	147,11
751,51	-119,12
751,695	-4,44
751,879	-49,49
752,064	179,88
752,248	-12,63
752,432	147,11
752,617	110,25
752,801	108,2
752,985	38,57
753,17	93,87
753,354	26,28
753,538	89,77
753,722	75,43
753,907	57
754,091	-49,49
754,275	34,47
754,459	-14,68
754,643	-108,88
754,828	104,11
755,012	122,54
755,196	-45,4
755,38	75,43
755,564	20,14
755,748	97,96
755,932	110,25
756,116	67,24
756,3	151,21
756,484	-16,73
756,668	-14,68
756,852	-57,68
757,036	32,43
757,22	52,91
757,404	-45,4
757,588	-0,34
757,772	77,48
757,956	54,95
758,14	210,6
758,323	22,19
758,507	48,81
758,691	-6,49
758,875	126,63
759,059	85,67
759,242	44,71
759,426	40,62
759,61	42,67
759,794	-12,63
759,977	16,04
760,161	261,8
760,345	147,11
760,528	140,97
760,712	-12,63
760,895	120,49
761,079	54,95
761,263	40,62
761,446	-41,3
761,63	7,85
761,813	132,78
761,997	-29,01
762,18	30,38
762,364	104,11
762,547	-43,35
762,731	-72,02
762,914	-24,92
763,098	-24,92
763,281	95,91
763,464	9,9
763,648	-47,44
763,831	32,43
764,015	28,33
764,198	75,43
764,381	85,67
764,564	-41,3
764,748	26,28
764,931	24,23
765,114	69,29
765,297	138,92
765,481	-96,6
765,664	87,72
765,847	-20,82
766,03	181,93
766,213	20,14
766,397	42,67
766,58	-59,73
766,763	75,43
766,946	-55,64
767,129	18,09
767,312	48,81
767,495	-59,73
767,678	-59,73
767,861	13,99
768,044	-16,73
768,227	-8,53
768,41	-8,53
768,593	36,52
768,776	32,43
768,959	-6,49
769,142	132,78
769,324	-33,11
769,507	69,29
769,69	57
769,873	87,72
770,056	247,46
770,239	106,15
770,421	157,35
770,604	50,86
770,787	24,23
770,97	7,85
771,152	-98,64
771,335	87,72
771,518	-53,59
771,7	104,11
771,883	188,07
772,066	-14,68
772,248	77,48
772,431	106,15
772,613	85,67
772,796	40,62
772,978	73,39
773,161	122,54
773,343	44,71
773,526	-6,49
773,708	-39,25
773,891	13,99
774,073	-63,83
774,256	-26,96
774,438	155,3
774,621	-35,16
774,803	57
774,985	38,57
775,168	67,24
775,35	-2,39
775,532	11,95
775,715	-31,06
775,897	71,34
776,079	87,72
776,261	192,17
776,444	229,03
776,626	437,92
776,808	513,7
776,99	655,01
777,173	943,77
777,355	964,25
777,537	984,73
777,719	992,92
777,901	868
778,083	734,88
778,265	523,94
778,447	661,15
778,629	560,8
778,811	476,84
778,993	507,55
779,175	534,18
779,357	386,72
779,539	251,56
779,721	263,85
779,903	245,41
780,085	134,82
780,267	130,73
780,449	5,8
780,631	97,96
780,812	136,87
780,994	73,39
781,176	30,38
781,358	-51,54
781,54	-22,87
781,721	85,67
781,903	38,57
782,085	26,28
782,267	116,39
782,448	-49,49
782,63	3,75
782,812	-12,63
782,993	179,88
783,175	24,23
783,357	16,04
783,538	38,57
783,72	-63,83
783,901	3,75
784,083	97,96
784,264	38,57
784,446	-100,69
784,627	-67,92
784,809	147,11
784,99	11,95
785,172	75,43
785,353	-12,63
785,535	48,81
785,716	-57,68
785,897	59,05
786,079	-39,25
786,26	1,71
786,441	36,52
786,623	-55,64
786,804	77,48
786,985	69,29
787,167	-20,82
787,348	44,71
787,529	26,28
787,71	63,15
787,891	122,54
788,073	-22,87
788,254	-104,79
788,435	181,93
788,616	59,05
788,797	-18,77
788,978	13,99
789,159	-29,01
789,34	59,05
789,522	11,95
789,703	-29,01
789,884	50,86
790,065	9,9
790,246	79,53
790,427	-55,64
790,607	91,82
790,788	118,44
790,969	5,8
791,15	28,33
791,331	-53,59
791,512	30,38
791,693	3,75
791,874	-45,4
792,054	153,26
792,235	87,72
792,416	-51,54
792,597	-26,96
792,778	20,14
792,958	13,99
793,139	116,39
793,32	73,39
793,5	-104,79
793,681	91,82
793,862	75,43
794,042	44,71
794,223	-76,12
794,404	13,99
794,584	-53,59
794,765	59,05
794,945	3,75
795,126	130,73
795,306	110,25
795,487	-10,58
795,667	30,38
795,848	26,28
796,028	42,67
796,209	69,29
796,389	102,06
796,57	75,43
796,75	3,75
796,93	100,01
797,111	20,14
797,291	-94,55
797,471	106,15
797,652	22,19
797,832	-29,01
798,012	71,34
798,192	-6,49
798,373	-110,93
798,553	81,58
798,733	28,33
798,913	-72,02
799,093	-41,3
799,274	-6,49
799,454	44,71
799,634	89,77
799,814	20,14
799,994	9,9
800,174	59,05
800,354	77,48
800,534	-61,78
800,714	122,54
800,894	-127,32
801,074	-82,26
801,254	-12,63
801,434	61,1
801,614	-55,64
801,794	-39,25
801,974	1926,8
802,154	-24,92
802,334	48,81
802,514	-131,41
802,693	34,47
802,873	11,95
803,053	122,54
803,233	73,39
803,413	-47,44
803,592	59,05
803,772	16,04
803,952	-37,2
804,131	-94,55
804,311	85,67
804,491	16,04
804,67	-59,73
804,85	-94,55
805,03	48,81
805,209	110,25
805,389	50,86
805,568	-74,07
805,748	-26,96
805,928	28,33
806,107	16,04
806,287	36,52
806,466	63,15
806,646	-67,92
806,825	75,43
807,004	-49,49
807,184	122,54
807,363	73,39
807,543	28,33
807,722	-139,6
807,901	97,96
808,081	124,58
808,26	-106,84
808,439	1,71
808,619	81,58
808,798	-0,34
808,977	3,75
809,156	57
809,336	20,14
809,515	28,33
809,694	-90,45
809,873	7,85
810,052	75,43
810,231	42,67
810,411	16,04
810,59	179,88
810,769	42,67
810,948	34,47
811,127	-119,12
811,306	32,43
811,485	-26,96
811,664	114,34
811,843	57
812,022	38,57
812,201	-14,68
812,38	71,34
812,559	-35,16
812,737	67,24
812,916	-151,89
813,095	18,09
813,274	65,19
813,453	16,04
813,632	7,85
813,811	50,86
813,989	-164,18
814,168	40,62
814,347	-55,64
814,526	-57,68
814,704	75,43
814,883	97,96
815,062	-59,73
815,24	130,73
815,419	-86,36
815,598	36,52
815,776	-78,16
815,955	5,8
816,133	-57,68
816,312	81,58
816,49	-37,2
816,669	32,43
816,847	-47,44
817,026	63,15
817,204	11,95
817,383	-6,49
817,561	-65,88
817,74	40,62
817,918	65,19
818,097	-47,44
818,275	-72,02
818,453	-6,49
818,632	71,34
818,81	-14,68
818,988	-49,49
819,167	-33,11
819,345	-22,87
819,523	-86,36
819,701	16,04
819,879	71,34
820,058	110,25
820,236	13,99
820,414	59,05
820,592	-39,25
820,77	9,9
820,948	-37,2
821,127	77,48
821,305	20,14
821,483	-53,59
821,661	112,3
821,839	-51,54
822,017	-61,78
822,195	-16,73
822,373	71,34
822,551	-6,49
822,729	30,38
822,907	5,8
823,085	87,72
823,262	-49,49
823,44	-14,68
823,618	-16,73
823,796	44,71
823,974	-16,73
824,152	-20,82
824,329	57
824,507	-20,82
824,685	40,62
824,863	34,47
825,04	-33,11
825,218	65,19
825,396	-31,06
825,574	7,85
825,751	-24,92
825,929	75,43
826,107	-106,84
826,284	-18,77
826,462	-16,73
826,639	-72,02
826,817	13,99
826,994	44,71
827,172	-106,84
827,349	120,49
827,527	65,19
827,704	16,04
827,882	48,81
828,059	-88,4
828,237	32,43
828,414	24,23
828,591	-188,75
828,769	-41,3
828,946	-16,73
829,124	30,38
829,301	89,77
829,478	-37,2
829,655	-43,35
829,833	42,67
830,01	-139,6
830,187	73,39
830,364	-57,68
830,542	-10,58
830,719	104,11
830,896	65,19
831,073	22,19
831,25	50,86
831,427	7,85
831,604	-0,34
831,782	-41,3
831,959	20,14
832,136	5,8
832,313	91,82
832,49	-35,16
832,667	48,81
832,844	-115,03
833,021	79,53
833,198	-2,39
833,374	95,91
833,551	16,04
833,728	-61,78
833,905	118,44
834,082	-98,64
834,259	-0,34
834,436	159,4
834,612	-84,31
834,789	93,87
834,966	1,71
835,143	104,11
835,319	-31,06
835,496	-37,2
835,673	50,86
835,85	48,81
836,026	46,76
836,203	28,33
836,38	-88,4
836,556	-51,54
836,733	-4,44
836,909	75,43
837,086	20,14
837,262	-57,68
837,439	108,2
837,616	-16,73
837,792	11,95
837,968	-2,39
838,145	-129,36
838,321	-37,2
838,498	57
838,674	-14,68
838,851	22,19
839,027	24,23
839,203	1,71
839,38	104,11
839,556	-55,64
839,732	100,01
839,909	57
840,085	116,39
840,261	-41,3
840,437	40,62
840,614	-94,55
840,79	61,1
840,966	97,96
841,142	81,58
841,318	-6,49
841,494	3,75
841,671	30,38
841,847	-49,49
842,023	-57,68
842,199	87,72
842,375	136,87
842,551	-131,41
842,727	-59,73
842,903	202,41
843,079	-76,12
843,255	130,73
843,431	32,43
843,607	134,82
843,783	-20,82
843,959	200,36
844,134	218,79
844,31	433,83
844,486	298,66
844,662	358,05
844,838	315,05
845,013	341,67
845,189	368,29
845,365	261,8
845,541	233,13
845,716	194,22
845,892	173,74
846,068	128,68
846,244	128,68
846,419	134,82
846,595	24,23
846,77	32,43
846,946	112,3
847,122	42,67
847,297	40,62
847,473	161,45
847,648	-78,16
847,824	71,34
847,999	-16,73
848,175	20,14
848,35	50,86
848,526	75,43
848,701	136,87
848,876	73,39
849,052	108,2
849,227	-41,3
849,403	-12,63
849,578	-78,16
849,753	50,86
849,929	3,75
850,104	-55,64
850,279	-96,6
850,454	102,06
850,63	26,28
850,805	11,95
850,98	1,71
851,155	18,09
851,33	-47,44
851,505	-72,02
851,681	83,63
851,856	-65,88
852,031	59,05
852,206	16,04
852,381	-47,44
852,556	22,19
852,731	95,91
852,906	18,09
853,081	32,43
853,256	134,82
853,431	-2,39
853,606	34,47
853,781	-57,68
853,956	-129,36
854,131	54,95
854,305	-16,73
854,48	24,23
854,655	-90,45
854,83	-69,97
855,005	-35,16
855,18	110,25
855,354	28,33
855,529	9,9
855,704	-41,3
855,879	24,23
856,053	-104,79
856,228	-29,01
856,403	-24,92
856,577	-22,87
856,752	-67,92
856,926	54,95
857,101	106,15
857,276	-61,78
857,45	7,85
857,625	79,53
857,799	22,19
857,974	46,76
858,148	-137,56
858,323	9,9
858,497	-35,16
858,672	-88,4
858,846	-22,87
859,02	20,14
859,195	-82,26
859,369	-53,59
859,543	-55,64
859,718	-24,92
859,892	16,04
860,066	32,43
860,241	-16,73
860,415	-76,12
860,589	28,33
860,763	24,23
860,938	-6,49
861,112	32,43
861,286	95,91
861,46	-47,44
861,634	-31,06
861,808	61,1
861,982	-145,75
862,157	-12,63
862,331	-84,31
862,505	-72,02
862,679	-29,01
862,853	-24,92
863,027	-12,63
863,201	151,21
863,375	-94,55
863,549	40,62
863,722	7,85
863,896	153,26
864,07	-96,6
864,244	-33,11
864,418	151,21
864,592	24,23
864,766	52,91
864,939	26,28
865,113	-47,44
865,287	38,57
865,461	-53,59
865,634	-12,63
865,808	52,91
865,982	-55,64
866,156	-2,39
866,329	-153,94
866,503	28,33
866,676	34,47
866,85	20,14
867,024	-98,64
867,197	120,49
867,371	71,34
867,544	48,81
867,718	-6,49
867,891	85,67
868,065	-112,98
868,238	28,33
868,412	128,68
868,585	-4,44
868,759	-35,16
868,932	-4,44
869,105	-106,84
869,279	71,34
869,452	-131,41
869,625	24,23
869,799	-82,26
869,972	-117,08
870,145	-92,5
870,319	73,39
870,492	-2,39
870,665	-20,82
870,838	-45,4
871,011	-102,74
871,185	-43,35
871,358	-6,49
871,531	32,43
871,704	-69,97
871,877	59,05
872,05	-94,55
872,223	-127,32
872,396	112,3
872,569	81,58
872,742	-72,02
872,915	13,99
873,088	-47,44
873,261	-51,54
873,434	7,85
873,607	59,05
873,78	167,59
873,953	-47,44
874,126	63,15
874,299	77,48
874,471	-12,63
874,644	-31,06
874,817	57
874,99	130,73
875,163	-0,34
875,335	11,95
875,508	7,85
875,681	59,05
875,853	-33,11
876,026	-26,96
876,199	42,67
876,371	30,38
876,544	3,75
876,717	24,23
876,889	-0,34
877,062	138,92
877,234	-76,12
877,407	87,72
877,579	-43,35
877,752	26,28
877,924	34,47
878,097	54,95
878,269	112,3
878,442	52,91
878,614	44,71
878,786	42,67
878,959	18,09
879,131	-41,3
879,303	-131,41
879,476	-10,58
879,648	18,09
879,82	13,99
879,993	-69,97
880,165	-55,64
880,337	-123,22
880,509	50,86
880,681	-131,41
880,854	-41,3
881,026	9,9
881,198	165,54
881,37	-10,58
881,542	28,33
881,714	-45,4
881,886	16,04
882,058	81,58
882,23	52,91
882,402	-31,06
882,574	11,95
882,746	85,67
882,918	110,25
883,09	65,19
883,262	-41,3
883,434	48,81
883,606	-63,83
883,778	18,09
883,95	104,11
884,122	5,8
884,293	132,78
884,465	-22,87
884,637	85,67
884,809	-35,16
884,98	-12,63
885,152	48,81
885,324	75,43
885,496	-29,01
885,667	-8,53
885,839	-43,35
886,011	122,54
886,182	59,05
886,354	91,82
886,525	65,19
886,697	57
886,869	-41,3
887,04	-123,22
887,212	138,92
887,383	132,78
887,555	-26,96
887,726	-35,16
887,897	-4,44
888,069	5,8
888,24	67,24
888,412	-10,58
888,583	-41,3
888,754	42,67
888,926	-131,41
889,097	-0,34
889,268	-94,55
889,44	52,91
889,611	-63,83
889,782	-65,88
889,953	-10,58
890,125	106,15
890,296	-43,35
890,467	-65,88
890,638	-29,01
890,809	-29,01
890,98	-69,97
891,151	26,28
891,323	100,01
891,494	-0,34
891,665	22,19
891,836	-24,92
892,007	-6,49
892,178	-24,92
892,349	-14,68
892,52	-37,2
892,691	13,99
892,862	-16,73
893,032	-88,4
893,203	-14,68
893,374	-18,77
893,545	79,53
893,716	-49,49
893,887	32,43
894,057	7,85
894,228	-22,87
894,399	-110,93
894,57	26,28
894,74	9,9
894,911	54,95
895,082	-67,92
895,253	-12,63
895,423	-41,3
895,594	28,33
895,764	67,24
895,935	-61,78
896,106	26,28
896,276	-31,06
896,447	-69,97
896,617	-102,74
896,788	-82,26
896,958	-22,87
897,129	-57,68
897,299	-74,07
897,47	114,34
897,64	59,05
897,81	-37,2
897,981	32,43
898,151	7,85
898,322	26,28
898,492	73,39
898,662	-41,3
898,832	-69,97
899,003	-125,27
899,173	108,2
899,343	-43,35
899,513	-143,7
