Data from deuterium_USB4F104151__25__10-57-07-599.txt Node

Date: Wed Apr 15 10:57:07 EDT 2026
User: LaboPhy
Spectrometer: USB4F10415
Trigger mode: 4
Integration Time (sec): 1,000000E-1
Scans to average: 1
Electric dark correction enabled: true
Nonlinearity correction enabled: false
Boxcar width: 0
XAxis mode: Wavelengths
Number of Pixels in Spectrum: 3648
>>>>>Begin Spectral Data<<<<<
178,204	-535,37
178,424	-535,37
178,644	-535,37
178,864	-492,37
179,084	-447,31
179,304	68,78
179,524	17,58
179,744	-95,06
179,964	13,48
180,184	76,97
180,404	48,3
180,624	-80,72
180,844	48,3
181,064	-117,59
181,283	19,63
181,503	-17,24
181,723	17,58
181,943	-109,4
182,163	160,94
182,383	-2,9
182,602	95,4
182,822	119,98
183,042	93,35
183,262	15,53
183,482	-4,95
183,701	3,24
183,921	25,77
184,141	21,67
184,361	64,68
184,58	128,17
184,8	56,49
185,02	-90,96
185,239	48,3
185,459	52,39
185,679	175,27
185,898	-47,96
186,118	48,3
186,338	62,63
186,557	48,3
186,777	-93,01
186,997	-41,81
187,216	-58,2
187,436	162,98
187,655	3,24
187,875	103,59
188,095	-70,48
188,314	126,12
188,534	62,63
188,753	-23,38
188,973	117,93
189,192	183,46
189,412	-72,53
189,631	7,34
189,851	72,87
190,07	97,45
190,29	-58,2
190,509	-58,2
190,729	-33,62
190,948	144,55
191,168	193,7
191,387	62,63
191,607	-21,33
191,826	99,5
192,045	-29,52
192,265	-43,86
192,484	7,34
192,704	62,63
192,923	-68,44
193,142	85,16
193,362	15,53
193,581	109,74
193,8	13,48
194,02	3,24
194,239	25,77
194,458	46,25
194,678	-23,38
194,897	-25,43
195,116	101,55
195,335	1,19
195,555	38,06
195,774	-23,38
195,993	119,98
196,212	23,72
196,432	-50
196,651	-15,19
196,87	25,77
197,089	158,89
197,308	-50
197,528	74,92
197,747	-25,43
197,966	48,3
198,185	87,21
198,404	-72,53
198,623	87,21
198,842	130,22
199,062	56,49
199,281	81,07
199,5	91,31
199,719	7,34
199,938	62,63
200,157	19,63
200,376	21,67
200,595	105,64
200,814	-4,95
201,033	-13,14
201,252	158,89
201,471	-74,58
201,69	40,11
201,909	-31,57
202,128	66,73
202,347	95,4
202,566	87,21
202,785	-70,48
203,004	40,11
203,223	259,24
203,442	5,29
203,661	-17,24
203,879	46,25
204,098	38,06
204,317	3,24
204,536	95,4
204,755	46,25
204,974	111,78
205,193	-37,72
205,411	91,31
205,63	62,63
205,849	46,25
206,068	11,43
206,287	-127,83
206,505	64,68
206,724	13,48
206,943	-86,87
207,162	-45,91
207,381	81,07
207,599	42,15
207,818	13,48
208,037	-117,59
208,255	9,39
208,474	56,49
208,693	56,49
208,911	-13,14
209,13	101,55
209,349	107,69
209,567	109,74
209,786	42,15
210,005	130,22
210,223	38,06
210,442	-117,59
210,661	-35,67
210,879	62,63
211,098	7,34
211,316	7,34
211,535	38,06
211,753	19,63
211,972	17,58
212,191	-33,62
212,409	54,44
212,628	48,3
212,846	-31,57
213,065	25,77
213,283	33,96
213,502	23,72
213,72	25,77
213,938	-11,09
214,157	62,63
214,375	19,63
214,594	76,97
214,812	-62,29
215,031	-60,24
215,249	33,96
215,467	7,34
215,686	13,48
215,904	-13,14
216,122	-39,76
216,341	128,17
216,559	-25,43
216,778	48,3
216,996	158,89
217,214	9,39
217,432	52,39
217,651	-54,1
217,869	42,15
218,087	46,25
218,306	-9,05
218,524	19,63
218,742	-0,85
218,96	66,73
219,179	-62,29
219,397	-54,1
219,615	240,81
219,833	40,11
220,051	-0,85
220,27	11,43
220,488	-13,14
220,706	46,25
220,924	-72,53
221,142	-17,24
221,36	130,22
221,578	83,11
221,796	-19,29
222,015	-58,2
222,233	13,48
222,451	117,93
222,669	-72,53
222,887	42,15
223,105	-13,14
223,323	66,73
223,541	11,43
223,759	-25,43
223,977	7,34
224,195	146,6
224,413	72,87
224,631	11,43
224,849	83,11
225,067	218,28
225,285	-58,2
225,503	-74,58
225,721	-109,4
225,939	64,68
226,157	15,53
226,375	199,85
226,592	-29,52
226,81	-50
227,028	42,15
227,246	58,54
227,464	76,97
227,682	46,25
227,9	58,54
228,117	109,74
228,335	40,11
228,553	54,44
228,771	-41,81
228,989	-2,9
229,206	38,06
229,424	-37,72
229,642	-86,87
229,86	-127,83
230,077	167,08
230,295	31,91
230,513	50,35
230,731	66,73
230,948	158,89
231,166	152,74
231,384	-13,14
231,601	-31,57
231,819	187,56
232,037	-80,72
232,254	-50
232,472	-25,43
232,689	21,67
232,907	89,26
233,125	-41,81
233,342	-101,2
233,56	-45,91
233,777	-43,86
233,995	9,39
234,213	38,06
234,43	62,63
234,648	13,48
234,865	-47,96
235,083	11,43
235,3	42,15
235,518	105,64
235,735	66,73
235,953	-2,9
236,17	58,54
236,388	-11,09
236,605	68,78
236,822	97,45
237,04	68,78
237,257	54,44
237,475	-119,64
237,692	-13,14
237,909	105,64
238,127	-19,29
238,344	70,83
238,562	-45,91
238,779	-50
238,996	-58,2
239,214	-146,26
239,431	46,25
239,648	36,01
239,865	29,87
240,083	36,01
240,3	9,39
240,517	62,63
240,735	-9,05
240,952	146,6
241,169	36,01
241,386	19,63
241,603	-17,24
241,821	-41,81
242,038	64,68
242,255	154,79
242,472	-78,68
242,689	87,21
242,907	-21,33
243,124	89,26
243,341	5,29
243,558	-58,2
243,775	-29,52
243,992	-150,36
244,209	54,44
244,426	95,4
244,643	-0,85
244,86	36,01
245,078	173,22
245,295	83,11
245,512	7,34
245,729	-80,72
245,946	15,53
246,163	9,39
246,38	36,01
246,597	33,96
246,814	5,29
247,031	70,83
247,248	7,34
247,464	68,78
247,681	66,73
247,898	31,91
248,115	97,45
248,332	-80,72
248,549	76,97
248,766	193,7
248,983	44,2
249,2	36,01
249,417	154,79
249,633	-66,39
249,85	99,5
250,067	19,63
250,284	-52,05
250,501	-11,09
250,717	3,24
250,934	-60,24
251,151	42,15
251,368	-37,72
251,585	31,91
251,801	3,24
252,018	-84,82
252,235	83,11
252,451	-95,06
252,668	9,39
252,885	76,97
253,102	-11,09
253,318	-82,77
253,535	13,48
253,752	19,63
253,968	-52,05
254,185	-121,68
254,401	21,67
254,618	48,3
254,835	-37,72
255,051	70,83
255,268	68,78
255,484	62,63
255,701	-86,87
255,917	111,78
256,134	-115,54
256,351	-62,29
256,567	-60,24
256,784	-7
257	-78,68
257,217	83,11
257,433	-33,62
257,65	-25,43
257,866	119,98
258,082	-101,2
258,299	-127,83
258,515	27,82
258,732	27,82
258,948	-47,96
259,165	25,77
259,381	-54,1
259,597	97,45
259,814	-13,14
260,03	-23,38
260,246	-17,24
260,463	111,78
260,679	89,26
260,895	11,43
261,112	-4,95
261,328	13,48
261,544	-115,54
261,761	128,17
261,977	-31,57
262,193	-136,02
262,409	85,16
262,626	33,96
262,842	19,63
263,058	15,53
263,274	74,92
263,49	5,29
263,707	68,78
263,923	38,06
264,139	-109,4
264,355	38,06
264,571	62,63
264,787	64,68
265,004	126,12
265,22	-45,91
265,436	-15,19
265,652	-66,39
265,868	76,97
266,084	-78,68
266,3	-52,05
266,516	-43,86
266,732	46,25
266,948	-0,85
267,164	13,48
267,38	122,02
267,596	68,78
267,812	97,45
268,028	62,63
268,244	-33,62
268,46	85,16
268,676	-58,2
268,892	21,67
269,108	-115,54
269,324	-82,77
269,54	-29,52
269,756	95,4
269,972	-11,09
270,188	-0,85
270,403	-56,15
270,619	54,44
270,835	13,48
271,051	3,24
271,267	-13,14
271,483	-103,25
271,698	15,53
271,914	33,96
272,13	-45,91
272,346	13,48
272,562	7,34
272,777	193,7
272,993	-17,24
273,209	-29,52
273,425	48,3
273,64	-160,59
273,856	38,06
274,072	-21,33
274,287	27,82
274,503	148,65
274,719	44,2
274,934	-82,77
275,15	-115,54
275,366	27,82
275,581	-45,91
275,797	19,63
276,012	23,72
276,228	-70,48
276,444	60,59
276,659	115,88
276,875	-50
277,09	-13,14
277,306	48,3
277,521	81,07
277,737	13,48
277,952	42,15
278,168	40,11
278,383	38,06
278,599	-50
278,814	85,16
279,03	13,48
279,245	183,46
279,461	7,34
279,676	70,83
279,892	-56,15
280,107	-35,67
280,322	-13,14
280,538	36,01
280,753	-62,29
280,969	31,91
281,184	21,67
281,399	134,31
281,615	-60,24
281,83	7,34
282,045	-129,88
282,26	-19,29
282,476	-13,14
282,691	54,44
282,906	27,82
283,122	-2,9
283,337	-76,63
283,552	23,72
283,767	-90,96
283,983	79,02
284,198	5,29
284,413	50,35
284,628	-88,92
284,843	15,53
285,058	-17,24
285,274	19,63
285,489	-27,48
285,704	54,44
285,919	-25,43
286,134	-33,62
286,349	-29,52
286,564	-9,05
286,779	91,31
286,995	-52,05
287,21	-84,82
287,425	21,67
287,64	-56,15
287,855	36,01
288,07	-95,06
288,285	169,13
288,5	72,87
288,715	58,54
288,93	38,06
289,145	-33,62
289,36	130,22
289,575	-68,44
289,79	95,4
290,004	-62,29
290,219	72,87
290,434	11,43
290,649	42,15
290,864	79,02
291,079	54,44
291,294	-25,43
291,509	46,25
291,724	44,2
291,938	-2,9
292,153	44,2
292,368	-43,86
292,583	70,83
292,798	56,49
293,012	66,73
293,227	29,87
293,442	-76,63
293,657	29,87
293,871	76,97
294,086	-72,53
294,301	113,83
294,516	68,78
294,73	23,72
294,945	-101,2
295,16	29,87
295,374	142,5
295,589	40,11
295,804	-33,62
296,018	79,02
296,233	17,58
296,447	-31,57
296,662	-62,29
296,877	40,11
297,091	70,83
297,306	21,67
297,52	-58,2
297,735	-13,14
297,949	21,67
298,164	-45,91
298,378	79,02
298,593	-39,76
298,807	-37,72
299,022	87,21
299,236	109,74
299,451	-19,29
299,665	-19,29
299,88	1,19
300,094	23,72
300,309	-35,67
300,523	-86,87
300,737	1,19
300,952	79,02
301,166	7,34
301,381	-35,67
301,595	-7
301,809	-54,1
302,024	-0,85
302,238	-72,53
302,452	144,55
302,667	27,82
302,881	76,97
303,095	117,93
303,309	-7
303,524	-80,72
303,738	-45,91
303,952	-88,92
304,166	64,68
304,381	-170,83
304,595	50,35
304,809	-29,52
305,023	-41,81
305,237	-17,24
305,452	46,25
305,666	40,11
305,88	83,11
306,094	99,5
306,308	60,59
306,522	74,92
306,736	-58,2
306,95	126,12
307,164	31,91
307,379	-7
307,593	85,16
307,807	142,5
308,021	136,36
308,235	101,55
308,449	-68,44
308,663	-41,81
308,877	199,85
309,091	56,49
309,305	38,06
309,519	-101,2
309,733	81,07
309,947	-37,72
310,161	25,77
310,374	42,15
310,588	93,35
310,802	-17,24
311,016	-21,33
311,23	52,39
311,444	-119,64
311,658	52,39
311,872	171,18
312,085	99,5
312,299	144,55
312,513	179,37
312,727	91,31
312,941	-62,29
313,154	81,07
313,368	5,29
313,582	56,49
313,796	58,54
314,009	72,87
314,223	183,46
314,437	38,06
314,651	111,78
314,864	52,39
315,078	-4,95
315,292	-133,97
315,505	-21,33
315,719	85,16
315,933	7,34
316,146	-21,33
316,36	-90,96
316,573	150,7
316,787	101,55
317,001	68,78
317,214	-43,86
317,428	23,72
317,641	-68,44
317,855	-35,67
318,068	-35,67
318,282	44,2
318,495	103,59
318,709	111,78
318,922	9,39
319,136	158,89
319,349	70,83
319,563	-41,81
319,776	-25,43
319,99	-111,44
320,203	76,97
320,417	21,67
320,63	111,78
320,843	222,38
321,057	79,02
321,27	36,01
321,483	-31,57
321,697	150,7
321,91	27,82
322,124	93,35
322,337	31,91
322,55	3,24
322,763	62,63
322,977	-9,05
323,19	1,19
323,403	-23,38
323,617	40,11
323,83	115,88
324,043	58,54
324,256	81,07
324,469	-62,29
324,683	138,41
324,896	11,43
325,109	50,35
325,322	-29,52
325,535	62,63
325,748	101,55
325,962	-13,14
326,175	58,54
326,388	-2,9
326,601	40,11
326,814	-25,43
327,027	21,67
327,24	52,39
327,453	-183,12
327,666	52,39
327,879	124,07
328,092	48,3
328,305	68,78
328,518	-9,05
328,731	-33,62
328,944	76,97
329,157	64,68
329,37	-15,19
329,583	183,46
329,796	103,59
330,009	-86,87
330,222	154,79
330,435	85,16
330,648	60,59
330,861	93,35
331,073	83,11
331,286	173,22
331,499	62,63
331,712	1,19
331,925	105,64
332,138	48,3
332,35	103,59
332,563	-50
332,776	165,03
332,989	-21,33
333,202	25,77
333,414	-37,72
333,627	76,97
333,84	15,53
334,053	19,63
334,265	-23,38
334,478	103,59
334,691	54,44
334,903	38,06
335,116	50,35
335,329	109,74
335,541	126,12
335,754	185,51
335,966	3,24
336,179	36,01
336,392	72,87
336,604	9,39
336,817	68,78
337,029	64,68
337,242	54,44
337,454	60,59
337,667	23,72
337,88	218,28
338,092	152,74
338,305	119,98
338,517	54,44
338,729	113,83
338,942	167,08
339,154	19,63
339,367	-7
339,579	134,31
339,792	-27,48
340,004	101,55
340,217	-27,48
340,429	85,16
340,641	-11,09
340,854	-72,53
341,066	-13,14
341,278	62,63
341,491	218,28
341,703	60,59
341,915	-4,95
342,128	208,04
342,34	117,93
342,552	48,3
342,764	36,01
342,977	44,2
343,189	29,87
343,401	152,74
343,613	-127,83
343,826	56,49
344,038	-15,19
344,25	62,63
344,462	-31,57
344,674	62,63
344,886	42,15
345,099	5,29
345,311	54,44
345,523	21,67
345,735	-103,25
345,947	38,06
346,159	107,69
346,371	-9,05
346,583	19,63
346,795	183,46
347,007	29,87
347,219	113,83
347,431	70,83
347,643	97,45
347,855	36,01
348,067	146,6
348,279	-21,33
348,491	11,43
348,703	66,73
348,915	81,07
349,127	33,96
349,339	46,25
349,551	-2,9
349,763	101,55
349,975	44,2
350,187	107,69
350,399	97,45
350,61	87,21
350,822	29,87
351,034	70,83
351,246	52,39
351,458	130,22
351,669	29,87
351,881	156,84
352,093	117,93
352,305	154,79
352,517	50,35
352,728	169,13
352,94	81,07
353,152	117,93
353,363	19,63
353,575	76,97
353,787	322,73
353,999	15,53
354,21	183,46
354,422	33,96
354,633	11,43
354,845	21,67
355,057	50,35
355,268	60,59
355,48	148,65
355,692	-78,68
355,903	109,74
356,115	21,67
356,326	-56,15
356,538	210,09
356,749	91,31
356,961	156,84
357,172	52,39
357,384	21,67
357,595	253,09
357,807	-37,72
358,018	72,87
358,23	89,26
358,441	109,74
358,653	91,31
358,864	46,25
359,075	5,29
359,287	27,82
359,498	189,61
359,709	99,5
359,921	97,45
360,132	103,59
360,344	-27,48
360,555	-7
360,766	105,64
360,977	-37,72
361,189	130,22
361,4	46,25
361,611	140,46
361,823	66,73
362,034	21,67
362,245	-27,48
362,456	38,06
362,667	138,41
362,879	11,43
363,09	79,02
363,301	40,11
363,512	64,68
363,723	-21,33
363,935	62,63
364,146	103,59
364,357	-13,14
364,568	101,55
364,779	-101,2
364,99	267,43
365,201	23,72
365,412	171,18
365,623	-78,68
365,834	105,64
366,045	58,54
366,256	179,37
366,467	111,78
366,678	19,63
366,889	136,36
367,1	19,63
367,311	115,88
367,522	-4,95
367,733	48,3
367,944	85,16
368,155	-25,43
368,366	160,94
368,577	99,5
368,788	81,07
368,999	33,96
369,209	85,16
369,42	294,05
369,631	265,38
369,842	148,65
370,053	46,25
370,264	56,49
370,474	3,24
370,685	124,07
370,896	-13,14
371,107	79,02
371,317	93,35
371,528	70,83
371,739	183,46
371,95	66,73
372,16	56,49
372,371	-0,85
372,582	7,34
372,792	160,94
373,003	52,39
373,214	138,41
373,424	103,59
373,635	60,59
373,846	189,61
374,056	74,92
374,267	173,22
374,477	113,83
374,688	-7
374,898	-19,29
375,109	13,48
375,319	70,83
375,53	171,18
375,74	109,74
375,951	103,59
376,161	23,72
376,372	119,98
376,582	76,97
376,793	195,75
377,003	-11,09
377,214	-27,48
377,424	109,74
377,635	-47,96
377,845	38,06
378,055	169,13
378,266	-78,68
378,476	101,55
378,686	46,25
378,897	38,06
379,107	97,45
379,317	97,45
379,528	-35,67
379,738	62,63
379,948	-21,33
380,158	-11,09
380,369	21,67
380,579	81,07
380,789	31,91
380,999	91,31
381,21	85,16
381,42	269,48
381,63	97,45
381,84	95,4
382,05	87,21
382,261	144,55
382,471	169,13
382,681	-50
382,891	140,46
383,101	87,21
383,311	-47,96
383,521	13,48
383,731	70,83
383,941	152,74
384,151	70,83
384,361	27,82
384,571	169,13
384,781	62,63
384,991	156,84
385,201	232,62
385,411	115,88
385,621	42,15
385,831	113,83
386,041	56,49
386,251	-29,52
386,461	177,32
386,671	124,07
386,881	5,29
387,091	119,98
387,301	111,78
387,511	42,15
387,72	105,64
387,93	130,22
388,14	-9,05
388,35	109,74
388,56	119,98
388,769	126,12
388,979	13,48
389,189	15,53
389,399	62,63
389,609	162,98
389,818	130,22
390,028	29,87
390,238	181,42
390,447	-45,91
390,657	85,16
390,867	33,96
391,076	-54,1
391,286	38,06
391,496	7,34
391,705	-17,24
391,915	152,74
392,125	183,46
392,334	-33,62
392,544	138,41
392,753	85,16
392,963	-29,52
393,172	76,97
393,382	44,2
393,591	230,57
393,801	52,39
394,01	150,7
394,22	144,55
394,429	50,35
394,639	54,44
394,848	36,01
395,058	56,49
395,267	113,83
395,477	158,89
395,686	21,67
395,895	287,91
396,105	289,96
396,314	99,5
396,524	99,5
396,733	42,15
396,942	224,42
397,152	193,7
397,361	177,32
397,57	124,07
397,78	87,21
397,989	146,6
398,198	236,71
398,407	9,39
398,617	11,43
398,826	122,02
399,035	3,24
399,244	142,5
399,453	52,39
399,663	15,53
399,872	15,53
400,081	68,78
400,29	179,37
400,499	-70,48
400,708	85,16
400,917	68,78
401,127	68,78
401,336	68,78
401,545	132,26
401,754	185,51
401,963	154,79
402,172	-15,19
402,381	-60,24
402,59	-27,48
402,799	27,82
403,008	132,26
403,217	107,69
403,426	89,26
403,635	23,72
403,844	62,63
404,053	7,34
404,262	54,44
404,471	222,38
404,68	99,5
404,888	-19,29
405,097	79,02
405,306	19,63
405,515	144,55
405,724	52,39
405,933	79,02
406,142	62,63
406,35	93,35
406,559	3,24
406,768	40,11
406,977	201,9
407,185	111,78
407,394	103,59
407,603	-31,57
407,812	64,68
408,02	148,65
408,229	70,83
408,438	85,16
408,646	52,39
408,855	152,74
409,064	134,31
409,272	117,93
409,481	269,48
409,69	156,84
409,898	199,85
410,107	289,96
410,315	269,48
410,524	193,7
410,733	220,33
410,941	138,41
411,15	220,33
411,358	208,04
411,567	212,14
411,775	103,59
411,984	60,59
412,192	103,59
412,401	13,48
412,609	181,42
412,818	154,79
413,026	107,69
413,234	46,25
413,443	111,78
413,651	-19,29
413,86	-25,43
414,068	42,15
414,276	212,14
414,485	-4,95
414,693	175,27
414,901	210,09
415,11	46,25
415,318	85,16
415,526	79,02
415,734	101,55
415,943	21,67
416,151	48,3
416,359	83,11
416,567	74,92
416,776	19,63
416,984	72,87
417,192	152,74
417,4	-54,1
417,608	60,59
417,817	-19,29
418,025	181,42
418,233	119,98
418,441	-54,1
418,649	-29,52
418,857	27,82
419,065	175,27
419,273	-47,96
419,481	36,01
419,689	64,68
419,897	-54,1
420,105	-62,29
420,313	50,35
420,521	156,84
420,729	124,07
420,937	23,72
421,145	-52,05
421,353	122,02
421,561	113,83
421,769	111,78
421,977	-17,24
422,185	93,35
422,393	56,49
422,601	85,16
422,809	-2,9
423,017	-35,67
423,224	33,96
423,432	142,5
423,64	58,54
423,848	64,68
424,056	7,34
424,263	101,55
424,471	36,01
424,679	31,91
424,887	-76,63
425,094	128,17
425,302	40,11
425,51	23,72
425,718	87,21
425,925	-11,09
426,133	-23,38
426,341	230,57
426,548	-15,19
426,756	68,78
426,964	117,93
427,171	-29,52
427,379	128,17
427,586	29,87
427,794	52,39
428,001	142,5
428,209	3,24
428,417	101,55
428,624	70,83
428,832	5,29
429,039	62,63
429,247	19,63
429,454	5,29
429,662	162,98
429,869	25,77
430,076	21,67
430,284	72,87
430,491	148,65
430,699	62,63
430,906	144,55
431,114	27,82
431,321	62,63
431,528	101,55
431,736	93,35
431,943	101,55
432,15	279,72
432,358	292,01
432,565	578,72
432,772	310,44
432,979	685,22
433,187	574,63
433,394	775,33
433,601	865,44
433,808	994,46
434,016	1055,9
434,223	910,49
434,43	844,96
434,637	836,77
434,844	754,85
435,052	496,8
435,259	455,84
435,466	341,16
435,673	318,63
435,88	263,33
436,087	193,7
436,294	208,04
436,501	140,46
436,708	111,78
436,915	-19,29
437,122	193,7
437,329	-62,29
437,537	-0,85
437,743	42,15
437,95	255,14
438,157	19,63
438,364	52,39
438,571	60,59
438,778	111,78
438,985	38,06
439,192	113,83
439,399	3,24
439,606	44,2
439,813	134,31
440,02	179,37
440,227	169,13
440,433	99,5
440,64	-11,09
440,847	23,72
441,054	79,02
441,261	216,23
441,467	68,78
441,674	-86,87
441,881	117,93
442,088	-19,29
442,294	68,78
442,501	79,02
442,708	148,65
442,914	44,2
443,121	76,97
443,328	50,35
443,534	85,16
443,741	7,34
443,948	3,24
444,154	29,87
444,361	191,66
444,568	87,21
444,774	62,63
444,981	-52,05
445,187	136,36
445,394	60,59
445,6	15,53
445,807	36,01
446,013	44,2
446,22	-25,43
446,426	-17,24
446,633	87,21
446,839	181,42
447,046	-41,81
447,252	44,2
447,459	60,59
447,665	-9,05
447,871	48,3
448,078	21,67
448,284	95,4
448,491	83,11
448,697	19,63
448,903	95,4
449,11	58,54
449,316	19,63
449,522	29,87
449,728	11,43
449,935	76,97
450,141	36,01
450,347	109,74
450,553	107,69
450,76	27,82
450,966	60,59
451,172	70,83
451,378	21,67
451,584	76,97
451,791	167,08
451,997	33,96
452,203	-37,72
452,409	128,17
452,615	191,66
452,821	56,49
453,027	-31,57
453,233	158,89
453,44	83,11
453,646	56,49
453,852	72,87
454,058	-23,38
454,264	27,82
454,47	95,4
454,676	-56,15
454,882	52,39
455,088	64,68
455,294	-0,85
455,5	11,43
455,705	72,87
455,911	13,48
456,117	-2,9
456,323	70,83
456,529	25,77
456,735	83,11
456,941	126,12
457,147	38,06
457,352	42,15
457,558	44,2
457,764	89,26
457,97	3,24
458,176	109,74
458,381	-39,76
458,587	183,46
458,793	128,17
458,999	19,63
459,204	23,72
459,41	5,29
459,616	81,07
459,821	79,02
460,027	-70,48
460,233	21,67
460,438	132,26
460,644	29,87
460,85	62,63
461,055	46,25
461,261	89,26
461,466	-21,33
461,672	66,73
461,878	-25,43
462,083	64,68
462,289	-2,9
462,494	-19,29
462,7	117,93
462,905	70,83
463,111	150,7
463,316	175,27
463,522	83,11
463,727	19,63
463,932	122,02
464,138	79,02
464,343	103,59
464,549	126,12
464,754	148,65
464,959	134,31
465,165	38,06
465,37	68,78
465,575	52,39
465,781	58,54
465,986	-2,9
466,191	46,25
466,397	70,83
466,602	154,79
466,807	89,26
467,012	142,5
467,218	140,46
467,423	38,06
467,628	81,07
467,833	-39,76
468,038	103,59
468,244	-2,9
468,449	-4,95
468,654	48,3
468,859	-13,14
469,064	11,43
469,269	-4,95
469,474	91,31
469,679	203,94
469,885	74,92
470,09	-37,72
470,295	87,21
470,5	-27,48
470,705	175,27
470,91	29,87
471,115	146,6
471,32	40,11
471,525	208,04
471,73	154,79
471,935	46,25
472,139	33,96
472,344	-7
472,549	31,91
472,754	134,31
472,959	152,74
473,164	79,02
473,369	52,39
473,574	76,97
473,778	81,07
473,983	40,11
474,188	111,78
474,393	103,59
474,598	44,2
474,802	154,79
475,007	25,77
475,212	160,94
475,417	-7
475,621	183,46
475,826	-23,38
476,031	62,63
476,235	44,2
476,44	23,72
476,645	15,53
476,849	27,82
477,054	-37,72
477,259	40,11
477,463	93,35
477,668	363,69
477,872	122,02
478,077	89,26
478,282	21,67
478,486	152,74
478,691	62,63
478,895	68,78
479,1	179,37
479,304	136,36
479,509	13,48
479,713	140,46
479,918	97,45
480,122	93,35
480,326	126,12
480,531	60,59
480,735	50,35
480,94	76,97
481,144	148,65
481,348	70,83
481,553	72,87
481,757	1,19
481,961	36,01
482,166	70,83
482,37	23,72
482,574	44,2
482,778	56,49
482,983	142,5
483,187	130,22
483,391	136,36
483,595	187,56
483,8	453,8
484,004	799,9
484,208	1174,68
484,412	2036,88
484,616	3130,49
484,821	4381,8
485,025	5786,71
485,229	7494,71
485,433	8725,54
485,637	9710,61
485,841	10159,12
486,045	10669,06
486,249	10552,33
486,453	9851,92
486,657	8975,39
486,861	7754,8
487,065	6542,41
487,269	5327,96
487,473	4435,05
487,677	3646,58
487,881	3050,62
488,085	2247,82
488,289	1832,08
488,493	1318,04
488,697	1080,47
488,901	652,45
489,105	388,26
489,309	255,14
489,512	326,82
489,716	177,32
489,92	169,13
490,124	134,31
490,328	257,19
490,531	203,94
490,735	154,79
490,939	23,72
491,143	134,31
491,346	95,4
491,55	109,74
491,754	9,39
491,958	130,22
492,161	79,02
492,365	54,44
492,569	105,64
492,772	44,2
492,976	79,02
493,18	29,87
493,383	46,25
493,587	93,35
493,79	93,35
493,994	21,67
494,197	33,96
494,401	89,26
494,605	27,82
494,808	64,68
495,012	113,83
495,215	105,64
495,419	68,78
495,622	48,3
495,825	-25,43
496,029	56,49
496,232	25,77
496,436	23,72
496,639	70,83
496,843	103,59
497,046	-33,62
497,249	232,62
497,453	70,83
497,656	1,19
497,859	48,3
498,063	122,02
498,266	142,5
498,469	-45,91
498,673	-23,38
498,876	36,01
499,079	-23,38
499,282	97,45
499,485	253,09
499,689	56,49
499,892	169,13
500,095	3,24
500,298	-72,53
500,501	-109,4
500,705	72,87
500,908	7,34
501,111	-11,09
501,314	60,59
501,517	109,74
501,72	-17,24
501,923	46,25
502,126	70,83
502,329	122,02
502,532	31,91
502,735	152,74
502,938	154,79
503,141	68,78
503,344	5,29
503,547	191,66
503,75	23,72
503,953	-19,29
504,156	40,11
504,359	79,02
504,562	-35,67
504,765	3,24
504,968	81,07
505,17	79,02
505,373	33,96
505,576	105,64
505,779	36,01
505,982	-33,62
506,185	19,63
506,387	-31,57
506,59	93,35
506,793	-9,05
506,996	3,24
507,198	115,88
507,401	56,49
507,604	136,36
507,807	38,06
508,009	7,34
508,212	158,89
508,415	19,63
508,617	9,39
508,82	17,58
509,022	62,63
509,225	87,21
509,428	21,67
509,63	42,15
509,833	1,19
510,035	242,85
510,238	99,5
510,44	-78,68
510,643	111,78
510,845	111,78
511,048	152,74
511,25	3,24
511,453	74,92
511,655	142,5
511,858	162,98
512,06	160,94
512,262	48,3
512,465	19,63
512,667	58,54
512,87	-35,67
513,072	144,55
513,274	50,35
513,477	-2,9
513,679	46,25
513,881	60,59
514,084	-56,15
514,286	236,71
514,488	62,63
514,69	72,87
514,893	-41,81
515,095	5,29
515,297	-13,14
515,499	42,15
515,701	27,82
515,904	58,54
516,106	177,32
516,308	128,17
516,51	79,02
516,712	103,59
516,914	85,16
517,116	29,87
517,318	87,21
517,52	58,54
517,722	17,58
517,925	-29,52
518,127	-31,57
518,329	91,31
518,531	-41,81
518,733	95,4
518,935	-9,05
519,136	119,98
519,338	-54,1
519,54	-21,33
519,742	72,87
519,944	113,83
520,146	99,5
520,348	62,63
520,55	89,26
520,752	-64,34
520,954	23,72
521,155	62,63
521,357	70,83
521,559	144,55
521,761	173,22
521,963	70,83
522,164	89,26
522,366	99,5
522,568	97,45
522,77	79,02
522,971	56,49
523,173	-41,81
523,375	113,83
523,576	-52,05
523,778	-43,86
523,98	40,11
524,181	46,25
524,383	111,78
524,584	7,34
524,786	23,72
524,988	5,29
525,189	25,77
525,391	93,35
525,592	-74,58
525,794	-150,36
525,995	-41,81
526,197	74,92
526,398	216,23
526,6	89,26
526,801	48,3
527,003	-95,06
527,204	103,59
527,406	1,19
527,607	3,24
527,808	38,06
528,01	56,49
528,211	115,88
528,412	-37,72
528,614	140,46
528,815	101,55
529,016	216,23
529,218	13,48
529,419	158,89
529,62	29,87
529,822	85,16
530,023	27,82
530,224	117,93
530,425	175,27
530,626	7,34
530,828	27,82
531,029	-54,1
531,23	101,55
531,431	7,34
531,632	119,98
531,833	1,19
532,035	103,59
532,236	-9,05
532,437	162,98
532,638	25,77
532,839	-117,59
533,04	132,26
533,241	130,22
533,442	21,67
533,643	13,48
533,844	-45,91
534,045	-64,34
534,246	-37,72
534,447	11,43
534,648	36,01
534,849	117,93
535,05	13,48
535,251	-86,87
535,451	101,55
535,652	-50
535,853	21,67
536,054	46,25
536,255	-21,33
536,456	-37,72
536,657	58,54
536,857	21,67
537,058	175,27
537,259	-37,72
537,46	-45,91
537,66	17,58
537,861	-13,14
538,062	-15,19
538,263	-76,63
538,463	11,43
538,664	-29,52
538,865	-45,91
539,065	64,68
539,266	132,26
539,466	-47,96
539,667	136,36
539,868	93,35
540,068	-15,19
540,269	56,49
540,469	70,83
540,67	95,4
540,87	70,83
541,071	5,29
541,271	19,63
541,472	171,18
541,672	50,35
541,873	5,29
542,073	-2,9
542,274	-2,9
542,474	62,63
542,675	140,46
542,875	60,59
543,075	-45,91
543,276	52,39
543,476	87,21
543,676	111,78
543,877	17,58
544,077	60,59
544,277	107,69
544,478	54,44
544,678	-19,29
544,878	38,06
545,078	97,45
545,279	-4,95
545,479	-35,67
545,679	-9,05
545,879	89,26
546,079	-0,85
546,28	-82,77
546,48	-0,85
546,68	48,3
546,88	-4,95
547,08	52,39
547,28	74,92
547,48	-62,29
547,68	115,88
547,88	85,16
548,081	31,91
548,281	-99,16
548,481	11,43
548,681	-23,38
548,881	103,59
549,081	150,7
549,28	52,39
549,48	-27,48
549,68	177,32
549,88	19,63
550,08	-39,76
550,28	21,67
550,48	183,46
550,68	40,11
550,88	21,67
551,08	-2,9
551,279	195,75
551,479	-52,05
551,679	199,85
551,879	17,58
552,079	-9,05
552,278	44,2
552,478	146,6
552,678	60,59
552,878	52,39
553,077	-21,33
553,277	62,63
553,477	29,87
553,676	11,43
553,876	17,58
554,076	-4,95
554,275	87,21
554,475	48,3
554,674	119,98
554,874	-68,44
555,074	-88,92
555,273	68,78
555,473	-47,96
555,672	27,82
555,872	54,44
556,071	44,2
556,271	142,5
556,47	46,25
556,67	27,82
556,869	-23,38
557,068	-9,05
557,268	60,59
557,467	21,67
557,667	134,31
557,866	70,83
558,065	13,48
558,265	-2,9
558,464	1,19
558,663	64,68
558,863	40,11
559,062	64,68
559,261	31,91
559,461	74,92
559,66	60,59
559,859	-17,24
560,058	-43,86
560,258	-45,91
560,457	128,17
560,656	181,42
560,855	-123,73
561,054	44,2
561,253	11,43
561,453	40,11
561,652	33,96
561,851	87,21
562,05	62,63
562,249	-56,15
562,448	70,83
562,647	-97,11
562,846	-11,09
563,045	50,35
563,244	-29,52
563,443	79,02
563,642	50,35
563,841	-37,72
564,04	117,93
564,239	66,73
564,438	97,45
564,637	-105,3
564,836	-43,86
565,035	-50
565,234	-54,1
565,432	3,24
565,631	29,87
565,83	40,11
566,029	23,72
566,228	-43,86
566,427	95,4
566,625	-54,1
566,824	85,16
567,023	-13,14
567,222	40,11
567,42	5,29
567,619	40,11
567,818	-9,05
568,016	224,42
568,215	97,45
568,414	119,98
568,612	33,96
568,811	-2,9
569,01	42,15
569,208	101,55
569,407	136,36
569,605	111,78
569,804	66,73
570,002	124,07
570,201	-35,67
570,4	132,26
570,598	146,6
570,797	62,63
570,995	70,83
571,193	115,88
571,392	126,12
571,59	36,01
571,789	130,22
571,987	136,36
572,186	128,17
572,384	109,74
572,582	48,3
572,781	191,66
572,979	36,01
573,177	1,19
573,376	109,74
573,574	136,36
573,772	81,07
573,971	72,87
574,169	-27,48
574,367	160,94
574,565	17,58
574,763	76,97
574,962	81,07
575,16	167,08
575,358	-19,29
575,556	58,54
575,754	99,5
575,952	60,59
576,151	99,5
576,349	292,01
576,547	-68,44
576,745	40,11
576,943	134,31
577,141	128,17
577,339	-37,72
577,537	109,74
577,735	175,27
577,933	148,65
578,131	-4,95
578,329	185,51
578,527	19,63
578,725	165,03
578,923	11,43
579,121	177,32
579,319	-84,82
579,516	95,4
579,714	244,9
579,912	173,22
580,11	7,34
580,308	64,68
580,506	72,87
580,704	-66,39
580,901	23,72
581,099	191,66
581,297	156,84
581,495	179,37
581,692	101,55
581,89	281,77
582,088	97,45
582,285	183,46
582,483	58,54
582,681	119,98
582,878	99,5
583,076	138,41
583,274	101,55
583,471	222,38
583,669	56,49
583,866	3,24
584,064	52,39
584,262	7,34
584,459	-2,9
584,657	54,44
584,854	136,36
585,052	126,12
585,249	68,78
585,447	70,83
585,644	19,63
585,841	201,9
586,039	146,6
586,236	224,42
586,434	70,83
586,631	15,53
586,828	62,63
587,026	52,39
587,223	-27,48
587,42	21,67
587,618	126,12
587,815	138,41
588,012	146,6
588,21	-45,91
588,407	144,55
588,604	105,64
588,801	-0,85
588,999	87,21
589,196	138,41
589,393	-45,91
589,59	142,5
589,787	31,91
589,984	148,65
590,182	56,49
590,379	54,44
590,576	-52,05
590,773	124,07
590,97	68,78
591,167	169,13
591,364	117,93
591,561	-103,25
591,758	199,85
591,955	130,22
592,152	40,11
592,349	109,74
592,546	29,87
592,743	27,82
592,94	25,77
593,137	99,5
593,334	160,94
593,531	109,74
593,727	74,92
593,924	70,83
594,121	89,26
594,318	58,54
594,515	60,59
594,712	232,62
594,908	218,28
595,105	-13,14
595,302	128,17
595,499	101,55
595,696	275,62
595,892	105,64
596,089	148,65
596,286	64,68
596,482	158,89
596,679	181,42
596,876	19,63
597,072	81,07
597,269	5,29
597,466	103,59
597,662	52,39
597,859	21,67
598,055	74,92
598,252	101,55
598,448	79,02
598,645	117,93
598,841	126,12
599,038	263,33
599,234	201,9
599,431	68,78
599,627	72,87
599,824	85,16
600,02	109,74
600,217	-2,9
600,413	68,78
600,609	40,11
600,806	312,49
601,002	214,18
601,198	-13,14
601,395	128,17
601,591	154,79
601,787	81,07
601,984	175,27
602,18	85,16
602,376	93,35
602,572	162,98
602,769	111,78
602,965	-35,67
603,161	173,22
603,357	85,16
603,553	156,84
603,75	117,93
603,946	124,07
604,142	60,59
604,338	144,55
604,534	21,67
604,73	128,17
604,926	42,15
605,122	140,46
605,318	79,02
605,514	208,04
605,71	21,67
605,906	85,16
606,102	5,29
606,298	232,62
606,494	165,03
606,69	156,84
606,886	3,24
607,082	-37,72
607,278	-35,67
607,474	115,88
607,67	103,59
607,866	-7
608,062	154,79
608,257	156,84
608,453	-23,38
608,649	105,64
608,845	3,24
609,041	38,06
609,236	85,16
609,432	103,59
609,628	162,98
609,824	87,21
610,019	-0,85
610,215	60,59
610,411	179,37
610,606	214,18
610,802	-62,29
610,998	25,77
611,193	130,22
611,389	-47,96
611,584	87,21
611,78	-2,9
611,976	-23,38
612,171	230,57
612,367	124,07
612,562	5,29
612,758	128,17
612,953	-62,29
613,149	-2,9
613,344	60,59
613,539	1,19
613,735	72,87
613,93	66,73
614,126	42,15
614,321	-21,33
614,517	124,07
614,712	142,5
614,907	134,31
615,103	136,36
615,298	-17,24
615,493	-54,1
615,688	70,83
615,884	76,97
616,079	44,2
616,274	72,87
616,47	-25,43
616,665	3,24
616,86	56,49
617,055	-0,85
617,25	-45,91
617,445	23,72
617,641	91,31
617,836	27,82
618,031	-15,19
618,226	81,07
618,421	38,06
618,616	-15,19
618,811	15,53
619,006	19,63
619,201	124,07
619,396	91,31
619,591	-127,83
619,786	54,44
619,981	167,08
620,176	99,5
620,371	44,2
620,566	3,24
620,761	165,03
620,956	62,63
621,151	56,49
621,346	105,64
621,541	1,19
621,735	160,94
621,93	-27,48
622,125	5,29
622,32	-9,05
622,515	-66,39
622,709	33,96
622,904	64,68
623,099	11,43
623,294	144,55
623,488	46,25
623,683	-39,76
623,878	-21,33
624,072	138,41
624,267	-7
624,462	126,12
624,656	-37,72
624,851	9,39
625,046	-23,38
625,24	56,49
625,435	81,07
625,629	66,73
625,824	81,07
626,018	23,72
626,213	115,88
626,407	-58,2
626,602	25,77
626,796	-35,67
626,991	52,39
627,185	1,19
627,38	58,54
627,574	103,59
627,768	128,17
627,963	46,25
628,157	25,77
628,352	-9,05
628,546	13,48
628,74	91,31
628,935	29,87
629,129	-17,24
629,323	109,74
629,517	-84,82
629,712	-27,48
629,906	52,39
630,1	171,18
630,294	117,93
630,489	44,2
630,683	68,78
630,877	-50
631,071	93,35
631,265	-13,14
631,459	128,17
631,653	-25,43
631,848	21,67
632,042	9,39
632,236	27,82
632,43	93,35
632,624	29,87
632,818	27,82
633,012	150,7
633,206	70,83
633,4	83,11
633,594	136,36
633,788	50,35
633,982	68,78
634,176	162,98
634,369	21,67
634,563	93,35
634,757	-37,72
634,951	76,97
635,145	150,7
635,339	76,97
635,533	179,37
635,726	54,44
635,92	-31,57
636,114	1,19
636,308	42,15
636,501	-45,91
636,695	158,89
636,889	-70,48
637,083	134,31
637,276	5,29
637,47	-127,83
637,664	36,01
637,857	29,87
638,051	21,67
638,244	64,68
638,438	21,67
638,632	162,98
638,825	-121,68
639,019	175,27
639,212	-39,76
639,406	111,78
639,599	31,91
639,793	95,4
639,986	50,35
640,18	107,69
640,373	38,06
640,567	-7
640,76	79,02
640,954	7,34
641,147	21,67
641,34	-17,24
641,534	128,17
641,727	119,98
641,92	83,11
642,114	136,36
642,307	1,19
642,5	93,35
642,694	60,59
642,887	62,63
643,08	130,22
643,273	119,98
643,467	-19,29
643,66	-84,82
643,853	-72,53
644,046	111,78
644,239	68,78
644,432	-35,67
644,626	-70,48
644,819	29,87
645,012	42,15
645,205	87,21
645,398	89,26
645,591	52,39
645,784	-29,52
645,977	-2,9
646,17	85,16
646,363	105,64
646,556	44,2
646,749	-88,92
646,942	23,72
647,135	201,9
647,328	13,48
647,521	150,7
647,714	-45,91
647,907	72,87
648,099	-13,14
648,292	79,02
648,485	36,01
648,678	21,67
648,871	25,77
649,064	-19,29
649,256	85,16
649,449	-19,29
649,642	-19,29
649,835	99,5
650,027	19,63
650,22	101,55
650,413	33,96
650,605	33,96
650,798	-9,05
650,991	15,53
651,183	113,83
651,376	154,79
651,568	148,65
651,761	62,63
651,954	144,55
652,146	38,06
652,339	187,56
652,531	251,05
652,724	62,63
652,916	56,49
653,109	-25,43
653,301	216,23
653,494	210,09
653,686	214,18
653,879	236,71
654,071	234,66
654,263	328,87
654,456	621,73
654,648	2213
654,84	6745,16
655,033	15031,24
655,225	25946,91
655,417	37120,63
655,61	47145,44
655,802	55834,97
655,994	60770,57
656,186	61985,02
656,379	59076,9
656,571	55517,53
656,763	49385,91
656,955	45130,23
657,148	41216,57
657,34	37474,93
657,532	33366,7
657,724	30173,92
657,916	26530,58
658,108	22997,84
658,3	19305,35
658,492	16075,7
658,684	12764,14
658,876	10798,09
659,068	8655,91
659,26	6609,99
659,452	4865,12
659,644	3658,87
659,836	2782,34
660,028	1782,93
660,22	1215,64
660,412	920,73
660,604	666,78
660,796	537,76
660,988	517,28
661,18	378,02
661,372	275,62
661,563	273,57
661,755	249
661,947	101,55
662,139	132,26
662,331	203,94
662,522	181,42
662,714	81,07
662,906	101,55
663,097	79,02
663,289	7,34
663,481	17,58
663,673	140,46
663,864	134,31
664,056	93,35
664,247	99,5
664,439	224,42
664,631	95,4
664,822	111,78
665,014	46,25
665,205	50,35
665,397	-39,76
665,588	87,21
665,78	76,97
665,971	167,08
666,163	-2,9
666,354	91,31
666,546	44,2
666,737	36,01
666,929	11,43
667,12	36,01
667,311	72,87
667,503	66,73
667,694	83,11
667,885	101,55
668,077	93,35
668,268	-70,48
668,459	60,59
668,651	70,83
668,842	27,82
669,033	-47,96
669,224	-125,78
669,416	275,62
669,607	-31,57
669,798	-58,2
669,989	128,17
670,18	95,4
670,371	31,91
670,563	27,82
670,754	138,41
670,945	101,55
671,136	132,26
671,327	-64,34
671,518	177,32
671,709	111,78
671,9	134,31
672,091	38,06
672,282	5,29
672,473	7,34
672,664	-66,39
672,855	56,49
673,046	81,07
673,237	136,36
673,428	-15,19
673,619	126,12
673,809	-62,29
674	117,93
674,191	117,93
674,382	-17,24
674,573	-19,29
674,764	-9,05
674,954	107,69
675,145	-82,77
675,336	-4,95
675,527	-86,87
675,717	-13,14
675,908	-4,95
676,099	-47,96
676,289	-25,43
676,48	-103,25
676,671	-50
676,861	-35,67
677,052	85,16
677,243	-88,92
677,433	-90,96
677,624	25,77
677,814	40,11
678,005	54,44
678,195	160,94
678,386	-103,25
678,576	-58,2
678,767	-11,09
678,957	60,59
679,148	87,21
679,338	185,51
679,529	134,31
679,719	-45,91
679,909	85,16
680,1	50,35
680,29	62,63
680,481	-78,68
680,671	42,15
680,861	-11,09
681,052	-45,91
681,242	-84,82
681,432	105,64
681,622	-9,05
681,813	-58,2
682,003	1,19
682,193	-82,77
682,383	44,2
682,573	38,06
682,764	-43,86
682,954	-64,34
683,144	19,63
683,334	-58,2
683,524	31,91
683,714	9,39
683,904	13,48
684,094	-31,57
684,284	-19,29
684,474	93,35
684,664	99,5
684,854	44,2
685,044	-27,48
685,234	-0,85
685,424	103,59
685,614	3,24
685,804	142,5
685,994	29,87
686,184	-43,86
686,374	76,97
686,564	-25,43
686,753	1,19
686,943	-29,52
687,133	-23,38
687,323	15,53
687,513	-17,24
687,702	-62,29
687,892	11,43
688,082	95,4
688,272	72,87
688,461	5,29
688,651	148,65
688,841	48,3
689,03	-31,57
689,22	11,43
689,41	52,39
689,599	31,91
689,789	-23,38
689,979	105,64
690,168	11,43
690,358	56,49
690,547	3,24
690,737	79,02
690,926	-25,43
691,116	136,36
691,305	97,45
691,495	76,97
691,684	-2,9
691,874	-29,52
692,063	-41,81
692,252	62,63
692,442	95,4
692,631	-101,2
692,82	11,43
693,01	68,78
693,199	27,82
693,388	38,06
693,578	44,2
693,767	19,63
693,956	33,96
694,146	-21,33
694,335	42,15
694,524	-35,67
694,713	83,11
694,902	-13,14
695,092	-13,14
695,281	29,87
695,47	-21,33
695,659	-60,24
695,848	27,82
696,037	13,48
696,226	105,64
696,415	-13,14
696,604	142,5
696,793	54,44
696,982	-74,58
697,171	130,22
697,36	-52,05
697,549	-0,85
697,738	-119,64
697,927	-125,78
698,116	-19,29
698,305	44,2
698,494	15,53
698,683	-37,72
698,872	156,84
699,061	40,11
699,25	5,29
699,438	83,11
699,627	38,06
699,816	162,98
700,005	-27,48
700,193	-7
700,382	76,97
700,571	64,68
700,76	-23,38
700,948	122,02
701,137	134,31
701,326	48,3
701,514	-88,92
701,703	56,49
701,892	27,82
702,08	191,66
702,269	-37,72
702,457	-19,29
702,646	52,39
702,834	-7
703,023	150,7
703,212	64,68
703,4	-35,67
703,589	15,53
703,777	-45,91
703,965	-84,82
704,154	13,48
704,342	-121,68
704,531	-50
704,719	48,3
704,907	60,59
705,096	-115,54
705,284	-31,57
705,472	40,11
705,661	50,35
705,849	103,59
706,037	50,35
706,226	89,26
706,414	23,72
706,602	-47,96
706,79	87,21
706,979	-86,87
707,167	87,21
707,355	-103,25
707,543	7,34
707,731	-2,9
707,919	-29,52
708,107	-35,67
708,296	-21,33
708,484	-78,68
708,672	1,19
708,86	105,64
709,048	-23,38
709,236	-25,43
709,424	21,67
709,612	-7
709,8	-115,54
709,988	95,4
710,176	119,98
710,364	36,01
710,551	40,11
710,739	3,24
710,927	-60,24
711,115	27,82
711,303	107,69
711,491	46,25
711,679	-45,91
711,866	124,07
712,054	31,91
712,242	-45,91
712,43	99,5
712,617	-95,06
712,805	62,63
712,993	27,82
713,181	-97,11
713,368	25,77
713,556	38,06
713,744	-70,48
713,931	144,55
714,119	72,87
714,306	-97,11
714,494	-39,76
714,682	19,63
714,869	-109,4
715,057	-13,14
715,244	-62,29
715,432	-21,33
715,619	-82,77
715,807	-37,72
715,994	-80,72
716,182	85,16
716,369	21,67
716,556	66,73
716,744	-123,73
716,931	-133,97
717,119	40,11
717,306	-37,72
717,493	60,59
717,681	-66,39
717,868	-35,67
718,055	56,49
718,242	-136,02
718,43	42,15
718,617	70,83
718,804	-103,25
718,991	93,35
719,179	-2,9
719,366	11,43
719,553	-4,95
719,74	97,45
719,927	27,82
720,114	-13,14
720,301	-86,87
720,488	-107,35
720,676	-23,38
720,863	72,87
721,05	142,5
721,237	29,87
721,424	-0,85
721,611	-7
721,798	-158,55
721,985	-88,92
722,172	-64,34
722,358	-86,87
722,545	105,64
722,732	-62,29
722,919	29,87
723,106	-0,85
723,293	9,39
723,48	-62,29
723,667	-95,06
723,853	79,02
724,04	44,2
724,227	13,48
724,414	-29,52
724,6	101,55
724,787	193,7
724,974	148,65
725,161	5,29
725,347	-86,87
725,534	-43,86
725,72	23,72
725,907	126,12
726,094	62,63
726,28	-45,91
726,467	-2,9
726,653	-45,91
726,84	81,07
727,027	85,16
727,213	36,01
727,4	1,19
727,586	-13,14
727,773	-84,82
727,959	-64,34
728,145	7,34
728,332	21,67
728,518	-80,72
728,705	48,3
728,891	19,63
729,077	-31,57
729,264	-80,72
729,45	44,2
729,636	19,63
729,823	-19,29
730,009	33,96
730,195	23,72
730,382	40,11
730,568	-154,45
730,754	62,63
730,94	33,96
731,126	-21,33
731,313	40,11
731,499	-64,34
731,685	3,24
731,871	19,63
732,057	-58,2
732,243	38,06
732,429	25,77
732,615	36,01
732,801	-21,33
732,987	-31,57
733,173	42,15
733,359	-78,68
733,545	79,02
733,731	-97,11
733,917	175,27
734,103	19,63
734,289	23,72
734,475	-45,91
734,661	64,68
734,847	62,63
735,033	-90,96
735,219	150,7
735,404	-62,29
735,59	7,34
735,776	-52,05
735,962	-9,05
736,148	165,03
736,333	122,02
736,519	-11,09
736,705	-45,91
736,89	-41,81
737,076	21,67
737,262	-119,64
737,447	40,11
737,633	-121,68
737,819	105,64
738,004	-39,76
738,19	60,59
738,375	-4,95
738,561	17,58
738,747	-37,72
738,932	-66,39
739,118	160,94
739,303	56,49
739,489	85,16
739,674	3,24
739,859	-82,77
740,045	83,11
740,23	46,25
740,416	-189,27
740,601	46,25
740,786	15,53
740,972	-9,05
741,157	-15,19
741,342	-133,97
741,528	-70,48
741,713	11,43
741,898	-27,48
742,084	44,2
742,269	-80,72
742,454	54,44
742,639	58,54
742,824	-50
743,01	158,89
743,195	79,02
743,38	40,11
743,565	-97,11
743,75	27,82
743,935	87,21
744,12	109,74
744,305	-115,54
744,49	44,2
744,675	-4,95
744,86	-140,12
745,045	95,4
745,23	-35,67
745,415	-41,81
745,6	156,84
745,785	-23,38
745,97	81,07
746,155	132,26
746,34	150,7
746,525	11,43
746,71	130,22
746,895	-101,2
747,079	-97,11
747,264	21,67
747,449	29,87
747,634	89,26
747,819	29,87
748,003	-21,33
748,188	-148,31
748,373	85,16
748,557	21,67
748,742	56,49
748,927	15,53
749,111	-25,43
749,296	-64,34
749,481	31,91
749,665	1,19
749,85	-2,9
750,034	60,59
750,219	-21,33
750,404	13,48
750,588	56,49
750,773	-113,49
750,957	-9,05
751,141	-66,39
751,326	134,31
751,51	-107,35
751,695	62,63
751,879	-7
752,064	183,46
752,248	21,67
752,432	169,13
752,617	119,98
752,801	85,16
752,985	-4,95
753,17	87,21
753,354	5,29
753,538	-4,95
753,722	-29,52
753,907	-45,91
754,091	-111,44
754,275	1,19
754,459	-103,25
754,643	-66,39
754,828	76,97
755,012	23,72
755,196	-82,77
755,38	95,4
755,564	-58,2
755,748	-27,48
755,932	119,98
756,116	87,21
756,3	56,49
756,484	11,43
756,668	-37,72
756,852	-47,96
757,036	-29,52
757,22	-21,33
757,404	-90,96
757,588	-72,53
757,772	3,24
757,956	-4,95
758,14	124,07
758,323	-39,76
758,507	15,53
758,691	-21,33
758,875	85,16
759,059	122,02
759,242	-23,38
759,426	-58,2
759,61	52,39
759,794	-95,06
759,977	19,63
760,161	216,23
760,345	111,78
760,528	87,21
760,712	25,77
760,895	15,53
761,079	-17,24
761,263	-76,63
761,446	-21,33
761,63	-41,81
761,813	62,63
761,997	-70,48
762,18	-47,96
762,364	21,67
762,547	-127,83
762,731	-4,95
762,914	83,11
763,098	19,63
763,281	-47,96
763,464	-15,19
763,648	-23,38
763,831	-21,33
764,015	9,39
764,198	70,83
764,381	44,2
764,564	-70,48
764,748	136,36
764,931	3,24
765,114	29,87
765,297	27,82
765,481	-35,67
765,664	-41,81
765,847	-86,87
766,03	158,89
766,213	-101,2
766,397	25,77
766,58	-113,49
766,763	79,02
766,946	-121,68
767,129	11,43
767,312	-66,39
767,495	-58,2
767,678	-47,96
767,861	25,77
768,044	-7
768,227	29,87
768,41	19,63
768,593	58,54
768,776	-0,85
768,959	-15,19
769,142	142,5
769,324	-31,57
769,507	-9,05
769,69	-74,58
769,873	48,3
770,056	255,14
770,239	-17,24
770,421	144,55
770,604	19,63
770,787	-13,14
770,97	29,87
771,152	-52,05
771,335	56,49
771,518	-21,33
771,7	33,96
771,883	210,09
772,066	-45,91
772,248	23,72
772,431	52,39
772,613	-2,9
772,796	-45,91
772,978	89,26
773,161	79,02
773,343	-58,2
773,526	-103,25
773,708	-86,87
773,891	-109,4
774,073	11,43
774,256	-37,72
774,438	113,83
774,621	-60,24
774,803	50,35
774,985	-15,19
775,168	79,02
775,35	-60,24
775,532	31,91
775,715	7,34
775,897	27,82
776,079	-25,43
776,261	179,37
776,444	257,19
776,626	418,98
776,808	535,71
776,99	740,51
777,173	791,71
777,355	926,88
777,537	957,6
777,719	926,88
777,901	732,32
778,083	699,55
778,265	554,15
778,447	597,15
778,629	472,23
778,811	433,32
778,993	367,78
779,175	373,92
779,357	304,29
779,539	179,37
779,721	212,14
779,903	99,5
780,085	70,83
780,267	105,64
780,449	126,12
780,631	144,55
780,812	144,55
780,994	-15,19
781,176	-62,29
781,358	-47,96
781,54	-15,19
781,721	109,74
781,903	85,16
782,085	-4,95
782,267	148,65
782,448	-68,44
782,63	15,53
782,812	19,63
782,993	79,02
783,175	64,68
783,357	-136,02
783,538	40,11
783,72	-50
783,901	19,63
784,083	79,02
784,264	36,01
784,446	-70,48
784,627	-97,11
784,809	11,43
784,99	-90,96
785,172	-33,62
785,353	-45,91
785,535	25,77
785,716	-29,52
785,897	-54,1
786,079	-84,82
786,26	15,53
786,441	138,41
786,623	-86,87
786,804	-41,81
786,985	-21,33
787,167	1,19
787,348	-29,52
787,529	58,54
787,71	179,37
787,891	42,15
788,073	-103,25
788,254	-66,39
788,435	91,31
788,616	-17,24
788,797	-58,2
788,978	-0,85
789,159	-68,44
789,34	64,68
789,522	-17,24
789,703	-19,29
789,884	54,44
790,065	42,15
790,246	181,42
790,427	25,77
790,607	115,88
790,788	79,02
790,969	-107,35
791,15	-0,85
791,331	-62,29
791,512	-17,24
791,693	-50
791,874	-39,76
792,054	132,26
792,235	156,84
792,416	-88,92
792,597	-47,96
792,778	-11,09
792,958	-50
793,139	7,34
793,32	1,19
793,5	-17,24
793,681	-9,05
793,862	-76,63
794,042	-41,81
794,223	-101,2
794,404	-50
794,584	-56,15
794,765	31,91
794,945	-45,91
795,126	50,35
795,306	44,2
795,487	-84,82
795,667	-62,29
795,848	-23,38
796,028	-95,06
796,209	52,39
796,389	93,35
796,57	1,19
796,75	-62,29
796,93	85,16
797,111	-11,09
797,291	-43,86
797,471	122,02
797,652	-25,43
797,832	-78,68
798,012	70,83
798,192	-70,48
798,373	-107,35
798,553	40,11
798,733	13,48
798,913	-13,14
799,093	-41,81
799,274	-4,95
799,454	1,19
799,634	64,68
799,814	72,87
799,994	-2,9
800,174	-0,85
800,354	11,43
800,534	-78,68
800,714	23,72
800,894	-117,59
801,074	-66,39
801,254	-54,1
801,434	60,59
801,614	-119,64
801,794	-97,11
801,974	1830,03
802,154	-78,68
802,334	76,97
802,514	-11,09
802,693	-99,16
802,873	-29,52
803,053	95,4
803,233	48,3
803,413	25,77
803,592	-19,29
803,772	-74,58
803,952	25,77
804,131	-78,68
804,311	68,78
804,491	-11,09
804,67	-11,09
804,85	-66,39
805,03	62,63
805,209	97,45
805,389	-41,81
805,568	-97,11
805,748	-62,29
805,928	-25,43
806,107	3,24
806,287	33,96
806,466	9,39
806,646	-62,29
806,825	-39,76
807,004	-86,87
807,184	38,06
807,363	91,31
807,543	-2,9
807,722	-54,1
807,901	52,39
808,081	-4,95
808,26	-179,03
808,439	29,87
808,619	46,25
808,798	-80,72
808,977	31,91
809,156	29,87
809,336	21,67
809,515	23,72
809,694	-129,88
809,873	-23,38
810,052	44,2
810,231	81,07
810,411	1,19
810,59	76,97
810,769	1,19
810,948	29,87
811,127	-168,79
811,306	-37,72
811,485	-9,05
811,664	89,26
811,843	3,24
812,022	-37,72
812,201	3,24
812,38	-4,95
812,559	-66,39
812,737	48,3
812,916	-131,92
813,095	-121,68
813,274	48,3
813,453	-27,48
813,632	29,87
813,811	87,21
813,989	-9,05
814,168	29,87
814,347	-64,34
814,526	25,77
814,704	160,94
814,883	138,41
815,062	-66,39
815,24	9,39
815,419	-103,25
815,598	-11,09
815,776	-148,31
815,955	-70,48
816,133	-119,64
816,312	-21,33
816,49	-133,97
816,669	-7
816,847	5,29
817,026	13,48
817,204	5,29
817,383	-2,9
817,561	-140,12
817,74	-43,86
817,918	-41,81
818,097	-70,48
818,275	-86,87
818,453	19,63
818,632	58,54
818,81	-41,81
818,988	-78,68
819,167	-54,1
819,345	27,82
819,523	-62,29
819,701	-33,62
819,879	-45,91
820,058	25,77
820,236	-115,54
820,414	76,97
820,592	-52,05
820,77	-33,62
820,948	-15,19
821,127	-99,16
821,305	7,34
821,483	-62,29
821,661	-13,14
821,839	-80,72
822,017	-84,82
822,195	-119,64
822,373	33,96
822,551	-47,96
822,729	85,16
822,907	1,19
823,085	-13,14
823,262	83,11
823,44	-107,35
823,618	1,19
823,796	-41,81
823,974	-70,48
824,152	-72,53
824,329	-74,58
824,507	-35,67
824,685	74,92
824,863	-7
825,04	-21,33
825,218	48,3
825,396	91,31
825,574	62,63
825,751	25,77
825,929	40,11
826,107	-115,54
826,284	-37,72
826,462	25,77
826,639	-142,16
826,817	-144,21
826,994	-27,48
827,172	-115,54
827,349	62,63
827,527	13,48
827,704	-23,38
827,882	15,53
828,059	36,01
828,237	-70,48
828,414	5,29
828,591	-197,46
828,769	-45,91
828,946	-70,48
829,124	85,16
829,301	27,82
829,478	-117,59
829,655	17,58
829,833	-62,29
830,01	-117,59
830,187	-17,24
830,364	58,54
830,542	-64,34
830,719	122,02
830,896	9,39
831,073	40,11
831,25	7,34
831,427	-35,67
831,604	-37,72
831,782	-33,62
831,959	-27,48
832,136	-27,48
832,313	19,63
832,49	-25,43
832,667	-9,05
832,844	-103,25
833,021	74,92
833,198	-2,9
833,374	-66,39
833,551	-45,91
833,728	-45,91
833,905	38,06
834,082	-90,96
834,259	33,96
834,436	11,43
834,612	-74,58
834,789	72,87
834,966	25,77
835,143	-54,1
835,319	-95,06
835,496	97,45
835,673	-29,52
835,85	11,43
836,026	93,35
836,203	64,68
836,38	-162,64
836,556	-90,96
836,733	-19,29
836,909	175,27
837,086	-33,62
837,262	-176,98
837,439	-27,48
837,616	-93,01
837,792	-35,67
837,968	-11,09
838,145	-170,83
838,321	-7
838,498	40,11
838,674	1,19
838,851	-31,57
839,027	9,39
839,203	-43,86
839,38	-2,9
839,556	-39,76
839,732	17,58
839,909	-15,19
840,085	33,96
840,261	-90,96
840,437	-21,33
840,614	-78,68
840,79	70,83
840,966	29,87
841,142	-29,52
841,318	-62,29
841,494	-33,62
841,671	85,16
841,847	-111,44
842,023	-144,21
842,199	23,72
842,375	91,31
842,551	-113,49
842,727	-82,77
842,903	128,17
843,079	-99,16
843,255	79,02
843,431	46,25
843,607	9,39
843,783	-62,29
843,959	144,55
844,134	171,18
844,31	398,5
844,486	187,56
844,662	269,48
844,838	269,48
845,013	263,33
845,189	238,76
845,365	232,62
845,541	214,18
845,716	165,03
845,892	203,94
846,068	29,87
846,244	9,39
846,419	42,15
846,595	-45,91
846,77	-0,85
846,946	42,15
847,122	97,45
847,297	-43,86
847,473	185,51
847,648	-90,96
847,824	101,55
847,999	-113,49
848,175	-78,68
848,35	85,16
848,526	111,78
848,701	54,44
848,876	15,53
849,052	29,87
849,227	-54,1
849,403	-25,43
849,578	19,63
849,753	-13,14
849,929	-54,1
850,104	-74,58
850,279	-35,67
850,454	-50
850,63	5,29
850,805	93,35
850,98	-86,87
851,155	-35,67
851,33	5,29
851,505	-125,78
851,681	91,31
851,856	-74,58
852,031	1,19
852,206	-0,85
852,381	-11,09
852,556	-111,44
852,731	56,49
852,906	11,43
853,081	-41,81
853,256	60,59
853,431	29,87
853,606	-31,57
853,781	-56,15
853,956	-107,35
854,131	99,5
854,305	-82,77
854,48	-70,48
854,655	-103,25
854,83	-72,53
855,005	-17,24
855,18	54,44
855,354	-4,95
855,529	76,97
855,704	-37,72
855,879	29,87
856,053	-107,35
856,228	48,3
856,403	-54,1
856,577	-9,05
856,752	-103,25
856,926	31,91
857,101	48,3
857,276	-111,44
857,45	33,96
857,625	126,12
857,799	-35,67
857,974	11,43
858,148	-162,64
858,323	25,77
858,497	-72,53
858,672	-9,05
858,846	-64,34
859,02	-9,05
859,195	-66,39
859,369	-35,67
859,543	-54,1
859,718	1,19
859,892	11,43
860,066	-68,44
860,241	-70,48
860,415	-47,96
860,589	-90,96
860,763	-0,85
860,938	-15,19
861,112	13,48
861,286	-39,76
861,46	-7
861,634	-7
861,808	60,59
861,982	-99,16
862,157	-37,72
862,331	-78,68
862,505	-88,92
862,679	-170,83
862,853	-23,38
863,027	-37,72
863,201	115,88
863,375	-13,14
863,549	-2,9
863,722	19,63
863,896	83,11
864,07	-25,43
864,244	-23,38
864,418	21,67
864,592	-45,91
864,766	-41,81
864,939	-66,39
865,113	38,06
865,287	5,29
865,461	-82,77
865,634	7,34
865,808	-9,05
865,982	-105,3
866,156	-66,39
866,329	-119,64
866,503	33,96
866,676	36,01
866,85	-33,62
867,024	-35,67
867,197	-41,81
867,371	44,2
867,544	-76,63
867,718	-84,82
867,891	66,73
868,065	-119,64
868,238	-74,58
868,412	89,26
868,585	38,06
868,759	-121,68
868,932	19,63
869,105	-80,72
869,279	-64,34
869,452	-176,98
869,625	29,87
869,799	-45,91
869,972	-115,54
870,145	-86,87
870,319	93,35
870,492	-93,01
870,665	-62,29
870,838	-131,92
871,011	-170,83
871,185	33,96
871,358	-50
871,531	-11,09
871,704	-140,12
871,877	-0,85
872,05	-41,81
872,223	-86,87
872,396	76,97
872,569	70,83
872,742	-90,96
872,915	40,11
873,088	-123,73
873,261	-142,16
873,434	-2,9
873,607	-64,34
873,78	76,97
873,953	-82,77
874,126	-4,95
874,299	66,73
874,471	-115,54
874,644	-70,48
874,817	-21,33
874,99	72,87
875,163	-99,16
875,335	-52,05
875,508	-4,95
875,681	70,83
875,853	3,24
876,026	-15,19
876,199	-23,38
876,371	-17,24
876,544	-0,85
876,717	-62,29
876,889	-99,16
877,062	29,87
877,234	-138,07
877,407	-37,72
877,579	7,34
877,752	-29,52
877,924	40,11
878,097	48,3
878,269	50,35
878,442	-19,29
878,614	23,72
878,786	-27,48
878,959	52,39
879,131	44,2
879,303	-97,11
879,476	-33,62
879,648	-11,09
879,82	-21,33
879,993	-37,72
880,165	-121,68
880,337	-136,02
880,509	-43,86
880,681	-133,97
880,854	-33,62
881,026	19,63
881,198	103,59
881,37	-23,38
881,542	-11,09
881,714	-39,76
881,886	-105,3
882,058	-50
882,23	56,49
882,402	-39,76
882,574	19,63
882,746	46,25
882,918	117,93
883,09	-43,86
883,262	-41,81
883,434	-33,62
883,606	-181,07
883,778	-160,59
883,95	76,97
884,122	-76,63
884,293	31,91
884,465	-50
884,637	58,54
884,809	-86,87
884,98	21,67
885,152	11,43
885,324	7,34
885,496	-29,52
885,667	-119,64
885,839	-54,1
886,011	58,54
886,182	-37,72
886,354	-21,33
886,525	-2,9
886,697	64,68
886,869	-117,59
887,04	-54,1
887,212	-17,24
887,383	148,65
887,555	-19,29
887,726	-115,54
887,897	-95,06
888,069	-2,9
888,24	101,55
888,412	-60,24
888,583	-66,39
888,754	1,19
888,926	-150,36
889,097	1,19
889,268	-64,34
889,44	68,78
889,611	-60,24
889,782	-115,54
889,953	-50
890,125	54,44
890,296	-152,4
890,467	19,63
890,638	-70,48
890,809	-52,05
890,98	-62,29
891,151	-31,57
891,323	17,58
891,494	-70,48
891,665	-4,95
891,836	5,29
892,007	-74,58
892,178	-41,81
892,349	-13,14
892,52	-95,06
892,691	-45,91
892,862	-88,92
893,032	-119,64
893,203	-11,09
893,374	-52,05
893,545	72,87
893,716	3,24
893,887	-9,05
894,057	-66,39
894,228	-90,96
894,399	-90,96
894,57	3,24
894,74	-21,33
894,911	-4,95
895,082	-103,25
895,253	-131,92
895,423	-37,72
895,594	52,39
895,764	19,63
895,935	-111,44
896,106	13,48
896,276	-70,48
896,447	-23,38
896,617	-103,25
896,788	-138,07
896,958	-119,64
897,129	-25,43
897,299	-88,92
897,47	54,44
897,64	-35,67
897,81	-74,58
897,981	1,19
898,151	-103,25
898,322	11,43
898,492	-23,38
898,662	-146,26
898,832	-64,34
899,003	21,67
899,173	27,82
899,343	-27,48
899,513	-117,59
