Data from deuterium_USB4F104151__24__10-57-07-591.txt Node

Date: Wed Apr 15 10:57:07 EDT 2026
User: LaboPhy
Spectrometer: USB4F10415
Trigger mode: 4
Integration Time (sec): 1,000000E-1
Scans to average: 1
Electric dark correction enabled: true
Nonlinearity correction enabled: false
Boxcar width: 0
XAxis mode: Wavelengths
Number of Pixels in Spectrum: 3648
>>>>>Begin Spectral Data<<<<<
178,204	-479,74
178,424	-479,74
178,644	-479,74
178,864	-406,01
179,084	-440,83
179,304	3,58
179,524	-96,77
179,744	-6,66
179,964	28,16
180,184	-8,7
180,404	75,26
180,624	-0,51
180,844	3,58
181,064	-51,71
181,283	65,02
181,503	-47,62
181,723	36,35
181,943	-131,58
182,163	204,28
182,383	7,68
182,602	52,74
182,822	144,89
183,042	52,74
183,262	-66,05
183,482	-49,66
183,701	-8,7
183,921	52,74
184,141	-12,8
184,361	13,82
184,58	19,97
184,8	26,11
185,02	9,73
185,239	24,06
185,459	11,78
185,679	212,48
185,898	-84,48
186,118	81,41
186,338	48,64
186,557	126,46
186,777	-4,61
186,997	32,26
187,216	-25,09
187,436	181,76
187,655	83,45
187,875	89,6
188,095	-74,24
188,314	142,85
188,534	67,07
188,753	-41,47
188,973	62,98
189,192	140,8
189,412	17,92
189,631	-29,18
189,851	79,36
190,07	173,57
190,29	-143,87
190,509	-84,48
190,729	30,21
190,948	144,89
191,168	204,28
191,387	83,45
191,607	34,3
191,826	-12,8
192,045	52,74
192,265	-16,9
192,484	79,36
192,704	120,32
192,923	-55,81
193,142	155,13
193,362	130,56
193,581	75,26
193,8	93,69
194,02	62,98
194,239	65,02
194,458	122,37
194,678	26,11
194,897	-70,14
195,116	46,59
195,335	85,5
195,555	36,35
195,774	-57,86
195,993	81,41
196,212	42,5
196,432	-33,28
196,651	9,73
196,87	15,87
197,089	292,35
197,308	-0,51
197,528	30,21
197,747	-82,43
197,966	85,5
198,185	114,17
198,404	-33,28
198,623	99,84
198,842	91,65
199,062	50,69
199,281	110,08
199,5	17,92
199,719	54,78
199,938	-6,66
200,157	91,65
200,376	114,17
200,595	77,31
200,814	56,83
201,033	-41,47
201,252	222,72
201,471	7,68
201,69	44,54
201,909	-20,99
202,128	171,52
202,347	50,69
202,566	42,5
202,785	-147,97
203,004	-33,28
203,223	224,76
203,442	56,83
203,661	-121,34
203,879	73,21
204,098	140,8
204,317	-33,28
204,536	50,69
204,755	44,54
204,974	136,7
205,193	7,68
205,411	120,32
205,63	144,89
205,849	32,26
206,068	3,58
206,287	-88,57
206,505	148,99
206,724	40,45
206,943	-41,47
207,162	-64
207,381	87,55
207,599	3,58
207,818	36,35
208,037	-80,38
208,255	40,45
208,474	-12,8
208,693	-20,99
208,911	56,83
209,13	87,55
209,349	108,03
209,567	101,89
209,786	91,65
210,005	146,94
210,223	52,74
210,442	-156,16
210,661	-43,52
210,879	36,35
211,098	69,12
211,316	1,54
211,535	71,17
211,753	30,21
211,972	32,26
212,191	-39,42
212,409	75,26
212,628	65,02
212,846	-2,56
213,065	40,45
213,283	83,45
213,502	108,03
213,72	54,78
213,938	-4,61
214,157	40,45
214,375	157,18
214,594	52,74
214,812	60,93
215,031	24,06
215,249	-20,99
215,467	110,08
215,686	65,02
215,904	69,12
216,122	-0,51
216,341	142,85
216,559	34,3
216,778	42,5
216,996	83,45
217,214	26,11
217,432	-53,76
217,651	7,68
217,869	3,58
218,087	40,45
218,306	-49,66
218,524	48,64
218,742	-8,7
218,96	97,79
219,179	24,06
219,397	48,64
219,615	198,14
219,833	118,27
220,051	-23,04
220,27	97,79
220,488	101,89
220,706	48,64
220,924	-27,14
221,142	-41,47
221,36	-6,66
221,578	130,56
221,796	-10,75
222,015	7,68
222,233	30,21
222,451	189,95
222,669	-88,57
222,887	69,12
223,105	9,73
223,323	7,68
223,541	-41,47
223,759	-2,56
223,977	-4,61
224,195	196,09
224,413	54,78
224,631	34,3
224,849	62,98
225,067	239,1
225,285	-23,04
225,503	40,45
225,721	-98,81
225,939	79,36
226,157	81,41
226,375	216,57
226,592	-31,23
226,81	17,92
227,028	52,74
227,246	97,79
227,464	65,02
227,682	44,54
227,9	-20,99
228,117	9,73
228,335	95,74
228,553	38,4
228,771	-6,66
228,989	36,35
229,206	122,37
229,424	60,93
229,642	-43,52
229,86	-72,19
230,077	108,03
230,295	144,89
230,513	93,69
230,731	46,59
230,948	155,13
231,166	146,94
231,384	7,68
231,601	-31,23
231,819	187,9
232,037	-76,29
232,254	-92,67
232,472	9,73
232,689	22,02
232,907	144,89
233,125	32,26
233,342	-25,09
233,56	15,87
233,777	-88,57
233,995	-35,33
234,213	114,17
234,43	114,17
234,648	83,45
234,865	-80,38
235,083	56,83
235,3	19,97
235,518	44,54
235,735	134,65
235,953	40,45
236,17	26,11
236,388	26,11
236,605	-6,66
236,822	13,82
237,04	77,31
237,257	52,74
237,475	-29,18
237,692	50,69
237,909	87,55
238,127	-41,47
238,344	-10,75
238,562	-41,47
238,779	-80,38
238,996	-27,14
239,214	15,87
239,431	-33,28
239,648	-8,7
239,865	56,83
240,083	79,36
240,3	-45,57
240,517	-25,09
240,735	22,02
240,952	105,98
241,169	110,08
241,386	7,68
241,603	-10,75
241,821	-18,94
242,038	75,26
242,255	194,05
242,472	-66,05
242,689	91,65
242,907	48,64
243,124	93,69
243,341	15,87
243,558	-111,1
243,775	-107,01
243,992	-10,75
244,209	138,75
244,426	153,09
244,643	48,64
244,86	-12,8
245,078	83,45
245,295	40,45
245,512	24,06
245,729	-88,57
245,946	151,04
246,163	46,59
246,38	-88,57
246,597	-45,57
246,814	11,78
247,031	17,92
247,248	-66,05
247,464	56,83
247,681	52,74
247,898	-0,51
248,115	105,98
248,332	-61,95
248,549	134,65
248,766	153,09
248,983	60,93
249,2	130,56
249,417	83,45
249,633	24,06
249,85	85,5
250,067	-20,99
250,284	58,88
250,501	130,56
250,717	105,98
250,934	-80,38
251,151	-4,61
251,368	22,02
251,585	65,02
251,801	-43,52
252,018	-74,24
252,235	40,45
252,451	-76,29
252,668	-66,05
252,885	75,26
253,102	32,26
253,318	19,97
253,535	-55,81
253,752	-37,38
253,968	-16,9
254,185	-82,43
254,401	54,78
254,618	110,08
254,835	-55,81
255,051	173,57
255,268	13,82
255,484	44,54
255,701	58,88
255,917	81,41
256,134	-6,66
256,351	40,45
256,567	-45,57
256,784	17,92
257	-109,05
257,217	97,79
257,433	48,64
257,65	-12,8
257,866	177,66
258,082	-121,34
258,299	-125,44
258,515	-2,56
258,732	7,68
258,948	-10,75
259,165	-8,7
259,381	-57,86
259,597	89,6
259,814	-10,75
260,03	-96,77
260,246	24,06
260,463	128,51
260,679	140,8
260,895	36,35
261,112	15,87
261,328	-76,29
261,544	-78,33
261,761	144,89
261,977	-57,86
262,193	26,11
262,409	50,69
262,626	62,98
262,842	28,16
263,058	-100,86
263,274	30,21
263,49	77,31
263,707	69,12
263,923	54,78
264,139	-88,57
264,355	15,87
264,571	73,21
264,787	69,12
265,004	126,46
265,22	-33,28
265,436	-23,04
265,652	15,87
265,868	36,35
266,084	-92,67
266,3	-39,42
266,516	-20,99
266,732	36,35
266,948	-29,18
267,164	-51,71
267,38	101,89
267,596	22,02
267,812	128,51
268,028	17,92
268,244	-12,8
268,46	34,3
268,676	13,82
268,892	-6,66
269,108	-33,28
269,324	15,87
269,54	-16,9
269,756	40,45
269,972	-82,43
270,188	15,87
270,403	-41,47
270,619	22,02
270,835	71,17
271,051	69,12
271,267	-8,7
271,483	-78,33
271,698	56,83
271,914	97,79
272,13	87,55
272,346	11,78
272,562	-6,66
272,777	105,98
272,993	-39,42
273,209	50,69
273,425	52,74
273,64	-45,57
273,856	36,35
274,072	-88,57
274,287	-25,09
274,503	65,02
274,719	28,16
274,934	-14,85
275,15	-31,23
275,366	-14,85
275,581	-25,09
275,797	81,41
276,012	58,88
276,228	67,07
276,444	44,54
276,659	124,41
276,875	-35,33
277,09	93,69
277,306	-23,04
277,521	44,54
277,737	-16,9
277,952	130,56
278,168	87,55
278,383	26,11
278,599	1,54
278,814	48,64
279,03	26,11
279,245	67,07
279,461	52,74
279,676	93,69
279,892	-8,7
280,107	-57,86
280,322	-76,29
280,538	-12,8
280,753	-51,71
280,969	77,31
281,184	15,87
281,399	52,74
281,615	67,07
281,83	26,11
282,045	-117,25
282,26	-4,61
282,476	30,21
282,691	65,02
282,906	105,98
283,122	54,78
283,337	65,02
283,552	46,59
283,767	3,58
283,983	130,56
284,198	65,02
284,413	-0,51
284,628	-41,47
284,843	48,64
285,058	93,69
285,274	32,26
285,489	-4,61
285,704	83,45
285,919	-10,75
286,134	48,64
286,349	34,3
286,564	1,54
286,779	118,27
286,995	-6,66
287,21	-133,63
287,425	75,26
287,64	30,21
287,855	110,08
288,07	-86,53
288,285	157,18
288,5	124,41
288,715	73,21
288,93	-57,86
289,145	-20,99
289,36	60,93
289,575	32,26
289,79	185,85
290,004	26,11
290,219	103,93
290,434	-6,66
290,649	-45,57
290,864	3,58
291,079	-61,95
291,294	24,06
291,509	134,65
291,724	1,54
291,938	17,92
292,153	24,06
292,368	85,5
292,583	34,3
292,798	19,97
293,012	126,46
293,227	93,69
293,442	-31,23
293,657	101,89
293,871	42,5
294,086	9,73
294,301	189,95
294,516	67,07
294,73	67,07
294,945	19,97
295,16	89,6
295,374	85,5
295,589	58,88
295,804	-70,14
296,018	54,78
296,233	40,45
296,447	46,59
296,662	-88,57
296,877	77,31
297,091	134,65
297,306	22,02
297,52	-20,99
297,735	-18,94
297,949	62,98
298,164	-14,85
298,378	7,68
298,593	-82,43
298,807	-29,18
299,022	24,06
299,236	140,8
299,451	42,5
299,665	-25,09
299,88	-57,86
300,094	101,89
300,309	-25,09
300,523	81,41
300,737	-12,8
300,952	36,35
301,166	38,4
301,381	-35,33
301,595	-39,42
301,809	-23,04
302,024	11,78
302,238	-2,56
302,452	110,08
302,667	-31,23
302,881	202,24
303,095	56,83
303,309	42,5
303,524	32,26
303,738	7,68
303,952	-6,66
304,166	105,98
304,381	-107,01
304,595	128,51
304,809	11,78
305,023	-64
305,237	-8,7
305,452	58,88
305,666	-45,57
305,88	13,82
306,094	103,93
306,308	46,59
306,522	77,31
306,736	93,69
306,95	91,65
307,164	28,16
307,379	93,69
307,593	159,23
307,807	148,99
308,021	65,02
308,235	122,37
308,449	-70,14
308,663	-10,75
308,877	196,09
309,091	-39,42
309,305	99,84
309,519	-20,99
309,733	95,74
309,947	-88,57
310,161	85,5
310,374	69,12
310,588	153,09
310,802	-94,72
311,016	-37,38
311,23	124,41
311,444	15,87
311,658	32,26
311,872	151,04
312,085	116,22
312,299	101,89
312,513	130,56
312,727	-0,51
312,941	-76,29
313,154	89,6
313,368	-10,75
313,582	1,54
313,796	32,26
314,009	24,06
314,223	99,84
314,437	-25,09
314,651	99,84
314,864	-49,66
315,078	-61,95
315,292	-31,23
315,505	52,74
315,719	28,16
315,933	99,84
316,146	89,6
316,36	75,26
316,573	198,14
316,787	112,13
317,001	114,17
317,214	-98,81
317,428	122,37
317,641	-51,71
317,855	34,3
318,068	118,27
318,282	-39,42
318,495	185,85
318,709	75,26
318,922	93,69
319,136	167,42
319,349	105,98
319,563	-6,66
319,776	103,93
319,99	-82,43
320,203	48,64
320,417	69,12
320,63	151,04
320,843	146,94
321,057	95,74
321,27	5,63
321,483	99,84
321,697	87,55
321,91	105,98
322,124	-2,56
322,337	34,3
322,55	-25,09
322,763	5,63
322,977	13,82
323,19	3,58
323,403	-0,51
323,617	56,83
323,83	118,27
324,043	-6,66
324,256	89,6
324,469	-111,1
324,683	75,26
324,896	67,07
325,109	58,88
325,322	19,97
325,535	42,5
325,748	151,04
325,962	65,02
326,175	38,4
326,388	1,54
326,601	153,09
326,814	73,21
327,027	-41,47
327,24	136,7
327,453	-43,52
327,666	89,6
327,879	173,57
328,092	40,45
328,305	165,37
328,518	32,26
328,731	-25,09
328,944	24,06
329,157	3,58
329,37	24,06
329,583	110,08
329,796	161,28
330,009	-72,19
330,222	40,45
330,435	144,89
330,648	7,68
330,861	116,22
331,073	52,74
331,286	118,27
331,499	42,5
331,712	-94,72
331,925	67,07
332,138	32,26
332,35	75,26
332,563	-2,56
332,776	138,75
332,989	-14,85
333,202	9,73
333,414	-57,86
333,627	-31,23
333,84	-6,66
334,053	69,12
334,265	-37,38
334,478	91,65
334,691	11,78
334,903	130,56
335,116	-20,99
335,329	30,21
335,541	77,31
335,754	155,13
335,966	9,73
336,179	122,37
336,392	60,93
336,604	77,31
336,817	112,13
337,029	95,74
337,242	44,54
337,454	87,55
337,667	7,68
337,88	196,09
338,092	77,31
338,305	67,07
338,517	62,98
338,729	163,33
338,942	185,85
339,154	-61,95
339,367	1,54
339,579	54,78
339,792	32,26
340,004	87,55
340,217	38,4
340,429	75,26
340,641	85,5
340,854	13,82
341,066	62,98
341,278	175,61
341,491	200,19
341,703	38,4
341,915	-119,29
342,128	114,17
342,34	19,97
342,552	28,16
342,764	19,97
342,977	17,92
343,189	52,74
343,401	69,12
343,613	-57,86
343,826	71,17
344,038	-33,28
344,25	79,36
344,462	32,26
344,674	56,83
344,886	89,6
345,099	81,41
345,311	95,74
345,523	77,31
345,735	-74,24
345,947	118,27
346,159	112,13
346,371	50,69
346,583	93,69
346,795	200,19
347,007	67,07
347,219	69,12
347,431	9,73
347,643	161,28
347,855	-55,81
348,067	132,61
348,279	75,26
348,491	36,35
348,703	196,09
348,915	13,82
349,127	87,55
349,339	5,63
349,551	-39,42
349,763	93,69
349,975	62,98
350,187	91,65
350,399	235
350,61	159,23
350,822	28,16
351,034	81,41
351,246	1,54
351,458	89,6
351,669	5,63
351,881	120,32
352,093	185,85
352,305	130,56
352,517	87,55
352,728	189,95
352,94	128,51
353,152	124,41
353,363	-57,86
353,575	26,11
353,787	208,38
353,999	26,11
354,21	173,57
354,422	32,26
354,633	87,55
354,845	73,21
355,057	132,61
355,268	114,17
355,48	169,47
355,692	-57,86
355,903	1,54
356,115	36,35
356,326	48,64
356,538	200,19
356,749	71,17
356,961	140,8
357,172	81,41
357,384	38,4
357,595	255,48
357,807	67,07
358,018	24,06
358,23	58,88
358,441	192
358,653	140,8
358,864	89,6
359,075	17,92
359,287	36,35
359,498	93,69
359,709	75,26
359,921	85,5
360,132	60,93
360,344	46,59
360,555	52,74
360,766	67,07
360,977	50,69
361,189	118,27
361,4	128,51
361,611	187,9
361,823	187,9
362,034	69,12
362,245	30,21
362,456	-2,56
362,667	114,17
362,879	-12,8
363,09	155,13
363,301	134,65
363,512	85,5
363,723	-37,38
363,935	36,35
364,146	153,09
364,357	46,59
364,568	50,69
364,779	3,58
364,99	183,81
365,201	-16,9
365,412	183,81
365,623	7,68
365,834	120,32
366,045	15,87
366,256	114,17
366,467	196,09
366,678	-23,04
366,889	81,41
367,1	83,45
367,311	171,52
367,522	40,45
367,733	118,27
367,944	177,66
368,155	50,69
368,366	138,75
368,577	120,32
368,788	77,31
368,999	-29,18
369,209	79,36
369,42	247,29
369,631	245,24
369,842	134,65
370,053	24,06
370,264	187,9
370,474	-35,33
370,685	155,13
370,896	9,73
371,107	128,51
371,317	38,4
371,528	19,97
371,739	216,57
371,95	134,65
372,16	173,57
372,371	-47,62
372,582	56,83
372,792	77,31
373,003	85,5
373,214	85,5
373,424	142,85
373,635	50,69
373,846	196,09
374,056	99,84
374,267	77,31
374,477	151,04
374,688	7,68
374,898	56,83
375,109	81,41
375,319	79,36
375,53	175,61
375,74	208,38
375,951	67,07
376,161	93,69
376,372	155,13
376,582	54,78
376,793	124,41
377,003	81,41
377,214	65,02
377,424	91,65
377,635	65,02
377,845	28,16
378,055	144,89
378,266	15,87
378,476	71,17
378,686	163,33
378,897	67,07
379,107	169,47
379,317	93,69
379,528	26,11
379,738	142,85
379,948	-12,8
380,158	34,3
380,369	114,17
380,579	83,45
380,789	77,31
380,999	99,84
381,21	171,52
381,42	263,68
381,63	56,83
381,84	124,41
382,05	134,65
382,261	65,02
382,471	224,76
382,681	48,64
382,891	136,7
383,101	157,18
383,311	-33,28
383,521	40,45
383,731	120,32
383,941	159,23
384,151	81,41
384,361	73,21
384,571	67,07
384,781	44,54
384,991	312,83
385,201	265,72
385,411	189,95
385,621	108,03
385,831	198,14
386,041	69,12
386,251	-23,04
386,461	89,6
386,671	44,54
386,881	42,5
387,091	77,31
387,301	77,31
387,511	32,26
387,72	101,89
387,93	120,32
388,14	-18,94
388,35	181,76
388,56	200,19
388,769	183,81
388,979	89,6
389,189	69,12
389,399	99,84
389,609	179,71
389,818	202,24
390,028	101,89
390,238	105,98
390,447	-0,51
390,657	192
390,867	34,3
391,076	-35,33
391,286	122,37
391,496	28,16
391,705	40,45
391,915	136,7
392,125	89,6
392,334	-20,99
392,544	134,65
392,753	99,84
392,963	24,06
393,172	77,31
393,382	17,92
393,591	245,24
393,801	5,63
394,01	175,61
394,22	75,26
394,429	36,35
394,639	42,5
394,848	122,37
395,058	122,37
395,267	122,37
395,477	101,89
395,686	89,6
395,895	249,34
396,105	247,29
396,314	118,27
396,524	155,13
396,733	130,56
396,942	198,14
397,152	208,38
397,361	189,95
397,57	130,56
397,78	13,82
397,989	138,75
398,198	251,39
398,407	50,69
398,617	91,65
398,826	69,12
399,035	118,27
399,244	122,37
399,453	120,32
399,663	32,26
399,872	85,5
400,081	13,82
400,29	142,85
400,499	58,88
400,708	108,03
400,917	38,4
401,127	48,64
401,336	-57,86
401,545	204,28
401,754	194,05
401,963	19,97
402,172	-43,52
402,381	-4,61
402,59	26,11
402,799	-16,9
403,008	222,72
403,217	130,56
403,426	34,3
403,635	-72,19
403,844	108,03
404,053	73,21
404,262	19,97
404,471	179,71
404,68	13,82
404,888	17,92
405,097	103,93
405,306	26,11
405,515	79,36
405,724	60,93
405,933	101,89
406,142	42,5
406,35	142,85
406,559	34,3
406,768	75,26
406,977	89,6
407,185	65,02
407,394	85,5
407,603	-16,9
407,812	99,84
408,02	181,76
408,229	136,7
408,438	167,42
408,646	15,87
408,855	142,85
409,064	159,23
409,272	284,16
409,481	257,53
409,69	226,81
409,898	167,42
410,107	288,25
410,315	335,35
410,524	187,9
410,733	179,71
410,941	214,52
411,15	196,09
411,358	220,67
411,567	212,48
411,775	122,37
411,984	44,54
412,192	163,33
412,401	-8,7
412,609	148,99
412,818	128,51
413,026	101,89
413,234	83,45
413,443	62,98
413,651	-18,94
413,86	103,93
414,068	79,36
414,276	163,33
414,485	-20,99
414,693	124,41
414,901	157,18
415,11	65,02
415,318	65,02
415,526	75,26
415,734	151,04
415,943	32,26
416,151	130,56
416,359	19,97
416,567	56,83
416,776	91,65
416,984	79,36
417,192	153,09
417,4	1,54
417,608	36,35
417,817	-23,04
418,025	108,03
418,233	153,09
418,441	40,45
418,649	42,5
418,857	38,4
419,065	196,09
419,273	42,5
419,481	65,02
419,689	-2,56
419,897	36,35
420,105	-147,97
420,313	46,59
420,521	155,13
420,729	138,75
420,937	-25,09
421,145	-25,09
421,353	91,65
421,561	194,05
421,769	38,4
421,977	9,73
422,185	85,5
422,393	110,08
422,601	118,27
422,809	81,41
423,017	62,98
423,224	56,83
423,432	187,9
423,64	52,74
423,848	95,74
424,056	32,26
424,263	81,41
424,471	15,87
424,679	151,04
424,887	-82,43
425,094	101,89
425,302	73,21
425,51	-4,61
425,718	101,89
425,925	-6,66
426,133	126,46
426,341	157,18
426,548	87,55
426,756	9,73
426,964	105,98
427,171	-61,95
427,379	36,35
427,586	85,5
427,794	87,55
428,001	40,45
428,209	38,4
428,417	144,89
428,624	93,69
428,832	103,93
429,039	11,78
429,247	-6,66
429,454	67,07
429,662	288,25
429,869	69,12
430,076	97,79
430,284	81,41
430,491	169,47
430,699	138,75
430,906	200,19
431,114	101,89
431,321	22,02
431,528	40,45
431,736	136,7
431,943	136,7
432,15	286,2
432,358	390,65
432,565	488,95
432,772	378,36
432,979	638,45
433,187	642,55
433,394	853,49
433,601	929,27
433,808	890,35
434,016	1000,94
434,223	972,27
434,43	853,49
434,637	908,79
434,844	781,81
435,052	597,49
435,259	544,25
435,466	458,23
435,673	284,16
435,88	257,53
436,087	265,72
436,294	146,94
436,501	173,57
436,708	17,92
436,915	42,5
437,122	87,55
437,329	9,73
437,537	75,26
437,743	67,07
437,95	144,89
438,157	54,78
438,364	77,31
438,571	126,46
438,778	46,59
438,985	97,79
439,192	91,65
439,399	67,07
439,606	110,08
439,813	71,17
440,02	202,24
440,227	183,81
440,433	224,76
440,64	46,59
440,847	-0,51
441,054	114,17
441,261	167,42
441,467	108,03
441,674	48,64
441,881	118,27
442,088	-37,38
442,294	105,98
442,501	42,5
442,708	124,41
442,914	42,5
443,121	79,36
443,328	79,36
443,534	151,04
443,741	138,75
443,948	-49,66
444,154	71,17
444,361	239,1
444,568	103,93
444,774	48,64
444,981	-39,42
445,187	189,95
445,394	7,68
445,6	-6,66
445,807	95,74
446,013	50,69
446,22	-88,57
446,426	50,69
446,633	19,97
446,839	222,72
447,046	-41,47
447,252	81,41
447,459	9,73
447,665	-10,75
447,871	56,83
448,078	56,83
448,284	44,54
448,491	120,32
448,697	114,17
448,903	187,9
449,11	138,75
449,316	-10,75
449,522	108,03
449,728	116,22
449,935	138,75
450,141	-53,76
450,347	146,94
450,553	50,69
450,76	34,3
450,966	36,35
451,172	5,63
451,378	97,79
451,584	58,88
451,791	114,17
451,997	118,27
452,203	34,3
452,409	73,21
452,615	79,36
452,821	34,3
453,027	-35,33
453,233	159,23
453,44	-8,7
453,646	93,69
453,852	30,21
454,058	-66,05
454,264	58,88
454,47	148,99
454,676	93,69
454,882	38,4
455,088	91,65
455,294	95,74
455,5	169,47
455,705	99,84
455,911	40,45
456,117	-16,9
456,323	-0,51
456,529	65,02
456,735	60,93
456,941	140,8
457,147	50,69
457,352	155,13
457,558	-18,94
457,764	132,61
457,97	-18,94
458,176	103,93
458,381	81,41
458,587	185,85
458,793	108,03
458,999	34,3
459,204	40,45
459,41	99,84
459,616	71,17
459,821	75,26
460,027	-16,9
460,233	95,74
460,438	155,13
460,644	24,06
460,85	124,41
461,055	99,84
461,261	175,61
461,466	69,12
461,672	97,79
461,878	-55,81
462,083	136,7
462,289	-2,56
462,494	-86,53
462,7	103,93
462,905	108,03
463,111	224,76
463,316	116,22
463,522	142,85
463,727	32,26
463,932	54,78
464,138	34,3
464,343	175,61
464,549	155,13
464,754	142,85
464,959	103,93
465,165	46,59
465,37	175,61
465,575	-55,81
465,781	97,79
465,986	89,6
466,191	103,93
466,397	81,41
466,602	214,52
466,807	120,32
467,012	138,75
467,218	130,56
467,423	44,54
467,628	22,02
467,833	-41,47
468,038	-25,09
468,244	-39,42
468,449	-0,51
468,654	118,27
468,859	73,21
469,064	13,82
469,269	56,83
469,474	52,74
469,679	142,85
469,885	114,17
470,09	26,11
470,295	30,21
470,5	44,54
470,705	52,74
470,91	75,26
471,115	114,17
471,32	19,97
471,525	241,15
471,73	226,81
471,935	32,26
472,139	-49,66
472,344	28,16
472,549	56,83
472,754	101,89
472,959	132,61
473,164	50,69
473,369	163,33
473,574	105,98
473,778	38,4
473,983	108,03
474,188	97,79
474,393	108,03
474,598	75,26
474,802	69,12
475,007	17,92
475,212	148,99
475,417	60,93
475,621	212,48
475,826	-14,85
476,031	95,74
476,235	28,16
476,44	15,87
476,645	60,93
476,849	-64
477,054	-39,42
477,259	97,79
477,463	173,57
477,668	212,48
477,872	179,71
478,077	101,89
478,282	110,08
478,486	128,51
478,691	52,74
478,895	93,69
479,1	192
479,304	134,65
479,509	126,46
479,713	194,05
479,918	171,52
480,122	-12,8
480,326	77,31
480,531	105,98
480,735	50,69
480,94	19,97
481,144	163,33
481,348	198,14
481,553	192
481,757	17,92
481,961	42,5
482,166	50,69
482,37	26,11
482,574	97,79
482,778	3,58
482,983	155,13
483,187	52,74
483,391	108,03
483,595	179,71
483,8	409,08
484,004	857,59
484,208	1220,08
484,412	2088,42
484,616	3179,98
484,821	4646,33
485,025	5920,17
485,229	7427,47
485,433	8547,71
485,637	9891,18
485,841	10356,07
486,045	11048,28
486,249	10726,75
486,453	9893,23
486,657	8957,3
486,861	7783,82
487,065	6647,19
487,269	5426,61
487,473	4414,91
487,677	3855,81
487,881	3210,7
488,085	2381,28
488,289	1969,63
488,493	1228,27
488,697	1066,48
488,901	656,89
489,105	302,59
489,309	235
489,512	400,89
489,716	208,38
489,92	142,85
490,124	73,21
490,328	216,57
490,531	75,26
490,735	194,05
490,939	22,02
491,143	134,65
491,346	116,22
491,55	134,65
491,754	75,26
491,958	103,93
492,161	108,03
492,365	13,82
492,569	19,97
492,772	101,89
492,976	159,23
493,18	75,26
493,383	200,19
493,587	65,02
493,79	130,56
493,994	50,69
494,197	60,93
494,401	93,69
494,605	28,16
494,808	99,84
495,012	67,07
495,215	228,86
495,419	163,33
495,622	17,92
495,825	50,69
496,029	83,45
496,232	56,83
496,436	73,21
496,639	122,37
496,843	15,87
497,046	38,4
497,249	177,66
497,453	122,37
497,656	5,63
497,859	26,11
498,063	69,12
498,266	130,56
498,469	3,58
498,673	40,45
498,876	17,92
499,079	-25,09
499,282	81,41
499,485	261,63
499,689	83,45
499,892	81,41
500,095	22,02
500,298	67,07
500,501	17,92
500,705	50,69
500,908	97,79
501,111	-55,81
501,314	126,46
501,517	142,85
501,72	46,59
501,923	9,73
502,126	58,88
502,329	228,86
502,532	124,41
502,735	69,12
502,938	85,5
503,141	67,07
503,344	-18,94
503,547	194,05
503,75	99,84
503,953	5,63
504,156	138,75
504,359	46,59
504,562	19,97
504,765	30,21
504,968	105,98
505,17	85,5
505,373	97,79
505,576	89,6
505,779	122,37
505,982	19,97
506,185	60,93
506,387	26,11
506,59	175,61
506,793	-23,04
506,996	79,36
507,198	99,84
507,401	140,8
507,604	99,84
507,807	44,54
508,009	136,7
508,212	91,65
508,415	-70,14
508,617	-12,8
508,82	58,88
509,022	42,5
509,225	65,02
509,428	1,54
509,63	144,89
509,833	65,02
510,035	138,75
510,238	216,57
510,44	-41,47
510,643	46,59
510,845	171,52
511,048	171,52
511,25	54,78
511,453	-4,61
511,655	95,74
511,858	101,89
512,06	189,95
512,262	19,97
512,465	60,93
512,667	67,07
512,87	-31,23
513,072	142,85
513,274	48,64
513,477	-16,9
513,679	112,13
513,881	38,4
514,084	11,78
514,286	155,13
514,488	118,27
514,69	89,6
514,893	38,4
515,095	-53,76
515,297	-25,09
515,499	99,84
515,701	26,11
515,904	130,56
516,106	212,48
516,308	173,57
516,51	87,55
516,712	52,74
516,914	138,75
517,116	89,6
517,318	9,73
517,52	32,26
517,722	177,66
517,925	28,16
518,127	42,5
518,329	142,85
518,531	-10,75
518,733	22,02
518,935	17,92
519,136	130,56
519,338	5,63
519,54	38,4
519,742	103,93
519,944	138,75
520,146	32,26
520,348	179,71
520,55	81,41
520,752	-2,56
520,954	19,97
521,155	69,12
521,357	7,68
521,559	52,74
521,761	108,03
521,963	93,69
522,164	118,27
522,366	148,99
522,568	9,73
522,77	179,71
522,971	65,02
523,173	-33,28
523,375	91,65
523,576	42,5
523,778	-74,24
523,98	-18,94
524,181	105,98
524,383	83,45
524,584	-25,09
524,786	91,65
524,988	44,54
525,189	19,97
525,391	93,69
525,592	-20,99
525,794	-10,75
525,995	50,69
526,197	73,21
526,398	286,2
526,6	-20,99
526,801	48,64
527,003	-109,05
527,204	56,83
527,406	118,27
527,607	208,38
527,808	130,56
528,01	73,21
528,211	67,07
528,412	9,73
528,614	120,32
528,815	148,99
529,016	105,98
529,218	116,22
529,419	65,02
529,62	3,58
529,822	46,59
530,023	26,11
530,224	48,64
530,425	15,87
530,626	-16,9
530,828	50,69
531,029	-125,44
531,23	108,03
531,431	19,97
531,632	108,03
531,833	67,07
532,035	56,83
532,236	3,58
532,437	19,97
532,638	54,78
532,839	-20,99
533,04	44,54
533,241	124,41
533,442	54,78
533,643	-74,24
533,844	15,87
534,045	71,17
534,246	36,35
534,447	7,68
534,648	38,4
534,849	101,89
535,05	58,88
535,251	89,6
535,451	155,13
535,652	26,11
535,853	-66,05
536,054	114,17
536,255	5,63
536,456	28,16
536,657	-39,42
536,857	40,45
537,058	114,17
537,259	58,88
537,46	65,02
537,66	58,88
537,861	22,02
538,062	122,37
538,263	-152,06
538,463	60,93
538,664	48,64
538,865	15,87
539,065	38,4
539,266	67,07
539,466	-82,43
539,667	58,88
539,868	89,6
540,068	50,69
540,269	105,98
540,469	30,21
540,67	146,94
540,87	173,57
541,071	44,54
541,271	120,32
541,472	177,66
541,672	118,27
541,873	19,97
542,073	69,12
542,274	81,41
542,474	161,28
542,675	97,79
542,875	56,83
543,075	17,92
543,276	58,88
543,476	13,82
543,676	83,45
543,877	15,87
544,077	81,41
544,277	183,81
544,478	89,6
544,678	36,35
544,878	105,98
545,078	-33,28
545,279	26,11
545,479	-4,61
545,679	3,58
545,879	17,92
546,079	136,7
546,28	-70,14
546,48	122,37
546,68	155,13
546,88	114,17
547,08	77,31
547,28	97,79
547,48	34,3
547,68	75,26
547,88	79,36
548,081	105,98
548,281	-55,81
548,481	54,78
548,681	-43,52
548,881	17,92
549,081	81,41
549,28	83,45
549,48	34,3
549,68	144,89
549,88	122,37
550,08	-47,62
550,28	26,11
550,48	93,69
550,68	81,41
550,88	-14,85
551,08	15,87
551,279	126,46
551,479	-57,86
551,679	128,51
551,879	9,73
552,079	40,45
552,278	22,02
552,478	83,45
552,678	24,06
552,878	52,74
553,077	50,69
553,277	36,35
553,477	62,98
553,676	167,42
553,876	-53,76
554,076	81,41
554,275	36,35
554,475	28,16
554,674	46,59
554,874	3,58
555,074	34,3
555,273	28,16
555,473	144,89
555,672	5,63
555,872	15,87
556,071	26,11
556,271	200,19
556,47	65,02
556,67	24,06
556,869	73,21
557,068	7,68
557,268	42,5
557,467	48,64
557,667	148,99
557,866	-6,66
558,065	114,17
558,265	17,92
558,464	28,16
558,663	7,68
558,863	75,26
559,062	75,26
559,261	-0,51
559,461	42,5
559,66	42,5
559,859	-14,85
560,058	56,83
560,258	-84,48
560,457	24,06
560,656	169,47
560,855	7,68
561,054	138,75
561,253	91,65
561,453	118,27
561,652	24,06
561,851	97,79
562,05	-100,86
562,249	-51,71
562,448	15,87
562,647	-47,62
562,846	-23,04
563,045	22,02
563,244	116,22
563,443	85,5
563,642	65,02
563,841	93,69
564,04	67,07
564,239	-6,66
564,438	134,65
564,637	-31,23
564,836	-6,66
565,035	-8,7
565,234	50,69
565,432	93,69
565,631	97,79
565,83	28,16
566,029	30,21
566,228	7,68
566,427	245,24
566,625	-61,95
566,824	32,26
567,023	36,35
567,222	48,64
567,42	81,41
567,619	81,41
567,818	44,54
568,016	224,76
568,215	34,3
568,414	181,76
568,612	126,46
568,811	50,69
569,01	5,63
569,208	110,08
569,407	116,22
569,605	132,61
569,804	87,55
570,002	181,76
570,201	65,02
570,4	167,42
570,598	58,88
570,797	65,02
570,995	-12,8
571,193	132,61
571,392	169,47
571,59	5,63
571,789	89,6
571,987	187,9
572,186	206,33
572,384	65,02
572,582	95,74
572,781	177,66
572,979	15,87
573,177	95,74
573,376	32,26
573,574	155,13
573,772	167,42
573,971	71,17
574,169	-10,75
574,367	105,98
574,565	42,5
574,763	108,03
574,962	134,65
575,16	75,26
575,358	26,11
575,556	79,36
575,754	136,7
575,952	32,26
576,151	136,7
576,349	134,65
576,547	60,93
576,745	105,98
576,943	175,61
577,141	120,32
577,339	26,11
577,537	103,93
577,735	228,86
577,933	105,98
578,131	77,31
578,329	204,28
578,527	67,07
578,725	157,18
578,923	3,58
579,121	189,95
579,319	-115,2
579,516	124,41
579,714	310,78
579,912	105,98
580,11	9,73
580,308	138,75
580,506	140,8
580,704	-2,56
580,901	79,36
581,099	226,81
581,297	103,93
581,495	153,09
581,692	196,09
581,89	259,58
582,088	175,61
582,285	126,46
582,483	97,79
582,681	54,78
582,878	173,57
583,076	95,74
583,274	114,17
583,471	212,48
583,669	146,94
583,866	52,74
584,064	42,5
584,262	-8,7
584,459	15,87
584,657	171,52
584,854	200,19
585,052	122,37
585,249	200,19
585,447	134,65
585,644	-61,95
585,841	196,09
586,039	118,27
586,236	192
586,434	118,27
586,631	48,64
586,828	19,97
587,026	34,3
587,223	34,3
587,42	60,93
587,618	114,17
587,815	187,9
588,012	116,22
588,21	24,06
588,407	179,71
588,604	169,47
588,801	-14,85
588,999	50,69
589,196	237,05
589,393	11,78
589,59	95,74
589,787	114,17
589,984	67,07
590,182	151,04
590,379	56,83
590,576	32,26
590,773	108,03
590,97	69,12
591,167	62,98
591,364	5,63
591,561	62,98
591,758	144,89
591,955	208,38
592,152	112,13
592,349	83,45
592,546	-25,09
592,743	48,64
592,94	110,08
593,137	108,03
593,334	97,79
593,531	81,41
593,727	65,02
593,924	60,93
594,121	187,9
594,318	71,17
594,515	97,79
594,712	175,61
594,908	105,98
595,105	-0,51
595,302	103,93
595,499	69,12
595,696	239,1
595,892	24,06
596,089	101,89
596,286	62,98
596,482	171,52
596,679	157,18
596,876	19,97
597,072	161,28
597,269	34,3
597,466	124,41
597,662	-14,85
597,859	-6,66
598,055	83,45
598,252	122,37
598,448	155,13
598,645	56,83
598,841	52,74
599,038	202,24
599,234	206,33
599,431	157,18
599,627	103,93
599,824	52,74
600,02	134,65
600,217	56,83
600,413	136,7
600,609	85,5
600,806	394,75
601,002	40,45
601,198	56,83
601,395	179,71
601,591	134,65
601,787	114,17
601,984	183,81
602,18	26,11
602,376	108,03
602,572	194,05
602,769	167,42
602,965	62,98
603,161	181,76
603,357	83,45
603,553	237,05
603,75	122,37
603,946	89,6
604,142	155,13
604,338	228,86
604,534	30,21
604,73	40,45
604,926	138,75
605,122	151,04
605,318	40,45
605,514	204,28
605,71	-49,66
605,906	198,14
606,102	110,08
606,298	173,57
606,494	167,42
606,69	206,33
606,886	58,88
607,082	105,98
607,278	48,64
607,474	144,89
607,67	93,69
607,866	-10,75
608,062	200,19
608,257	108,03
608,453	15,87
608,649	112,13
608,845	-8,7
609,041	26,11
609,236	132,61
609,432	67,07
609,628	108,03
609,824	26,11
610,019	9,73
610,215	-18,94
610,411	175,61
610,606	169,47
610,802	42,5
610,998	38,4
611,193	85,5
611,389	7,68
611,584	95,74
611,78	-0,51
611,976	101,89
612,171	230,91
612,367	85,5
612,562	89,6
612,758	101,89
612,953	-23,04
613,149	91,65
613,344	19,97
613,539	-10,75
613,735	151,04
613,93	15,87
614,126	52,74
614,321	48,64
614,517	108,03
614,712	148,99
614,907	105,98
615,103	58,88
615,298	40,45
615,493	46,59
615,688	103,93
615,884	114,17
616,079	52,74
616,274	50,69
616,47	-49,66
616,665	-49,66
616,86	52,74
617,055	-27,14
617,25	-84,48
617,445	75,26
617,641	52,74
617,836	7,68
618,031	-8,7
618,226	95,74
618,421	146,94
618,616	-6,66
618,811	83,45
619,006	-53,76
619,201	89,6
619,396	87,55
619,591	15,87
619,786	99,84
619,981	165,37
620,176	75,26
620,371	-16,9
620,566	11,78
620,761	83,45
620,956	132,61
621,151	15,87
621,346	26,11
621,541	26,11
621,735	91,65
621,93	67,07
622,125	-0,51
622,32	-59,9
622,515	-117,25
622,709	28,16
622,904	91,65
623,099	36,35
623,294	130,56
623,488	65,02
623,683	56,83
623,878	69,12
624,072	69,12
624,267	3,58
624,462	17,92
624,656	-14,85
624,851	38,4
625,046	5,63
625,24	56,83
625,435	32,26
625,629	-43,52
625,824	175,61
626,018	83,45
626,213	108,03
626,407	75,26
626,602	65,02
626,796	105,98
626,991	97,79
627,185	15,87
627,38	-6,66
627,574	36,35
627,768	155,13
627,963	32,26
628,157	52,74
628,352	19,97
628,546	-25,09
628,74	36,35
628,935	34,3
629,129	97,79
629,323	142,85
629,517	-72,19
629,712	99,84
629,906	17,92
630,1	173,57
630,294	120,32
630,489	36,35
630,683	-61,95
630,877	28,16
631,071	171,52
631,265	36,35
631,459	67,07
631,653	26,11
631,848	101,89
632,042	124,41
632,236	46,59
632,43	114,17
632,624	77,31
632,818	34,3
633,012	77,31
633,206	48,64
633,4	60,93
633,594	52,74
633,788	62,98
633,982	58,88
634,176	181,76
634,369	28,16
634,563	89,6
634,757	-78,33
634,951	32,26
635,145	97,79
635,339	48,64
635,533	52,74
635,726	83,45
635,92	93,69
636,114	-27,14
636,308	69,12
636,501	-25,09
636,695	220,67
636,889	-41,47
637,083	-2,56
637,276	83,45
637,47	3,58
637,664	13,82
637,857	30,21
638,051	36,35
638,244	132,61
638,438	161,28
638,632	243,2
638,825	-115,2
639,019	243,2
639,212	48,64
639,406	75,26
639,599	-31,23
639,793	122,37
639,986	159,23
640,18	196,09
640,373	19,97
640,567	71,17
640,76	105,98
640,954	151,04
641,147	36,35
641,34	28,16
641,534	108,03
641,727	112,13
641,92	114,17
642,114	148,99
642,307	56,83
642,5	108,03
642,694	-23,04
642,887	15,87
643,08	118,27
643,273	81,41
643,467	42,5
643,66	-29,18
643,853	26,11
644,046	89,6
644,239	83,45
644,432	17,92
644,626	-53,76
644,819	7,68
645,012	69,12
645,205	132,61
645,398	228,86
645,591	32,26
645,784	7,68
645,977	-12,8
646,17	48,64
646,363	116,22
646,556	7,68
646,749	3,58
646,942	67,07
647,135	77,31
647,328	15,87
647,521	77,31
647,714	54,78
647,907	17,92
648,099	9,73
648,292	138,75
648,485	97,79
648,678	3,58
648,871	26,11
649,064	81,41
649,256	-49,66
649,449	-12,8
649,642	9,73
649,835	13,82
650,027	22,02
650,22	144,89
650,413	-41,47
650,605	105,98
650,798	1,54
650,991	36,35
651,183	-14,85
651,376	157,18
651,568	157,18
651,761	122,37
651,954	208,38
652,146	142,85
652,339	179,71
652,531	243,2
652,724	32,26
652,916	73,21
653,109	71,17
653,301	183,81
653,494	206,33
653,686	163,33
653,879	327,16
654,071	314,88
654,263	218,62
654,456	538,1
654,648	2205,15
654,84	6827,42
655,033	15154,46
655,225	26416,24
655,417	37665,73
655,61	48036,64
655,802	56277,67
655,994	61233,75
656,186	62202,44
656,379	59681,39
656,571	55714,48
656,763	50256,64
656,955	45456,2
657,148	41642,88
657,34	37813,18
657,532	33762,3
657,724	30069,81
657,916	26823,78
658,108	23282,84
658,3	19303,64
658,492	16180,49
658,684	13094,2
658,876	10671,45
659,068	8580,48
659,26	6620,57
659,452	5006,77
659,644	3638,73
659,836	2792,92
660,028	1785,32
660,22	1142,25
660,412	953,84
660,604	712,18
660,796	566,78
660,988	572,92
661,18	335,35
661,372	351,74
661,563	257,53
661,755	239,1
661,947	142,85
662,139	132,61
662,331	151,04
662,522	204,28
662,714	77,31
662,906	93,69
663,097	148,99
663,289	-0,51
663,481	-18,94
663,673	95,74
663,864	130,56
664,056	210,43
664,247	87,55
664,439	171,52
664,631	34,3
664,822	142,85
665,014	132,61
665,205	-16,9
665,397	-53,76
665,588	114,17
665,78	71,17
665,971	44,54
666,163	24,06
666,354	114,17
666,546	-45,57
666,737	28,16
666,929	1,54
667,12	34,3
667,311	108,03
667,503	26,11
667,694	65,02
667,885	122,37
668,077	108,03
668,268	-72,19
668,459	60,93
668,651	95,74
668,842	67,07
669,033	-16,9
669,224	-102,91
669,416	286,2
669,607	11,78
669,798	11,78
669,989	155,13
670,18	40,45
670,371	38,4
670,563	-25,09
670,754	132,61
670,945	34,3
671,136	101,89
671,327	-25,09
671,518	15,87
671,709	89,6
671,9	71,17
672,091	146,94
672,282	36,35
672,473	114,17
672,664	-29,18
672,855	40,45
673,046	22,02
673,237	112,13
673,428	26,11
673,619	177,66
673,809	48,64
674	120,32
674,191	87,55
674,382	-20,99
674,573	17,92
674,764	-0,51
674,954	65,02
675,145	-59,9
675,336	9,73
675,527	-47,62
675,717	-66,05
675,908	15,87
676,099	-33,28
676,289	-23,04
676,48	-82,43
676,671	77,31
676,861	67,07
677,052	67,07
677,243	-27,14
677,433	-29,18
677,624	19,97
677,814	40,45
678,005	42,5
678,195	181,76
678,386	-27,14
678,576	1,54
678,767	-20,99
678,957	-0,51
679,148	126,46
679,338	116,22
679,529	91,65
679,719	7,68
679,909	134,65
680,1	48,64
680,29	54,78
680,481	-107,01
680,671	-20,99
680,861	60,93
681,052	-6,66
681,242	-70,14
681,432	79,36
681,622	62,98
681,813	-80,38
682,003	34,3
682,193	-127,49
682,383	-4,61
682,573	-55,81
682,764	-16,9
682,954	-0,51
683,144	118,27
683,334	-4,61
683,524	-111,1
683,714	34,3
683,904	103,93
684,094	-43,52
684,284	44,54
684,474	97,79
684,664	71,17
684,854	9,73
685,044	-23,04
685,234	-41,47
685,424	44,54
685,614	-37,38
685,804	138,75
685,994	146,94
686,184	-25,09
686,374	30,21
686,564	32,26
686,753	-82,43
686,943	26,11
687,133	-14,85
687,323	-35,33
687,513	81,41
687,702	48,64
687,892	-49,66
688,082	71,17
688,272	54,78
688,461	11,78
688,651	142,85
688,841	65,02
689,03	30,21
689,22	-51,71
689,41	11,78
689,599	114,17
689,789	-88,57
689,979	58,88
690,168	24,06
690,358	69,12
690,547	15,87
690,737	11,78
690,926	87,55
691,116	85,5
691,305	81,41
691,495	9,73
691,684	-98,81
691,874	-47,62
692,063	22,02
692,252	95,74
692,442	110,08
692,631	-41,47
692,82	-23,04
693,01	65,02
693,199	48,64
693,388	46,59
693,578	62,98
693,767	-10,75
693,956	73,21
694,146	-20,99
694,335	81,41
694,524	69,12
694,713	175,61
694,902	-51,71
695,092	-82,43
695,281	15,87
695,47	24,06
695,659	-25,09
695,848	54,78
696,037	-41,47
696,226	114,17
696,415	56,83
696,604	105,98
696,793	77,31
696,982	11,78
697,171	99,84
697,36	7,68
697,549	-0,51
697,738	-102,91
697,927	-33,28
698,116	-70,14
698,305	56,83
698,494	-2,56
698,683	-49,66
698,872	210,43
699,061	65,02
699,25	-10,75
699,438	-18,94
699,627	-45,57
699,816	153,09
700,005	-98,81
700,193	5,63
700,382	136,7
700,571	56,83
700,76	30,21
700,948	77,31
701,137	146,94
701,326	157,18
701,514	3,58
701,703	-12,8
701,892	105,98
702,08	212,48
702,269	13,82
702,457	-0,51
702,646	69,12
702,834	-49,66
703,023	138,75
703,212	36,35
703,4	-8,7
703,589	-49,66
703,777	-45,57
703,965	-0,51
704,154	-41,47
704,342	-143,87
704,531	17,92
704,719	30,21
704,907	148,99
705,096	-61,95
705,284	58,88
705,472	91,65
705,661	17,92
705,849	19,97
706,037	77,31
706,226	32,26
706,414	38,4
706,602	-59,9
706,79	50,69
706,979	-29,18
707,167	9,73
707,355	-139,77
707,543	52,74
707,731	60,93
707,919	7,68
708,107	-14,85
708,296	-25,09
708,484	-84,48
708,672	32,26
708,86	13,82
709,048	28,16
709,236	-55,81
709,424	19,97
709,612	110,08
709,8	-70,14
709,988	11,78
710,176	81,41
710,364	126,46
710,551	-25,09
710,739	17,92
710,927	15,87
711,115	-41,47
711,303	60,93
711,491	179,71
711,679	-59,9
711,866	32,26
712,054	-57,86
712,242	48,64
712,43	122,37
712,617	26,11
712,805	69,12
712,993	26,11
713,181	-64
713,368	87,55
713,556	-45,57
713,744	-23,04
713,931	163,33
714,119	77,31
714,306	-33,28
714,494	-154,11
714,682	9,73
714,869	-47,62
715,057	13,82
715,244	-45,57
715,432	73,21
715,619	-80,38
715,807	-66,05
715,994	-12,8
716,182	13,82
716,369	26,11
716,556	108,03
716,744	-61,95
716,931	-47,62
717,119	11,78
717,306	28,16
717,493	24,06
717,681	-160,25
717,868	-25,09
718,055	124,41
718,242	7,68
718,43	48,64
718,617	87,55
718,804	-33,28
718,991	97,79
719,179	26,11
719,366	34,3
719,553	1,54
719,74	-66,05
719,927	46,59
720,114	122,37
720,301	-45,57
720,488	-49,66
720,676	-53,76
720,863	83,45
721,05	87,55
721,237	114,17
721,424	73,21
721,611	-2,56
721,798	-113,15
721,985	-12,8
722,172	-43,52
722,358	15,87
722,545	85,5
722,732	19,97
722,919	71,17
723,106	15,87
723,293	-39,42
723,48	-8,7
723,667	-90,62
723,853	44,54
724,04	-23,04
724,227	73,21
724,414	-80,38
724,6	73,21
724,787	167,42
724,974	97,79
725,161	58,88
725,347	-135,68
725,534	11,78
725,72	101,89
725,907	73,21
726,094	58,88
726,28	-25,09
726,467	-41,47
726,653	-119,29
726,84	128,51
727,027	128,51
727,213	-59,9
727,4	32,26
727,586	36,35
727,773	9,73
727,959	-45,57
728,145	-33,28
728,332	60,93
728,518	-92,67
728,705	67,07
728,891	48,64
729,077	103,93
729,264	-53,76
729,45	-55,81
729,636	81,41
729,823	36,35
730,009	77,31
730,195	40,45
730,382	5,63
730,568	34,3
730,754	42,5
730,94	13,82
731,126	-20,99
731,313	32,26
731,499	13,82
731,685	124,41
731,871	-25,09
732,057	95,74
732,243	116,22
732,429	81,41
732,615	177,66
732,801	89,6
732,987	-20,99
733,173	42,5
733,359	-31,23
733,545	26,11
733,731	62,98
733,917	114,17
734,103	-23,04
734,289	3,58
734,475	-70,14
734,661	124,41
734,847	-55,81
735,033	-70,14
735,219	5,63
735,404	-74,24
735,59	-23,04
735,776	-39,42
735,962	40,45
736,148	95,74
736,333	105,98
736,519	-0,51
736,705	-33,28
736,89	-102,91
737,076	75,26
737,262	-10,75
737,447	-35,33
737,633	-27,14
737,819	124,41
738,004	-0,51
738,19	34,3
738,375	-37,38
738,561	99,84
738,747	30,21
738,932	-37,38
739,118	198,14
739,303	144,89
739,489	81,41
739,674	26,11
739,859	-57,86
740,045	56,83
740,23	-23,04
740,416	-92,67
740,601	75,26
740,786	-14,85
740,972	-59,9
741,157	71,17
741,342	-82,43
741,528	-84,48
741,713	124,41
741,898	-39,42
742,084	-37,38
742,269	-25,09
742,454	116,22
742,639	75,26
742,824	9,73
743,01	171,52
743,195	155,13
743,38	3,58
743,565	-61,95
743,75	19,97
743,935	103,93
744,12	148,99
744,305	-72,19
744,49	36,35
744,675	50,69
744,86	5,63
745,045	75,26
745,23	-0,51
745,415	-80,38
745,6	46,59
745,785	-78,33
745,97	11,78
746,155	157,18
746,34	122,37
746,525	17,92
746,71	126,46
746,895	-64
747,079	-12,8
747,264	-39,42
747,449	124,41
747,634	87,55
747,819	159,23
748,003	-37,38
748,188	-119,29
748,373	1,54
748,557	3,58
748,742	103,93
748,927	34,3
749,111	19,97
749,296	77,31
749,481	79,36
749,665	81,41
749,85	-66,05
750,034	58,88
750,219	24,06
750,404	1,54
750,588	52,74
750,773	-8,7
750,957	-23,04
751,141	26,11
751,326	81,41
751,51	-98,81
751,695	-47,62
751,879	-66,05
752,064	142,85
752,248	44,54
752,432	138,75
752,617	142,85
752,801	157,18
752,985	13,82
753,17	73,21
753,354	-35,33
753,538	38,4
753,722	-6,66
753,907	32,26
754,091	-29,18
754,275	73,21
754,459	-57,86
754,643	-64
754,828	1,54
755,012	50,69
755,196	-0,51
755,38	67,07
755,564	7,68
755,748	-47,62
755,932	148,99
756,116	73,21
756,3	95,74
756,484	89,6
756,668	97,79
756,852	-61,95
757,036	-31,23
757,22	15,87
757,404	-86,53
757,588	-33,28
757,772	60,93
757,956	-31,23
758,14	163,33
758,323	-14,85
758,507	116,22
758,691	-2,56
758,875	48,64
759,059	187,9
759,242	17,92
759,426	17,92
759,61	-14,85
759,794	-31,23
759,977	73,21
760,161	173,57
760,345	95,74
760,528	110,08
760,712	44,54
760,895	73,21
761,079	17,92
761,263	-18,94
761,446	-53,76
761,63	-33,28
761,813	126,46
761,997	-92,67
762,18	-23,04
762,364	67,07
762,547	-90,62
762,731	28,16
762,914	3,58
763,098	-18,94
763,281	36,35
763,464	-37,38
763,648	-6,66
763,831	-29,18
764,015	-66,05
764,198	114,17
764,381	5,63
764,564	-29,18
764,748	-0,51
764,931	50,69
765,114	-2,56
765,297	19,97
765,481	-20,99
765,664	24,06
765,847	-23,04
766,03	108,03
766,213	-92,67
766,397	28,16
766,58	-98,81
766,763	48,64
766,946	-51,71
767,129	-14,85
767,312	-104,96
767,495	-4,61
767,678	-98,81
767,861	7,68
768,044	-6,66
768,227	19,97
768,41	-25,09
768,593	56,83
768,776	36,35
768,959	7,68
769,142	112,13
769,324	-25,09
769,507	-72,19
769,69	-35,33
769,873	-20,99
770,056	126,46
770,239	-6,66
770,421	89,6
770,604	65,02
770,787	42,5
770,97	87,55
771,152	-84,48
771,335	93,69
771,518	-147,97
771,7	52,74
771,883	114,17
772,066	-16,9
772,248	19,97
772,431	52,74
772,613	48,64
772,796	-31,23
772,978	81,41
773,161	122,37
773,343	-31,23
773,526	-18,94
773,708	-47,62
773,891	-49,66
774,073	-39,42
774,256	-29,18
774,438	108,03
774,621	-33,28
774,803	62,98
774,985	-20,99
775,168	97,79
775,35	7,68
775,532	54,78
775,715	-39,42
775,897	81,41
776,079	9,73
776,261	163,33
776,444	278,01
776,626	439,8
776,808	583,16
776,99	724,47
777,173	919,03
777,355	894,45
777,537	974,32
777,719	888,31
777,901	818,68
778,083	712,18
778,265	609,78
778,447	673,27
778,629	462,33
778,811	523,77
778,993	452,09
779,175	452,09
779,357	280,06
779,539	214,52
779,721	237,05
779,903	204,28
780,085	153,09
780,267	118,27
780,449	112,13
780,631	116,22
780,812	136,7
780,994	-4,61
781,176	38,4
781,358	-12,8
781,54	17,92
781,721	48,64
781,903	126,46
782,085	-92,67
782,267	118,27
782,448	-53,76
782,63	-64
782,812	34,3
782,993	1,54
783,175	50,69
783,357	-96,77
783,538	83,45
783,72	-90,62
783,901	13,82
784,083	69,12
784,264	116,22
784,446	-47,62
784,627	-107,01
784,809	1,54
784,99	-37,38
785,172	65,02
785,353	-10,75
785,535	-29,18
785,716	-8,7
785,897	-111,1
786,079	-12,8
786,26	-8,7
786,441	7,68
786,623	-174,59
786,804	40,45
786,985	-37,38
787,167	-8,7
787,348	58,88
787,529	73,21
787,71	118,27
787,891	52,74
788,073	-6,66
788,254	-90,62
788,435	91,65
788,616	38,4
788,797	-57,86
788,978	38,4
789,159	-4,61
789,34	58,88
789,522	40,45
789,703	5,63
789,884	95,74
790,065	60,93
790,246	118,27
790,427	1,54
790,607	81,41
790,788	159,23
790,969	-49,66
791,15	-23,04
791,331	-25,09
791,512	36,35
791,693	-35,33
791,874	-2,56
792,054	206,33
792,235	114,17
792,416	-76,29
792,597	-55,81
792,778	73,21
792,958	-41,47
793,139	24,06
793,32	-16,9
793,5	-96,77
793,681	126,46
793,862	1,54
794,042	-31,23
794,223	-70,14
794,404	-55,81
794,584	-129,53
794,765	54,78
794,945	-6,66
795,126	69,12
795,306	7,68
795,487	-39,42
795,667	-31,23
795,848	69,12
796,028	34,3
796,209	15,87
796,389	67,07
796,57	38,4
796,75	-74,24
796,93	-18,94
797,111	-61,95
797,291	-29,18
797,471	69,12
797,652	15,87
797,832	34,3
798,012	9,73
798,192	-104,96
798,373	-123,39
798,553	-18,94
798,733	42,5
798,913	-33,28
799,093	-23,04
799,274	79,36
799,454	110,08
799,634	40,45
799,814	65,02
799,994	19,97
800,174	13,82
800,354	44,54
800,534	-109,05
800,714	85,5
800,894	-61,95
801,074	-92,67
801,254	-33,28
801,434	81,41
801,614	-68,09
801,794	-90,62
801,974	1961,44
802,154	-78,33
802,334	65,02
802,514	-55,81
802,693	15,87
802,873	-66,05
803,053	110,08
803,233	71,17
803,413	-47,62
803,592	-104,96
803,772	-33,28
803,952	32,26
804,131	-100,86
804,311	26,11
804,491	48,64
804,67	-109,05
804,85	-129,53
805,03	40,45
805,209	58,88
805,389	-37,38
805,568	-41,47
805,748	-25,09
805,928	-39,42
806,107	15,87
806,287	97,79
806,466	44,54
806,646	-59,9
806,825	-25,09
807,004	-43,52
807,184	30,21
807,363	116,22
807,543	-4,61
807,722	-84,48
807,901	179,71
808,081	-41,47
808,26	-74,24
808,439	30,21
808,619	-33,28
808,798	-123,39
808,977	-16,9
809,156	50,69
809,336	40,45
809,515	114,17
809,694	-18,94
809,873	-72,19
810,052	75,26
810,231	58,88
810,411	54,78
810,59	89,6
810,769	-37,38
810,948	65,02
811,127	-160,25
811,306	-55,81
811,485	15,87
811,664	155,13
811,843	13,82
812,022	58,88
812,201	52,74
812,38	38,4
812,559	-74,24
812,737	77,31
812,916	-107,01
813,095	-135,68
813,274	32,26
813,453	-70,14
813,632	48,64
813,811	-6,66
813,989	-104,96
814,168	-31,23
814,347	-137,73
814,526	-66,05
814,704	105,98
814,883	142,85
815,062	-49,66
815,24	15,87
815,419	-47,62
815,598	9,73
815,776	-129,53
815,955	32,26
816,133	-147,97
816,312	-8,7
816,49	-43,52
816,669	-57,86
816,847	60,93
817,026	22,02
817,204	-41,47
817,383	-41,47
817,561	-64
817,74	30,21
817,918	48,64
818,097	13,82
818,275	-86,53
818,453	44,54
818,632	1,54
818,81	-113,15
818,988	-33,28
819,167	-37,38
819,345	7,68
819,523	-74,24
819,701	11,78
819,879	-45,57
820,058	-104,96
820,236	-8,7
820,414	-0,51
820,592	-31,23
820,77	-8,7
820,948	-55,81
821,127	-25,09
821,305	5,63
821,483	-51,71
821,661	48,64
821,839	-68,09
822,017	-33,28
822,195	62,98
822,373	122,37
822,551	-4,61
822,729	50,69
822,907	-51,71
823,085	79,36
823,262	-43,52
823,44	-74,24
823,618	-29,18
823,796	-2,56
823,974	-2,56
824,152	-39,42
824,329	-31,23
824,507	-29,18
824,685	42,5
824,863	-88,57
825,04	-39,42
825,218	30,21
825,396	52,74
825,574	26,11
825,751	-51,71
825,929	-31,23
826,107	-107,01
826,284	22,02
826,462	3,58
826,639	-43,52
826,817	-107,01
826,994	42,5
827,172	-170,49
827,349	138,75
827,527	19,97
827,704	7,68
827,882	-27,14
828,059	3,58
828,237	-57,86
828,414	83,45
828,591	-147,97
828,769	3,58
828,946	-61,95
829,124	11,78
829,301	15,87
829,478	-25,09
829,655	67,07
829,833	24,06
830,01	-147,97
830,187	22,02
830,364	-0,51
830,542	24,06
830,719	-8,7
830,896	38,4
831,073	-6,66
831,25	-41,47
831,427	56,83
831,604	-39,42
831,782	-18,94
831,959	3,58
832,136	1,54
832,313	-2,56
832,49	-94,72
832,667	28,16
832,844	-33,28
833,021	122,37
833,198	44,54
833,374	-14,85
833,551	19,97
833,728	-33,28
833,905	40,45
834,082	-129,53
834,259	52,74
834,436	110,08
834,612	-53,76
834,789	62,98
834,966	-39,42
835,143	32,26
835,319	-100,86
835,496	24,06
835,673	-0,51
835,85	44,54
836,026	60,93
836,203	114,17
836,38	-57,86
836,556	-25,09
836,733	-47,62
836,909	114,17
837,086	-78,33
837,262	-96,77
837,439	-49,66
837,616	-29,18
837,792	-86,53
837,968	-59,9
838,145	-147,97
838,321	24,06
838,498	44,54
838,674	77,31
838,851	-25,09
839,027	-27,14
839,203	15,87
839,38	116,22
839,556	15,87
839,732	28,16
839,909	-43,52
840,085	40,45
840,261	-92,67
840,437	-64
840,614	-47,62
840,79	65,02
840,966	75,26
841,142	5,63
841,318	-94,72
841,494	48,64
841,671	60,93
841,847	-92,67
842,023	-92,67
842,199	79,36
842,375	87,55
842,551	-131,58
842,727	-82,43
842,903	126,46
843,079	-20,99
843,255	173,57
843,431	60,93
843,607	93,69
843,783	-82,43
843,959	134,65
844,134	208,38
844,31	417,27
844,486	282,11
844,662	216,57
844,838	300,54
845,013	310,78
845,189	280,06
845,365	208,38
845,541	165,37
845,716	192
845,892	216,57
846,068	71,17
846,244	85,5
846,419	134,65
846,595	-6,66
846,77	48,64
846,946	151,04
847,122	75,26
847,297	112,13
847,473	126,46
847,648	3,58
847,824	58,88
847,999	-107,01
848,175	-12,8
848,35	103,93
848,526	171,52
848,701	122,37
848,876	93,69
849,052	73,21
849,227	-41,47
849,403	-98,81
849,578	5,63
849,753	-6,66
849,929	58,88
850,104	-66,05
850,279	-43,52
850,454	34,3
850,63	79,36
850,805	71,17
850,98	-8,7
851,155	40,45
851,33	38,4
851,505	-186,88
851,681	58,88
851,856	17,92
852,031	73,21
852,206	34,3
852,381	-139,77
852,556	15,87
852,731	13,82
852,906	11,78
853,081	-0,51
853,256	75,26
853,431	-66,05
853,606	-102,91
853,781	-57,86
853,956	-213,5
854,131	69,12
854,305	-61,95
854,48	-109,05
854,655	-25,09
854,83	-64
855,005	-16,9
855,18	11,78
855,354	-88,57
855,529	-4,61
855,704	-43,52
855,879	46,59
856,053	-98,81
856,228	-2,56
856,403	-25,09
856,577	95,74
856,752	-84,48
856,926	-43,52
857,101	26,11
857,276	-6,66
857,45	56,83
857,625	65,02
857,799	24,06
857,974	-23,04
858,148	-123,39
858,323	-53,76
858,497	-25,09
858,672	-76,29
858,846	-86,53
859,02	42,5
859,195	-55,81
859,369	-18,94
859,543	65,02
859,718	-12,8
859,892	32,26
860,066	48,64
860,241	-61,95
860,415	-72,19
860,589	-43,52
860,763	3,58
860,938	3,58
861,112	9,73
861,286	-16,9
861,46	1,54
861,634	-10,75
861,808	-0,51
861,982	-41,47
862,157	-51,71
862,331	-125,44
862,505	-25,09
862,679	-39,42
862,853	-88,57
863,027	-43,52
863,201	118,27
863,375	-86,53
863,549	75,26
863,722	17,92
863,896	60,93
864,07	-45,57
864,244	-43,52
864,418	7,68
864,592	75,26
864,766	-119,29
864,939	-51,71
865,113	-41,47
865,287	159,23
865,461	-66,05
865,634	17,92
865,808	-12,8
865,982	5,63
866,156	-59,9
866,329	-76,29
866,503	-72,19
866,676	65,02
866,85	13,82
867,024	-31,23
867,197	-18,94
867,371	38,4
867,544	46,59
867,718	-55,81
867,891	85,5
868,065	-31,23
868,238	-59,9
868,412	95,74
868,585	-14,85
868,759	-27,14
868,932	15,87
869,105	-45,57
869,279	-8,7
869,452	-96,77
869,625	9,73
869,799	-12,8
869,972	-82,43
870,145	-53,76
870,319	24,06
870,492	-147,97
870,665	-70,14
870,838	-98,81
871,011	-201,21
871,185	-27,14
871,358	-47,62
871,531	19,97
871,704	-47,62
871,877	5,63
872,05	-72,19
872,223	-100,86
872,396	17,92
872,569	17,92
872,742	-74,24
872,915	101,89
873,088	-35,33
873,261	-107,01
873,434	52,74
873,607	-27,14
873,78	187,9
873,953	-57,86
874,126	-51,71
874,299	73,21
874,471	9,73
874,644	-66,05
874,817	1,54
874,99	175,61
875,163	-51,71
875,335	17,92
875,508	15,87
875,681	89,6
875,853	-88,57
876,026	-94,72
876,199	-20,99
876,371	-51,71
876,544	-6,66
876,717	-41,47
876,889	46,59
877,062	11,78
877,234	-82,43
877,407	-16,9
877,579	-43,52
877,752	40,45
877,924	65,02
878,097	-35,33
878,269	30,21
878,442	-4,61
878,614	-8,7
878,786	38,4
878,959	-33,28
879,131	-20,99
879,303	-80,38
879,476	-47,62
879,648	-45,57
879,82	-10,75
879,993	-90,62
880,165	-43,52
880,337	-121,34
880,509	7,68
880,681	-82,43
880,854	-47,62
881,026	28,16
881,198	198,14
881,37	-57,86
881,542	28,16
881,714	-4,61
881,886	-43,52
882,058	-25,09
882,23	-94,72
882,402	-8,7
882,574	-16,9
882,746	48,64
882,918	163,33
883,09	58,88
883,262	-47,62
883,434	1,54
883,606	-115,2
883,778	3,58
883,95	122,37
884,122	-53,76
884,293	73,21
884,465	-4,61
884,637	75,26
884,809	-39,42
884,98	52,74
885,152	-25,09
885,324	56,83
885,496	-68,09
885,667	-94,72
885,839	-88,57
886,011	105,98
886,182	54,78
886,354	13,82
886,525	-4,61
886,697	56,83
886,869	-104,96
887,04	-47,62
887,212	138,75
887,383	171,52
887,555	32,26
887,726	-88,57
887,897	-51,71
888,069	-2,56
888,24	87,55
888,412	-6,66
888,583	-14,85
888,754	-35,33
888,926	-107,01
889,097	-129,53
889,268	-107,01
889,44	-29,18
889,611	-59,9
889,782	-125,44
889,953	-47,62
890,125	-0,51
890,296	-41,47
890,467	-14,85
890,638	-16,9
890,809	-35,33
890,98	-70,14
891,151	5,63
891,323	97,79
891,494	13,82
891,665	-18,94
891,836	7,68
892,007	-25,09
892,178	30,21
892,349	-29,18
892,52	-6,66
892,691	54,78
892,862	-49,66
893,032	-94,72
893,203	-104,96
893,374	-6,66
893,545	75,26
893,716	-45,57
893,887	60,93
894,057	-37,38
894,228	13,82
894,399	-72,19
894,57	120,32
894,74	17,92
894,911	-8,7
895,082	-37,38
895,253	-98,81
895,423	-55,81
895,594	108,03
895,764	-47,62
895,935	-51,71
896,106	15,87
896,276	-82,43
896,447	-74,24
896,617	-74,24
896,788	-72,19
896,958	-33,28
897,129	-98,81
897,299	-107,01
897,47	122,37
897,64	-31,23
897,81	-8,7
897,981	-16,9
898,151	-117,25
898,322	-18,94
898,492	-47,62
898,662	-115,2
898,832	-55,81
899,003	-55,81
899,173	69,12
899,343	-53,76
899,513	-102,91
