Data from deuterium_USB4F104151__9__10-57-07-466.txt Node

Date: Wed Apr 15 10:57:07 EDT 2026
User: LaboPhy
Spectrometer: USB4F10415
Trigger mode: 4
Integration Time (sec): 1,000000E-1
Scans to average: 1
Electric dark correction enabled: true
Nonlinearity correction enabled: false
Boxcar width: 0
XAxis mode: Wavelengths
Number of Pixels in Spectrum: 3648
>>>>>Begin Spectral Data<<<<<
178,204	-465,06
178,424	-465,06
178,644	-465,06
178,864	-407,72
179,084	-448,68
179,304	24,4
179,524	-39,08
179,744	14,17
179,964	34,64
180,184	55,12
180,404	32,6
180,624	-14,51
180,844	26,45
181,064	-71,85
181,283	18,26
181,503	-100,52
181,723	20,31
181,943	-75,95
182,163	192,34
182,383	-43,18
182,602	67,41
182,822	130,9
183,042	91,99
183,262	-49,32
183,482	-53,42
183,701	40,79
183,921	16,21
184,141	-16,55
184,361	159,57
184,58	59,22
184,8	30,55
185,02	-39,08
185,239	100,18
185,459	153,43
185,679	200,53
185,898	-88,23
186,118	55,12
186,338	75,6
186,557	83,8
186,777	-108,71
186,997	-57,51
187,216	10,07
187,436	182,1
187,655	100,18
187,875	79,7
188,095	34,64
188,314	141,14
188,534	94,04
188,753	-104,62
188,973	173,91
189,192	159,57
189,412	1,88
189,631	-32,94
189,851	100,18
190,07	75,6
190,29	-12,46
190,509	-47,27
190,729	34,64
190,948	91,99
191,168	259,92
191,387	102,23
191,607	-12,46
191,826	5,97
192,045	1,88
192,265	40,79
192,484	81,75
192,704	-20,65
192,923	-88,23
193,142	249,68
193,362	200,53
193,581	253,78
193,8	65,36
194,02	48,98
194,239	-26,79
194,458	116,56
194,678	20,31
194,897	-28,84
195,116	112,47
195,335	182,1
195,555	20,31
195,774	-53,42
195,993	112,47
196,212	18,26
196,432	-49,32
196,651	-32,94
196,87	-0,17
197,089	231,25
197,308	32,6
197,528	69,46
197,747	-104,62
197,966	75,6
198,185	130,9
198,404	-45,23
198,623	-2,22
198,842	106,32
199,062	135
199,281	75,6
199,5	3,93
199,719	34,64
199,938	73,56
200,157	28,5
200,376	55,12
200,595	165,71
200,814	48,98
201,033	16,21
201,252	184,15
201,471	71,51
201,69	59,22
201,909	77,65
202,128	116,56
202,347	161,62
202,566	65,36
202,785	-80,04
203,004	-12,46
203,223	317,26
203,442	12,12
203,661	-22,7
203,879	26,45
204,098	149,33
204,317	-16,55
204,536	118,61
204,755	116,56
204,974	190,29
205,193	-22,7
205,411	91,99
205,63	77,65
205,849	91,99
206,068	-6,31
206,287	-104,62
206,505	151,38
206,724	44,88
206,943	-53,42
207,162	-47,27
207,381	75,6
207,599	30,55
207,818	79,7
208,037	-22,7
208,255	51,03
208,474	-2,22
208,693	-14,51
208,911	46,93
209,13	147,28
209,349	65,36
209,567	108,37
209,786	8,02
210,005	124,76
210,223	-2,22
210,442	-133,29
210,661	69,46
210,879	91,99
211,098	-16,55
211,316	24,4
211,535	81,75
211,753	51,03
211,972	77,65
212,191	30,55
212,409	53,08
212,628	36,69
212,846	-16,55
213,065	79,7
213,283	69,46
213,502	65,36
213,72	91,99
213,938	28,5
214,157	36,69
214,375	69,46
214,594	36,69
214,812	94,04
215,031	-22,7
215,249	-14,51
215,467	-2,22
215,686	46,93
215,904	40,79
216,122	137,04
216,341	137,04
216,559	16,21
216,778	139,09
216,996	132,95
217,214	-39,08
217,432	34,64
217,651	-63,66
217,869	75,6
218,087	67,41
218,306	-0,17
218,524	59,22
218,742	16,21
218,96	108,37
219,179	1,88
219,397	14,17
219,615	255,83
219,833	91,99
220,051	-71,85
220,27	87,89
220,488	143,19
220,706	30,55
220,924	-18,6
221,142	-53,42
221,36	69,46
221,578	77,65
221,796	-43,18
222,015	-6,31
222,233	12,12
222,451	229,2
222,669	5,97
222,887	128,85
223,105	-20,65
223,323	18,26
223,541	-55,47
223,759	85,84
223,977	53,08
224,195	196,43
224,413	108,37
224,631	-37,03
224,849	106,32
225,067	130,9
225,285	8,02
225,503	-0,17
225,721	-112,81
225,939	24,4
226,157	34,64
226,375	190,29
226,592	-2,22
226,81	34,64
227,028	67,41
227,246	128,85
227,464	118,61
227,682	-14,51
227,9	73,56
228,117	106,32
228,335	114,52
228,553	61,27
228,771	3,93
228,989	22,36
229,206	112,47
229,424	-14,51
229,642	-28,84
229,86	-57,51
230,077	132,95
230,295	1,88
230,513	14,17
230,731	-0,17
230,948	204,63
231,166	210,77
231,384	5,97
231,601	-55,47
231,819	241,49
232,037	-16,55
232,254	-82,09
232,472	28,5
232,689	-10,41
232,907	75,6
233,125	36,69
233,342	-37,03
233,56	-10,41
233,777	-6,31
233,995	-20,65
234,213	96,08
234,43	186,19
234,648	14,17
234,865	53,08
235,083	55,12
235,3	36,69
235,518	122,71
235,735	114,52
235,953	83,8
236,17	-39,08
236,388	30,55
236,605	77,65
236,822	85,84
237,04	116,56
237,257	42,84
237,475	-73,9
237,692	83,8
237,909	51,03
238,127	1,88
238,344	96,08
238,562	55,12
238,779	-45,23
238,996	-12,46
239,214	51,03
239,431	46,93
239,648	10,07
239,865	63,32
240,083	128,85
240,3	-8,36
240,517	-6,31
240,735	100,18
240,952	26,45
241,169	26,45
241,386	161,62
241,603	-30,89
241,821	59,22
242,038	110,42
242,255	153,43
242,472	-12,46
242,689	69,46
242,907	128,85
243,124	18,26
243,341	63,32
243,558	-43,18
243,775	-43,18
243,992	-34,99
244,209	16,21
244,426	186,19
244,643	75,6
244,86	-0,17
245,078	141,14
245,295	34,64
245,512	20,31
245,729	-30,89
245,946	83,8
246,163	24,4
246,38	26,45
246,597	32,6
246,814	-18,6
247,031	32,6
247,248	28,5
247,464	155,47
247,681	51,03
247,898	102,23
248,115	71,51
248,332	-77,99
248,549	130,9
248,766	132,95
248,983	34,64
249,2	20,31
249,417	149,33
249,633	3,93
249,85	24,4
250,067	28,5
250,284	100,18
250,501	26,45
250,717	44,88
250,934	-45,23
251,151	42,84
251,368	77,65
251,585	118,61
251,801	10,07
252,018	-8,36
252,235	77,65
252,451	14,17
252,668	83,8
252,885	46,93
253,102	91,99
253,318	5,97
253,535	5,97
253,752	-34,99
253,968	-22,7
254,185	-39,08
254,401	79,7
254,618	106,32
254,835	-77,99
255,051	102,23
255,268	69,46
255,484	96,08
255,701	1,88
255,917	44,88
256,134	-4,27
256,351	18,26
256,567	-67,75
256,784	124,76
257	-90,28
257,217	161,62
257,433	98,13
257,65	100,18
257,866	126,8
258,082	-49,32
258,299	-71,85
258,515	53,08
258,732	-6,31
258,948	-61,61
259,165	55,12
259,381	-10,41
259,597	51,03
259,814	18,26
260,03	57,17
260,246	-112,81
260,463	122,71
260,679	180,05
260,895	55,12
261,112	42,84
261,328	-0,17
261,544	18,26
261,761	223,06
261,977	22,36
262,193	-4,27
262,409	112,47
262,626	-22,7
262,842	20,31
263,058	-55,47
263,274	112,47
263,49	104,28
263,707	-32,94
263,923	139,09
264,139	-8,36
264,355	18,26
264,571	89,94
264,787	173,91
265,004	67,41
265,22	18,26
265,436	-20,65
265,652	-8,36
265,868	91,99
266,084	20,31
266,3	26,45
266,516	16,21
266,732	12,12
266,948	-22,7
267,164	-10,41
267,38	110,42
267,596	24,4
267,812	151,38
268,028	77,65
268,244	10,07
268,46	42,84
268,676	65,36
268,892	20,31
269,108	-37,03
269,324	44,88
269,54	-28,84
269,756	94,04
269,972	-61,61
270,188	38,74
270,403	-34,99
270,619	91,99
270,835	124,76
271,051	40,79
271,267	-12,46
271,483	-45,23
271,698	16,21
271,914	48,98
272,13	57,17
272,346	34,64
272,562	36,69
272,777	116,56
272,993	-6,31
273,209	-22,7
273,425	24,4
273,64	-2,22
273,856	104,28
274,072	53,08
274,287	-16,55
274,503	71,51
274,719	91,99
274,934	1,88
275,15	-92,33
275,366	71,51
275,581	-37,03
275,797	40,79
276,012	34,64
276,228	-20,65
276,444	28,5
276,659	110,42
276,875	-55,47
277,09	-18,6
277,306	-43,18
277,521	65,36
277,737	-6,31
277,952	124,76
278,168	57,17
278,383	-12,46
278,599	46,93
278,814	112,47
279,03	-39,08
279,245	122,71
279,461	-45,23
279,676	116,56
279,892	-14,51
280,107	-94,38
280,322	38,74
280,538	67,41
280,753	-71,85
280,969	53,08
281,184	42,84
281,399	196,43
281,615	30,55
281,83	12,12
282,045	-34,99
282,26	-63,66
282,476	83,8
282,691	65,36
282,906	63,32
283,122	40,79
283,337	-26,79
283,552	51,03
283,767	16,21
283,983	135
284,198	128,85
284,413	51,03
284,628	-49,32
284,843	89,94
285,058	147,28
285,274	10,07
285,489	26,45
285,704	69,46
285,919	26,45
286,134	42,84
286,349	71,51
286,564	-47,27
286,779	122,71
286,995	-2,22
287,21	-129,19
287,425	75,6
287,64	18,26
287,855	-0,17
288,07	-104,62
288,285	57,17
288,5	85,84
288,715	55,12
288,93	83,8
289,145	-18,6
289,36	-14,51
289,575	16,21
289,79	159,57
290,004	-55,47
290,219	18,26
290,434	40,79
290,649	-18,6
290,864	-14,51
291,079	14,17
291,294	18,26
291,509	108,37
291,724	16,21
291,938	-55,47
292,153	57,17
292,368	48,98
292,583	85,84
292,798	65,36
293,012	65,36
293,227	57,17
293,442	-30,89
293,657	63,32
293,871	141,14
294,086	51,03
294,301	218,96
294,516	165,71
294,73	34,64
294,945	-86,19
295,16	1,88
295,374	120,66
295,589	151,38
295,804	8,02
296,018	44,88
296,233	91,99
296,447	79,7
296,662	3,93
296,877	165,71
297,091	-12,46
297,306	94,04
297,52	59,22
297,735	91,99
297,949	-55,47
298,164	22,36
298,378	-14,51
298,593	-26,79
298,807	-4,27
299,022	42,84
299,236	147,28
299,451	-4,27
299,665	-18,6
299,88	-2,22
300,094	59,22
300,309	36,69
300,523	69,46
300,737	-24,75
300,952	36,69
301,166	77,65
301,381	-28,84
301,595	18,26
301,809	8,02
302,024	36,69
302,238	-32,94
302,452	91,99
302,667	-0,17
302,881	104,28
303,095	116,56
303,309	12,12
303,524	-20,65
303,738	-4,27
303,952	18,26
304,166	26,45
304,381	-112,81
304,595	159,57
304,809	8,02
305,023	10,07
305,237	85,84
305,452	16,21
305,666	120,66
305,88	126,8
306,094	159,57
306,308	102,23
306,522	106,32
306,736	96,08
306,95	141,14
307,164	110,42
307,379	12,12
307,593	104,28
307,807	157,52
308,021	94,04
308,235	159,57
308,449	-121
308,663	59,22
308,877	229,2
309,091	24,4
309,305	34,64
309,519	-106,67
309,733	98,13
309,947	-43,18
310,161	149,33
310,374	104,28
310,588	96,08
310,802	-0,17
311,016	-39,08
311,23	67,41
311,444	20,31
311,658	18,26
311,872	141,14
312,085	165,71
312,299	124,76
312,513	100,18
312,727	22,36
312,941	16,21
313,154	16,21
313,368	34,64
313,582	85,84
313,796	28,5
314,009	83,8
314,223	208,72
314,437	139,09
314,651	104,28
314,864	-12,46
315,078	110,42
315,292	-49,32
315,505	-18,6
315,719	151,38
315,933	77,65
316,146	-98,47
316,36	-51,37
316,573	190,29
316,787	67,41
317,001	51,03
317,214	-18,6
317,428	22,36
317,641	22,36
317,855	22,36
318,068	36,69
318,282	75,6
318,495	120,66
318,709	145,24
318,922	-4,27
319,136	182,1
319,349	89,94
319,563	-12,46
319,776	132,95
319,99	-39,08
320,203	91,99
320,417	48,98
320,63	151,38
320,843	157,52
321,057	75,6
321,27	-18,6
321,483	67,41
321,697	128,85
321,91	-14,51
322,124	51,03
322,337	139,09
322,55	24,4
322,763	108,37
322,977	32,6
323,19	-59,56
323,403	-14,51
323,617	118,61
323,83	143,19
324,043	-8,36
324,256	67,41
324,469	30,55
324,683	157,52
324,896	83,8
325,109	26,45
325,322	-45,23
325,535	61,27
325,748	77,65
325,962	-34,99
326,175	-6,31
326,388	65,36
326,601	116,56
326,814	-37,03
327,027	-41,13
327,24	126,8
327,453	-84,14
327,666	104,28
327,879	126,8
328,092	65,36
328,305	83,8
328,518	75,6
328,731	-14,51
328,944	12,12
329,157	91,99
329,37	30,55
329,583	200,53
329,796	141,14
330,009	-16,55
330,222	69,46
330,435	89,94
330,648	14,17
330,861	57,17
331,073	8,02
331,286	171,86
331,499	48,98
331,712	-14,51
331,925	75,6
332,138	28,5
332,35	120,66
332,563	-20,65
332,776	194,39
332,989	16,21
333,202	34,64
333,414	22,36
333,627	114,52
333,84	85,84
334,053	42,84
334,265	79,7
334,478	48,98
334,691	83,8
334,903	65,36
335,116	69,46
335,329	36,69
335,541	57,17
335,754	206,67
335,966	153,43
336,179	91,99
336,392	20,31
336,604	38,74
336,817	139,09
337,029	132,95
337,242	34,64
337,454	75,6
337,667	130,9
337,88	137,04
338,092	22,36
338,305	67,41
338,517	-10,41
338,729	124,76
338,942	155,47
339,154	32,6
339,367	-61,61
339,579	42,84
339,792	-67,75
340,004	83,8
340,217	130,9
340,429	48,98
340,641	-4,27
340,854	-0,17
341,066	5,97
341,278	251,73
341,491	157,52
341,703	91,99
341,915	-18,6
342,128	145,24
342,34	106,32
342,552	42,84
342,764	77,65
342,977	112,47
343,189	83,8
343,401	69,46
343,613	-73,9
343,826	118,61
344,038	-6,31
344,25	-8,36
344,462	26,45
344,674	46,93
344,886	-18,6
345,099	149,33
345,311	32,6
345,523	16,21
345,735	-18,6
345,947	96,08
346,159	89,94
346,371	32,6
346,583	20,31
346,795	218,96
347,007	75,6
347,219	104,28
347,431	71,51
347,643	116,56
347,855	-10,41
348,067	221,01
348,279	-45,23
348,491	81,75
348,703	96,08
348,915	69,46
349,127	57,17
349,339	10,07
349,551	5,97
349,763	159,57
349,975	55,12
350,187	165,71
350,399	186,19
350,61	98,13
350,822	98,13
351,034	124,76
351,246	75,6
351,458	94,04
351,669	63,32
351,881	151,38
352,093	118,61
352,305	159,57
352,517	91,99
352,728	143,19
352,94	57,17
353,152	120,66
353,363	18,26
353,575	87,89
353,787	145,24
353,999	69,46
354,21	196,43
354,422	30,55
354,633	69,46
354,845	46,93
355,057	96,08
355,268	55,12
355,48	141,14
355,692	-43,18
355,903	98,13
356,115	61,27
356,326	-94,38
356,538	218,96
356,749	63,32
356,961	194,39
357,172	120,66
357,384	10,07
357,595	292,69
357,807	108,37
358,018	48,98
358,23	73,56
358,441	251,73
358,653	118,61
358,864	28,5
359,075	79,7
359,287	42,84
359,498	98,13
359,709	110,42
359,921	85,84
360,132	57,17
360,344	122,71
360,555	-2,22
360,766	128,85
360,977	124,76
361,189	141,14
361,4	36,69
361,611	169,81
361,823	110,42
362,034	96,08
362,245	36,69
362,456	98,13
362,667	147,28
362,879	3,93
363,09	85,84
363,301	51,03
363,512	42,84
363,723	14,17
363,935	108,37
364,146	124,76
364,357	55,12
364,568	89,94
364,779	-61,61
364,99	180,05
365,201	65,36
365,412	96,08
365,623	-75,95
365,834	128,85
366,045	75,6
366,256	126,8
366,467	128,85
366,678	55,12
366,889	77,65
367,1	61,27
367,311	173,91
367,522	51,03
367,733	77,65
367,944	122,71
368,155	59,22
368,366	139,09
368,577	186,19
368,788	171,86
368,999	22,36
369,209	135
369,42	206,67
369,631	290,64
369,842	200,53
370,053	38,74
370,264	110,42
370,474	-41,13
370,685	79,7
370,896	65,36
371,107	202,58
371,317	161,62
371,528	-88,23
371,739	198,48
371,95	108,37
372,16	124,76
372,371	-4,27
372,582	26,45
372,792	188,24
373,003	67,41
373,214	141,14
373,424	165,71
373,635	-34,99
373,846	116,56
374,056	169,81
374,267	94,04
374,477	51,03
374,688	10,07
374,898	145,24
375,109	116,56
375,319	91,99
375,53	106,32
375,74	139,09
375,951	79,7
376,161	182,1
376,372	241,49
376,582	71,51
376,793	110,42
377,003	55,12
377,214	-51,37
377,424	122,71
377,635	61,27
377,845	3,93
378,055	122,71
378,266	55,12
378,476	40,79
378,686	153,43
378,897	137,04
379,107	157,52
379,317	83,8
379,528	20,31
379,738	135
379,948	34,64
380,158	128,85
380,369	130,9
380,579	102,23
380,789	91,99
380,999	165,71
381,21	149,33
381,42	249,68
381,63	79,7
381,84	124,76
382,05	139,09
382,261	135
382,471	151,38
382,681	34,64
382,891	139,09
383,101	151,38
383,311	3,93
383,521	36,69
383,731	53,08
383,941	155,47
384,151	206,67
384,361	34,64
384,571	91,99
384,781	22,36
384,991	227,15
385,201	259,92
385,411	151,38
385,621	67,41
385,831	57,17
386,041	124,76
386,251	96,08
386,461	167,76
386,671	36,69
386,881	83,8
387,091	48,98
387,301	212,82
387,511	75,6
387,72	188,24
387,93	171,86
388,14	-67,75
388,35	100,18
388,56	184,15
388,769	272,21
388,979	34,64
389,189	26,45
389,399	106,32
389,609	173,91
389,818	200,53
390,028	141,14
390,238	116,56
390,447	20,31
390,657	104,28
390,867	36,69
391,076	-65,71
391,286	118,61
391,496	100,18
391,705	65,36
391,915	165,71
392,125	214,87
392,334	40,79
392,544	223,06
392,753	75,6
392,963	32,6
393,172	30,55
393,382	59,22
393,591	206,67
393,801	-8,36
394,01	204,63
394,22	110,42
394,429	110,42
394,639	104,28
394,848	151,38
395,058	106,32
395,267	57,17
395,477	145,24
395,686	198,48
395,895	282,45
396,105	362,32
396,314	178
396,524	143,19
396,733	108,37
396,942	218,96
397,152	130,9
397,361	182,1
397,57	190,29
397,78	85,84
397,989	85,84
398,198	249,68
398,407	153,43
398,617	38,74
398,826	114,52
399,035	38,74
399,244	149,33
399,453	16,21
399,663	75,6
399,872	120,66
400,081	-55,47
400,29	126,8
400,499	-53,42
400,708	132,95
400,917	44,88
401,127	16,21
401,336	73,56
401,545	147,28
401,754	118,61
401,963	173,91
402,172	-6,31
402,381	-71,85
402,59	28,5
402,799	118,61
403,008	116,56
403,217	-12,46
403,426	89,94
403,635	-55,47
403,844	22,36
404,053	44,88
404,262	100,18
404,471	102,23
404,68	81,75
404,888	65,36
405,097	71,51
405,306	147,28
405,515	77,65
405,724	38,74
405,933	159,57
406,142	48,98
406,35	141,14
406,559	57,17
406,768	87,89
406,977	214,87
407,185	141,14
407,394	87,89
407,603	-0,17
407,812	126,8
408,02	192,34
408,229	61,27
408,438	173,91
408,646	81,75
408,855	184,15
409,064	139,09
409,272	194,39
409,481	321,36
409,69	173,91
409,898	122,71
410,107	380,75
410,315	317,26
410,524	212,82
410,733	184,15
410,941	159,57
411,15	280,4
411,358	225,11
411,567	300,88
411,775	135
411,984	57,17
412,192	114,52
412,401	-20,65
412,609	264,02
412,818	163,67
413,026	44,88
413,234	71,51
413,443	98,13
413,651	42,84
413,86	30,55
414,068	178
414,276	204,63
414,485	59,22
414,693	278,35
414,901	225,11
415,11	30,55
415,318	55,12
415,526	26,45
415,734	194,39
415,943	124,76
416,151	143,19
416,359	48,98
416,567	116,56
416,776	180,05
416,984	116,56
417,192	165,71
417,4	69,46
417,608	18,26
417,817	36,69
418,025	175,95
418,233	182,1
418,441	-69,8
418,649	-22,7
418,857	96,08
419,065	132,95
419,273	53,08
419,481	34,64
419,689	83,8
419,897	96,08
420,105	22,36
420,313	126,8
420,521	233,3
420,729	225,11
420,937	-75,95
421,145	-67,75
421,353	139,09
421,561	190,29
421,769	178
421,977	-32,94
422,185	73,56
422,393	106,32
422,601	169,81
422,809	26,45
423,017	34,64
423,224	91,99
423,432	69,46
423,64	55,12
423,848	135
424,056	-18,6
424,263	167,76
424,471	18,26
424,679	132,95
424,887	-110,76
425,094	124,76
425,302	14,17
425,51	77,65
425,718	206,67
425,925	102,23
426,133	1,88
426,341	145,24
426,548	14,17
426,756	3,93
426,964	36,69
427,171	-14,51
427,379	34,64
427,586	26,45
427,794	61,27
428,001	98,13
428,209	137,04
428,417	206,67
428,624	81,75
428,832	167,76
429,039	51,03
429,247	71,51
429,454	73,56
429,662	167,76
429,869	-6,31
430,076	94,04
430,284	48,98
430,491	139,09
430,699	116,56
430,906	171,86
431,114	77,65
431,321	67,41
431,528	98,13
431,736	94,04
431,943	147,28
432,15	280,4
432,358	278,35
432,565	483,15
432,772	388,94
432,979	606,03
433,187	640,84
433,394	950,09
433,601	821,06
433,808	952,13
434,016	880,46
434,223	1052,49
434,43	964,42
434,637	870,22
434,844	753,48
435,052	583,5
435,259	567,12
435,466	477,01
435,673	282,45
435,88	214,87
436,087	290,64
436,294	241,49
436,501	198,48
436,708	98,13
436,915	55,12
437,122	151,38
437,329	-6,31
437,537	32,6
437,743	42,84
437,95	210,77
438,157	67,41
438,364	87,89
438,571	132,95
438,778	100,18
438,985	67,41
439,192	77,65
439,399	20,31
439,606	83,8
439,813	147,28
440,02	202,58
440,227	270,16
440,433	137,04
440,64	67,41
440,847	5,97
441,054	12,12
441,261	110,42
441,467	61,27
441,674	32,6
441,881	96,08
442,088	61,27
442,294	67,41
442,501	151,38
442,708	155,47
442,914	67,41
443,121	110,42
443,328	71,51
443,534	51,03
443,741	98,13
443,948	-6,31
444,154	128,85
444,361	225,11
444,568	79,7
444,774	63,32
444,981	-28,84
445,187	139,09
445,394	55,12
445,6	34,64
445,807	24,4
446,013	98,13
446,22	-71,85
446,426	55,12
446,633	46,93
446,839	243,54
447,046	-67,75
447,252	175,95
447,459	3,93
447,665	71,51
447,871	122,71
448,078	149,33
448,284	79,7
448,491	188,24
448,697	63,32
448,903	102,23
449,11	36,69
449,316	-10,41
449,522	155,47
449,728	100,18
449,935	151,38
450,141	3,93
450,347	198,48
450,553	104,28
450,76	96,08
450,966	108,37
451,172	89,94
451,378	-26,79
451,584	71,51
451,791	241,49
451,997	-18,6
452,203	-41,13
452,409	122,71
452,615	145,24
452,821	34,64
453,027	57,17
453,233	143,19
453,44	26,45
453,646	42,84
453,852	20,31
454,058	-28,84
454,264	145,24
454,47	100,18
454,676	-10,41
454,882	110,42
455,088	96,08
455,294	34,64
455,5	141,14
455,705	173,91
455,911	71,51
456,117	14,17
456,323	67,41
456,529	139,09
456,735	44,88
456,941	114,52
457,147	91,99
457,352	69,46
457,558	-57,51
457,764	106,32
457,97	-4,27
458,176	67,41
458,381	116,56
458,587	171,86
458,793	69,46
458,999	57,17
459,204	-8,36
459,41	-39,08
459,616	102,23
459,821	98,13
460,027	-18,6
460,233	81,75
460,438	110,42
460,644	83,8
460,85	126,8
461,055	69,46
461,261	20,31
461,466	73,56
461,672	69,46
461,878	14,17
462,083	184,15
462,289	-18,6
462,494	44,88
462,7	44,88
462,905	30,55
463,111	139,09
463,316	221,01
463,522	165,71
463,727	67,41
463,932	91,99
464,138	89,94
464,343	94,04
464,549	200,53
464,754	231,25
464,959	118,61
465,165	1,88
465,37	108,37
465,575	104,28
465,781	20,31
465,986	87,89
466,191	38,74
466,397	98,13
466,602	161,62
466,807	-6,31
467,012	106,32
467,218	114,52
467,423	38,74
467,628	34,64
467,833	26,45
468,038	67,41
468,244	-90,28
468,449	-47,27
468,654	81,75
468,859	32,6
469,064	83,8
469,269	18,26
469,474	102,23
469,679	233,3
469,885	65,36
470,09	18,26
470,295	38,74
470,5	-39,08
470,705	108,37
470,91	124,76
471,115	73,56
471,32	100,18
471,525	214,87
471,73	202,58
471,935	59,22
472,139	30,55
472,344	3,93
472,549	108,37
472,754	83,8
472,959	153,43
473,164	81,75
473,369	122,71
473,574	137,04
473,778	73,56
473,983	102,23
474,188	161,62
474,393	-2,22
474,598	12,12
474,802	30,55
475,007	16,21
475,212	206,67
475,417	102,23
475,621	180,05
475,826	1,88
476,031	114,52
476,235	94,04
476,44	65,36
476,645	44,88
476,849	18,26
477,054	22,36
477,259	81,75
477,463	182,1
477,668	237,39
477,872	202,58
478,077	59,22
478,282	30,55
478,486	83,8
478,691	106,32
478,895	61,27
479,1	159,57
479,304	175,95
479,509	48,98
479,713	196,43
479,918	141,14
480,122	83,8
480,326	77,65
480,531	12,12
480,735	137,04
480,94	20,31
481,144	210,77
481,348	161,62
481,553	157,52
481,757	65,36
481,961	128,85
482,166	85,84
482,37	126,8
482,574	63,32
482,778	32,6
482,983	116,56
483,187	59,22
483,391	128,85
483,595	143,19
483,8	403,28
484,004	851,78
484,208	1277,76
484,412	2092,85
484,616	3225,38
484,821	4663,05
485,025	5824,25
485,229	7540,45
485,433	8715,98
485,637	9903,81
485,841	10542,77
486,045	10911,41
486,249	10622,64
486,453	9875,13
486,657	8892,11
486,861	7890,65
487,065	6608,62
487,269	5584,64
487,473	4271,89
487,677	3702,56
487,881	3170,08
488,085	2328,37
488,289	1845,05
488,493	1273,67
488,697	1093,44
488,901	708,43
489,105	395,09
489,309	237,39
489,512	333,65
489,716	257,87
489,92	120,66
490,124	239,44
490,328	229,2
490,531	89,94
490,735	208,72
490,939	85,84
491,143	104,28
491,346	79,7
491,55	157,52
491,754	91,99
491,958	161,62
492,161	87,89
492,365	83,8
492,569	38,74
492,772	173,91
492,976	247,63
493,18	96,08
493,383	145,24
493,587	96,08
493,79	202,58
493,994	102,23
494,197	67,41
494,401	94,04
494,605	48,98
494,808	139,09
495,012	120,66
495,215	204,63
495,419	276,31
495,622	34,64
495,825	-16,55
496,029	44,88
496,232	151,38
496,436	30,55
496,639	223,06
496,843	53,08
497,046	-34,99
497,249	169,81
497,453	91,99
497,656	59,22
497,859	81,75
498,063	120,66
498,266	165,71
498,469	-51,37
498,673	40,79
498,876	34,64
499,079	85,84
499,282	18,26
499,485	331,6
499,689	85,84
499,892	128,85
500,095	48,98
500,298	67,41
500,501	14,17
500,705	87,89
500,908	110,42
501,111	-10,41
501,314	79,7
501,517	204,63
501,72	184,15
501,923	55,12
502,126	65,36
502,329	71,51
502,532	53,08
502,735	137,04
502,938	239,44
503,141	114,52
503,344	14,17
503,547	173,91
503,75	38,74
503,953	48,98
504,156	48,98
504,359	75,6
504,562	71,51
504,765	51,03
504,968	180,05
505,17	96,08
505,373	104,28
505,576	137,04
505,779	55,12
505,982	34,64
506,185	100,18
506,387	-49,32
506,59	87,89
506,793	-45,23
506,996	38,74
507,198	204,63
507,401	204,63
507,604	194,39
507,807	71,51
508,009	75,6
508,212	135
508,415	28,5
508,617	-26,79
508,82	61,27
509,022	85,84
509,225	79,7
509,428	-6,31
509,63	-26,79
509,833	75,6
510,035	274,26
510,238	124,76
510,44	24,4
510,643	96,08
510,845	159,57
511,048	223,06
511,25	128,85
511,453	96,08
511,655	124,76
511,858	196,43
512,06	157,52
512,262	69,46
512,465	46,93
512,667	102,23
512,87	-47,27
513,072	225,11
513,274	94,04
513,477	34,64
513,679	20,31
513,881	126,8
514,084	51,03
514,286	135
514,488	91,99
514,69	42,84
514,893	5,97
515,095	5,97
515,297	83,8
515,499	83,8
515,701	5,97
515,904	159,57
516,106	147,28
516,308	173,91
516,51	112,47
516,712	3,93
516,914	145,24
517,116	34,64
517,318	46,93
517,52	22,36
517,722	85,84
517,925	12,12
518,127	81,75
518,329	135
518,531	-30,89
518,733	135
518,935	-41,13
519,136	67,41
519,338	32,6
519,54	20,31
519,742	67,41
519,944	190,29
520,146	124,76
520,348	53,08
520,55	165,71
520,752	34,64
520,954	-26,79
521,155	75,6
521,357	83,8
521,559	122,71
521,761	173,91
521,963	180,05
522,164	81,75
522,366	83,8
522,568	104,28
522,77	151,38
522,971	145,24
523,173	-12,46
523,375	173,91
523,576	61,27
523,778	5,97
523,98	-45,23
524,181	55,12
524,383	106,32
524,584	87,89
524,786	53,08
524,988	36,69
525,189	61,27
525,391	157,52
525,592	-22,7
525,794	-4,27
525,995	67,41
526,197	61,27
526,398	249,68
526,6	112,47
526,801	98,13
527,003	-84,14
527,204	85,84
527,406	98,13
527,607	77,65
527,808	116,56
528,01	57,17
528,211	87,89
528,412	-67,75
528,614	73,56
528,815	153,43
529,016	118,61
529,218	61,27
529,419	118,61
529,62	46,93
529,822	118,61
530,023	65,36
530,224	106,32
530,425	85,84
530,626	59,22
530,828	81,75
531,029	-4,27
531,23	20,31
531,431	46,93
531,632	75,6
531,833	28,5
532,035	94,04
532,236	26,45
532,437	83,8
532,638	75,6
532,839	16,21
533,04	96,08
533,241	132,95
533,442	81,75
533,643	18,26
533,844	-0,17
534,045	26,45
534,246	102,23
534,447	-2,22
534,648	59,22
534,849	126,8
535,05	-16,55
535,251	12,12
535,451	130,9
535,652	-2,22
535,853	77,65
536,054	61,27
536,255	145,24
536,456	118,61
536,657	67,41
536,857	83,8
537,058	120,66
537,259	38,74
537,46	-2,22
537,66	44,88
537,861	10,07
538,062	53,08
538,263	-67,75
538,463	100,18
538,664	135
538,865	-2,22
539,065	83,8
539,266	85,84
539,466	26,45
539,667	165,71
539,868	77,65
540,068	75,6
540,269	161,62
540,469	53,08
540,67	124,76
540,87	116,56
541,071	59,22
541,271	112,47
541,472	104,28
541,672	124,76
541,873	116,56
542,073	51,03
542,274	91,99
542,474	83,8
542,675	91,99
542,875	51,03
543,075	-80,04
543,276	24,4
543,476	61,27
543,676	85,84
543,877	-0,17
544,077	91,99
544,277	124,76
544,478	94,04
544,678	20,31
544,878	-4,27
545,078	-20,65
545,279	-12,46
545,479	8,02
545,679	44,88
545,879	-51,37
546,079	96,08
546,28	-39,08
546,48	36,69
546,68	143,19
546,88	132,95
547,08	106,32
547,28	128,85
547,48	-43,18
547,68	100,18
547,88	30,55
548,081	77,65
548,281	-39,08
548,481	-41,13
548,681	67,41
548,881	44,88
549,081	155,47
549,28	-26,79
549,48	-12,46
549,68	96,08
549,88	59,22
550,08	-43,18
550,28	83,8
550,48	157,52
550,68	-63,66
550,88	20,31
551,08	75,6
551,279	108,37
551,479	-4,27
551,679	83,8
551,879	34,64
552,079	44,88
552,278	89,94
552,478	116,56
552,678	55,12
552,878	87,89
553,077	10,07
553,277	14,17
553,477	40,79
553,676	180,05
553,876	89,94
554,076	53,08
554,275	137,04
554,475	46,93
554,674	137,04
554,874	18,26
555,074	-37,03
555,273	51,03
555,473	85,84
555,672	12,12
555,872	38,74
556,071	67,41
556,271	208,72
556,47	5,97
556,67	-34,99
556,869	1,88
557,068	20,31
557,268	75,6
557,467	28,5
557,667	223,06
557,866	63,32
558,065	135
558,265	87,89
558,464	14,17
558,663	71,51
558,863	79,7
559,062	-22,7
559,261	-43,18
559,461	89,94
559,66	77,65
559,859	-92,33
560,058	-14,51
560,258	-45,23
560,457	8,02
560,656	182,1
560,855	-32,94
561,054	48,98
561,253	83,8
561,453	12,12
561,652	-6,31
561,851	151,38
562,05	-6,31
562,249	53,08
562,448	122,71
562,647	-4,27
562,846	73,56
563,045	57,17
563,244	106,32
563,443	151,38
563,642	69,46
563,841	122,71
564,04	94,04
564,239	120,66
564,438	110,42
564,637	-20,65
564,836	12,12
565,035	24,4
565,234	3,93
565,432	94,04
565,631	151,38
565,83	102,23
566,029	63,32
566,228	20,31
566,427	137,04
566,625	-41,13
566,824	91,99
567,023	40,79
567,222	51,03
567,42	94,04
567,619	65,36
567,818	73,56
568,016	206,67
568,215	89,94
568,414	118,61
568,612	-55,47
568,811	151,38
569,01	53,08
569,208	100,18
569,407	89,94
569,605	175,95
569,804	75,6
570,002	186,19
570,201	-47,27
570,4	149,33
570,598	83,8
570,797	63,32
570,995	16,21
571,193	149,33
571,392	126,8
571,59	36,69
571,789	110,42
571,987	151,38
572,186	190,29
572,384	67,41
572,582	159,57
572,781	214,87
572,979	67,41
573,177	65,36
573,376	81,75
573,574	190,29
573,772	118,61
573,971	-8,36
574,169	5,97
574,367	141,14
574,565	26,45
574,763	85,84
574,962	98,13
575,16	116,56
575,358	94,04
575,556	98,13
575,754	102,23
575,952	108,37
576,151	169,81
576,349	132,95
576,547	40,79
576,745	102,23
576,943	135
577,141	128,85
577,339	51,03
577,537	114,52
577,735	200,53
577,933	108,37
578,131	48,98
578,329	233,3
578,527	85,84
578,725	157,52
578,923	12,12
579,121	194,39
579,319	-20,65
579,516	30,55
579,714	374,61
579,912	128,85
580,11	53,08
580,308	69,46
580,506	87,89
580,704	-28,84
580,901	5,97
581,099	261,97
581,297	192,34
581,495	184,15
581,692	132,95
581,89	323,41
582,088	171,86
582,285	147,28
582,483	83,8
582,681	102,23
582,878	100,18
583,076	165,71
583,274	153,43
583,471	223,06
583,669	141,14
583,866	104,28
584,064	91,99
584,262	1,88
584,459	-4,27
584,657	116,56
584,854	126,8
585,052	173,91
585,249	147,28
585,447	198,48
585,644	96,08
585,841	223,06
586,039	122,71
586,236	206,67
586,434	63,32
586,631	51,03
586,828	112,47
587,026	153,43
587,223	10,07
587,42	34,64
587,618	139,09
587,815	192,34
588,012	106,32
588,21	36,69
588,407	81,75
588,604	180,05
588,801	116,56
588,999	151,38
589,196	143,19
589,393	96,08
589,59	190,29
589,787	180,05
589,984	98,13
590,182	141,14
590,379	71,51
590,576	61,27
590,773	57,17
590,97	71,51
591,167	102,23
591,364	137,04
591,561	69,46
591,758	178
591,955	96,08
592,152	75,6
592,349	18,26
592,546	42,84
592,743	3,93
592,94	210,77
593,137	132,95
593,334	180,05
593,531	118,61
593,727	106,32
593,924	173,91
594,121	75,6
594,318	130,9
594,515	128,85
594,712	290,64
594,908	190,29
595,105	-24,75
595,302	173,91
595,499	137,04
595,696	184,15
595,892	102,23
596,089	157,52
596,286	73,56
596,482	165,71
596,679	157,52
596,876	100,18
597,072	132,95
597,269	100,18
597,466	132,95
597,662	38,74
597,859	14,17
598,055	36,69
598,252	87,89
598,448	208,72
598,645	143,19
598,841	165,71
599,038	171,86
599,234	231,25
599,431	141,14
599,627	75,6
599,824	143,19
600,02	1,88
600,217	44,88
600,413	120,66
600,609	135
600,806	345,94
601,002	157,52
601,198	10,07
601,395	247,63
601,591	118,61
601,787	124,76
601,984	184,15
602,18	132,95
602,376	98,13
602,572	141,14
602,769	198,48
602,965	51,03
603,161	223,06
603,357	204,63
603,553	257,87
603,75	100,18
603,946	55,12
604,142	128,85
604,338	302,93
604,534	102,23
604,73	100,18
604,926	96,08
605,122	204,63
605,318	83,8
605,514	180,05
605,71	159,57
605,906	118,61
606,102	28,5
606,298	169,81
606,494	124,76
606,69	192,34
606,886	12,12
607,082	128,85
607,278	77,65
607,474	161,62
607,67	112,47
607,866	40,79
608,062	173,91
608,257	198,48
608,453	8,02
608,649	157,52
608,845	65,36
609,041	-22,7
609,236	38,74
609,432	141,14
609,628	108,37
609,824	65,36
610,019	75,6
610,215	91,99
610,411	137,04
610,606	261,97
610,802	42,84
610,998	114,52
611,193	51,03
611,389	32,6
611,584	73,56
611,78	-4,27
611,976	122,71
612,171	276,31
612,367	69,46
612,562	89,94
612,758	178
612,953	-94,38
613,149	46,93
613,344	55,12
613,539	71,51
613,735	100,18
613,93	63,32
614,126	53,08
614,321	135
614,517	239,44
614,712	118,61
614,907	102,23
615,103	139,09
615,298	71,51
615,493	57,17
615,688	46,93
615,884	124,76
616,079	46,93
616,274	22,36
616,47	83,8
616,665	20,31
616,86	71,51
617,055	-22,7
617,25	-30,89
617,445	96,08
617,641	14,17
617,836	-2,22
618,031	1,88
618,226	73,56
618,421	153,43
618,616	-28,84
618,811	57,17
619,006	-32,94
619,201	157,52
619,396	30,55
619,591	-24,75
619,786	63,32
619,981	151,38
620,176	79,7
620,371	-6,31
620,566	77,65
620,761	135
620,956	26,45
621,151	46,93
621,346	96,08
621,541	-30,89
621,735	79,7
621,93	96,08
622,125	79,7
622,32	-69,8
622,515	-86,19
622,709	171,86
622,904	171,86
623,099	65,36
623,294	104,28
623,488	124,76
623,683	112,47
623,878	83,8
624,072	190,29
624,267	-26,79
624,462	-6,31
624,656	-10,41
624,851	28,5
625,046	42,84
625,24	-0,17
625,435	28,5
625,629	77,65
625,824	208,72
626,018	145,24
626,213	175,95
626,407	14,17
626,602	128,85
626,796	16,21
626,991	100,18
627,185	-12,46
627,38	135
627,574	139,09
627,768	169,81
627,963	106,32
628,157	116,56
628,352	75,6
628,546	34,64
628,74	126,8
628,935	30,55
629,129	24,4
629,323	130,9
629,517	-47,27
629,712	-75,95
629,906	16,21
630,1	233,3
630,294	135
630,489	61,27
630,683	75,6
630,877	75,6
631,071	184,15
631,265	36,69
631,459	137,04
631,653	-0,17
631,848	61,27
632,042	83,8
632,236	1,88
632,43	126,8
632,624	63,32
632,818	-6,31
633,012	96,08
633,206	71,51
633,4	-16,55
633,594	96,08
633,788	110,42
633,982	61,27
634,176	196,43
634,369	55,12
634,563	18,26
634,757	-77,99
634,951	91,99
635,145	159,57
635,339	51,03
635,533	143,19
635,726	96,08
635,92	137,04
636,114	24,4
636,308	46,93
636,501	14,17
636,695	114,52
636,889	-67,75
637,083	130,9
637,276	12,12
637,47	-61,61
637,664	14,17
637,857	-2,22
638,051	10,07
638,244	81,75
638,438	122,71
638,632	196,43
638,825	-96,43
639,019	198,48
639,212	14,17
639,406	147,28
639,599	18,26
639,793	135
639,986	118,61
640,18	178
640,373	77,65
640,567	22,36
640,76	143,19
640,954	118,61
641,147	28,5
641,34	77,65
641,534	51,03
641,727	120,66
641,92	83,8
642,114	122,71
642,307	14,17
642,5	116,56
642,694	73,56
642,887	18,26
643,08	235,35
643,273	165,71
643,467	46,93
643,66	34,64
643,853	20,31
644,046	116,56
644,239	48,98
644,432	12,12
644,626	30,55
644,819	32,6
645,012	14,17
645,205	200,53
645,398	159,57
645,591	-20,65
645,784	18,26
645,977	44,88
646,17	71,51
646,363	53,08
646,556	26,45
646,749	-39,08
646,942	85,84
647,135	153,43
647,328	61,27
647,521	87,89
647,714	26,45
647,907	106,32
648,099	22,36
648,292	124,76
648,485	75,6
648,678	59,22
648,871	26,45
649,064	173,91
649,256	-80,04
649,449	65,36
649,642	-71,85
649,835	46,93
650,027	59,22
650,22	65,36
650,413	91,99
650,605	96,08
650,798	51,03
650,991	102,23
651,183	143,19
651,376	206,67
651,568	167,76
651,761	186,19
651,954	210,77
652,146	91,99
652,339	145,24
652,531	274,26
652,724	104,28
652,916	153,43
653,109	10,07
653,301	120,66
653,494	218,96
653,686	200,53
653,879	352,08
654,071	268,11
654,263	323,41
654,456	704,33
654,648	2217,78
654,84	6741,74
655,033	15371,88
655,225	25810,38
655,417	37260,57
655,61	47713,41
655,802	56134,65
655,994	60703,67
656,186	62372,77
656,379	59808,71
656,571	55884,8
656,763	49448,03
656,955	45597,85
657,148	41772,25
657,34	37752,09
657,532	33690,96
657,724	30395,78
657,916	26713,53
658,108	23199,22
658,3	19463,72
658,492	16180,83
658,684	12934,8
658,876	10913,45
659,068	8591,06
659,26	6776,56
659,452	4865,8
659,644	3651,36
659,836	2633,52
660,028	1926,97
660,22	1302,34
660,412	980,81
660,604	708,43
660,796	550,73
660,988	464,72
661,18	395,09
661,372	292,69
661,563	319,31
661,755	214,87
661,947	171,86
662,139	137,04
662,331	210,77
662,522	184,15
662,714	128,85
662,906	102,23
663,097	114,52
663,289	118,61
663,481	79,7
663,673	128,85
663,864	141,14
664,056	171,86
664,247	26,45
664,439	264,02
664,631	151,38
664,822	249,68
665,014	81,75
665,205	102,23
665,397	67,41
665,588	100,18
665,78	94,04
665,971	241,49
666,163	-32,94
666,354	143,19
666,546	79,7
666,737	130,9
666,929	10,07
667,12	36,69
667,311	155,47
667,503	5,97
667,694	69,46
667,885	71,51
668,077	69,46
668,268	-86,19
668,459	40,79
668,651	44,88
668,842	77,65
669,033	-10,41
669,224	-63,66
669,416	231,25
669,607	87,89
669,798	46,93
669,989	141,14
670,18	67,41
670,371	149,33
670,563	18,26
670,754	184,15
670,945	94,04
671,136	112,47
671,327	-39,08
671,518	100,18
671,709	85,84
671,9	122,71
672,091	161,62
672,282	12,12
672,473	69,46
672,664	-45,23
672,855	135
673,046	85,84
673,237	173,91
673,428	26,45
673,619	83,8
673,809	-22,7
674	151,38
674,191	98,13
674,382	63,32
674,573	71,51
674,764	-4,27
674,954	71,51
675,145	-39,08
675,336	32,6
675,527	120,66
675,717	-39,08
675,908	28,5
676,099	-41,13
676,289	10,07
676,48	-92,33
676,671	32,6
676,861	-4,27
677,052	20,31
677,243	34,64
677,433	-96,43
677,624	114,52
677,814	14,17
678,005	65,36
678,195	94,04
678,386	-22,7
678,576	30,55
678,767	-77,99
678,957	40,79
679,148	108,37
679,338	135
679,529	48,98
679,719	-86,19
679,909	100,18
680,1	61,27
680,29	100,18
680,481	-88,23
680,671	122,71
680,861	75,6
681,052	65,36
681,242	-39,08
681,432	104,28
681,622	75,6
681,813	-108,71
682,003	-16,55
682,193	-45,23
682,383	57,17
682,573	10,07
682,764	-30,89
682,954	48,98
683,144	137,04
683,334	-14,51
683,524	38,74
683,714	89,94
683,904	165,71
684,094	-10,41
684,284	-30,89
684,474	151,38
684,664	63,32
684,854	73,56
685,044	12,12
685,234	71,51
685,424	-55,47
685,614	14,17
685,804	171,86
685,994	67,41
686,184	-41,13
686,374	61,27
686,564	71,51
686,753	53,08
686,943	-116,9
687,133	-24,75
687,323	59,22
687,513	38,74
687,702	87,89
687,892	42,84
688,082	63,32
688,272	161,62
688,461	16,21
688,651	231,25
688,841	-45,23
689,03	-20,65
689,22	10,07
689,41	108,37
689,599	53,08
689,789	-37,03
689,979	163,67
690,168	22,36
690,358	40,79
690,547	22,36
690,737	55,12
690,926	126,8
691,116	118,61
691,305	149,33
691,495	120,66
691,684	-14,51
691,874	26,45
692,063	75,6
692,252	110,42
692,442	145,24
692,631	-39,08
692,82	-32,94
693,01	-12,46
693,199	-12,46
693,388	44,88
693,578	69,46
693,767	81,75
693,956	118,61
694,146	-10,41
694,335	46,93
694,524	34,64
694,713	46,93
694,902	67,41
695,092	1,88
695,281	77,65
695,47	-30,89
695,659	-47,27
695,848	94,04
696,037	65,36
696,226	112,47
696,415	100,18
696,604	128,85
696,793	71,51
696,982	-59,56
697,171	75,6
697,36	1,88
697,549	3,93
697,738	-96,43
697,927	-69,8
698,116	-34,99
698,305	73,56
698,494	-2,22
698,683	16,21
698,872	231,25
699,061	-41,13
699,25	12,12
699,438	63,32
699,627	-49,32
699,816	128,85
700,005	-43,18
700,193	12,12
700,382	212,82
700,571	30,55
700,76	106,32
700,948	67,41
701,137	102,23
701,326	108,37
701,514	-18,6
701,703	40,79
701,892	-16,55
702,08	190,29
702,269	59,22
702,457	-12,46
702,646	-28,84
702,834	12,12
703,023	126,8
703,212	75,6
703,4	75,6
703,589	46,93
703,777	-43,18
703,965	-90,28
704,154	24,4
704,342	-34,99
704,531	-2,22
704,719	36,69
704,907	200,53
705,096	-14,51
705,284	-4,27
705,472	-10,41
705,661	98,13
705,849	10,07
706,037	165,71
706,226	36,69
706,414	83,8
706,602	-39,08
706,79	196,43
706,979	-26,79
707,167	55,12
707,355	-39,08
707,543	75,6
707,731	1,88
707,919	44,88
708,107	26,45
708,296	-49,32
708,484	10,07
708,672	24,4
708,86	16,21
709,048	55,12
709,236	-28,84
709,424	94,04
709,612	110,42
709,8	-49,32
709,988	73,56
710,176	81,75
710,364	149,33
710,551	-14,51
710,739	-2,22
710,927	-55,47
711,115	79,7
711,303	100,18
711,491	132,95
711,679	-55,47
711,866	141,14
712,054	-4,27
712,242	38,74
712,43	128,85
712,617	-4,27
712,805	128,85
712,993	32,6
713,181	-30,89
713,368	94,04
713,556	30,55
713,744	-20,65
713,931	190,29
714,119	155,47
714,306	1,88
714,494	-30,89
714,682	22,36
714,869	-67,75
715,057	-28,84
715,244	-90,28
715,432	-14,51
715,619	1,88
715,807	8,02
715,994	1,88
716,182	81,75
716,369	5,97
716,556	28,5
716,744	-59,56
716,931	-65,71
717,119	53,08
717,306	-26,79
717,493	48,98
717,681	-57,51
717,868	-84,14
718,055	-6,31
718,242	51,03
718,43	36,69
718,617	126,8
718,804	32,6
718,991	91,99
719,179	-30,89
719,366	28,5
719,553	91,99
719,74	57,17
719,927	-43,18
720,114	59,22
720,301	-57,51
720,488	-104,62
720,676	-96,43
720,863	89,94
721,05	83,8
721,237	-34,99
721,424	85,84
721,611	75,6
721,798	-49,32
721,985	-86,19
722,172	-53,42
722,358	-57,51
722,545	130,9
722,732	53,08
722,919	75,6
723,106	5,97
723,293	22,36
723,48	75,6
723,667	5,97
723,853	32,6
724,04	34,64
724,227	135
724,414	5,97
724,6	143,19
724,787	157,52
724,974	151,38
725,161	26,45
725,347	-51,37
725,534	100,18
725,72	65,36
725,907	153,43
726,094	34,64
726,28	-16,55
726,467	-16,55
726,653	-37,03
726,84	120,66
727,027	212,82
727,213	-30,89
727,4	32,6
727,586	77,65
727,773	48,98
727,959	-4,27
728,145	67,41
728,332	59,22
728,518	-6,31
728,705	30,55
728,891	-24,75
729,077	53,08
729,264	-80,04
729,45	63,32
729,636	34,64
729,823	-51,37
730,009	130,9
730,195	114,52
730,382	53,08
730,568	-37,03
730,754	16,21
730,94	18,26
731,126	-18,6
731,313	77,65
731,499	10,07
731,685	28,5
731,871	114,52
732,057	94,04
732,243	132,95
732,429	81,75
732,615	151,38
732,801	116,56
732,987	94,04
733,173	65,36
733,359	-57,51
733,545	63,32
733,731	-53,42
733,917	59,22
734,103	81,75
734,289	46,93
734,475	-37,03
734,661	108,37
734,847	22,36
735,033	75,6
735,219	65,36
735,404	24,4
735,59	100,18
735,776	14,17
735,962	3,93
736,148	51,03
736,333	139,09
736,519	-32,94
736,705	-63,66
736,89	46,93
737,076	44,88
737,262	-30,89
737,447	-2,22
737,633	-8,36
737,819	96,08
738,004	18,26
738,19	20,31
738,375	83,8
738,561	79,7
738,747	36,69
738,932	-63,66
739,118	180,05
739,303	106,32
739,489	51,03
739,674	20,31
739,859	-14,51
740,045	100,18
740,23	-28,84
740,416	-139,43
740,601	-20,65
740,786	26,45
740,972	-69,8
741,157	44,88
741,342	-71,85
741,528	-63,66
741,713	143,19
741,898	22,36
742,084	-14,51
742,269	51,03
742,454	34,64
742,639	161,62
742,824	81,75
743,01	83,8
743,195	124,76
743,38	3,93
743,565	20,31
743,75	20,31
743,935	85,84
744,12	130,9
744,305	-100,52
744,49	-0,17
744,675	44,88
744,86	14,17
745,045	114,52
745,23	-16,55
745,415	1,88
745,6	26,45
745,785	-22,7
745,97	83,8
746,155	108,37
746,34	137,04
746,525	-28,84
746,71	190,29
746,895	26,45
747,079	-61,61
747,264	3,93
747,449	96,08
747,634	169,81
747,819	112,47
748,003	-20,65
748,188	-96,43
748,373	67,41
748,557	24,4
748,742	-12,46
748,927	118,61
749,111	44,88
749,296	-2,22
749,481	75,6
749,665	120,66
749,85	-32,94
750,034	36,69
750,219	69,46
750,404	-2,22
750,588	42,84
750,773	26,45
750,957	75,6
751,141	42,84
751,326	14,17
751,51	-75,95
751,695	24,4
751,879	-51,37
752,064	198,48
752,248	18,26
752,432	175,95
752,617	106,32
752,801	94,04
752,985	-71,85
753,17	67,41
753,354	24,4
753,538	87,89
753,722	-41,13
753,907	38,74
754,091	-45,23
754,275	67,41
754,459	20,31
754,643	73,56
754,828	18,26
755,012	-18,6
755,196	-26,79
755,38	51,03
755,564	67,41
755,748	5,97
755,932	147,28
756,116	51,03
756,3	122,71
756,484	65,36
756,668	63,32
756,852	-69,8
757,036	-37,03
757,22	-20,65
757,404	18,26
757,588	-86,19
757,772	110,42
757,956	28,5
758,14	194,39
758,323	63,32
758,507	48,98
758,691	10,07
758,875	42,84
759,059	108,37
759,242	-34,99
759,426	128,85
759,61	-6,31
759,794	-57,51
759,977	94,04
760,161	237,39
760,345	139,09
760,528	83,8
760,712	44,88
760,895	89,94
761,079	94,04
761,263	-18,6
761,446	1,88
761,63	-10,41
761,813	126,8
761,997	-28,84
762,18	71,51
762,364	3,93
762,547	-4,27
762,731	-57,51
762,914	51,03
763,098	-30,89
763,281	5,97
763,464	-0,17
763,648	75,6
763,831	38,74
764,015	-43,18
764,198	96,08
764,381	-24,75
764,564	18,26
764,748	40,79
764,931	42,84
765,114	1,88
765,297	61,27
765,481	-43,18
765,664	-12,46
765,847	-37,03
766,03	126,8
766,213	-39,08
766,397	36,69
766,58	-24,75
766,763	53,08
766,946	-4,27
767,129	-63,66
767,312	-39,08
767,495	14,17
767,678	-12,46
767,861	61,27
768,044	-8,36
768,227	-24,75
768,41	59,22
768,593	26,45
768,776	28,5
768,959	-10,41
769,142	147,28
769,324	34,64
769,507	40,79
769,69	-6,31
769,873	-12,46
770,056	200,53
770,239	-12,46
770,421	114,52
770,604	48,98
770,787	36,69
770,97	-6,31
771,152	-32,94
771,335	75,6
771,518	-43,18
771,7	63,32
771,883	120,66
772,066	24,4
772,248	30,55
772,431	59,22
772,613	22,36
772,796	20,31
772,978	139,09
773,161	67,41
773,343	-32,94
773,526	-49,32
773,708	-41,13
773,891	-37,03
774,073	-51,37
774,256	-28,84
774,438	102,23
774,621	-51,37
774,803	30,55
774,985	34,64
775,168	104,28
775,35	8,02
775,532	36,69
775,715	-45,23
775,897	75,6
776,079	46,93
776,261	266,07
776,444	266,07
776,626	491,34
776,808	595,79
776,99	681,8
777,173	866,12
777,355	945,99
777,537	931,66
777,719	945,99
777,901	816,97
778,083	737,1
778,265	548,68
778,447	616,27
778,629	493,39
778,811	489,29
778,993	411,47
779,175	464,72
779,357	356,18
779,539	192,34
779,721	194,39
779,903	288,59
780,085	141,14
780,267	85,84
780,449	44,88
780,631	167,76
780,812	126,8
780,994	-6,31
781,176	22,36
781,358	-6,31
781,54	-24,75
781,721	77,65
781,903	36,69
782,085	42,84
782,267	161,62
782,448	-55,47
782,63	100,18
782,812	36,69
782,993	59,22
783,175	100,18
783,357	-0,17
783,538	87,89
783,72	-34,99
783,901	-22,7
784,083	145,24
784,264	22,36
784,446	-102,57
784,627	-53,42
784,809	69,46
784,99	-8,36
785,172	139,09
785,353	96,08
785,535	12,12
785,716	-32,94
785,897	3,93
786,079	-28,84
786,26	28,5
786,441	-39,08
786,623	-106,67
786,804	-34,99
786,985	36,69
787,167	12,12
787,348	16,21
787,529	-2,22
787,71	69,46
787,891	-28,84
788,073	-28,84
788,254	-32,94
788,435	73,56
788,616	71,51
788,797	-10,41
788,978	-4,27
789,159	-41,13
789,34	59,22
789,522	24,4
789,703	-0,17
789,884	75,6
790,065	32,6
790,246	192,34
790,427	-53,42
790,607	61,27
790,788	71,51
790,969	-34,99
791,15	89,94
791,331	3,93
791,512	-2,22
791,693	40,79
791,874	69,46
792,054	192,34
792,235	151,38
792,416	-116,9
792,597	-18,6
792,778	145,24
792,958	128,85
793,139	22,36
793,32	-47,27
793,5	-41,13
793,681	51,03
793,862	36,69
794,042	46,93
794,223	-69,8
794,404	-94,38
794,584	-121
794,765	-53,42
794,945	-47,27
795,126	73,56
795,306	81,75
795,487	40,79
795,667	-41,13
795,848	106,32
796,028	10,07
796,209	-49,32
796,389	151,38
796,57	-4,27
796,75	-28,84
796,93	-12,46
797,111	-55,47
797,291	-67,75
797,471	-16,55
797,652	71,51
797,832	-71,85
798,012	67,41
798,192	14,17
798,373	-123,05
798,553	-41,13
798,733	16,21
798,913	-139,43
799,093	10,07
799,274	-6,31
799,454	67,41
799,634	42,84
799,814	57,17
799,994	87,89
800,174	5,97
800,354	34,64
800,534	-153,77
800,714	46,93
800,894	-71,85
801,074	-110,76
801,254	-12,46
801,434	132,95
801,614	-39,08
801,794	-65,71
801,974	1961,78
802,154	-67,75
802,334	42,84
802,514	-69,8
802,693	-67,75
802,873	-88,23
803,053	102,23
803,233	48,98
803,413	-28,84
803,592	-59,56
803,772	-129,19
803,952	1,88
804,131	-53,42
804,311	5,97
804,491	75,6
804,67	-47,27
804,85	-20,65
805,03	-6,31
805,209	137,04
805,389	-26,79
805,568	-12,46
805,748	-65,71
805,928	75,6
806,107	81,75
806,287	5,97
806,466	91,99
806,646	3,93
806,825	-30,89
807,004	3,93
807,184	98,13
807,363	32,6
807,543	24,4
807,722	-37,03
807,901	114,52
808,081	-28,84
808,26	-155,82
808,439	63,32
808,619	-12,46
808,798	-12,46
808,977	-61,61
809,156	75,6
809,336	42,84
809,515	75,6
809,694	-10,41
809,873	-82,09
810,052	57,17
810,231	91,99
810,411	36,69
810,59	28,5
810,769	24,4
810,948	169,81
811,127	-123,05
811,306	36,69
811,485	-63,66
811,664	137,04
811,843	87,89
812,022	20,31
812,201	14,17
812,38	-0,17
812,559	-45,23
812,737	14,17
812,916	-24,75
813,095	-43,18
813,274	42,84
813,453	-14,51
813,632	85,84
813,811	71,51
813,989	-49,32
814,168	5,97
814,347	-30,89
814,526	-75,95
814,704	42,84
814,883	102,23
815,062	42,84
815,24	10,07
815,419	-63,66
815,598	18,26
815,776	-137,38
815,955	30,55
816,133	-196,78
816,312	79,7
816,49	-57,51
816,669	-47,27
816,847	-61,61
817,026	42,84
817,204	14,17
817,383	24,4
817,561	46,93
817,74	65,36
817,918	61,27
818,097	-59,56
818,275	18,26
818,453	38,74
818,632	-45,23
818,81	-51,37
818,988	5,97
819,167	36,69
819,345	20,31
819,523	-141,48
819,701	14,17
819,879	-16,55
820,058	-4,27
820,236	-37,03
820,414	14,17
820,592	-57,51
820,77	-75,95
820,948	-65,71
821,127	-4,27
821,305	51,03
821,483	-108,71
821,661	165,71
821,839	79,7
822,017	-59,56
822,195	32,6
822,373	28,5
822,551	40,79
822,729	122,71
822,907	24,4
823,085	32,6
823,262	-6,31
823,44	-77,99
823,618	-16,55
823,796	53,08
823,974	-55,47
824,152	-49,32
824,329	-51,37
824,507	128,85
824,685	24,4
824,863	-12,46
825,04	-22,7
825,218	22,36
825,396	-47,27
825,574	34,64
825,751	-6,31
825,929	63,32
826,107	-141,48
826,284	20,31
826,462	-6,31
826,639	-45,23
826,817	-94,38
826,994	-18,6
827,172	-92,33
827,349	139,09
827,527	100,18
827,704	59,22
827,882	106,32
828,059	-22,7
828,237	12,12
828,414	40,79
828,591	-198,82
828,769	42,84
828,946	34,64
829,124	89,94
829,301	98,13
829,478	-67,75
829,655	53,08
829,833	1,88
830,01	-149,67
830,187	89,94
830,364	5,97
830,542	30,55
830,719	67,41
830,896	-12,46
831,073	-4,27
831,25	63,32
831,427	67,41
831,604	10,07
831,782	-49,32
831,959	67,41
832,136	-34,99
832,313	135
832,49	-73,9
832,667	96,08
832,844	-28,84
833,021	143,19
833,198	-12,46
833,374	-45,23
833,551	51,03
833,728	-18,6
833,905	77,65
834,082	-116,9
834,259	106,32
834,436	104,28
834,612	-100,52
834,789	89,94
834,966	24,4
835,143	44,88
835,319	-47,27
835,496	36,69
835,673	63,32
835,85	36,69
836,026	73,56
836,203	71,51
836,38	-47,27
836,556	-65,71
836,733	-22,7
836,909	14,17
837,086	-6,31
837,262	-112,81
837,439	5,97
837,616	-53,42
837,792	-34,99
837,968	-18,6
838,145	-98,47
838,321	3,93
838,498	85,84
838,674	42,84
838,851	-14,51
839,027	-67,75
839,203	53,08
839,38	-20,65
839,556	14,17
839,732	132,95
839,909	89,94
840,085	85,84
840,261	-71,85
840,437	-6,31
840,614	-16,55
840,79	135
840,966	1,88
841,142	22,36
841,318	-28,84
841,494	-8,36
841,671	-16,55
841,847	-121
842,023	-41,13
842,199	28,5
842,375	200,53
842,551	-77,99
842,727	-55,47
842,903	116,56
843,079	-45,23
843,255	124,76
843,431	18,26
843,607	108,37
843,783	-96,43
843,959	192,34
844,134	165,71
844,31	382,8
844,486	319,31
844,662	270,16
844,838	329,55
845,013	339,79
845,189	304,98
845,365	198,48
845,541	190,29
845,716	135
845,892	210,77
846,068	67,41
846,244	46,93
846,419	100,18
846,595	38,74
846,77	-20,65
846,946	147,28
847,122	59,22
847,297	32,6
847,473	182,1
847,648	-71,85
847,824	-0,17
847,999	-82,09
848,175	71,51
848,35	67,41
848,526	87,89
848,701	18,26
848,876	57,17
849,052	110,42
849,227	-32,94
849,403	-65,71
849,578	28,5
849,753	14,17
849,929	40,79
850,104	-51,37
850,279	36,69
850,454	87,89
850,63	51,03
850,805	100,18
850,98	22,36
851,155	-67,75
851,33	18,26
851,505	-127,14
851,681	229,2
851,856	-114,86
852,031	5,97
852,206	34,64
852,381	20,31
852,556	-8,36
852,731	-45,23
852,906	120,66
853,081	-65,71
853,256	18,26
853,431	-39,08
853,606	-88,23
853,781	-55,47
853,956	-114,86
854,131	69,46
854,305	-61,61
854,48	-43,18
854,655	-20,65
854,83	-88,23
855,005	-82,09
855,18	-45,23
855,354	-26,79
855,529	-0,17
855,704	-67,75
855,879	1,88
856,053	3,93
856,228	12,12
856,403	-71,85
856,577	65,36
856,752	-32,94
856,926	-45,23
857,101	79,7
857,276	-12,46
857,45	-12,46
857,625	36,69
857,799	5,97
857,974	40,79
858,148	-121
858,323	36,69
858,497	-75,95
858,672	-24,75
858,846	-96,43
859,02	59,22
859,195	-41,13
859,369	-51,37
859,543	20,31
859,718	-12,46
859,892	-2,22
860,066	98,13
860,241	-47,27
860,415	-75,95
860,589	-59,56
860,763	-12,46
860,938	-45,23
861,112	14,17
861,286	-135,34
861,46	94,04
861,634	18,26
861,808	28,5
861,982	-67,75
862,157	-69,8
862,331	16,21
862,505	-94,38
862,679	-73,9
862,853	-39,08
863,027	-14,51
863,201	51,03
863,375	1,88
863,549	28,5
863,722	22,36
863,896	57,17
864,07	-12,46
864,244	-45,23
864,418	-14,51
864,592	10,07
864,766	14,17
864,939	-43,18
865,113	-37,03
865,287	126,8
865,461	-26,79
865,634	85,84
865,808	-112,81
865,982	-86,19
866,156	-92,33
866,329	-121
866,503	24,4
866,676	-14,51
866,85	28,5
867,024	-77,99
867,197	108,37
867,371	59,22
867,544	-6,31
867,718	-51,37
867,891	83,8
868,065	-88,23
868,238	12,12
868,412	83,8
868,585	-22,7
868,759	-55,47
868,932	-28,84
869,105	-61,61
869,279	-45,23
869,452	-43,18
869,625	36,69
869,799	-45,23
869,972	-32,94
870,145	-4,27
870,319	5,97
870,492	-0,17
870,665	-22,7
870,838	-18,6
871,011	-161,96
871,185	-65,71
871,358	-32,94
871,531	75,6
871,704	-6,31
871,877	-18,6
872,05	-112,81
872,223	-12,46
872,396	104,28
872,569	87,89
872,742	-77,99
872,915	28,5
873,088	-39,08
873,261	-18,6
873,434	1,88
873,607	-18,6
873,78	110,42
873,953	-92,33
874,126	22,36
874,299	51,03
874,471	-98,47
874,644	-39,08
874,817	51,03
874,99	212,82
875,163	-24,75
875,335	55,12
875,508	-20,65
875,681	161,62
875,853	30,55
876,026	28,5
876,199	89,94
876,371	79,7
876,544	-59,56
876,717	-49,32
876,889	-10,41
877,062	51,03
877,234	-53,42
877,407	-69,8
877,579	-20,65
877,752	-16,55
877,924	28,5
878,097	55,12
878,269	53,08
878,442	46,93
878,614	55,12
878,786	24,4
878,959	-51,37
879,131	14,17
879,303	-112,81
879,476	-39,08
879,648	161,62
879,82	67,41
879,993	-39,08
880,165	53,08
880,337	-69,8
880,509	77,65
880,681	-30,89
880,854	-20,65
881,026	110,42
881,198	169,81
881,37	-14,51
881,542	1,88
881,714	-16,55
881,886	10,07
882,058	-16,55
882,23	24,4
882,402	55,12
882,574	30,55
882,746	104,28
882,918	184,15
883,09	3,93
883,262	-12,46
883,434	30,55
883,606	-116,9
883,778	1,88
883,95	128,85
884,122	-39,08
884,293	91,99
884,465	-53,42
884,637	106,32
884,809	-77,99
884,98	30,55
885,152	61,27
885,324	18,26
885,496	-82,09
885,667	-22,7
885,839	83,8
886,011	40,79
886,182	10,07
886,354	20,31
886,525	38,74
886,697	10,07
886,869	-92,33
887,04	-34,99
887,212	94,04
887,383	149,33
887,555	34,64
887,726	-6,31
887,897	-49,32
888,069	10,07
888,24	26,45
888,412	36,69
888,583	-30,89
888,754	-88,23
888,926	-98,47
889,097	-16,55
889,268	-151,72
889,44	3,93
889,611	-55,47
889,782	-0,17
889,953	-80,04
890,125	106,32
890,296	-67,75
890,467	-4,27
890,638	-43,18
890,809	40,79
890,98	-65,71
891,151	53,08
891,323	110,42
891,494	38,74
891,665	8,02
891,836	36,69
892,007	83,8
892,178	81,75
892,349	40,79
892,52	-67,75
892,691	24,4
892,862	-22,7
893,032	-108,71
893,203	-30,89
893,374	-4,27
893,545	30,55
893,716	-57,51
893,887	42,84
894,057	-77,99
894,228	-34,99
894,399	-32,94
894,57	94,04
894,74	-65,71
894,911	-0,17
895,082	-32,94
895,253	-61,61
895,423	10,07
895,594	44,88
895,764	42,84
895,935	-77,99
896,106	-8,36
896,276	-32,94
896,447	-45,23
896,617	-67,75
896,788	-75,95
896,958	-88,23
897,129	-30,89
897,299	-75,95
897,47	75,6
897,64	36,69
897,81	40,79
897,981	12,12
898,151	-108,71
898,322	14,17
898,492	40,79
898,662	-71,85
898,832	-20,65
899,003	61,27
899,173	71,51
899,343	-71,85
899,513	-55,47
