Data from deuterium_USB4F104151__6__10-57-07-444.txt Node

Date: Wed Apr 15 10:57:07 EDT 2026
User: LaboPhy
Spectrometer: USB4F10415
Trigger mode: 4
Integration Time (sec): 1,000000E-1
Scans to average: 1
Electric dark correction enabled: true
Nonlinearity correction enabled: false
Boxcar width: 0
XAxis mode: Wavelengths
Number of Pixels in Spectrum: 3648
>>>>>Begin Spectral Data<<<<<
178,204	-427,85
178,424	-427,85
178,644	-427,85
178,864	-425,81
179,084	-388,94
179,304	51,37
179,524	-20,31
179,744	2,22
179,964	129,19
180,184	6,31
180,404	-30,55
180,624	-67,41
180,844	8,36
181,064	-67,41
181,283	20,65
181,503	-48,98
181,723	16,55
181,943	-20,31
182,163	184,49
182,383	-83,8
182,602	6,31
182,822	67,75
183,042	121
183,262	-44,88
183,482	-20,31
183,701	102,57
183,921	-44,88
184,141	-71,51
184,361	75,95
184,58	67,75
184,8	41,13
185,02	-18,26
185,239	88,23
185,459	57,51
185,679	219,3
185,898	-20,31
186,118	37,03
186,338	94,38
186,557	176,3
186,777	-22,36
186,997	-12,12
187,216	73,9
187,436	268,45
187,655	92,33
187,875	37,03
188,095	-24,4
188,314	147,62
188,534	57,51
188,753	-3,93
188,973	145,58
189,192	139,43
189,412	-30,55
189,631	20,65
189,851	80,04
190,07	161,96
190,29	-36,69
190,509	-26,45
190,729	34,99
190,948	129,19
191,168	233,64
191,387	69,8
191,607	4,27
191,826	65,71
192,045	28,84
192,265	6,31
192,484	88,23
192,704	77,99
192,923	-75,6
193,142	176,3
193,362	90,28
193,581	166,06
193,8	22,7
194,02	30,89
194,239	69,8
194,458	170,15
194,678	-16,21
194,897	-40,79
195,116	57,51
195,335	88,23
195,555	26,79
195,774	-10,07
195,993	118,95
196,212	32,94
196,432	-55,12
196,651	125,1
196,87	69,8
197,089	213,16
197,308	45,23
197,528	0,17
197,747	-98,13
197,966	-85,84
198,185	129,19
198,404	4,27
198,623	80,04
198,842	67,75
199,062	192,68
199,281	104,62
199,5	-10,07
199,719	73,9
199,938	125,1
200,157	75,95
200,376	65,71
200,595	116,9
200,814	63,66
201,033	-102,23
201,252	131,24
201,471	98,47
201,69	104,62
201,909	86,19
202,128	116,9
202,347	104,62
202,566	43,18
202,785	-67,41
203,004	14,51
203,223	254,12
203,442	26,79
203,661	-40,79
203,879	69,8
204,098	53,42
204,317	-79,7
204,536	28,84
204,755	114,86
204,974	100,52
205,193	-48,98
205,411	166,06
205,63	190,63
205,849	123,05
206,068	-20,31
206,287	-18,26
206,505	137,38
206,724	53,42
206,943	-30,55
207,162	-51,03
207,381	-18,26
207,599	-42,84
207,818	-3,93
208,037	-12,12
208,255	77,99
208,474	80,04
208,693	30,89
208,911	47,27
209,13	106,67
209,349	39,08
209,567	90,28
209,786	6,31
210,005	82,09
210,223	63,66
210,442	-100,18
210,661	57,51
210,879	129,19
211,098	-59,22
211,316	32,94
211,535	4,27
211,753	37,03
211,972	47,27
212,191	30,89
212,409	47,27
212,628	63,66
212,846	10,41
213,065	45,23
213,283	73,9
213,502	-8,02
213,72	-18,26
213,938	4,27
214,157	0,17
214,375	129,19
214,594	63,66
214,812	16,55
215,031	57,51
215,249	45,23
215,467	14,51
215,686	28,84
215,904	125,1
216,122	73,9
216,341	121
216,559	61,61
216,778	77,99
216,996	168,1
217,214	12,46
217,432	-79,7
217,651	-42,84
217,869	24,75
218,087	24,75
218,306	-59,22
218,524	-40,79
218,742	-22,36
218,96	20,65
219,179	-24,4
219,397	71,85
219,615	166,06
219,833	98,47
220,051	-20,31
220,27	73,9
220,488	37,03
220,706	102,57
220,924	26,79
221,142	-65,36
221,36	59,56
221,578	32,94
221,796	-10,07
222,015	37,03
222,233	-20,31
222,451	57,51
222,669	-26,45
222,887	34,99
223,105	4,27
223,323	57,51
223,541	30,89
223,759	26,79
223,977	127,14
224,195	65,71
224,413	123,05
224,631	-10,07
224,849	77,99
225,067	204,97
225,285	-51,03
225,503	-36,69
225,721	-59,22
225,939	61,61
226,157	20,65
226,375	225,45
226,592	-53,08
226,81	0,17
227,028	102,57
227,246	96,43
227,464	94,38
227,682	127,14
227,9	6,31
228,117	2,22
228,335	51,37
228,553	45,23
228,771	39,08
228,989	-36,69
229,206	43,18
229,424	-16,21
229,642	0,17
229,86	0,17
230,077	174,25
230,295	-24,4
230,513	86,19
230,731	57,51
230,948	198,82
231,166	125,1
231,384	28,84
231,601	-22,36
231,819	233,64
232,037	-102,23
232,254	2,22
232,472	28,84
232,689	57,51
232,907	121
233,125	-53,08
233,342	-38,74
233,56	-12,12
233,777	16,55
233,995	2,22
234,213	57,51
234,43	82,09
234,648	-5,97
234,865	20,65
235,083	86,19
235,3	20,65
235,518	102,57
235,735	90,28
235,953	80,04
236,17	63,66
236,388	-40,79
236,605	30,89
236,822	73,9
237,04	92,33
237,257	-10,07
237,475	6,31
237,692	-12,12
237,909	106,67
238,127	-24,4
238,344	94,38
238,562	51,37
238,779	-94,04
238,996	-171,86
239,214	-46,93
239,431	77,99
239,648	30,89
239,865	57,51
240,083	139,43
240,3	-20,31
240,517	-73,56
240,735	-42,84
240,952	98,47
241,169	-20,31
241,386	77,99
241,603	-32,6
241,821	-77,65
242,038	65,71
242,255	184,49
242,472	-1,88
242,689	92,33
242,907	30,89
243,124	61,61
243,341	-16,21
243,558	-14,17
243,775	-18,26
243,992	-55,12
244,209	151,72
244,426	182,44
244,643	32,94
244,86	-14,17
245,078	127,14
245,295	108,71
245,512	-36,69
245,729	41,13
245,946	116,9
246,163	-71,51
246,38	-55,12
246,597	8,36
246,814	-3,93
247,031	28,84
247,248	73,9
247,464	75,95
247,681	47,27
247,898	82,09
248,115	22,7
248,332	6,31
248,549	161,96
248,766	186,54
248,983	-12,12
249,2	96,43
249,417	135,34
249,633	-34,64
249,85	41,13
250,067	61,61
250,284	-18,26
250,501	96,43
250,717	96,43
250,934	-61,27
251,151	53,42
251,368	-34,64
251,585	61,61
251,801	55,47
252,018	-18,26
252,235	57,51
252,451	-73,56
252,668	71,85
252,885	188,58
253,102	63,66
253,318	20,65
253,535	-8,02
253,752	-26,45
253,968	-1,88
254,185	-65,36
254,401	-3,93
254,618	92,33
254,835	-51,03
255,051	69,8
255,268	61,61
255,484	34,99
255,701	-87,89
255,917	55,47
256,134	-44,88
256,351	-32,6
256,567	-30,55
256,784	-32,6
257	-77,65
257,217	157,86
257,433	41,13
257,65	98,47
257,866	92,33
258,082	-116,56
258,299	-126,8
258,515	41,13
258,732	26,79
258,948	-44,88
259,165	75,95
259,381	6,31
259,597	110,76
259,814	2,22
260,03	-18,26
260,246	63,66
260,463	209,06
260,679	39,08
260,895	67,75
261,112	137,38
261,328	18,6
261,544	-42,84
261,761	116,9
261,977	-28,5
262,193	0,17
262,409	69,8
262,626	18,6
262,842	8,36
263,058	14,51
263,274	71,85
263,49	32,94
263,707	145,58
263,923	18,6
264,139	-83,8
264,355	24,75
264,571	75,95
264,787	112,81
265,004	129,19
265,22	22,7
265,436	-83,8
265,652	-40,79
265,868	73,9
266,084	-83,8
266,3	16,55
266,516	-22,36
266,732	176,3
266,948	61,61
267,164	-22,36
267,38	61,61
267,596	37,03
267,812	135,34
268,028	110,76
268,244	8,36
268,46	77,99
268,676	-36,69
268,892	20,65
269,108	-34,64
269,324	-51,03
269,54	-147,28
269,756	123,05
269,972	18,6
270,188	-1,88
270,403	-100,18
270,619	-26,45
270,835	59,56
271,051	39,08
271,267	28,84
271,483	-16,21
271,698	98,47
271,914	129,19
272,13	77,99
272,346	-110,42
272,562	32,94
272,777	67,75
272,993	-16,21
273,209	-59,22
273,425	65,71
273,64	-61,27
273,856	104,62
274,072	-16,21
274,287	-32,6
274,503	55,47
274,719	108,71
274,934	63,66
275,15	14,51
275,366	102,57
275,581	-16,21
275,797	-10,07
276,012	8,36
276,228	20,65
276,444	-5,97
276,659	84,14
276,875	-16,21
277,09	28,84
277,306	32,94
277,521	82,09
277,737	-59,22
277,952	16,55
278,168	-53,08
278,383	55,47
278,599	18,6
278,814	110,76
279,03	-1,88
279,245	67,75
279,461	30,89
279,676	143,53
279,892	-61,27
280,107	-91,99
280,322	-94,04
280,538	71,85
280,753	-18,26
280,969	69,8
281,184	26,79
281,399	112,81
281,615	16,55
281,83	43,18
282,045	-51,03
282,26	-10,07
282,476	41,13
282,691	112,81
282,906	65,71
283,122	71,85
283,337	-1,88
283,552	77,99
283,767	-71,51
283,983	82,09
284,198	127,14
284,413	-3,93
284,628	-75,6
284,843	118,95
285,058	84,14
285,274	-53,08
285,489	16,55
285,704	104,62
285,919	20,65
286,134	-24,4
286,349	16,55
286,564	37,03
286,779	143,53
286,995	-85,84
287,21	-94,04
287,425	129,19
287,64	-34,64
287,855	22,7
288,07	-44,88
288,285	75,95
288,5	153,77
288,715	86,19
288,93	26,79
289,145	-12,12
289,36	88,23
289,575	24,75
289,79	151,72
290,004	30,89
290,219	86,19
290,434	-22,36
290,649	-1,88
290,864	-20,31
291,079	-26,45
291,294	-28,5
291,509	39,08
291,724	-3,93
291,938	18,6
292,153	47,27
292,368	-12,12
292,583	88,23
292,798	49,32
293,012	65,71
293,227	106,67
293,442	4,27
293,657	59,56
293,871	92,33
294,086	86,19
294,301	176,3
294,516	47,27
294,73	57,51
294,945	-16,21
295,16	-53,08
295,374	170,15
295,589	127,14
295,804	86,19
296,018	110,76
296,233	102,57
296,447	37,03
296,662	-16,21
296,877	90,28
297,091	51,37
297,306	39,08
297,52	-40,79
297,735	67,75
297,949	12,46
298,164	22,7
298,378	37,03
298,593	-98,13
298,807	-51,03
299,022	-36,69
299,236	145,58
299,451	-46,93
299,665	8,36
299,88	-38,74
300,094	96,43
300,309	20,65
300,523	69,8
300,737	-71,51
300,952	164,01
301,166	123,05
301,381	-32,6
301,595	-57,17
301,809	47,27
302,024	53,42
302,238	20,65
302,452	73,9
302,667	20,65
302,881	63,66
303,095	82,09
303,309	84,14
303,524	-32,6
303,738	65,71
303,952	-8,02
304,166	61,61
304,381	-102,23
304,595	92,33
304,809	-1,88
305,023	20,65
305,237	-55,12
305,452	-20,31
305,666	96,43
305,88	82,09
306,094	121
306,308	69,8
306,522	112,81
306,736	55,47
306,95	174,25
307,164	92,33
307,379	-32,6
307,593	127,14
307,807	176,3
308,021	86,19
308,235	77,99
308,449	-51,03
308,663	-73,56
308,877	202,92
309,091	59,56
309,305	73,9
309,519	-42,84
309,733	118,95
309,947	-57,17
310,161	65,71
310,374	116,9
310,588	159,91
310,802	-44,88
311,016	-20,31
311,23	137,38
311,444	-10,07
311,658	-5,97
311,872	129,19
312,085	168,1
312,299	137,38
312,513	145,58
312,727	16,55
312,941	-3,93
313,154	45,23
313,368	77,99
313,582	37,03
313,796	16,55
314,009	98,47
314,223	106,67
314,437	96,43
314,651	96,43
314,864	2,22
315,078	45,23
315,292	24,75
315,505	4,27
315,719	88,23
315,933	73,9
316,146	-30,55
316,36	20,65
316,573	129,19
316,787	114,86
317,001	96,43
317,214	-10,07
317,428	114,86
317,641	82,09
317,855	39,08
318,068	69,8
318,282	43,18
318,495	254,12
318,709	92,33
318,922	-98,13
319,136	159,91
319,349	135,34
319,563	-20,31
319,776	53,42
319,99	-73,56
320,203	131,24
320,417	18,6
320,63	112,81
320,843	172,2
321,057	75,95
321,27	-28,5
321,483	22,7
321,697	112,81
321,91	82,09
322,124	127,14
322,337	22,7
322,55	34,99
322,763	71,85
322,977	30,89
323,19	-57,17
323,403	37,03
323,617	125,1
323,83	94,38
324,043	63,66
324,256	16,55
324,469	18,6
324,683	104,62
324,896	-8,02
325,109	71,85
325,322	6,31
325,535	159,91
325,748	135,34
325,962	-20,31
326,175	34,99
326,388	24,75
326,601	106,67
326,814	88,23
327,027	69,8
327,24	145,58
327,453	-85,84
327,666	63,66
327,879	71,85
328,092	145,58
328,305	6,31
328,518	12,46
328,731	63,66
328,944	80,04
329,157	77,99
329,37	90,28
329,583	157,86
329,796	159,91
330,009	-38,74
330,222	0,17
330,435	100,52
330,648	80,04
330,861	43,18
331,073	57,51
331,286	73,9
331,499	61,61
331,712	32,94
331,925	49,32
332,138	77,99
332,35	114,86
332,563	49,32
332,776	164,01
332,989	-61,27
333,202	77,99
333,414	-22,36
333,627	-8,02
333,84	77,99
334,053	118,95
334,265	12,46
334,478	39,08
334,691	63,66
334,903	71,85
335,116	39,08
335,329	-55,12
335,541	77,99
335,754	192,68
335,966	96,43
336,179	82,09
336,392	90,28
336,604	59,56
336,817	159,91
337,029	112,81
337,242	139,43
337,454	110,76
337,667	53,42
337,88	211,11
338,092	71,85
338,305	102,57
338,517	80,04
338,729	123,05
338,942	176,3
339,154	-26,45
339,367	-16,21
339,579	92,33
339,792	8,36
340,004	88,23
340,217	106,67
340,429	53,42
340,641	-14,17
340,854	-5,97
341,066	45,23
341,278	106,67
341,491	155,82
341,703	73,9
341,915	57,51
342,128	129,19
342,34	94,38
342,552	-5,97
342,764	14,51
342,977	65,71
343,189	41,13
343,401	61,61
343,613	-42,84
343,826	129,19
344,038	22,7
344,25	80,04
344,462	12,46
344,674	59,56
344,886	86,19
345,099	96,43
345,311	104,62
345,523	-34,64
345,735	-67,41
345,947	14,51
346,159	57,51
346,371	149,67
346,583	4,27
346,795	133,29
347,007	-28,5
347,219	43,18
347,431	73,9
347,643	184,49
347,855	53,42
348,067	164,01
348,279	-36,69
348,491	39,08
348,703	145,58
348,915	-3,93
349,127	-55,12
349,339	20,65
349,551	45,23
349,763	65,71
349,975	67,75
350,187	176,3
350,399	237,74
350,61	106,67
350,822	10,41
351,034	116,9
351,246	59,56
351,458	110,76
351,669	106,67
351,881	194,73
352,093	200,87
352,305	174,25
352,517	41,13
352,728	121
352,94	108,71
353,152	135,34
353,363	-14,17
353,575	118,95
353,787	207,02
353,999	96,43
354,21	233,64
354,422	-8,02
354,633	6,31
354,845	88,23
355,057	71,85
355,268	121
355,48	145,58
355,692	-14,17
355,903	100,52
356,115	-12,12
356,326	-55,12
356,538	180,39
356,749	114,86
356,961	143,53
357,172	71,85
357,384	28,84
357,595	209,06
357,807	8,36
358,018	10,41
358,23	80,04
358,441	174,25
358,653	178,34
358,864	100,52
359,075	14,51
359,287	147,62
359,498	186,54
359,709	80,04
359,921	53,42
360,132	49,32
360,344	49,32
360,555	-10,07
360,766	153,77
360,977	47,27
361,189	118,95
361,4	43,18
361,611	121
361,823	57,51
362,034	110,76
362,245	24,75
362,456	47,27
362,667	106,67
362,879	8,36
363,09	57,51
363,301	135,34
363,512	75,95
363,723	28,84
363,935	18,6
364,146	145,58
364,357	67,75
364,568	53,42
364,779	-28,5
364,99	231,59
365,201	-3,93
365,412	139,43
365,623	-22,36
365,834	63,66
366,045	65,71
366,256	174,25
366,467	135,34
366,678	69,8
366,889	80,04
367,1	145,58
367,311	174,25
367,522	69,8
367,733	125,1
367,944	37,03
368,155	116,9
368,366	172,2
368,577	190,63
368,788	94,38
368,999	12,46
369,209	55,47
369,42	290,98
369,631	262,31
369,842	172,2
370,053	73,9
370,264	166,06
370,474	-46,93
370,685	143,53
370,896	61,61
371,107	239,78
371,317	73,9
371,528	24,75
371,739	204,97
371,95	123,05
372,16	155,82
372,371	-85,84
372,582	53,42
372,792	98,47
373,003	49,32
373,214	94,38
373,424	104,62
373,635	41,13
373,846	219,3
374,056	104,62
374,267	57,51
374,477	104,62
374,688	55,47
374,898	164,01
375,109	116,9
375,319	71,85
375,53	170,15
375,74	102,57
375,951	20,65
376,161	80,04
376,372	168,1
376,582	18,6
376,793	55,47
377,003	34,99
377,214	30,89
377,424	207,02
377,635	77,99
377,845	47,27
378,055	112,81
378,266	-32,6
378,476	12,46
378,686	106,67
378,897	94,38
379,107	98,47
379,317	137,38
379,528	51,37
379,738	147,62
379,948	-38,74
380,158	184,49
380,369	55,47
380,579	151,72
380,789	82,09
380,999	133,29
381,21	184,49
381,42	172,2
381,63	94,38
381,84	96,43
382,05	123,05
382,261	139,43
382,471	137,38
382,681	24,75
382,891	151,72
383,101	108,71
383,311	-12,12
383,521	16,55
383,731	100,52
383,941	159,91
384,151	135,34
384,361	16,55
384,571	118,95
384,781	80,04
384,991	168,1
385,201	170,15
385,411	151,72
385,621	71,85
385,831	6,31
386,041	20,65
386,251	10,41
386,461	168,1
386,671	73,9
386,881	30,89
387,091	118,95
387,301	178,34
387,511	170,15
387,72	182,44
387,93	219,3
388,14	-30,55
388,35	141,48
388,56	229,54
388,769	116,9
388,979	86,19
389,189	61,61
389,399	114,86
389,609	174,25
389,818	114,86
390,028	188,58
390,238	106,67
390,447	8,36
390,657	145,58
390,867	-51,03
391,076	22,7
391,286	141,48
391,496	-8,02
391,705	86,19
391,915	204,97
392,125	178,34
392,334	88,23
392,544	196,78
392,753	16,55
392,963	16,55
393,172	84,14
393,382	59,56
393,591	153,77
393,801	71,85
394,01	176,3
394,22	127,14
394,429	77,99
394,639	82,09
394,848	118,95
395,058	94,38
395,267	47,27
395,477	59,56
395,686	98,47
395,895	309,41
396,105	225,45
396,314	176,3
396,524	118,95
396,733	106,67
396,942	178,34
397,152	170,15
397,361	141,48
397,57	174,25
397,78	127,14
397,989	104,62
398,198	268,45
398,407	28,84
398,617	88,23
398,826	34,99
399,035	39,08
399,244	118,95
399,453	159,91
399,663	121
399,872	37,03
400,081	-20,31
400,29	172,2
400,499	65,71
400,708	145,58
400,917	94,38
401,127	2,22
401,336	77,99
401,545	221,35
401,754	204,97
401,963	112,81
402,172	59,56
402,381	28,84
402,59	57,51
402,799	133,29
403,008	151,72
403,217	94,38
403,426	96,43
403,635	2,22
403,844	37,03
404,053	-24,4
404,262	34,99
404,471	262,31
404,68	53,42
404,888	102,57
405,097	159,91
405,306	30,89
405,515	106,67
405,724	-30,55
405,933	100,52
406,142	-1,88
406,35	94,38
406,559	77,99
406,768	53,42
406,977	139,43
407,185	127,14
407,394	63,66
407,603	37,03
407,812	123,05
408,02	209,06
408,229	145,58
408,438	141,48
408,646	61,61
408,855	180,39
409,064	209,06
409,272	211,11
409,481	323,75
409,69	221,35
409,898	215,21
410,107	288,93
410,315	325,8
410,524	258,21
410,733	231,59
410,941	227,5
411,15	247,97
411,358	233,64
411,567	235,69
411,775	90,28
411,984	57,51
412,192	92,33
412,401	65,71
412,609	157,86
412,818	200,87
413,026	104,62
413,234	71,85
413,443	84,14
413,651	34,99
413,86	37,03
414,068	151,72
414,276	204,97
414,485	71,85
414,693	200,87
414,901	221,35
415,11	102,57
415,318	63,66
415,526	135,34
415,734	110,76
415,943	96,43
416,151	137,38
416,359	102,57
416,567	92,33
416,776	157,86
416,984	100,52
417,192	125,1
417,4	12,46
417,608	0,17
417,817	-8,02
418,025	227,5
418,233	235,69
418,441	-110,42
418,649	39,08
418,857	-3,93
419,065	182,44
419,273	-28,5
419,481	129,19
419,689	59,56
419,897	26,79
420,105	-71,51
420,313	98,47
420,521	196,78
420,729	149,67
420,937	4,27
421,145	-116,56
421,353	110,76
421,561	34,99
421,769	149,67
421,977	18,6
422,185	90,28
422,393	88,23
422,601	155,82
422,809	118,95
423,017	-38,74
423,224	75,95
423,432	198,82
423,64	45,23
423,848	118,95
424,056	-3,93
424,263	67,75
424,471	59,56
424,679	116,9
424,887	-51,03
425,094	61,61
425,302	118,95
425,51	-3,93
425,718	151,72
425,925	86,19
426,133	30,89
426,341	176,3
426,548	-53,08
426,756	110,76
426,964	18,6
427,171	-18,26
427,379	39,08
427,586	77,99
427,794	178,34
428,001	102,57
428,209	-30,55
428,417	221,35
428,624	118,95
428,832	104,62
429,039	-34,64
429,247	45,23
429,454	121
429,662	200,87
429,869	94,38
430,076	0,17
430,284	73,9
430,491	186,54
430,699	39,08
430,906	153,77
431,114	59,56
431,321	8,36
431,528	71,85
431,736	135,34
431,943	235,69
432,15	209,06
432,358	297,13
432,565	481,44
432,772	364,71
432,979	618,66
433,187	626,85
433,394	819,36
433,601	868,51
433,808	995,48
434,016	1091,74
434,223	958,62
434,43	942,24
434,637	886,94
434,844	854,17
435,052	589,99
435,259	530,59
435,466	432,29
435,673	295,08
435,88	233,64
436,087	258,21
436,294	245,93
436,501	217,26
436,708	84,14
436,915	116,9
437,122	168,1
437,329	90,28
437,537	104,62
437,743	86,19
437,95	170,15
438,157	129,19
438,364	41,13
438,571	55,47
438,778	59,56
438,985	84,14
439,192	153,77
439,399	4,27
439,606	123,05
439,813	127,14
440,02	219,3
440,227	131,24
440,433	69,8
440,64	102,57
440,847	37,03
441,054	127,14
441,261	123,05
441,467	37,03
441,674	4,27
441,881	147,62
442,088	53,42
442,294	73,9
442,501	61,61
442,708	178,34
442,914	69,8
443,121	98,47
443,328	88,23
443,534	69,8
443,741	143,53
443,948	-26,45
444,154	63,66
444,361	229,54
444,568	43,18
444,774	86,19
444,981	-44,88
445,187	137,38
445,394	39,08
445,6	12,46
445,807	127,14
446,013	106,67
446,22	-28,5
446,426	39,08
446,633	77,99
446,839	166,06
447,046	-53,08
447,252	131,24
447,459	-8,02
447,665	-48,98
447,871	20,65
448,078	102,57
448,284	18,6
448,491	159,91
448,697	-3,93
448,903	84,14
449,11	12,46
449,316	-42,84
449,522	121
449,728	94,38
449,935	47,27
450,141	4,27
450,347	88,23
450,553	77,99
450,76	34,99
450,966	53,42
451,172	61,61
451,378	67,75
451,584	45,23
451,791	237,74
451,997	116,9
452,203	-26,45
452,409	153,77
452,615	139,43
452,821	39,08
453,027	-55,12
453,233	174,25
453,44	41,13
453,646	30,89
453,852	-3,93
454,058	-10,07
454,264	-18,26
454,47	161,96
454,676	61,61
454,882	104,62
455,088	161,96
455,294	65,71
455,5	121
455,705	28,84
455,911	37,03
456,117	39,08
456,323	24,75
456,529	139,43
456,735	118,95
456,941	137,38
457,147	86,19
457,352	200,87
457,558	-14,17
457,764	100,52
457,97	73,9
458,176	24,75
458,381	61,61
458,587	155,82
458,793	104,62
458,999	-38,74
459,204	24,75
459,41	6,31
459,616	55,47
459,821	133,29
460,027	10,41
460,233	182,44
460,438	139,43
460,644	47,27
460,85	100,52
461,055	71,85
461,261	149,67
461,466	20,65
461,672	80,04
461,878	-22,36
462,083	90,28
462,289	-18,26
462,494	14,51
462,7	55,47
462,905	82,09
463,111	151,72
463,316	86,19
463,522	143,53
463,727	6,31
463,932	133,29
464,138	61,61
464,343	110,76
464,549	106,67
464,754	143,53
464,959	157,86
465,165	51,37
465,37	84,14
465,575	63,66
465,781	10,41
465,986	-3,93
466,191	86,19
466,397	84,14
466,602	166,06
466,807	34,99
467,012	88,23
467,218	39,08
467,423	123,05
467,628	75,95
467,833	-26,45
468,038	63,66
468,244	-71,51
468,449	-10,07
468,654	106,67
468,859	55,47
469,064	30,89
469,269	88,23
469,474	106,67
469,679	229,54
469,885	110,76
470,09	39,08
470,295	164,01
470,5	69,8
470,705	90,28
470,91	92,33
471,115	168,1
471,32	39,08
471,525	184,49
471,73	268,45
471,935	32,94
472,139	51,37
472,344	43,18
472,549	41,13
472,754	131,24
472,959	112,81
473,164	55,47
473,369	86,19
473,574	106,67
473,778	100,52
473,983	135,34
474,188	143,53
474,393	18,6
474,598	16,55
474,802	55,47
475,007	77,99
475,212	233,64
475,417	-3,93
475,621	178,34
475,826	-8,02
476,031	24,75
476,235	14,51
476,44	34,99
476,645	59,56
476,849	-22,36
477,054	14,51
477,259	65,71
477,463	164,01
477,668	282,79
477,872	155,82
478,077	57,51
478,282	53,42
478,486	47,27
478,691	94,38
478,895	159,91
479,1	141,48
479,304	151,72
479,509	94,38
479,713	172,2
479,918	96,43
480,122	39,08
480,326	100,52
480,531	104,62
480,735	92,33
480,94	49,32
481,144	127,14
481,348	57,51
481,553	135,34
481,757	63,66
481,961	45,23
482,166	53,42
482,37	63,66
482,574	137,38
482,778	32,94
482,983	188,58
483,187	164,01
483,391	145,58
483,595	231,59
483,8	338,09
484,004	751,78
484,208	1237,14
484,412	2117,77
484,616	3248,25
484,821	4556,9
485,025	5840,98
485,229	7503,93
485,433	8986,66
485,637	9820,18
485,841	10459,15
486,045	10915,84
486,249	10801,16
486,453	9922,58
486,657	8835,11
486,861	7991,34
487,065	6565,96
487,269	5511,25
487,473	4409,45
487,677	3651,7
487,881	3221,63
488,085	2209,93
488,289	1724,56
488,493	1300,63
488,697	997,53
488,901	653,47
489,105	426,15
489,309	243,88
489,512	372,9
489,716	250,02
489,92	213,16
490,124	245,93
490,328	274,6
490,531	8,36
490,735	274,6
490,939	77,99
491,143	139,43
491,346	22,7
491,55	63,66
491,754	51,37
491,958	84,14
492,161	80,04
492,365	39,08
492,569	41,13
492,772	127,14
492,976	139,43
493,18	98,47
493,383	155,82
493,587	151,72
493,79	92,33
493,994	18,6
494,197	59,56
494,401	65,71
494,605	69,8
494,808	61,61
495,012	-40,79
495,215	200,87
495,419	184,49
495,622	-28,5
495,825	39,08
496,029	82,09
496,232	159,91
496,436	86,19
496,639	80,04
496,843	69,8
497,046	-20,31
497,249	135,34
497,453	135,34
497,656	-77,65
497,859	26,79
498,063	125,1
498,266	151,72
498,469	-28,5
498,673	-3,93
498,876	26,79
499,079	59,56
499,282	47,27
499,485	245,93
499,689	118,95
499,892	188,58
500,095	41,13
500,298	94,38
500,501	-1,88
500,705	34,99
500,908	71,85
501,111	14,51
501,314	123,05
501,517	215,21
501,72	55,47
501,923	49,32
502,126	47,27
502,329	184,49
502,532	114,86
502,735	45,23
502,938	149,67
503,141	114,86
503,344	0,17
503,547	164,01
503,75	67,75
503,953	-12,12
504,156	102,57
504,359	45,23
504,562	0,17
504,765	-18,26
504,968	45,23
505,17	155,82
505,373	112,81
505,576	131,24
505,779	86,19
505,982	-40,79
506,185	34,99
506,387	20,65
506,59	155,82
506,793	114,86
506,996	49,32
507,198	86,19
507,401	188,58
507,604	102,57
507,807	47,27
508,009	-32,6
508,212	84,14
508,415	6,31
508,617	24,75
508,82	61,61
509,022	164,01
509,225	88,23
509,428	61,61
509,63	67,75
509,833	98,47
510,035	278,69
510,238	137,38
510,44	-5,97
510,643	28,84
510,845	118,95
511,048	121
511,25	135,34
511,453	100,52
511,655	75,95
511,858	213,16
512,06	202,92
512,262	47,27
512,465	32,94
512,667	49,32
512,87	-112,47
513,072	217,26
513,274	94,38
513,477	-94,04
513,679	-28,5
513,881	24,75
514,084	-67,41
514,286	190,63
514,488	67,75
514,69	20,65
514,893	24,75
515,095	69,8
515,297	20,65
515,499	82,09
515,701	-16,21
515,904	143,53
516,106	184,49
516,308	94,38
516,51	37,03
516,712	73,9
516,914	84,14
517,116	39,08
517,318	8,36
517,52	114,86
517,722	131,24
517,925	80,04
518,127	90,28
518,329	155,82
518,531	55,47
518,733	53,42
518,935	-30,55
519,136	61,61
519,338	61,61
519,54	-12,12
519,742	90,28
519,944	135,34
520,146	96,43
520,348	121
520,55	77,99
520,752	-67,41
520,954	-51,03
521,155	34,99
521,357	-34,64
521,559	127,14
521,761	104,62
521,963	147,62
522,164	178,34
522,366	139,43
522,568	145,58
522,77	145,58
522,971	94,38
523,173	20,65
523,375	71,85
523,576	20,65
523,778	16,55
523,98	75,95
524,181	159,91
524,383	155,82
524,584	10,41
524,786	30,89
524,988	41,13
525,189	-1,88
525,391	98,47
525,592	12,46
525,794	-79,7
525,995	63,66
526,197	151,72
526,398	327,85
526,6	84,14
526,801	108,71
527,003	-59,22
527,204	45,23
527,406	84,14
527,607	30,89
527,808	8,36
528,01	30,89
528,211	123,05
528,412	-32,6
528,614	147,62
528,815	135,34
529,016	92,33
529,218	86,19
529,419	12,46
529,62	14,51
529,822	98,47
530,023	43,18
530,224	118,95
530,425	153,77
530,626	-20,31
530,828	18,6
531,029	-42,84
531,23	121
531,431	39,08
531,632	96,43
531,833	-26,45
532,035	65,71
532,236	102,57
532,437	108,71
532,638	30,89
532,839	-30,55
533,04	55,47
533,241	213,16
533,442	43,18
533,643	84,14
533,844	57,51
534,045	51,37
534,246	53,42
534,447	14,51
534,648	65,71
534,849	176,3
535,05	67,75
535,251	-34,64
535,451	129,19
535,652	28,84
535,853	-20,31
536,054	200,87
536,255	-8,02
536,456	51,37
536,657	26,79
536,857	114,86
537,058	102,57
537,259	28,84
537,46	65,71
537,66	49,32
537,861	77,99
538,062	24,75
538,263	-51,03
538,463	135,34
538,664	106,67
538,865	-1,88
539,065	67,75
539,266	26,79
539,466	-79,7
539,667	127,14
539,868	34,99
540,068	57,51
540,269	112,81
540,469	145,58
540,67	155,82
540,87	194,73
541,071	8,36
541,271	180,39
541,472	147,62
541,672	77,99
541,873	127,14
542,073	39,08
542,274	12,46
542,474	145,58
542,675	77,99
542,875	51,37
543,075	-46,93
543,276	57,51
543,476	96,43
543,676	133,29
543,877	10,41
544,077	102,57
544,277	184,49
544,478	90,28
544,678	123,05
544,878	-1,88
545,078	59,56
545,279	34,99
545,479	32,94
545,679	102,57
545,879	59,56
546,079	82,09
546,28	-10,07
546,48	90,28
546,68	221,35
546,88	55,47
547,08	102,57
547,28	104,62
547,48	-5,97
547,68	170,15
547,88	71,85
548,081	90,28
548,281	-32,6
548,481	41,13
548,681	47,27
548,881	69,8
549,081	94,38
549,28	30,89
549,48	108,71
549,68	153,77
549,88	-1,88
550,08	16,55
550,28	80,04
550,48	149,67
550,68	16,55
550,88	43,18
551,08	-85,84
551,279	192,68
551,479	-69,46
551,679	135,34
551,879	-51,03
552,079	92,33
552,278	112,81
552,478	149,67
552,678	94,38
552,878	147,62
553,077	39,08
553,277	49,32
553,477	-5,97
553,676	57,51
553,876	100,52
554,076	90,28
554,275	92,33
554,475	2,22
554,674	149,67
554,874	55,47
555,074	49,32
555,273	12,46
555,473	39,08
555,672	118,95
555,872	147,62
556,071	41,13
556,271	77,99
556,47	65,71
556,67	114,86
556,869	65,71
557,068	12,46
557,268	77,99
557,467	14,51
557,667	118,95
557,866	53,42
558,065	20,65
558,265	10,41
558,464	61,61
558,663	16,55
558,863	166,06
559,062	-3,93
559,261	0,17
559,461	65,71
559,66	55,47
559,859	-10,07
560,058	-1,88
560,258	-89,94
560,457	30,89
560,656	194,73
560,855	-96,08
561,054	116,9
561,253	24,75
561,453	43,18
561,652	69,8
561,851	49,32
562,05	-5,97
562,249	-98,13
562,448	73,9
562,647	-24,4
562,846	-46,93
563,045	143,53
563,244	47,27
563,443	45,23
563,642	67,75
563,841	41,13
564,04	69,8
564,239	-42,84
564,438	61,61
564,637	-75,6
564,836	-12,12
565,035	90,28
565,234	6,31
565,432	96,43
565,631	71,85
565,83	80,04
566,029	12,46
566,228	-73,56
566,427	176,3
566,625	-75,6
566,824	121
567,023	-10,07
567,222	86,19
567,42	28,84
567,619	4,27
567,818	67,75
568,016	262,31
568,215	116,9
568,414	121
568,612	51,37
568,811	57,51
569,01	43,18
569,208	71,85
569,407	118,95
569,605	151,72
569,804	65,71
570,002	161,96
570,201	-8,02
570,4	135,34
570,598	102,57
570,797	135,34
570,995	47,27
571,193	24,75
571,392	86,19
571,59	43,18
571,789	161,96
571,987	161,96
572,186	215,21
572,384	71,85
572,582	82,09
572,781	176,3
572,979	28,84
573,177	8,36
573,376	192,68
573,574	170,15
573,772	32,94
573,971	28,84
574,169	-65,36
574,367	159,91
574,565	41,13
574,763	104,62
574,962	92,33
575,16	110,76
575,358	45,23
575,556	51,37
575,754	-20,31
575,952	151,72
576,151	73,9
576,349	204,97
576,547	30,89
576,745	92,33
576,943	190,63
577,141	57,51
577,339	-24,4
577,537	202,92
577,735	159,91
577,933	118,95
578,131	71,85
578,329	233,64
578,527	104,62
578,725	151,72
578,923	-20,31
579,121	166,06
579,319	-5,97
579,516	37,03
579,714	309,41
579,912	145,58
580,11	-1,88
580,308	96,43
580,506	71,85
580,704	-18,26
580,901	86,19
581,099	278,69
581,297	69,8
581,495	198,82
581,692	147,62
581,89	286,89
582,088	241,83
582,285	137,38
582,483	49,32
582,681	176,3
582,878	137,38
583,076	159,91
583,274	102,57
583,471	260,26
583,669	77,99
583,866	61,61
584,064	94,38
584,262	-5,97
584,459	28,84
584,657	202,92
584,854	198,82
585,052	137,38
585,249	139,43
585,447	65,71
585,644	0,17
585,841	231,59
586,039	161,96
586,236	92,33
586,434	139,43
586,631	-3,93
586,828	53,42
587,026	133,29
587,223	-18,26
587,42	96,43
587,618	77,99
587,815	209,06
588,012	129,19
588,21	96,43
588,407	123,05
588,604	118,95
588,801	73,9
588,999	-24,4
589,196	196,78
589,393	30,89
589,59	116,9
589,787	104,62
589,984	135,34
590,182	170,15
590,379	37,03
590,576	-46,93
590,773	98,47
590,97	-16,21
591,167	39,08
591,364	26,79
591,561	57,51
591,758	219,3
591,955	139,43
592,152	123,05
592,349	-24,4
592,546	-1,88
592,743	47,27
592,94	137,38
593,137	178,34
593,334	200,87
593,531	110,76
593,727	182,44
593,924	159,91
594,121	45,23
594,318	86,19
594,515	262,31
594,712	176,3
594,908	225,45
595,105	47,27
595,302	90,28
595,499	155,82
595,696	180,39
595,892	106,67
596,089	145,58
596,286	77,99
596,482	190,63
596,679	139,43
596,876	55,47
597,072	121
597,269	118,95
597,466	174,25
597,662	84,14
597,859	8,36
598,055	80,04
598,252	88,23
598,448	141,48
598,645	172,2
598,841	153,77
599,038	211,11
599,234	153,77
599,431	192,68
599,627	65,71
599,824	125,1
600,02	45,23
600,217	65,71
600,413	108,71
600,609	112,81
600,806	305,32
601,002	131,24
601,198	57,51
601,395	102,57
601,591	108,71
601,787	98,47
601,984	198,82
602,18	75,95
602,376	45,23
602,572	141,48
602,769	133,29
602,965	77,99
603,161	200,87
603,357	194,73
603,553	166,06
603,75	26,79
603,946	102,57
604,142	118,95
604,338	209,06
604,534	84,14
604,73	125,1
604,926	53,42
605,122	233,64
605,318	57,51
605,514	96,43
605,71	106,67
605,906	168,1
606,102	71,85
606,298	237,74
606,494	219,3
606,69	190,63
606,886	112,81
607,082	96,43
607,278	-40,79
607,474	118,95
607,67	192,68
607,866	55,47
608,062	209,06
608,257	106,67
608,453	-67,41
608,649	73,9
608,845	8,36
609,041	-1,88
609,236	135,34
609,432	75,95
609,628	102,57
609,824	94,38
610,019	47,27
610,215	-16,21
610,411	188,58
610,606	213,16
610,802	67,75
610,998	8,36
611,193	141,48
611,389	-34,64
611,584	34,99
611,78	28,84
611,976	73,9
612,171	186,54
612,367	133,29
612,562	106,67
612,758	141,48
612,953	-59,22
613,149	22,7
613,344	123,05
613,539	20,65
613,735	98,47
613,93	49,32
614,126	77,99
614,321	94,38
614,517	194,73
614,712	135,34
614,907	174,25
615,103	110,76
615,298	37,03
615,493	22,7
615,688	47,27
615,884	96,43
616,079	24,75
616,274	96,43
616,47	-34,64
616,665	39,08
616,86	102,57
617,055	94,38
617,25	-34,64
617,445	14,51
617,641	123,05
617,836	8,36
618,031	-40,79
618,226	71,85
618,421	157,86
618,616	-5,97
618,811	104,62
619,006	-38,74
619,201	147,62
619,396	98,47
619,591	28,84
619,786	149,67
619,981	112,81
620,176	45,23
620,371	16,55
620,566	34,99
620,761	96,43
620,956	57,51
621,151	6,31
621,346	161,96
621,541	39,08
621,735	137,38
621,93	182,44
622,125	22,7
622,32	-85,84
622,515	-59,22
622,709	147,62
622,904	147,62
623,099	125,1
623,294	118,95
623,488	69,8
623,683	108,71
623,878	98,47
624,072	161,96
624,267	-53,08
624,462	4,27
624,656	-42,84
624,851	100,52
625,046	-18,26
625,24	28,84
625,435	51,37
625,629	14,51
625,824	143,53
626,018	108,71
626,213	192,68
626,407	41,13
626,602	53,42
626,796	12,46
626,991	155,82
627,185	45,23
627,38	32,94
627,574	123,05
627,768	157,86
627,963	135,34
628,157	88,23
628,352	-55,12
628,546	-18,26
628,74	80,04
628,935	43,18
629,129	53,42
629,323	47,27
629,517	-71,51
629,712	6,31
629,906	90,28
630,1	121
630,294	118,95
630,489	135,34
630,683	-3,93
630,877	22,7
631,071	141,48
631,265	-22,36
631,459	-48,98
631,653	94,38
631,848	75,95
632,042	84,14
632,236	32,94
632,43	41,13
632,624	82,09
632,818	18,6
633,012	65,71
633,206	59,56
633,4	20,65
633,594	151,72
633,788	121
633,982	75,95
634,176	127,14
634,369	94,38
634,563	123,05
634,757	-20,31
634,951	49,32
635,145	129,19
635,339	20,65
635,533	135,34
635,726	45,23
635,92	-16,21
636,114	2,22
636,308	57,51
636,501	45,23
636,695	37,03
636,889	-36,69
637,083	118,95
637,276	92,33
637,47	57,51
637,664	96,43
637,857	28,84
638,051	20,65
638,244	116,9
638,438	16,55
638,632	233,64
638,825	0,17
639,019	170,15
639,212	12,46
639,406	131,24
639,599	41,13
639,793	12,46
639,986	51,37
640,18	196,78
640,373	14,51
640,567	6,31
640,76	82,09
640,954	84,14
641,147	16,55
641,34	88,23
641,534	137,38
641,727	159,91
641,92	98,47
642,114	121
642,307	8,36
642,5	184,49
642,694	12,46
642,887	121
643,08	229,54
643,273	176,3
643,467	65,71
643,66	100,52
643,853	-8,02
644,046	133,29
644,239	118,95
644,432	24,75
644,626	-71,51
644,819	86,19
645,012	55,47
645,205	73,9
645,398	133,29
645,591	24,75
645,784	-8,02
645,977	16,55
646,17	12,46
646,363	77,99
646,556	-3,93
646,749	12,46
646,942	16,55
647,135	207,02
647,328	49,32
647,521	98,47
647,714	114,86
647,907	102,57
648,099	30,89
648,292	161,96
648,485	59,56
648,678	94,38
648,871	80,04
649,064	39,08
649,256	37,03
649,449	61,61
649,642	-36,69
649,835	55,47
650,027	-46,93
650,22	108,71
650,413	20,65
650,605	51,37
650,798	-16,21
650,991	47,27
651,183	102,57
651,376	145,58
651,568	168,1
651,761	73,9
651,954	213,16
652,146	106,67
652,339	159,91
652,531	221,35
652,724	90,28
652,916	110,76
653,109	6,31
653,301	225,45
653,494	192,68
653,686	209,06
653,879	239,78
654,071	229,54
654,263	217,26
654,456	549,03
654,648	2199,69
654,84	6875,2
655,033	15404,99
655,225	25966,37
655,417	37674,6
655,61	48109
655,802	56132,95
655,994	61046,02
656,186	62668,01
656,379	59981,08
656,571	56046,93
656,763	50423,21
656,955	45618,67
657,148	41530,93
657,34	37817,96
657,532	33928,87
657,724	30502,62
657,916	26947,34
658,108	23328,58
658,3	19246,98
658,492	16215,99
658,684	13170,66
658,876	10721,29
659,068	8683,56
659,26	6752,32
659,452	4952,16
659,644	3696,75
659,836	2623,62
660,028	1888,4
660,22	1233,05
660,412	999,58
660,604	659,62
660,796	610,47
660,988	467,11
661,18	415,91
661,372	422,05
661,563	270,5
661,755	243,88
661,947	170,15
662,139	190,63
662,331	139,43
662,522	108,71
662,714	28,84
662,906	114,86
663,097	137,38
663,289	51,37
663,481	-30,55
663,673	168,1
663,864	100,52
664,056	141,48
664,247	39,08
664,439	241,83
664,631	45,23
664,822	170,15
665,014	61,61
665,205	20,65
665,397	37,03
665,588	96,43
665,78	37,03
665,971	39,08
666,163	41,13
666,354	116,9
666,546	4,27
666,737	86,19
666,929	26,79
667,12	-36,69
667,311	65,71
667,503	49,32
667,694	110,76
667,885	145,58
668,077	82,09
668,268	-24,4
668,459	69,8
668,651	118,95
668,842	43,18
669,033	-16,21
669,224	30,89
669,416	243,88
669,607	-32,6
669,798	-14,17
669,989	151,72
670,18	37,03
670,371	96,43
670,563	-116,56
670,754	92,33
670,945	153,77
671,136	77,99
671,327	-36,69
671,518	102,57
671,709	145,58
671,9	37,03
672,091	186,54
672,282	61,61
672,473	45,23
672,664	6,31
672,855	39,08
673,046	57,51
673,237	92,33
673,428	30,89
673,619	155,82
673,809	12,46
674	139,43
674,191	84,14
674,382	-12,12
674,573	20,65
674,764	67,75
674,954	125,1
675,145	-44,88
675,336	-10,07
675,527	6,31
675,717	30,89
675,908	6,31
676,099	67,75
676,289	-12,12
676,48	-42,84
676,671	47,27
676,861	-42,84
677,052	82,09
677,243	-71,51
677,433	-28,5
677,624	106,67
677,814	30,89
678,005	-36,69
678,195	157,86
678,386	-34,64
678,576	43,18
678,767	-98,13
678,957	24,75
679,148	22,7
679,338	147,62
679,529	37,03
679,719	20,65
679,909	100,52
680,1	63,66
680,29	104,62
680,481	-89,94
680,671	41,13
680,861	14,51
681,052	67,75
681,242	-44,88
681,432	6,31
681,622	14,51
681,813	-135
682,003	-26,45
682,193	-46,93
682,383	26,79
682,573	51,37
682,764	-22,36
682,954	20,65
683,144	86,19
683,334	-42,84
683,524	-8,02
683,714	20,65
683,904	-28,5
684,094	-57,17
684,284	-42,84
684,474	157,86
684,664	77,99
684,854	-8,02
685,044	51,37
685,234	67,75
685,424	37,03
685,614	12,46
685,804	155,82
685,994	12,46
686,184	10,41
686,374	55,47
686,564	-22,36
686,753	30,89
686,943	-63,32
687,133	-8,02
687,323	-16,21
687,513	51,37
687,702	28,84
687,892	-46,93
688,082	106,67
688,272	51,37
688,461	28,84
688,651	147,62
688,841	96,43
689,03	75,95
689,22	22,7
689,41	69,8
689,599	14,51
689,789	-65,36
689,979	184,49
690,168	18,6
690,358	114,86
690,547	22,7
690,737	96,43
690,926	73,9
691,116	53,42
691,305	51,37
691,495	127,14
691,684	-61,27
691,874	-48,98
692,063	-40,79
692,252	133,29
692,442	141,48
692,631	-32,6
692,82	-91,99
693,01	98,47
693,199	-57,17
693,388	88,23
693,578	-5,97
693,767	41,13
693,956	73,9
694,146	37,03
694,335	49,32
694,524	41,13
694,713	180,39
694,902	16,55
695,092	-22,36
695,281	61,61
695,47	32,94
695,659	22,7
695,848	-61,27
696,037	-20,31
696,226	98,47
696,415	94,38
696,604	198,82
696,793	149,67
696,982	-14,17
697,171	147,62
697,36	43,18
697,549	2,22
697,738	4,27
697,927	14,51
698,116	-71,51
698,305	51,37
698,494	8,36
698,683	12,46
698,872	172,2
699,061	84,14
699,25	6,31
699,438	71,85
699,627	-10,07
699,816	80,04
700,005	-67,41
700,193	-36,69
700,382	90,28
700,571	32,94
700,76	110,76
700,948	108,71
701,137	37,03
701,326	143,53
701,514	0,17
701,703	22,7
701,892	37,03
702,08	178,34
702,269	-22,36
702,457	-20,31
702,646	51,37
702,834	28,84
703,023	149,67
703,212	34,99
703,4	77,99
703,589	18,6
703,777	20,65
703,965	16,55
704,154	47,27
704,342	-46,93
704,531	39,08
704,719	-8,02
704,907	71,85
705,096	-100,18
705,284	-46,93
705,472	43,18
705,661	92,33
705,849	98,47
706,037	108,71
706,226	63,66
706,414	24,75
706,602	10,41
706,79	112,81
706,979	-8,02
707,167	-8,02
707,355	-71,51
707,543	65,71
707,731	86,19
707,919	16,55
708,107	-98,13
708,296	-20,31
708,484	-40,79
708,672	69,8
708,86	30,89
709,048	96,43
709,236	-83,8
709,424	86,19
709,612	86,19
709,8	-73,56
709,988	-10,07
710,176	75,95
710,364	157,86
710,551	-26,45
710,739	45,23
710,927	4,27
711,115	-26,45
711,303	16,55
711,491	135,34
711,679	-51,03
711,866	77,99
712,054	24,75
712,242	6,31
712,43	47,27
712,617	0,17
712,805	121
712,993	24,75
713,181	-53,08
713,368	51,37
713,556	-3,93
713,744	-28,5
713,931	157,86
714,119	100,52
714,306	10,41
714,494	-40,79
714,682	6,31
714,869	-44,88
715,057	34,99
715,244	-118,61
715,432	30,89
715,619	-57,17
715,807	-51,03
715,994	-44,88
716,182	65,71
716,369	92,33
716,556	63,66
716,744	-77,65
716,931	-124,76
717,119	106,67
717,306	30,89
717,493	104,62
717,681	28,84
717,868	-57,17
718,055	65,71
718,242	20,65
718,43	51,37
718,617	47,27
718,804	-40,79
718,991	12,46
719,179	-30,55
719,366	20,65
719,553	-44,88
719,74	73,9
719,927	-44,88
720,114	-20,31
720,301	-65,36
720,488	-46,93
720,676	-96,08
720,863	59,56
721,05	88,23
721,237	26,79
721,424	49,32
721,611	41,13
721,798	-141,14
721,985	-8,02
722,172	49,32
722,358	-73,56
722,545	121
722,732	12,46
722,919	131,24
723,106	37,03
723,293	28,84
723,48	-44,88
723,667	10,41
723,853	67,75
724,04	49,32
724,227	61,61
724,414	-12,12
724,6	110,76
724,787	129,19
724,974	258,21
725,161	-1,88
725,347	-24,4
725,534	49,32
725,72	102,57
725,907	84,14
726,094	37,03
726,28	-79,7
726,467	-16,21
726,653	-40,79
726,84	88,23
727,027	184,49
727,213	-22,36
727,4	22,7
727,586	32,94
727,773	59,56
727,959	-24,4
728,145	-24,4
728,332	-36,69
728,518	-87,89
728,705	43,18
728,891	8,36
729,077	4,27
729,264	-63,32
729,45	24,75
729,636	133,29
729,823	110,76
730,009	106,67
730,195	24,75
730,382	34,99
730,568	-151,38
730,754	18,6
730,94	53,42
731,126	63,66
731,313	55,47
731,499	-69,46
731,685	71,85
731,871	102,57
732,057	-14,17
732,243	86,19
732,429	22,7
732,615	118,95
732,801	71,85
732,987	-51,03
733,173	94,38
733,359	-67,41
733,545	-14,17
733,731	-1,88
733,917	139,43
734,103	102,57
734,289	-26,45
734,475	-67,41
734,661	243,88
734,847	39,08
735,033	-44,88
735,219	45,23
735,404	6,31
735,59	-10,07
735,776	-22,36
735,962	24,75
736,148	49,32
736,333	102,57
736,519	34,99
736,705	-24,4
736,89	32,94
737,076	37,03
737,262	-18,26
737,447	-12,12
737,633	-30,55
737,819	98,47
738,004	-8,02
738,19	-24,4
738,375	-1,88
738,561	82,09
738,747	12,46
738,932	-71,51
739,118	204,97
739,303	118,95
739,489	94,38
739,674	104,62
739,859	-55,12
740,045	123,05
740,23	49,32
740,416	-192,34
740,601	-3,93
740,786	45,23
740,972	-57,17
741,157	28,84
741,342	-44,88
741,528	-200,53
741,713	118,95
741,898	10,41
742,084	-26,45
742,269	6,31
742,454	69,8
742,639	41,13
742,824	45,23
743,01	45,23
743,195	118,95
743,38	32,94
743,565	102,57
743,75	43,18
743,935	67,75
744,12	121
744,305	-53,08
744,49	-24,4
744,675	-8,02
744,86	30,89
745,045	45,23
745,23	-22,36
745,415	57,51
745,6	172,2
745,785	-89,94
745,97	100,52
746,155	39,08
746,34	61,61
746,525	30,89
746,71	145,58
746,895	-87,89
747,079	-61,27
747,264	-108,37
747,449	184,49
747,634	153,77
747,819	112,81
748,003	92,33
748,188	26,79
748,373	110,76
748,557	98,47
748,742	63,66
748,927	-18,26
749,111	-28,5
749,296	24,75
749,481	37,03
749,665	-5,97
749,85	32,94
750,034	-14,17
750,219	75,95
750,404	-20,31
750,588	90,28
750,773	-5,97
750,957	37,03
751,141	30,89
751,326	114,86
751,51	-71,51
751,695	-61,27
751,879	-10,07
752,064	153,77
752,248	24,75
752,432	159,91
752,617	82,09
752,801	32,94
752,985	-3,93
753,17	151,72
753,354	-8,02
753,538	118,95
753,722	-51,03
753,907	12,46
754,091	-65,36
754,275	116,9
754,459	-53,08
754,643	53,42
754,828	77,99
755,012	110,76
755,196	-53,08
755,38	8,36
755,564	-10,07
755,748	57,51
755,932	37,03
756,116	139,43
756,3	127,14
756,484	63,66
756,668	37,03
756,852	-110,42
757,036	-83,8
757,22	0,17
757,404	22,7
757,588	-42,84
757,772	12,46
757,956	-44,88
758,14	188,58
758,323	-8,02
758,507	55,47
758,691	-32,6
758,875	84,14
759,059	30,89
759,242	37,03
759,426	39,08
759,61	65,71
759,794	-42,84
759,977	108,71
760,161	260,26
760,345	104,62
760,528	98,47
760,712	133,29
760,895	24,75
761,079	26,79
761,263	-118,61
761,446	-157,52
761,63	-1,88
761,813	86,19
761,997	-96,08
762,18	41,13
762,364	10,41
762,547	-69,46
762,731	55,47
762,914	8,36
763,098	24,75
763,281	-20,31
763,464	22,7
763,648	0,17
763,831	-24,4
764,015	-57,17
764,198	94,38
764,381	-63,32
764,564	-44,88
764,748	16,55
764,931	41,13
765,114	16,55
765,297	77,99
765,481	-44,88
765,664	26,79
765,847	-10,07
766,03	110,76
766,213	-85,84
766,397	-51,03
766,58	-104,28
766,763	127,14
766,946	-42,84
767,129	20,65
767,312	-28,5
767,495	41,13
767,678	-67,41
767,861	51,37
768,044	-1,88
768,227	-59,22
768,41	26,79
768,593	49,32
768,776	-24,4
768,959	41,13
769,142	112,81
769,324	65,71
769,507	63,66
769,69	-28,5
769,873	34,99
770,056	211,11
770,239	-12,12
770,421	127,14
770,604	47,27
770,787	-16,21
770,97	4,27
771,152	-51,03
771,335	37,03
771,518	-12,12
771,7	57,51
771,883	196,78
772,066	-65,36
772,248	-8,02
772,431	127,14
772,613	75,95
772,796	-14,17
772,978	69,8
773,161	96,43
773,343	-22,36
773,526	-48,98
773,708	-124,76
773,891	-124,76
774,073	45,23
774,256	14,51
774,438	174,25
774,621	-89,94
774,803	43,18
774,985	16,55
775,168	96,43
775,35	-28,5
775,532	47,27
775,715	-12,12
775,897	39,08
776,079	-3,93
776,261	172,2
776,444	233,64
776,626	372,9
776,808	579,75
776,99	661,66
777,173	962,72
777,355	927,9
777,537	948,38
777,719	897,18
777,901	776,35
778,083	770,21
778,265	606,37
778,447	700,58
778,629	458,92
778,811	483,49
778,993	463,01
779,175	385,19
779,357	307,37
779,539	63,66
779,721	282,79
779,903	237,74
780,085	131,24
780,267	102,57
780,449	53,42
780,631	135,34
780,812	131,24
780,994	4,27
781,176	-14,17
781,358	-8,02
781,54	-12,12
781,721	123,05
781,903	143,53
782,085	8,36
782,267	133,29
782,448	-77,65
782,63	-8,02
782,812	32,94
782,993	118,95
783,175	63,66
783,357	-3,93
783,538	41,13
783,72	16,55
783,901	30,89
784,083	24,75
784,264	69,8
784,446	-73,56
784,627	-73,56
784,809	34,99
784,99	55,47
785,172	45,23
785,353	-59,22
785,535	86,19
785,716	-36,69
785,897	-42,84
786,079	-3,93
786,26	-32,6
786,441	53,42
786,623	-83,8
786,804	-34,64
786,985	-48,98
787,167	2,22
787,348	51,37
787,529	16,55
787,71	123,05
787,891	28,84
788,073	-63,32
788,254	-57,17
788,435	153,77
788,616	-40,79
788,797	-5,97
788,978	43,18
789,159	10,41
789,34	49,32
789,522	-30,55
789,703	12,46
789,884	67,75
790,065	37,03
790,246	131,24
790,427	-69,46
790,607	129,19
790,788	129,19
790,969	6,31
791,15	32,94
791,331	-91,99
791,512	-30,55
791,693	-44,88
791,874	14,51
792,054	178,34
792,235	12,46
792,416	-63,32
792,597	-12,12
792,778	-16,21
792,958	45,23
793,139	57,51
793,32	57,51
793,5	2,22
793,681	121
793,862	14,51
794,042	63,66
794,223	-46,93
794,404	-1,88
794,584	-69,46
794,765	-32,6
794,945	26,79
795,126	63,66
795,306	84,14
795,487	-30,55
795,667	-51,03
795,848	8,36
796,028	-22,36
796,209	37,03
796,389	77,99
796,57	-22,36
796,75	-96,08
796,93	-22,36
797,111	-71,51
797,291	-40,79
797,471	102,57
797,652	8,36
797,832	-42,84
798,012	61,61
798,192	-91,99
798,373	-126,8
798,553	-12,12
798,733	12,46
798,913	-46,93
799,093	-100,18
799,274	8,36
799,454	32,94
799,634	80,04
799,814	135,34
799,994	47,27
800,174	106,67
800,354	22,7
800,534	-44,88
800,714	-14,17
800,894	-44,88
801,074	-91,99
801,254	-51,03
801,434	77,99
801,614	-44,88
801,794	-38,74
801,974	1964,17
802,154	-85,84
802,334	77,99
802,514	-102,23
802,693	10,41
802,873	-3,93
803,053	51,37
803,233	84,14
803,413	-12,12
803,592	-44,88
803,772	-73,56
803,952	61,61
804,131	-104,28
804,311	63,66
804,491	129,19
804,67	-18,26
804,85	-14,17
805,03	75,95
805,209	41,13
805,389	24,75
805,568	-108,37
805,748	-3,93
805,928	-10,07
806,107	4,27
806,287	8,36
806,466	14,51
806,646	-38,74
806,825	-81,75
807,004	57,51
807,184	61,61
807,363	47,27
807,543	18,6
807,722	-8,02
807,901	-3,93
808,081	77,99
808,26	-206,67
808,439	57,51
808,619	-36,69
808,798	47,27
808,977	51,37
809,156	47,27
809,336	-53,08
809,515	104,62
809,694	-30,55
809,873	-3,93
810,052	-12,12
810,231	61,61
810,411	47,27
810,59	98,47
810,769	55,47
810,948	55,47
811,127	-34,64
811,306	-18,26
811,485	-20,31
811,664	118,95
811,843	4,27
812,022	-96,08
812,201	57,51
812,38	-53,08
812,559	16,55
812,737	69,8
812,916	-51,03
813,095	-65,36
813,274	65,71
813,453	4,27
813,632	41,13
813,811	4,27
813,989	-139,09
814,168	43,18
814,347	-96,08
814,526	-48,98
814,704	88,23
814,883	75,95
815,062	-34,64
815,24	39,08
815,419	-126,8
815,598	-26,45
815,776	-104,28
815,955	-8,02
816,133	-151,38
816,312	-81,75
816,49	-83,8
816,669	-24,4
816,847	-20,31
817,026	-14,17
817,204	-18,26
817,383	-20,31
817,561	-38,74
817,74	-22,36
817,918	65,71
818,097	-12,12
818,275	-143,19
818,453	94,38
818,632	49,32
818,81	-28,5
818,988	4,27
819,167	-8,02
819,345	12,46
819,523	-65,36
819,701	45,23
819,879	-28,5
820,058	18,6
820,236	8,36
820,414	-3,93
820,592	-79,7
820,77	-85,84
820,948	-77,65
821,127	-42,84
821,305	28,84
821,483	-124,76
821,661	22,7
821,839	39,08
822,017	-53,08
822,195	18,6
822,373	94,38
822,551	-1,88
822,729	20,65
822,907	16,55
823,085	51,37
823,262	-71,51
823,44	-77,65
823,618	-42,84
823,796	-1,88
823,974	2,22
824,152	-30,55
824,329	-77,65
824,507	-34,64
824,685	28,84
824,863	-38,74
825,04	-18,26
825,218	39,08
825,396	86,19
825,574	24,75
825,751	-22,36
825,929	86,19
826,107	-132,95
826,284	-48,98
826,462	24,75
826,639	-104,28
826,817	-102,23
826,994	-30,55
827,172	-135
827,349	73,9
827,527	-3,93
827,704	-22,36
827,882	59,56
828,059	-24,4
828,237	-55,12
828,414	108,71
828,591	-104,28
828,769	28,84
828,946	-87,89
829,124	20,65
829,301	32,94
829,478	-26,45
829,655	-22,36
829,833	-34,64
830,01	-89,94
830,187	-3,93
830,364	-24,4
830,542	6,31
830,719	141,48
830,896	51,37
831,073	34,99
831,25	-32,6
831,427	145,58
831,604	-26,45
831,782	-1,88
831,959	55,47
832,136	-89,94
832,313	-8,02
832,49	-77,65
832,667	53,42
832,844	12,46
833,021	139,43
833,198	-61,27
833,374	-38,74
833,551	2,22
833,728	-28,5
833,905	73,9
834,082	-180,05
834,259	-18,26
834,436	45,23
834,612	-1,88
834,789	55,47
834,966	-55,12
835,143	69,8
835,319	-79,7
835,496	14,51
835,673	-36,69
835,85	24,75
836,026	82,09
836,203	65,71
836,38	-112,47
836,556	-22,36
836,733	59,56
836,909	196,78
837,086	-28,5
837,262	-91,99
837,439	28,84
837,616	-106,32
837,792	-10,07
837,968	-12,12
838,145	-71,51
838,321	16,55
838,498	4,27
838,674	59,56
838,851	8,36
839,027	-22,36
839,203	-38,74
839,38	24,75
839,556	-71,51
839,732	114,86
839,909	-28,5
840,085	63,66
840,261	-30,55
840,437	-61,27
840,614	-40,79
840,79	96,43
840,966	37,03
841,142	22,7
841,318	-69,46
841,494	53,42
841,671	49,32
841,847	-98,13
842,023	-26,45
842,199	16,55
842,375	108,71
842,551	-89,94
842,727	-126,8
842,903	135,34
843,079	-69,46
843,255	98,47
843,431	65,71
843,607	102,57
843,783	-59,22
843,959	176,3
844,134	147,62
844,31	385,19
844,486	288,93
844,662	342,18
844,838	297,13
845,013	264,36
845,189	293,03
845,365	233,64
845,541	176,3
845,716	145,58
845,892	192,68
846,068	139,43
846,244	59,56
846,419	151,72
846,595	14,51
846,77	94,38
846,946	112,81
847,122	102,57
847,297	12,46
847,473	151,72
847,648	-5,97
847,824	69,8
847,999	-48,98
848,175	-1,88
848,35	32,94
848,526	45,23
848,701	157,86
848,876	170,15
849,052	84,14
849,227	-14,17
849,403	20,65
849,578	-51,03
849,753	32,94
849,929	-16,21
850,104	-173,91
850,279	-40,79
850,454	63,66
850,63	41,13
850,805	45,23
850,98	-40,79
851,155	47,27
851,33	-36,69
851,505	-30,55
851,681	127,14
851,856	-61,27
852,031	28,84
852,206	57,51
852,381	-44,88
852,556	-32,6
852,731	39,08
852,906	86,19
853,081	49,32
853,256	118,95
853,431	-18,26
853,606	-75,6
853,781	-79,7
853,956	-247,63
854,131	16,55
854,305	-94,04
854,48	-53,08
854,655	-57,17
854,83	20,65
855,005	-24,4
855,18	57,51
855,354	30,89
855,529	24,75
855,704	-8,02
855,879	-3,93
856,053	-59,22
856,228	32,94
856,403	-122,71
856,577	37,03
856,752	-114,52
856,926	22,7
857,101	-8,02
857,276	-102,23
857,45	-69,46
857,625	100,52
857,799	39,08
857,974	4,27
858,148	-128,85
858,323	-28,5
858,497	-28,5
858,672	-12,12
858,846	0,17
859,02	-46,93
859,195	-108,37
859,369	20,65
859,543	-28,5
859,718	-42,84
859,892	-12,12
860,066	73,9
860,241	-94,04
860,415	-51,03
860,589	-16,21
860,763	-5,97
860,938	-69,46
861,112	49,32
861,286	-46,93
861,46	-59,22
861,634	34,99
861,808	53,42
861,982	-147,28
862,157	-104,28
862,331	-44,88
862,505	-118,61
862,679	-96,08
862,853	-34,64
863,027	-61,27
863,201	102,57
863,375	-63,32
863,549	69,8
863,722	16,55
863,896	28,84
864,07	-24,4
864,244	-36,69
864,418	10,41
864,592	-46,93
864,766	71,85
864,939	86,19
865,113	8,36
865,287	108,71
865,461	-81,75
865,634	24,75
865,808	-53,08
865,982	24,75
866,156	-77,65
866,329	-87,89
866,503	84,14
866,676	159,91
866,85	53,42
867,024	-53,08
867,197	39,08
867,371	65,71
867,544	24,75
867,718	-132,95
867,891	98,47
868,065	-100,18
868,238	-22,36
868,412	61,61
868,585	45,23
868,759	-87,89
868,932	-12,12
869,105	-69,46
869,279	69,8
869,452	-98,13
869,625	84,14
869,799	-83,8
869,972	-116,56
870,145	-36,69
870,319	20,65
870,492	-108,37
870,665	-42,84
870,838	-34,64
871,011	-237,39
871,185	-18,26
871,358	-14,17
871,531	100,52
871,704	-110,42
871,877	8,36
872,05	-42,84
872,223	-28,5
872,396	61,61
872,569	32,94
872,742	-59,22
872,915	71,85
873,088	16,55
873,261	-36,69
873,434	16,55
873,607	-77,65
873,78	102,57
873,953	-89,94
874,126	-30,55
874,299	12,46
874,471	45,23
874,644	-34,64
874,817	80,04
874,99	184,49
875,163	-44,88
875,335	67,75
875,508	41,13
875,681	77,99
875,853	-38,74
876,026	-18,26
876,199	65,71
876,371	-34,64
876,544	-75,6
876,717	-12,12
876,889	-5,97
877,062	-8,02
877,234	-42,84
877,407	-59,22
877,579	-20,31
877,752	20,65
877,924	135,34
878,097	-18,26
878,269	51,37
878,442	-18,26
878,614	-46,93
878,786	34,99
878,959	-1,88
879,131	30,89
879,303	-192,34
879,476	-28,5
879,648	-3,93
879,82	-18,26
879,993	-96,08
880,165	4,27
880,337	-157,52
880,509	-3,93
880,681	-59,22
880,854	-73,56
881,026	39,08
881,198	139,43
881,37	57,51
881,542	-46,93
881,714	-69,46
881,886	-12,12
882,058	0,17
882,23	14,51
882,402	12,46
882,574	-30,55
882,746	51,37
882,918	102,57
883,09	65,71
883,262	-14,17
883,434	-24,4
883,606	-34,64
883,778	-12,12
883,95	51,37
884,122	-40,79
884,293	135,34
884,465	26,79
884,637	86,19
884,809	-65,36
884,98	22,7
885,152	92,33
885,324	34,99
885,496	-44,88
885,667	6,31
885,839	4,27
886,011	155,82
886,182	65,71
886,354	-18,26
886,525	2,22
886,697	12,46
886,869	-87,89
887,04	-114,52
887,212	108,71
887,383	114,86
887,555	49,32
887,726	-61,27
887,897	-116,56
888,069	-67,41
888,24	12,46
888,412	-30,55
888,583	22,7
888,754	-51,03
888,926	-36,69
889,097	-75,6
889,268	-130,9
889,44	24,75
889,611	-100,18
889,782	-145,24
889,953	-104,28
890,125	110,76
890,296	-139,09
890,467	-73,56
890,638	-44,88
890,809	-36,69
890,98	-24,4
891,151	75,95
891,323	90,28
891,494	-42,84
891,665	-61,27
891,836	20,65
892,007	-30,55
892,178	69,8
892,349	30,89
892,52	-42,84
892,691	-42,84
892,862	-67,41
893,032	-57,17
893,203	-30,55
893,374	4,27
893,545	98,47
893,716	-163,67
893,887	24,75
894,057	12,46
894,228	2,22
894,399	-81,75
894,57	88,23
894,74	-38,74
894,911	43,18
895,082	6,31
895,253	-53,08
895,423	-28,5
895,594	43,18
895,764	49,32
895,935	-75,6
896,106	14,51
896,276	-34,64
896,447	30,89
896,617	-91,99
896,788	-65,36
896,958	-40,79
897,129	-77,65
897,299	-100,18
897,47	102,57
897,64	94,38
897,81	-3,93
897,981	-38,74
898,151	-40,79
898,322	24,75
898,492	51,37
898,662	-46,93
898,832	-22,36
899,003	-20,31
899,173	118,95
899,343	-110,42
899,513	-91,99
