Data from deuterium_USB4F104151__28__10-57-07-620.txt Node

Date: Wed Apr 15 10:57:07 EDT 2026
User: LaboPhy
Spectrometer: USB4F10415
Trigger mode: 4
Integration Time (sec): 1,000000E-1
Scans to average: 1
Electric dark correction enabled: true
Nonlinearity correction enabled: false
Boxcar width: 0
XAxis mode: Wavelengths
Number of Pixels in Spectrum: 3648
>>>>>Begin Spectral Data<<<<<
178,204	-496,46
178,424	-496,46
178,644	-496,46
178,864	-467,79
179,084	-445,26
179,304	7,34
179,524	-56,15
179,744	-7
179,964	64,68
180,184	-0,85
180,404	15,53
180,624	-9,05
180,844	23,72
181,064	-45,91
181,283	9,39
181,503	-25,43
181,723	23,72
181,943	-146,26
182,163	220,33
182,383	-33,62
182,602	7,34
182,822	169,13
183,042	-4,95
183,262	-29,52
183,482	-47,96
183,701	23,72
183,921	29,87
184,141	-58,2
184,361	46,25
184,58	122,02
184,8	79,02
185,02	-72,53
185,239	58,54
185,459	146,6
185,679	128,17
185,898	-133,97
186,118	23,72
186,338	122,02
186,557	122,02
186,777	-105,3
186,997	1,19
187,216	46,25
187,436	191,66
187,655	31,91
187,875	68,78
188,095	-9,05
188,314	177,32
188,534	109,74
188,753	-82,77
188,973	109,74
189,192	220,33
189,412	21,67
189,631	29,87
189,851	83,11
190,07	81,07
190,29	-68,44
190,509	-41,81
190,729	11,43
190,948	111,78
191,168	193,7
191,387	29,87
191,607	-15,19
191,826	107,69
192,045	27,82
192,265	-21,33
192,484	117,93
192,704	-9,05
192,923	-62,29
193,142	224,42
193,362	50,35
193,581	87,21
193,8	46,25
194,02	95,4
194,239	29,87
194,458	103,59
194,678	64,68
194,897	-37,72
195,116	103,59
195,335	36,01
195,555	-9,05
195,774	-35,67
195,993	111,78
196,212	44,2
196,432	11,43
196,651	-107,35
196,87	44,2
197,089	283,81
197,308	29,87
197,528	36,01
197,747	-103,25
197,966	64,68
198,185	113,83
198,404	-21,33
198,623	140,46
198,842	126,12
199,062	13,48
199,281	117,93
199,5	62,63
199,719	56,49
199,938	48,3
200,157	136,36
200,376	146,6
200,595	79,02
200,814	-2,9
201,033	-62,29
201,252	126,12
201,471	81,07
201,69	83,11
201,909	-29,52
202,128	56,49
202,347	101,55
202,566	-9,05
202,785	-19,29
203,004	5,29
203,223	300,2
203,442	17,58
203,661	-70,48
203,879	95,4
204,098	117,93
204,317	-41,81
204,536	103,59
204,755	181,42
204,974	76,97
205,193	-11,09
205,411	140,46
205,63	25,77
205,849	50,35
206,068	-39,76
206,287	-142,16
206,505	134,31
206,724	-11,09
206,943	-37,72
207,162	-45,91
207,381	25,77
207,599	-37,72
207,818	44,2
208,037	-62,29
208,255	21,67
208,474	93,35
208,693	74,92
208,911	5,29
209,13	54,44
209,349	15,53
209,567	109,74
209,786	36,01
210,005	33,96
210,223	-17,24
210,442	-127,83
210,661	-29,52
210,879	56,49
211,098	5,29
211,316	33,96
211,535	95,4
211,753	68,78
211,972	111,78
212,191	23,72
212,409	38,06
212,628	85,16
212,846	29,87
213,065	-7
213,283	91,31
213,502	48,3
213,72	23,72
213,938	48,3
214,157	-41,81
214,375	150,7
214,594	72,87
214,812	72,87
215,031	-45,91
215,249	19,63
215,467	44,2
215,686	7,34
215,904	40,11
216,122	-19,29
216,341	197,8
216,559	50,35
216,778	162,98
216,996	162,98
217,214	-37,72
217,432	-101,2
217,651	-113,49
217,869	-11,09
218,087	17,58
218,306	-4,95
218,524	101,55
218,742	-11,09
218,96	79,02
219,179	31,91
219,397	27,82
219,615	177,32
219,833	60,59
220,051	-52,05
220,27	17,58
220,488	50,35
220,706	21,67
220,924	-9,05
221,142	-21,33
221,36	95,4
221,578	85,16
221,796	21,67
222,015	31,91
222,233	68,78
222,451	175,27
222,669	27,82
222,887	85,16
223,105	38,06
223,323	-11,09
223,541	3,24
223,759	62,63
223,977	42,15
224,195	187,56
224,413	85,16
224,631	-41,81
224,849	62,63
225,067	253,09
225,285	-29,52
225,503	-41,81
225,721	-127,83
225,939	-7
226,157	-13,14
226,375	183,46
226,592	-15,19
226,81	58,54
227,028	113,83
227,246	132,26
227,464	62,63
227,682	76,97
227,9	-11,09
228,117	70,83
228,335	19,63
228,553	5,29
228,771	-27,48
228,989	128,17
229,206	140,46
229,424	-25,43
229,642	-19,29
229,86	-43,86
230,077	93,35
230,295	95,4
230,513	54,44
230,731	29,87
230,948	138,41
231,166	189,61
231,384	-25,43
231,601	-31,57
231,819	134,31
232,037	15,53
232,254	-95,06
232,472	-23,38
232,689	-31,57
232,907	93,35
233,125	7,34
233,342	1,19
233,56	-7
233,777	1,19
233,995	-19,29
234,213	93,35
234,43	109,74
234,648	-86,87
234,865	46,25
235,083	21,67
235,3	31,91
235,518	107,69
235,735	72,87
235,953	93,35
236,17	81,07
236,388	-60,24
236,605	36,01
236,822	97,45
237,04	68,78
237,257	7,34
237,475	-39,76
237,692	21,67
237,909	126,12
238,127	33,96
238,344	122,02
238,562	9,39
238,779	-29,52
238,996	-27,48
239,214	-31,57
239,431	62,63
239,648	9,39
239,865	17,58
240,083	-7
240,3	3,24
240,517	56,49
240,735	150,7
240,952	154,79
241,169	31,91
241,386	64,68
241,603	21,67
241,821	-99,16
242,038	70,83
242,255	91,31
242,472	23,72
242,689	29,87
242,907	56,49
243,124	70,83
243,341	27,82
243,558	-99,16
243,775	-21,33
243,992	5,29
244,209	58,54
244,426	113,83
244,643	36,01
244,86	-72,53
245,078	101,55
245,295	-21,33
245,512	56,49
245,729	-15,19
245,946	21,67
246,163	-0,85
246,38	-41,81
246,597	85,16
246,814	27,82
247,031	13,48
247,248	19,63
247,464	111,78
247,681	85,16
247,898	19,63
248,115	36,01
248,332	-23,38
248,549	58,54
248,766	208,04
248,983	97,45
249,2	126,12
249,417	74,92
249,633	-37,72
249,85	87,21
250,067	-33,62
250,284	-0,85
250,501	58,54
250,717	68,78
250,934	-17,24
251,151	38,06
251,368	9,39
251,585	105,64
251,801	31,91
252,018	-86,87
252,235	126,12
252,451	-101,2
252,668	42,15
252,885	208,04
253,102	-39,76
253,318	-9,05
253,535	-47,96
253,752	19,63
253,968	-47,96
254,185	-66,39
254,401	-11,09
254,618	72,87
254,835	-62,29
255,051	126,12
255,268	38,06
255,484	-4,95
255,701	-41,81
255,917	29,87
256,134	-43,86
256,351	17,58
256,567	-9,05
256,784	81,07
257	-103,25
257,217	81,07
257,433	46,25
257,65	-4,95
257,866	128,17
258,082	-58,2
258,299	-64,34
258,515	27,82
258,732	52,39
258,948	-37,72
259,165	117,93
259,381	-84,82
259,597	58,54
259,814	42,15
260,03	-7
260,246	29,87
260,463	72,87
260,679	31,91
260,895	113,83
261,112	-4,95
261,328	-35,67
261,544	-54,1
261,761	124,07
261,977	-43,86
262,193	1,19
262,409	58,54
262,626	58,54
262,842	66,73
263,058	-9,05
263,274	83,11
263,49	1,19
263,707	62,63
263,923	107,69
264,139	-113,49
264,355	38,06
264,571	109,74
264,787	68,78
265,004	146,6
265,22	33,96
265,436	-13,14
265,652	50,35
265,868	117,93
266,084	-74,58
266,3	62,63
266,516	-4,95
266,732	31,91
266,948	3,24
267,164	29,87
267,38	-9,05
267,596	83,11
267,812	158,89
268,028	60,59
268,244	62,63
268,46	-9,05
268,676	-56,15
268,892	52,39
269,108	-21,33
269,324	-39,76
269,54	-29,52
269,756	-15,19
269,972	-123,73
270,188	-11,09
270,403	-50
270,619	-9,05
270,835	56,49
271,051	72,87
271,267	3,24
271,483	-41,81
271,698	128,17
271,914	85,16
272,13	58,54
272,346	-27,48
272,562	160,94
272,777	158,89
272,993	21,67
273,209	-35,67
273,425	101,55
273,64	-95,06
273,856	21,67
274,072	-37,72
274,287	-54,1
274,503	85,16
274,719	56,49
274,934	19,63
275,15	-56,15
275,366	-15,19
275,581	-43,86
275,797	-17,24
276,012	64,68
276,228	3,24
276,444	68,78
276,659	138,41
276,875	-21,33
277,09	23,72
277,306	56,49
277,521	105,64
277,737	-2,9
277,952	60,59
278,168	74,92
278,383	-4,95
278,599	27,82
278,814	130,22
279,03	42,15
279,245	124,07
279,461	-2,9
279,676	95,4
279,892	-78,68
280,107	60,59
280,322	-68,44
280,538	95,4
280,753	-37,72
280,969	46,25
281,184	-19,29
281,399	103,59
281,615	7,34
281,83	56,49
282,045	-107,35
282,26	-4,95
282,476	-27,48
282,691	105,64
282,906	99,5
283,122	54,44
283,337	-15,19
283,552	103,59
283,767	-25,43
283,983	162,98
284,198	64,68
284,413	74,92
284,628	-19,29
284,843	31,91
285,058	38,06
285,274	42,15
285,489	-72,53
285,704	91,31
285,919	9,39
286,134	19,63
286,349	36,01
286,564	-13,14
286,779	115,88
286,995	-47,96
287,21	-80,72
287,425	13,48
287,64	-2,9
287,855	95,4
288,07	-119,64
288,285	126,12
288,5	70,83
288,715	70,83
288,93	31,91
289,145	-109,4
289,36	156,84
289,575	-7
289,79	97,45
290,004	21,67
290,219	107,69
290,434	-84,82
290,649	-29,52
290,864	-0,85
291,079	-31,57
291,294	44,2
291,509	44,2
291,724	-17,24
291,938	-37,72
292,153	50,35
292,368	-62,29
292,583	101,55
292,798	52,39
293,012	36,01
293,227	83,11
293,442	-25,43
293,657	91,31
293,871	171,18
294,086	36,01
294,301	193,7
294,516	72,87
294,73	13,48
294,945	-62,29
295,16	29,87
295,374	128,17
295,589	124,07
295,804	23,72
296,018	48,3
296,233	115,88
296,447	9,39
296,662	-2,9
296,877	70,83
297,091	97,45
297,306	-78,68
297,52	70,83
297,735	62,63
297,949	38,06
298,164	76,97
298,378	29,87
298,593	-66,39
298,807	1,19
299,022	54,44
299,236	165,03
299,451	23,72
299,665	38,06
299,88	-2,9
300,094	-19,29
300,309	54,44
300,523	48,3
300,737	-13,14
300,952	87,21
301,166	99,5
301,381	42,15
301,595	-2,9
301,809	36,01
302,024	-27,48
302,238	-95,06
302,452	132,26
302,667	48,3
302,881	111,78
303,095	162,98
303,309	-37,72
303,524	5,29
303,738	19,63
303,952	23,72
304,166	109,74
304,381	-99,16
304,595	160,94
304,809	-2,9
305,023	-25,43
305,237	15,53
305,452	13,48
305,666	85,16
305,88	3,24
306,094	140,46
306,308	79,02
306,522	113,83
306,736	31,91
306,95	162,98
307,164	70,83
307,379	5,29
307,593	142,5
307,807	103,59
308,021	21,67
308,235	70,83
308,449	-41,81
308,663	19,63
308,877	240,81
309,091	48,3
309,305	101,55
309,519	-111,44
309,733	193,7
309,947	-84,82
310,161	-15,19
310,374	126,12
310,588	140,46
310,802	-45,91
311,016	-4,95
311,23	93,35
311,444	-162,64
311,658	62,63
311,872	107,69
312,085	76,97
312,299	187,56
312,513	148,65
312,727	70,83
312,941	-93,01
313,154	23,72
313,368	40,11
313,582	62,63
313,796	89,26
314,009	-19,29
314,223	142,5
314,437	74,92
314,651	146,6
314,864	-2,9
315,078	-21,33
315,292	-13,14
315,505	40,11
315,719	64,68
315,933	148,65
316,146	-7
316,36	-23,38
316,573	187,56
316,787	3,24
317,001	79,02
317,214	-11,09
317,428	5,29
317,641	-74,58
317,855	21,67
318,068	130,22
318,282	113,83
318,495	205,99
318,709	99,5
318,922	3,24
319,136	199,85
319,349	56,49
319,563	33,96
319,776	54,44
319,99	19,63
320,203	42,15
320,417	29,87
320,63	111,78
320,843	148,65
321,057	76,97
321,27	25,77
321,483	124,07
321,697	167,08
321,91	140,46
322,124	68,78
322,337	101,55
322,55	-25,43
322,763	46,25
322,977	68,78
323,19	-95,06
323,403	5,29
323,617	3,24
323,83	-4,95
324,043	-52,05
324,256	91,31
324,469	-43,86
324,683	60,59
324,896	79,02
325,109	42,15
325,322	-23,38
325,535	150,7
325,748	38,06
325,962	48,3
326,175	-27,48
326,388	117,93
326,601	122,02
326,814	29,87
327,027	72,87
327,24	85,16
327,453	-13,14
327,666	76,97
327,879	117,93
328,092	44,2
328,305	13,48
328,518	13,48
328,731	-74,58
328,944	70,83
329,157	70,83
329,37	11,43
329,583	199,85
329,796	95,4
330,009	-64,34
330,222	109,74
330,435	99,5
330,648	105,64
330,861	124,07
331,073	-11,09
331,286	93,35
331,499	72,87
331,712	-68,44
331,925	48,3
332,138	36,01
332,35	128,17
332,563	-37,72
332,776	175,27
332,989	-2,9
333,202	-2,9
333,414	46,25
333,627	76,97
333,84	54,44
334,053	54,44
334,265	17,58
334,478	-15,19
334,691	19,63
334,903	64,68
335,116	52,39
335,329	64,68
335,541	60,59
335,754	162,98
335,966	17,58
336,179	46,25
336,392	70,83
336,604	99,5
336,817	138,41
337,029	148,65
337,242	40,11
337,454	132,26
337,667	89,26
337,88	183,46
338,092	56,49
338,305	44,2
338,517	5,29
338,729	126,12
338,942	111,78
339,154	-123,73
339,367	-2,9
339,579	70,83
339,792	11,43
340,004	122,02
340,217	25,77
340,429	62,63
340,641	-84,82
340,854	76,97
341,066	7,34
341,278	216,23
341,491	150,7
341,703	5,29
341,915	42,15
342,128	138,41
342,34	91,31
342,552	-37,72
342,764	17,58
342,977	70,83
343,189	136,36
343,401	29,87
343,613	-35,67
343,826	122,02
344,038	36,01
344,25	81,07
344,462	-0,85
344,674	72,87
344,886	-9,05
345,099	76,97
345,311	60,59
345,523	15,53
345,735	-9,05
345,947	21,67
346,159	72,87
346,371	122,02
346,583	-0,85
346,795	216,23
347,007	48,3
347,219	91,31
347,431	5,29
347,643	183,46
347,855	42,15
348,067	130,22
348,279	-17,24
348,491	21,67
348,703	146,6
348,915	-33,62
349,127	89,26
349,339	136,36
349,551	54,44
349,763	156,84
349,975	44,2
350,187	60,59
350,399	154,79
350,61	171,18
350,822	36,01
351,034	87,21
351,246	148,65
351,458	93,35
351,669	97,45
351,881	111,78
352,093	158,89
352,305	142,5
352,517	173,22
352,728	152,74
352,94	13,48
353,152	95,4
353,363	-0,85
353,575	68,78
353,787	193,7
353,999	54,44
354,21	165,03
354,422	29,87
354,633	46,25
354,845	5,29
355,057	60,59
355,268	38,06
355,48	179,37
355,692	-21,33
355,903	5,29
356,115	44,2
356,326	-78,68
356,538	175,27
356,749	138,41
356,961	179,37
357,172	83,11
357,384	-4,95
357,595	277,67
357,807	66,73
358,018	31,91
358,23	-0,85
358,441	216,23
358,653	99,5
358,864	113,83
359,075	48,3
359,287	101,55
359,498	111,78
359,709	113,83
359,921	13,48
360,132	70,83
360,344	132,26
360,555	68,78
360,766	124,07
360,977	62,63
361,189	171,18
361,4	56,49
361,611	156,84
361,823	111,78
362,034	146,6
362,245	-4,95
362,456	87,21
362,667	175,27
362,879	46,25
363,09	117,93
363,301	113,83
363,512	97,45
363,723	36,01
363,935	111,78
364,146	152,74
364,357	74,92
364,568	142,5
364,779	-9,05
364,99	197,8
365,201	15,53
365,412	171,18
365,623	-129,88
365,834	134,31
366,045	93,35
366,256	128,17
366,467	117,93
366,678	79,02
366,889	68,78
367,1	74,92
367,311	238,76
367,522	60,59
367,733	156,84
367,944	126,12
368,155	89,26
368,366	101,55
368,577	142,5
368,788	101,55
368,999	25,77
369,209	70,83
369,42	255,14
369,631	330,92
369,842	156,84
370,053	122,02
370,264	162,98
370,474	38,06
370,685	72,87
370,896	74,92
371,107	117,93
371,317	134,31
371,528	64,68
371,739	216,23
371,95	109,74
372,16	119,98
372,371	-54,1
372,582	44,2
372,792	119,98
373,003	138,41
373,214	62,63
373,424	126,12
373,635	-19,29
373,846	136,36
374,056	31,91
374,267	156,84
374,477	93,35
374,688	3,24
374,898	156,84
375,109	91,31
375,319	46,25
375,53	165,03
375,74	150,7
375,951	23,72
376,161	107,69
376,372	220,33
376,582	52,39
376,793	119,98
377,003	27,82
377,214	27,82
377,424	62,63
377,635	101,55
377,845	-97,11
378,055	142,5
378,266	-47,96
378,476	109,74
378,686	93,35
378,897	158,89
379,107	152,74
379,317	144,55
379,528	3,24
379,738	134,31
379,948	-13,14
380,158	169,13
380,369	9,39
380,579	167,08
380,789	56,49
380,999	144,55
381,21	154,79
381,42	128,17
381,63	1,19
381,84	195,75
382,05	87,21
382,261	185,51
382,471	208,04
382,681	87,21
382,891	179,37
383,101	144,55
383,311	21,67
383,521	27,82
383,731	119,98
383,941	136,36
384,151	158,89
384,361	60,59
384,571	95,4
384,781	89,26
384,991	218,28
385,201	265,38
385,411	85,16
385,621	103,59
385,831	156,84
386,041	140,46
386,251	109,74
386,461	134,31
386,671	97,45
386,881	60,59
387,091	19,63
387,301	119,98
387,511	99,5
387,72	91,31
387,93	177,32
388,14	-19,29
388,35	95,4
388,56	165,03
388,769	72,87
388,979	111,78
389,189	-23,38
389,399	91,31
389,609	160,94
389,818	124,07
390,028	160,94
390,238	140,46
390,447	31,91
390,657	152,74
390,867	74,92
391,076	-19,29
391,286	185,51
391,496	60,59
391,705	83,11
391,915	126,12
392,125	122,02
392,334	60,59
392,544	148,65
392,753	99,5
392,963	19,63
393,172	46,25
393,382	-2,9
393,591	259,24
393,801	44,2
394,01	246,95
394,22	117,93
394,429	210,09
394,639	126,12
394,848	142,5
395,058	70,83
395,267	87,21
395,477	115,88
395,686	93,35
395,895	232,62
396,105	292,01
396,314	156,84
396,524	105,64
396,733	117,93
396,942	234,66
397,152	179,37
397,361	224,42
397,57	93,35
397,78	126,12
397,989	101,55
398,198	249
398,407	91,31
398,617	87,21
398,826	83,11
399,035	19,63
399,244	68,78
399,453	70,83
399,663	60,59
399,872	119,98
400,081	-45,91
400,29	191,66
400,499	48,3
400,708	95,4
400,917	103,59
401,127	13,48
401,336	81,07
401,545	160,94
401,754	193,7
401,963	83,11
402,172	70,83
402,381	52,39
402,59	70,83
402,799	46,25
403,008	165,03
403,217	21,67
403,426	132,26
403,635	-37,72
403,844	60,59
404,053	-2,9
404,262	19,63
404,471	152,74
404,68	64,68
404,888	76,97
405,097	50,35
405,306	156,84
405,515	165,03
405,724	117,93
405,933	134,31
406,142	-7
406,35	107,69
406,559	25,77
406,768	138,41
406,977	197,8
407,185	23,72
407,394	107,69
407,603	19,63
407,812	160,94
408,02	179,37
408,229	126,12
408,438	79,02
408,646	62,63
408,855	171,18
409,064	175,27
409,272	119,98
409,481	281,77
409,69	214,18
409,898	197,8
410,107	263,33
410,315	269,48
410,524	177,32
410,733	201,9
410,941	197,8
411,15	234,66
411,358	179,37
411,567	259,24
411,775	113,83
411,984	79,02
412,192	60,59
412,401	44,2
412,609	136,36
412,818	150,7
413,026	134,31
413,234	-19,29
413,443	25,77
413,651	-0,85
413,86	56,49
414,068	148,65
414,276	257,19
414,485	44,2
414,693	218,28
414,901	185,51
415,11	60,59
415,318	56,49
415,526	83,11
415,734	150,7
415,943	11,43
416,151	140,46
416,359	36,01
416,567	52,39
416,776	191,66
416,984	175,27
417,192	156,84
417,4	13,48
417,608	-2,9
417,817	-52,05
418,025	199,85
418,233	236,71
418,441	-33,62
418,649	11,43
418,857	36,01
419,065	191,66
419,273	29,87
419,481	74,92
419,689	62,63
419,897	-2,9
420,105	-9,05
420,313	142,5
420,521	91,31
420,729	117,93
420,937	60,59
421,145	-35,67
421,353	165,03
421,561	119,98
421,769	38,06
421,977	29,87
422,185	136,36
422,393	64,68
422,601	169,13
422,809	99,5
423,017	93,35
423,224	85,16
423,432	62,63
423,64	52,39
423,848	158,89
424,056	-50
424,263	99,5
424,471	38,06
424,679	134,31
424,887	-31,57
425,094	160,94
425,302	93,35
425,51	33,96
425,718	136,36
425,925	13,48
426,133	44,2
426,341	259,24
426,548	76,97
426,756	31,91
426,964	72,87
427,171	-31,57
427,379	-0,85
427,586	21,67
427,794	195,75
428,001	156,84
428,209	15,53
428,417	119,98
428,624	66,73
428,832	46,25
429,039	70,83
429,247	44,2
429,454	119,98
429,662	136,36
429,869	93,35
430,076	56,49
430,284	89,26
430,491	197,8
430,699	138,41
430,906	246,95
431,114	113,83
431,321	117,93
431,528	33,96
431,736	175,27
431,943	158,89
432,15	318,63
432,358	408,74
432,565	429,22
432,772	304,29
432,979	636,06
433,187	605,35
433,394	826,53
433,601	836,77
433,808	1014,94
434,016	978,08
434,223	914,59
434,43	875,68
434,637	857,25
434,844	748,7
435,052	642,21
435,259	447,65
435,466	396,45
435,673	339,11
435,88	238,76
436,087	234,66
436,294	257,19
436,501	173,22
436,708	111,78
436,915	91,31
437,122	201,9
437,329	56,49
437,537	3,24
437,743	105,64
437,95	128,17
438,157	38,06
438,364	56,49
438,571	40,11
438,778	85,16
438,985	50,35
439,192	62,63
439,399	31,91
439,606	93,35
439,813	54,44
440,02	173,22
440,227	152,74
440,433	117,93
440,64	23,72
440,847	9,39
441,054	158,89
441,261	228,52
441,467	87,21
441,674	-64,34
441,881	152,74
442,088	23,72
442,294	93,35
442,501	83,11
442,708	117,93
442,914	-50
443,121	111,78
443,328	64,68
443,534	93,35
443,741	21,67
443,948	-11,09
444,154	101,55
444,361	249
444,568	31,91
444,774	56,49
444,981	-97,11
445,187	113,83
445,394	58,54
445,6	-15,19
445,807	19,63
446,013	-0,85
446,22	-58,2
446,426	56,49
446,633	81,07
446,839	230,57
447,046	-58,2
447,252	89,26
447,459	27,82
447,665	17,58
447,871	-4,95
448,078	199,85
448,284	109,74
448,491	146,6
448,697	122,02
448,903	160,94
449,11	64,68
449,316	-2,9
449,522	208,04
449,728	122,02
449,935	85,16
450,141	76,97
450,347	132,26
450,553	97,45
450,76	81,07
450,966	-4,95
451,172	109,74
451,378	95,4
451,584	60,59
451,791	195,75
451,997	66,73
452,203	11,43
452,409	134,31
452,615	175,27
452,821	-0,85
453,027	-7
453,233	122,02
453,44	11,43
453,646	1,19
453,852	19,63
454,058	-41,81
454,264	119,98
454,47	70,83
454,676	42,15
454,882	93,35
455,088	68,78
455,294	113,83
455,5	83,11
455,705	181,42
455,911	-0,85
456,117	-2,9
456,323	58,54
456,529	115,88
456,735	19,63
456,941	68,78
457,147	138,41
457,352	85,16
457,558	-2,9
457,764	101,55
457,97	-29,52
458,176	93,35
458,381	13,48
458,587	152,74
458,793	83,11
458,999	27,82
459,204	29,87
459,41	46,25
459,616	40,11
459,821	68,78
460,027	-54,1
460,233	68,78
460,438	83,11
460,644	101,55
460,85	79,02
461,055	64,68
461,261	101,55
461,466	7,34
461,672	64,68
461,878	7,34
462,083	128,17
462,289	-50
462,494	44,2
462,7	107,69
462,905	44,2
463,111	126,12
463,316	144,55
463,522	136,36
463,727	36,01
463,932	111,78
464,138	97,45
464,343	76,97
464,549	113,83
464,754	138,41
464,959	144,55
465,165	3,24
465,37	81,07
465,575	128,17
465,781	44,2
465,986	11,43
466,191	50,35
466,397	103,59
466,602	160,94
466,807	13,48
467,012	199,85
467,218	93,35
467,423	19,63
467,628	21,67
467,833	25,77
468,038	93,35
468,244	-62,29
468,449	85,16
468,654	62,63
468,859	29,87
469,064	113,83
469,269	11,43
469,474	126,12
469,679	95,4
469,885	117,93
470,09	66,73
470,295	68,78
470,5	42,15
470,705	109,74
470,91	52,39
471,115	197,8
471,32	5,29
471,525	220,33
471,73	171,18
471,935	68,78
472,139	83,11
472,344	-52,05
472,549	70,83
472,754	214,18
472,959	189,61
473,164	99,5
473,369	40,11
473,574	144,55
473,778	70,83
473,983	70,83
474,188	46,25
474,393	56,49
474,598	58,54
474,802	68,78
475,007	138,41
475,212	183,46
475,417	7,34
475,621	138,41
475,826	-39,76
476,031	113,83
476,235	-21,33
476,44	27,82
476,645	83,11
476,849	76,97
477,054	33,96
477,259	56,49
477,463	205,99
477,668	236,71
477,872	154,79
478,077	117,93
478,282	50,35
478,486	126,12
478,691	-7
478,895	54,44
479,1	124,07
479,304	242,85
479,509	124,07
479,713	273,57
479,918	124,07
480,122	68,78
480,326	42,15
480,531	13,48
480,735	76,97
480,94	48,3
481,144	179,37
481,348	89,26
481,553	132,26
481,757	95,4
481,961	44,2
482,166	81,07
482,37	111,78
482,574	201,9
482,778	38,06
482,983	89,26
483,187	128,17
483,391	162,98
483,595	136,36
483,8	359,59
484,004	791,71
484,208	1254,55
484,412	2153,61
484,616	3134,59
484,821	4389,99
485,025	5932,11
485,229	7439,42
485,433	8645,67
485,637	10038,29
485,841	10517,51
486,045	10767,37
486,249	10456,08
486,453	9718,81
486,657	9128,99
486,861	7853,11
487,065	6462,54
487,269	5559,38
487,473	4435,05
487,677	3769,46
487,881	3241,08
488,085	2321,54
488,289	1916,05
488,493	1311,89
488,697	1078,43
488,901	623,78
489,105	390,31
489,309	292,01
489,512	304,29
489,716	294,05
489,92	162,98
490,124	201,9
490,328	255,14
490,531	119,98
490,735	169,13
490,939	52,39
491,143	111,78
491,346	158,89
491,55	50,35
491,754	169,13
491,958	150,7
492,161	52,39
492,365	50,35
492,569	33,96
492,772	128,17
492,976	183,46
493,18	89,26
493,383	179,37
493,587	111,78
493,79	142,5
493,994	3,24
494,197	70,83
494,401	76,97
494,605	17,58
494,808	79,02
495,012	50,35
495,215	146,6
495,419	212,14
495,622	58,54
495,825	81,07
496,029	48,3
496,232	117,93
496,436	19,63
496,639	74,92
496,843	74,92
497,046	-50
497,249	111,78
497,453	150,7
497,656	-41,81
497,859	68,78
498,063	85,16
498,266	113,83
498,469	-27,48
498,673	11,43
498,876	40,11
499,079	19,63
499,282	-2,9
499,485	281,77
499,689	87,21
499,892	74,92
500,095	64,68
500,298	44,2
500,501	-80,72
500,705	-17,24
500,908	89,26
501,111	-29,52
501,314	103,59
501,517	97,45
501,72	7,34
501,923	115,88
502,126	44,2
502,329	70,83
502,532	64,68
502,735	113,83
502,938	197,8
503,141	132,26
503,344	-29,52
503,547	105,64
503,75	-19,29
503,953	-33,62
504,156	66,73
504,359	44,2
504,562	-2,9
504,765	-0,85
504,968	175,27
505,17	-62,29
505,373	85,16
505,576	197,8
505,779	46,25
505,982	3,24
506,185	66,73
506,387	83,11
506,59	138,41
506,793	23,72
506,996	64,68
507,198	105,64
507,401	107,69
507,604	111,78
507,807	58,54
508,009	76,97
508,212	175,27
508,415	60,59
508,617	23,72
508,82	21,67
509,022	44,2
509,225	109,74
509,428	46,25
509,63	103,59
509,833	-7
510,035	240,81
510,238	76,97
510,44	-45,91
510,643	122,02
510,845	93,35
511,048	117,93
511,25	99,5
511,453	68,78
511,655	21,67
511,858	224,42
512,06	187,56
512,262	13,48
512,465	62,63
512,667	66,73
512,87	-50
513,072	197,8
513,274	93,35
513,477	-78,68
513,679	48,3
513,881	109,74
514,084	-27,48
514,286	173,22
514,488	25,77
514,69	62,63
514,893	-13,14
515,095	48,3
515,297	-19,29
515,499	89,26
515,701	-35,67
515,904	103,59
516,106	165,03
516,308	105,64
516,51	52,39
516,712	152,74
516,914	95,4
517,116	17,58
517,318	17,58
517,52	40,11
517,722	105,64
517,925	-23,38
518,127	58,54
518,329	224,42
518,531	-7
518,733	105,64
518,935	21,67
519,136	76,97
519,338	-41,81
519,54	91,31
519,742	56,49
519,944	111,78
520,146	124,07
520,348	42,15
520,55	193,7
520,752	-82,77
520,954	-13,14
521,155	97,45
521,357	29,87
521,559	152,74
521,761	107,69
521,963	173,22
522,164	72,87
522,366	93,35
522,568	54,44
522,77	60,59
522,971	117,93
523,173	-2,9
523,375	72,87
523,576	38,06
523,778	93,35
523,98	31,91
524,181	152,74
524,383	138,41
524,584	1,19
524,786	25,77
524,988	29,87
525,189	99,5
525,391	97,45
525,592	-74,58
525,794	-47,96
525,995	-2,9
526,197	36,01
526,398	244,9
526,6	31,91
526,801	105,64
527,003	-56,15
527,204	-41,81
527,406	50,35
527,607	103,59
527,808	56,49
528,01	44,2
528,211	105,64
528,412	-15,19
528,614	179,37
528,815	136,36
529,016	93,35
529,218	119,98
529,419	117,93
529,62	-4,95
529,822	54,44
530,023	31,91
530,224	23,72
530,425	113,83
530,626	13,48
530,828	72,87
531,029	-33,62
531,23	132,26
531,431	-41,81
531,632	134,31
531,833	-47,96
532,035	27,82
532,236	-15,19
532,437	117,93
532,638	-17,24
532,839	-54,1
533,04	66,73
533,241	117,93
533,442	-15,19
533,643	93,35
533,844	-19,29
534,045	54,44
534,246	74,92
534,447	42,15
534,648	70,83
534,849	128,17
535,05	17,58
535,251	-4,95
535,451	171,18
535,652	27,82
535,853	-58,2
536,054	191,66
536,255	15,53
536,456	23,72
536,657	44,2
536,857	74,92
537,058	107,69
537,259	5,29
537,46	11,43
537,66	36,01
537,861	150,7
538,062	66,73
538,263	-54,1
538,463	70,83
538,664	109,74
538,865	1,19
539,065	103,59
539,266	150,7
539,466	-29,52
539,667	201,9
539,868	50,35
540,068	17,58
540,269	89,26
540,469	93,35
540,67	130,22
540,87	177,32
541,071	-39,76
541,271	99,5
541,472	134,31
541,672	101,55
541,873	99,5
542,073	-25,43
542,274	27,82
542,474	128,17
542,675	156,84
542,875	31,91
543,075	79,02
543,276	17,58
543,476	111,78
543,676	138,41
543,877	-7
544,077	64,68
544,277	122,02
544,478	11,43
544,678	148,65
544,878	54,44
545,078	87,21
545,279	40,11
545,479	-15,19
545,679	-37,72
545,879	11,43
546,079	113,83
546,28	-9,05
546,48	58,54
546,68	167,08
546,88	50,35
547,08	91,31
547,28	89,26
547,48	19,63
547,68	89,26
547,88	72,87
548,081	99,5
548,281	-88,92
548,481	87,21
548,681	158,89
548,881	87,21
549,081	101,55
549,28	128,17
549,48	17,58
549,68	70,83
549,88	38,06
550,08	-45,91
550,28	-4,95
550,48	109,74
550,68	-21,33
550,88	76,97
551,08	-37,72
551,279	79,02
551,479	48,3
551,679	158,89
551,879	42,15
552,079	21,67
552,278	52,39
552,478	122,02
552,678	66,73
552,878	85,16
553,077	66,73
553,277	3,24
553,477	70,83
553,676	175,27
553,876	95,4
554,076	27,82
554,275	124,07
554,475	68,78
554,674	79,02
554,874	70,83
555,074	3,24
555,273	46,25
555,473	-4,95
555,672	70,83
555,872	17,58
556,071	93,35
556,271	115,88
556,47	70,83
556,67	122,02
556,869	60,59
557,068	-19,29
557,268	76,97
557,467	33,96
557,667	148,65
557,866	136,36
558,065	29,87
558,265	13,48
558,464	-9,05
558,663	74,92
558,863	160,94
559,062	111,78
559,261	60,59
559,461	74,92
559,66	-50
559,859	-41,81
560,058	-50
560,258	-23,38
560,457	23,72
560,656	167,08
560,855	-62,29
561,054	117,93
561,253	95,4
561,453	144,55
561,652	132,26
561,851	101,55
562,05	-4,95
562,249	-119,64
562,448	136,36
562,647	-19,29
562,846	70,83
563,045	126,12
563,244	25,77
563,443	27,82
563,642	52,39
563,841	29,87
564,04	117,93
564,239	89,26
564,438	58,54
564,637	-41,81
564,836	-19,29
565,035	25,77
565,234	-25,43
565,432	81,07
565,631	52,39
565,83	23,72
566,029	-25,43
566,228	-7
566,427	107,69
566,625	-41,81
566,824	95,4
567,023	9,39
567,222	56,49
567,42	25,77
567,619	154,79
567,818	56,49
568,016	324,77
568,215	93,35
568,414	142,5
568,612	31,91
568,811	111,78
569,01	99,5
569,208	68,78
569,407	193,7
569,605	175,27
569,804	74,92
570,002	76,97
570,201	-23,38
570,4	230,57
570,598	64,68
570,797	148,65
570,995	21,67
571,193	91,31
571,392	119,98
571,59	-50
571,789	240,81
571,987	167,08
572,186	150,7
572,384	99,5
572,582	31,91
572,781	156,84
572,979	99,5
573,177	85,16
573,376	117,93
573,574	171,18
573,772	15,53
573,971	79,02
574,169	-27,48
574,367	156,84
574,565	21,67
574,763	1,19
574,962	79,02
575,16	64,68
575,358	25,77
575,556	44,2
575,754	117,93
575,952	62,63
576,151	119,98
576,349	142,5
576,547	7,34
576,745	64,68
576,943	115,88
577,141	220,33
577,339	-50
577,537	126,12
577,735	171,18
577,933	150,7
578,131	23,72
578,329	246,95
578,527	148,65
578,725	226,47
578,923	-62,29
579,121	144,55
579,319	17,58
579,516	115,88
579,714	228,52
579,912	109,74
580,11	40,11
580,308	132,26
580,506	48,3
580,704	7,34
580,901	83,11
581,099	210,09
581,297	160,94
581,495	156,84
581,692	160,94
581,89	332,97
582,088	183,46
582,285	140,46
582,483	111,78
582,681	93,35
582,878	175,27
583,076	124,07
583,274	126,12
583,471	263,33
583,669	142,5
583,866	11,43
584,064	87,21
584,262	13,48
584,459	58,54
584,657	181,42
584,854	273,57
585,052	160,94
585,249	173,22
585,447	181,42
585,644	-35,67
585,841	167,08
586,039	158,89
586,236	167,08
586,434	62,63
586,631	66,73
586,828	60,59
587,026	58,54
587,223	-15,19
587,42	17,58
587,618	140,46
587,815	148,65
588,012	136,36
588,21	54,44
588,407	210,09
588,604	66,73
588,801	-21,33
588,999	76,97
589,196	111,78
589,393	-15,19
589,59	115,88
589,787	138,41
589,984	136,36
590,182	122,02
590,379	19,63
590,576	66,73
590,773	113,83
590,97	-25,43
591,167	107,69
591,364	89,26
591,561	93,35
591,758	126,12
591,955	177,32
592,152	111,78
592,349	36,01
592,546	64,68
592,743	25,77
592,94	64,68
593,137	148,65
593,334	134,31
593,531	283,81
593,727	185,51
593,924	89,26
594,121	93,35
594,318	134,31
594,515	109,74
594,712	257,19
594,908	244,9
595,105	-35,67
595,302	171,18
595,499	99,5
595,696	242,85
595,892	9,39
596,089	191,66
596,286	50,35
596,482	285,86
596,679	142,5
596,876	52,39
597,072	91,31
597,269	17,58
597,466	105,64
597,662	9,39
597,859	21,67
598,055	115,88
598,252	144,55
598,448	128,17
598,645	150,7
598,841	158,89
599,038	226,47
599,234	173,22
599,431	199,85
599,627	224,42
599,824	105,64
600,02	79,02
600,217	58,54
600,413	42,15
600,609	156,84
600,806	359,59
601,002	107,69
601,198	68,78
601,395	179,37
601,591	212,14
601,787	144,55
601,984	249
602,18	122,02
602,376	89,26
602,572	122,02
602,769	203,94
602,965	128,17
603,161	169,13
603,357	138,41
603,553	257,19
603,75	50,35
603,946	29,87
604,142	117,93
604,338	154,79
604,534	52,39
604,73	103,59
604,926	13,48
605,122	214,18
605,318	107,69
605,514	150,7
605,71	68,78
605,906	105,64
606,102	171,18
606,298	140,46
606,494	175,27
606,69	326,82
606,886	144,55
607,082	183,46
607,278	3,24
607,474	117,93
607,67	74,92
607,866	13,48
608,062	119,98
608,257	175,27
608,453	5,29
608,649	52,39
608,845	-21,33
609,041	15,53
609,236	111,78
609,432	177,32
609,628	136,36
609,824	130,22
610,019	113,83
610,215	38,06
610,411	224,42
610,606	224,42
610,802	-29,52
610,998	46,25
611,193	193,7
611,389	15,53
611,584	142,5
611,78	-9,05
611,976	68,78
612,171	330,92
612,367	44,2
612,562	31,91
612,758	93,35
612,953	-27,48
613,149	128,17
613,344	126,12
613,539	-31,57
613,735	187,56
613,93	44,2
614,126	38,06
614,321	85,16
614,517	181,42
614,712	97,45
614,907	251,05
615,103	103,59
615,298	15,53
615,493	1,19
615,688	66,73
615,884	119,98
616,079	68,78
616,274	154,79
616,47	27,82
616,665	44,2
616,86	72,87
617,055	79,02
617,25	-101,2
617,445	91,31
617,641	19,63
617,836	44,2
618,031	7,34
618,226	76,97
618,421	167,08
618,616	13,48
618,811	54,44
619,006	-21,33
619,201	136,36
619,396	70,83
619,591	3,24
619,786	93,35
619,981	249
620,176	19,63
620,371	-50
620,566	21,67
620,761	165,03
620,956	70,83
621,151	-13,14
621,346	109,74
621,541	29,87
621,735	152,74
621,93	64,68
622,125	52,39
622,32	-76,63
622,515	-76,63
622,709	122,02
622,904	154,79
623,099	119,98
623,294	142,5
623,488	89,26
623,683	85,16
623,878	23,72
624,072	119,98
624,267	50,35
624,462	68,78
624,656	-27,48
624,851	126,12
625,046	-0,85
625,24	-9,05
625,435	11,43
625,629	46,25
625,824	162,98
626,018	46,25
626,213	85,16
626,407	40,11
626,602	56,49
626,796	48,3
626,991	99,5
627,185	25,77
627,38	33,96
627,574	197,8
627,768	83,11
627,963	54,44
628,157	68,78
628,352	13,48
628,546	-17,24
628,74	83,11
628,935	74,92
629,129	83,11
629,323	132,26
629,517	-70,48
629,712	-29,52
629,906	36,01
630,1	165,03
630,294	193,7
630,489	42,15
630,683	56,49
630,877	3,24
631,071	140,46
631,265	54,44
631,459	15,53
631,653	85,16
631,848	97,45
632,042	117,93
632,236	-58,2
632,43	124,07
632,624	72,87
632,818	103,59
633,012	93,35
633,206	60,59
633,4	46,25
633,594	160,94
633,788	85,16
633,982	91,31
634,176	132,26
634,369	44,2
634,563	74,92
634,757	-113,49
634,951	76,97
635,145	177,32
635,339	25,77
635,533	132,26
635,726	97,45
635,92	13,48
636,114	105,64
636,308	-35,67
636,501	62,63
636,695	160,94
636,889	-43,86
637,083	87,21
637,276	-35,67
637,47	-13,14
637,664	-4,95
637,857	97,45
638,051	58,54
638,244	29,87
638,438	-58,2
638,632	236,71
638,825	-39,76
639,019	222,38
639,212	-4,95
639,406	107,69
639,599	13,48
639,793	29,87
639,986	27,82
640,18	113,83
640,373	-4,95
640,567	89,26
640,76	23,72
640,954	199,85
641,147	117,93
641,34	17,58
641,534	148,65
641,727	109,74
641,92	83,11
642,114	132,26
642,307	46,25
642,5	210,09
642,694	17,58
642,887	103,59
643,08	117,93
643,273	203,94
643,467	27,82
643,66	-19,29
643,853	44,2
644,046	183,46
644,239	109,74
644,432	13,48
644,626	-70,48
644,819	81,07
645,012	15,53
645,205	148,65
645,398	146,6
645,591	64,68
645,784	-15,19
645,977	13,48
646,17	36,01
646,363	105,64
646,556	27,82
646,749	-29,52
646,942	13,48
647,135	128,17
647,328	64,68
647,521	74,92
647,714	130,22
647,907	58,54
648,099	48,3
648,292	146,6
648,485	136,36
648,678	-0,85
648,871	52,39
649,064	56,49
649,256	-29,52
649,449	23,72
649,642	19,63
649,835	54,44
650,027	56,49
650,22	150,7
650,413	52,39
650,605	152,74
650,798	74,92
650,991	46,25
651,183	76,97
651,376	79,02
651,568	212,14
651,761	111,78
651,954	246,95
652,146	52,39
652,339	224,42
652,531	183,46
652,724	122,02
652,916	72,87
653,109	33,96
653,301	224,42
653,494	214,18
653,686	134,31
653,879	185,51
654,071	249
654,263	292,01
654,456	472,23
654,648	2159,75
654,84	6728,77
655,033	15231,94
655,225	25908
655,417	37411,44
655,61	47548,89
655,802	55646,55
655,994	60727,56
656,186	62587,12
656,379	59744,54
656,571	55777,62
656,763	49750,45
656,955	45318,65
657,148	41572,91
657,34	37417,58
657,532	33487,53
657,724	30028,51
657,916	26845,97
658,108	23270,22
658,3	19110,79
658,492	15905,72
658,684	12975,08
658,876	10648,58
659,068	8623,14
659,26	6517,83
659,452	4916,32
659,644	3687,54
659,836	2813,06
660,028	1774,74
660,22	1320,09
660,412	1014,94
660,604	685,22
660,796	646,3
660,988	560,29
661,18	359,59
661,372	357,54
661,563	242,85
661,755	275,62
661,947	195,75
662,139	230,57
662,331	238,76
662,522	189,61
662,714	62,63
662,906	128,17
663,097	132,26
663,289	70,83
663,481	-21,33
663,673	150,7
663,864	150,7
664,056	109,74
664,247	87,21
664,439	185,51
664,631	126,12
664,822	132,26
665,014	99,5
665,205	21,67
665,397	25,77
665,588	68,78
665,78	74,92
665,971	122,02
666,163	132,26
666,354	85,16
666,546	56,49
666,737	97,45
666,929	85,16
667,12	-64,34
667,311	138,41
667,503	64,68
667,694	87,21
667,885	40,11
668,077	148,65
668,268	-86,87
668,459	36,01
668,651	54,44
668,842	27,82
669,033	23,72
669,224	-29,52
669,416	167,08
669,607	1,19
669,798	-43,86
669,989	175,27
670,18	-54,1
670,371	44,2
670,563	-33,62
670,754	124,07
670,945	165,03
671,136	142,5
671,327	-27,48
671,518	74,92
671,709	156,84
671,9	-27,48
672,091	148,65
672,282	46,25
672,473	93,35
672,664	-13,14
672,855	-25,43
673,046	52,39
673,237	89,26
673,428	97,45
673,619	64,68
673,809	-11,09
674	117,93
674,191	93,35
674,382	21,67
674,573	9,39
674,764	3,24
674,954	81,07
675,145	-70,48
675,336	5,29
675,527	48,3
675,717	11,43
675,908	21,67
676,099	-33,62
676,289	103,59
676,48	1,19
676,671	-2,9
676,861	-19,29
677,052	13,48
677,243	19,63
677,433	48,3
677,624	89,26
677,814	70,83
678,005	-17,24
678,195	165,03
678,386	-68,44
678,576	-37,72
678,767	-43,86
678,957	-7
679,148	162,98
679,338	201,9
679,529	60,59
679,719	-0,85
679,909	119,98
680,1	99,5
680,29	31,91
680,481	-41,81
680,671	-25,43
680,861	23,72
681,052	66,73
681,242	-45,91
681,432	17,58
681,622	25,77
681,813	-76,63
682,003	11,43
682,193	-15,19
682,383	105,64
682,573	-47,96
682,764	-21,33
682,954	23,72
683,144	52,39
683,334	-23,38
683,524	60,59
683,714	38,06
683,904	23,72
684,094	-2,9
684,284	-2,9
684,474	117,93
684,664	81,07
684,854	-4,95
685,044	-15,19
685,234	19,63
685,424	3,24
685,614	-19,29
685,804	72,87
685,994	91,31
686,184	7,34
686,374	-29,52
686,564	81,07
686,753	-70,48
686,943	-47,96
687,133	-43,86
687,323	13,48
687,513	-9,05
687,702	40,11
687,892	-21,33
688,082	52,39
688,272	62,63
688,461	56,49
688,651	160,94
688,841	50,35
689,03	-50
689,22	68,78
689,41	105,64
689,599	23,72
689,789	-21,33
689,979	107,69
690,168	-29,52
690,358	91,31
690,547	27,82
690,737	11,43
690,926	27,82
691,116	89,26
691,305	13,48
691,495	44,2
691,684	-88,92
691,874	-47,96
692,063	54,44
692,252	44,2
692,442	167,08
692,631	-23,38
692,82	19,63
693,01	-29,52
693,199	-0,85
693,388	60,59
693,578	52,39
693,767	91,31
693,956	109,74
694,146	-52,05
694,335	66,73
694,524	42,15
694,713	91,31
694,902	33,96
695,092	-21,33
695,281	40,11
695,47	-37,72
695,659	-45,91
695,848	-47,96
696,037	-88,92
696,226	89,26
696,415	29,87
696,604	167,08
696,793	89,26
696,982	-54,1
697,171	167,08
697,36	31,91
697,549	66,73
697,738	-47,96
697,927	-54,1
698,116	-21,33
698,305	60,59
698,494	130,22
698,683	36,01
698,872	173,22
699,061	27,82
699,25	-33,62
699,438	17,58
699,627	-45,91
699,816	134,31
700,005	7,34
700,193	1,19
700,382	79,02
700,571	83,11
700,76	5,29
700,948	134,31
701,137	128,17
701,326	191,66
701,514	-29,52
701,703	29,87
701,892	13,48
702,08	208,04
702,269	-13,14
702,457	-45,91
702,646	60,59
702,834	-19,29
703,023	85,16
703,212	105,64
703,4	-29,52
703,589	-15,19
703,777	27,82
703,965	21,67
704,154	-29,52
704,342	-54,1
704,531	62,63
704,719	21,67
704,907	173,22
705,096	-50
705,284	9,39
705,472	117,93
705,661	93,35
705,849	52,39
706,037	124,07
706,226	-11,09
706,414	74,92
706,602	-7
706,79	101,55
706,979	-13,14
707,167	76,97
707,355	-50
707,543	60,59
707,731	93,35
707,919	-21,33
708,107	62,63
708,296	-107,35
708,484	-72,53
708,672	19,63
708,86	50,35
709,048	36,01
709,236	-62,29
709,424	138,41
709,612	-0,85
709,8	-121,68
709,988	-56,15
710,176	130,22
710,364	144,55
710,551	50,35
710,739	-19,29
710,927	21,67
711,115	-15,19
711,303	50,35
711,491	91,31
711,679	-39,76
711,866	25,77
712,054	11,43
712,242	46,25
712,43	9,39
712,617	83,11
712,805	154,79
712,993	-107,35
713,181	-86,87
713,368	72,87
713,556	68,78
713,744	36,01
713,931	238,76
714,119	76,97
714,306	-50
714,494	-101,2
714,682	19,63
714,869	-111,44
715,057	-25,43
715,244	-144,21
715,432	56,49
715,619	-66,39
715,807	-58,2
715,994	-58,2
716,182	62,63
716,369	17,58
716,556	31,91
716,744	-97,11
716,931	-37,72
717,119	25,77
717,306	-7
717,493	25,77
717,681	-54,1
717,868	-95,06
718,055	40,11
718,242	-9,05
718,43	95,4
718,617	109,74
718,804	-31,57
718,991	85,16
719,179	23,72
719,366	132,26
719,553	3,24
719,74	-50
719,927	-52,05
720,114	-11,09
720,301	-43,86
720,488	29,87
720,676	-111,44
720,863	-35,67
721,05	103,59
721,237	-0,85
721,424	60,59
721,611	58,54
721,798	-54,1
721,985	13,48
722,172	-37,72
722,358	36,01
722,545	87,21
722,732	42,15
722,919	105,64
723,106	44,2
723,293	-21,33
723,48	-47,96
723,667	5,29
723,853	171,18
724,04	58,54
724,227	93,35
724,414	-70,48
724,6	109,74
724,787	97,45
724,974	201,9
725,161	21,67
725,347	-150,36
725,534	89,26
725,72	72,87
725,907	142,5
726,094	31,91
726,28	-109,4
726,467	-11,09
726,653	-78,68
726,84	156,84
727,027	74,92
727,213	-37,72
727,4	-0,85
727,586	124,07
727,773	91,31
727,959	-29,52
728,145	-72,53
728,332	40,11
728,518	-17,24
728,705	72,87
728,891	44,2
729,077	-31,57
729,264	-93,01
729,45	-70,48
729,636	11,43
729,823	62,63
730,009	29,87
730,195	-60,24
730,382	31,91
730,568	-41,81
730,754	60,59
730,94	11,43
731,126	27,82
731,313	21,67
731,499	-88,92
731,685	23,72
731,871	76,97
732,057	76,97
732,243	130,22
732,429	79,02
732,615	132,26
732,801	1,19
732,987	9,39
733,173	-7
733,359	11,43
733,545	36,01
733,731	-11,09
733,917	144,55
734,103	117,93
734,289	-19,29
734,475	-58,2
734,661	160,94
734,847	36,01
735,033	-7
735,219	87,21
735,404	5,29
735,59	13,48
735,776	-7
735,962	40,11
736,148	46,25
736,333	79,02
736,519	25,77
736,705	-50
736,89	29,87
737,076	-41,81
737,262	-19,29
737,447	-109,4
737,633	-15,19
737,819	169,13
738,004	-21,33
738,19	-50
738,375	142,5
738,561	93,35
738,747	23,72
738,932	-11,09
739,118	158,89
739,303	70,83
739,489	-2,9
739,674	23,72
739,859	-76,63
740,045	113,83
740,23	31,91
740,416	-111,44
740,601	7,34
740,786	27,82
740,972	11,43
741,157	-4,95
741,342	9,39
741,528	-76,63
741,713	50,35
741,898	-68,44
742,084	7,34
742,269	-0,85
742,454	60,59
742,639	62,63
742,824	11,43
743,01	126,12
743,195	72,87
743,38	50,35
743,565	44,2
743,75	-17,24
743,935	44,2
744,12	158,89
744,305	-117,59
744,49	5,29
744,675	-37,72
744,86	5,29
745,045	21,67
745,23	42,15
745,415	64,68
745,6	218,28
745,785	-33,62
745,97	122,02
746,155	79,02
746,34	136,36
746,525	29,87
746,71	101,55
746,895	-99,16
747,079	-66,39
747,264	19,63
747,449	72,87
747,634	126,12
747,819	113,83
748,003	-7
748,188	27,82
748,373	44,2
748,557	-2,9
748,742	56,49
748,927	17,58
749,111	-4,95
749,296	-2,9
749,481	81,07
749,665	70,83
749,85	23,72
750,034	-13,14
750,219	60,59
750,404	-64,34
750,588	23,72
750,773	-76,63
750,957	27,82
751,141	62,63
751,326	115,88
751,51	-0,85
751,695	-21,33
751,879	52,39
752,064	138,41
752,248	36,01
752,432	148,65
752,617	81,07
752,801	72,87
752,985	-19,29
753,17	113,83
753,354	-4,95
753,538	40,11
753,722	-2,9
753,907	38,06
754,091	-54,1
754,275	54,44
754,459	-95,06
754,643	-11,09
754,828	21,67
755,012	60,59
755,196	-80,72
755,38	68,78
755,564	3,24
755,748	-21,33
755,932	109,74
756,116	46,25
756,3	146,6
756,484	-37,72
756,668	109,74
756,852	-64,34
757,036	58,54
757,22	-11,09
757,404	-60,24
757,588	-19,29
757,772	136,36
757,956	58,54
758,14	169,13
758,323	-41,81
758,507	66,73
758,691	9,39
758,875	50,35
759,059	128,17
759,242	5,29
759,426	83,11
759,61	56,49
759,794	-41,81
759,977	107,69
760,161	193,7
760,345	169,13
760,528	148,65
760,712	-4,95
760,895	99,5
761,079	46,25
761,263	-0,85
761,446	23,72
761,63	-4,95
761,813	89,26
761,997	-37,72
762,18	21,67
762,364	13,48
762,547	-138,07
762,731	15,53
762,914	60,59
763,098	-54,1
763,281	-74,58
763,464	-121,68
763,648	58,54
763,831	-33,62
764,015	-88,92
764,198	111,78
764,381	-27,48
764,564	60,59
764,748	19,63
764,931	9,39
765,114	1,19
765,297	81,07
765,481	-93,01
765,664	3,24
765,847	13,48
766,03	52,39
766,213	-31,57
766,397	27,82
766,58	-107,35
766,763	105,64
766,946	-60,24
767,129	-45,91
767,312	-11,09
767,495	-7
767,678	-50
767,861	68,78
768,044	72,87
768,227	46,25
768,41	56,49
768,593	48,3
768,776	25,77
768,959	-37,72
769,142	160,94
769,324	-123,73
769,507	-64,34
769,69	-9,05
769,873	9,39
770,056	177,32
770,239	-39,76
770,421	89,26
770,604	33,96
770,787	62,63
770,97	115,88
771,152	-37,72
771,335	83,11
771,518	-80,72
771,7	126,12
771,883	115,88
772,066	-56,15
772,248	50,35
772,431	122,02
772,613	23,72
772,796	52,39
772,978	74,92
773,161	81,07
773,343	36,01
773,526	-25,43
773,708	-80,72
773,891	-123,73
774,073	-47,96
774,256	-23,38
774,438	113,83
774,621	-111,44
774,803	42,15
774,985	38,06
775,168	111,78
775,35	-68,44
775,532	79,02
775,715	-11,09
775,897	7,34
776,079	7,34
776,261	287,91
776,444	234,66
776,626	474,28
776,808	578,72
776,99	691,36
777,173	898,2
777,355	875,68
777,537	937,12
777,719	877,73
777,901	715,94
778,083	685,22
778,265	586,91
778,447	744,61
778,629	375,97
778,811	527,52
778,993	402,6
779,175	380,07
779,357	263,33
779,539	216,23
779,721	269,48
779,903	208,04
780,085	105,64
780,267	99,5
780,449	68,78
780,631	150,7
780,812	156,84
780,994	27,82
781,176	70,83
781,358	-21,33
781,54	-23,38
781,721	117,93
781,903	122,02
782,085	-2,9
782,267	126,12
782,448	-82,77
782,63	-90,96
782,812	54,44
782,993	81,07
783,175	111,78
783,357	11,43
783,538	56,49
783,72	-60,24
783,901	89,26
784,083	58,54
784,264	11,43
784,446	-90,96
784,627	-109,4
784,809	85,16
784,99	-76,63
785,172	81,07
785,353	-19,29
785,535	17,58
785,716	-21,33
785,897	-95,06
786,079	25,77
786,26	25,77
786,441	58,54
786,623	-162,64
786,804	-4,95
786,985	-4,95
787,167	60,59
787,348	46,25
787,529	25,77
787,71	199,85
787,891	70,83
788,073	-66,39
788,254	-78,68
788,435	101,55
788,616	27,82
788,797	-62,29
788,978	64,68
789,159	-19,29
789,34	60,59
789,522	-29,52
789,703	-72,53
789,884	48,3
790,065	48,3
790,246	115,88
790,427	-64,34
790,607	105,64
790,788	74,92
790,969	-76,63
791,15	68,78
791,331	33,96
791,512	-37,72
791,693	-56,15
791,874	-47,96
792,054	244,9
792,235	130,22
792,416	-29,52
792,597	42,15
792,778	134,31
792,958	-9,05
793,139	56,49
793,32	62,63
793,5	-54,1
793,681	33,96
793,862	15,53
794,042	17,58
794,223	-133,97
794,404	-164,69
794,584	-13,14
794,765	-43,86
794,945	48,3
795,126	62,63
795,306	134,31
795,487	-17,24
795,667	-103,25
795,848	17,58
796,028	48,3
796,209	76,97
796,389	27,82
796,57	-0,85
796,75	-13,14
796,93	46,25
797,111	-56,15
797,291	-37,72
797,471	113,83
797,652	-11,09
797,832	-90,96
798,012	-15,19
798,192	-52,05
798,373	-47,96
798,553	40,11
798,733	-13,14
798,913	-125,78
799,093	-35,67
799,274	-11,09
799,454	7,34
799,634	68,78
799,814	52,39
799,994	7,34
800,174	11,43
800,354	17,58
800,534	-62,29
800,714	56,49
800,894	-66,39
801,074	-179,03
801,254	-78,68
801,434	33,96
801,614	-29,52
801,794	-58,2
801,974	1928,33
802,154	3,24
802,334	9,39
802,514	-127,83
802,693	64,68
802,873	15,53
803,053	111,78
803,233	44,2
803,413	44,2
803,592	19,63
803,772	-66,39
803,952	115,88
804,131	-95,06
804,311	27,82
804,491	56,49
804,67	7,34
804,85	-54,1
805,03	124,07
805,209	89,26
805,389	38,06
805,568	-23,38
805,748	-56,15
805,928	19,63
806,107	52,39
806,287	62,63
806,466	-19,29
806,646	19,63
806,825	5,29
807,004	-21,33
807,184	58,54
807,363	107,69
807,543	-23,38
807,722	-82,77
807,901	183,46
808,081	93,35
808,26	-176,98
808,439	33,96
808,619	-29,52
808,798	1,19
808,977	33,96
809,156	95,4
809,336	38,06
809,515	17,58
809,694	-41,81
809,873	-56,15
810,052	1,19
810,231	109,74
810,411	29,87
810,59	79,02
810,769	-50
810,948	-21,33
811,127	-148,31
811,306	15,53
811,485	36,01
811,664	138,41
811,843	72,87
812,022	-35,67
812,201	-11,09
812,38	-43,86
812,559	-21,33
812,737	33,96
812,916	-70,48
813,095	-70,48
813,274	-23,38
813,453	27,82
813,632	23,72
813,811	93,35
813,989	-191,31
814,168	1,19
814,347	-152,4
814,526	-84,82
814,704	64,68
814,883	175,27
815,062	-111,44
815,24	64,68
815,419	-74,58
815,598	60,59
815,776	-164,69
815,955	3,24
816,133	-176,98
816,312	31,91
816,49	-97,11
816,669	-27,48
816,847	-43,86
817,026	-0,85
817,204	21,67
817,383	-13,14
817,561	-35,67
817,74	-9,05
817,918	64,68
818,097	-117,59
818,275	40,11
818,453	27,82
818,632	-39,76
818,81	-13,14
818,988	-31,57
819,167	-78,68
819,345	-17,24
819,523	-68,44
819,701	46,25
819,879	27,82
820,058	-45,91
820,236	-4,95
820,414	60,59
820,592	-21,33
820,77	-39,76
820,948	-47,96
821,127	-52,05
821,305	23,72
821,483	-97,11
821,661	44,2
821,839	-58,2
822,017	-47,96
822,195	7,34
822,373	105,64
822,551	-13,14
822,729	40,11
822,907	5,29
823,085	148,65
823,262	9,39
823,44	-70,48
823,618	-33,62
823,796	-68,44
823,974	-64,34
824,152	-82,77
824,329	46,25
824,507	-105,3
824,685	83,11
824,863	7,34
825,04	101,55
825,218	31,91
825,396	-47,96
825,574	15,53
825,751	-9,05
825,929	31,91
826,107	-64,34
826,284	70,83
826,462	29,87
826,639	19,63
826,817	-45,91
826,994	-11,09
827,172	-90,96
827,349	62,63
827,527	3,24
827,704	-80,72
827,882	101,55
828,059	21,67
828,237	-60,24
828,414	-27,48
828,591	-68,44
828,769	-29,52
828,946	-66,39
829,124	11,43
829,301	48,3
829,478	-101,2
829,655	5,29
829,833	70,83
830,01	-133,97
830,187	83,11
830,364	-29,52
830,542	-66,39
830,719	148,65
830,896	5,29
831,073	-39,76
831,25	-11,09
831,427	-7
831,604	-52,05
831,782	-50
831,959	87,21
832,136	-9,05
832,313	-39,76
832,49	-50
832,667	-15,19
832,844	-62,29
833,021	56,49
833,198	-2,9
833,374	50,35
833,551	-0,85
833,728	-25,43
833,905	66,73
834,082	-127,83
834,259	11,43
834,436	36,01
834,612	-31,57
834,789	13,48
834,966	19,63
835,143	68,78
835,319	-152,4
835,496	19,63
835,673	15,53
835,85	62,63
836,026	46,25
836,203	72,87
836,38	-62,29
836,556	-11,09
836,733	-93,01
836,909	144,55
837,086	-27,48
837,262	-144,21
837,439	58,54
837,616	-66,39
837,792	-19,29
837,968	1,19
838,145	-115,54
838,321	-23,38
838,498	21,67
838,674	44,2
838,851	-52,05
839,027	-54,1
839,203	42,15
839,38	70,83
839,556	-82,77
839,732	60,59
839,909	31,91
840,085	72,87
840,261	-66,39
840,437	31,91
840,614	-9,05
840,79	95,4
840,966	-43,86
841,142	19,63
841,318	-54,1
841,494	93,35
841,671	64,68
841,847	-123,73
842,023	-66,39
842,199	76,97
842,375	175,27
842,551	-76,63
842,727	-101,2
842,903	175,27
843,079	-97,11
843,255	126,12
843,431	44,2
843,607	103,59
843,783	-68,44
843,959	238,76
844,134	216,23
844,31	421,03
844,486	212,14
844,662	255,14
844,838	275,62
845,013	316,58
845,189	304,29
845,365	201,9
845,541	193,7
845,716	46,25
845,892	218,28
846,068	79,02
846,244	44,2
846,419	95,4
846,595	91,31
846,77	-45,91
846,946	138,41
847,122	-9,05
847,297	56,49
847,473	218,28
847,648	-33,62
847,824	56,49
847,999	-33,62
848,175	-15,19
848,35	91,31
848,526	119,98
848,701	97,45
848,876	70,83
849,052	48,3
849,227	-19,29
849,403	-19,29
849,578	-68,44
849,753	-19,29
849,929	33,96
850,104	-84,82
850,279	33,96
850,454	7,34
850,63	36,01
850,805	21,67
850,98	-56,15
851,155	-74,58
851,33	68,78
851,505	-68,44
851,681	128,17
851,856	42,15
852,031	85,16
852,206	1,19
852,381	-60,24
852,556	-9,05
852,731	-54,1
852,906	11,43
853,081	64,68
853,256	99,5
853,431	29,87
853,606	-33,62
853,781	-127,83
853,956	-127,83
854,131	38,06
854,305	9,39
854,48	-33,62
854,655	-166,74
854,83	-29,52
855,005	-31,57
855,18	19,63
855,354	-41,81
855,529	62,63
855,704	-82,77
855,879	97,45
856,053	-144,21
856,228	-25,43
856,403	-123,73
856,577	36,01
856,752	-156,5
856,926	-68,44
857,101	11,43
857,276	-45,91
857,45	31,91
857,625	148,65
857,799	29,87
857,974	-23,38
858,148	-93,01
858,323	27,82
858,497	-19,29
858,672	-64,34
858,846	-43,86
859,02	52,39
859,195	-107,35
859,369	-93,01
859,543	27,82
859,718	-0,85
859,892	21,67
860,066	-7
860,241	-19,29
860,415	-11,09
860,589	15,53
860,763	91,31
860,938	-66,39
861,112	-35,67
861,286	-7
861,46	25,77
861,634	-66,39
861,808	11,43
861,982	-50
862,157	-99,16
862,331	-103,25
862,505	-33,62
862,679	-99,16
862,853	-64,34
863,027	-21,33
863,201	216,23
863,375	-103,25
863,549	-25,43
863,722	25,77
863,896	117,93
864,07	-23,38
864,244	-58,2
864,418	25,77
864,592	15,53
864,766	21,67
864,939	-13,14
865,113	-125,78
865,287	85,16
865,461	-17,24
865,634	68,78
865,808	-54,1
865,982	-86,87
866,156	-70,48
866,329	-21,33
866,503	62,63
866,676	19,63
866,85	-21,33
867,024	-47,96
867,197	-9,05
867,371	89,26
867,544	7,34
867,718	-33,62
867,891	138,41
868,065	-148,31
868,238	101,55
868,412	38,06
868,585	13,48
868,759	3,24
868,932	-70,48
869,105	-45,91
869,279	-7
869,452	-119,64
869,625	13,48
869,799	-9,05
869,972	-66,39
870,145	-62,29
870,319	93,35
870,492	-17,24
870,665	3,24
870,838	-56,15
871,011	-183,12
871,185	-43,86
871,358	-47,96
871,531	21,67
871,704	-121,68
871,877	5,29
872,05	40,11
872,223	-60,24
872,396	-31,57
872,569	85,16
872,742	-127,83
872,915	31,91
873,088	-58,2
873,261	-62,29
873,434	62,63
873,607	-45,91
873,78	5,29
873,953	-103,25
874,126	44,2
874,299	72,87
874,471	-41,81
874,644	-21,33
874,817	23,72
874,99	76,97
875,163	-39,76
875,335	42,15
875,508	-47,96
875,681	113,83
875,853	-82,77
876,026	-62,29
876,199	46,25
876,371	-33,62
876,544	-54,1
876,717	-21,33
876,889	15,53
877,062	42,15
877,234	-62,29
877,407	-19,29
877,579	-7
877,752	40,11
877,924	99,5
878,097	46,25
878,269	27,82
878,442	27,82
878,614	1,19
878,786	-9,05
878,959	-62,29
879,131	-11,09
879,303	-133,97
879,476	48,3
879,648	76,97
879,82	27,82
879,993	62,63
880,165	38,06
880,337	-74,58
880,509	23,72
880,681	-74,58
880,854	-58,2
881,026	93,35
881,198	150,7
881,37	25,77
881,542	-50
881,714	-13,14
881,886	-29,52
882,058	-31,57
882,23	-29,52
882,402	19,63
882,574	36,01
882,746	54,44
882,918	70,83
883,09	66,73
883,262	-7
883,434	-74,58
883,606	-146,26
883,778	23,72
883,95	79,02
884,122	-93,01
884,293	7,34
884,465	5,29
884,637	154,79
884,809	-29,52
884,98	1,19
885,152	40,11
885,324	29,87
885,496	50,35
885,667	-66,39
885,839	-15,19
886,011	91,31
886,182	42,15
886,354	99,5
886,525	105,64
886,697	9,39
886,869	-47,96
887,04	-39,76
887,212	89,26
887,383	187,56
887,555	11,43
887,726	-45,91
887,897	-4,95
888,069	-11,09
888,24	-25,43
888,412	38,06
888,583	31,91
888,754	9,39
888,926	-97,11
889,097	-41,81
889,268	-95,06
889,44	-62,29
889,611	-19,29
889,782	-68,44
889,953	-74,58
890,125	101,55
890,296	-62,29
890,467	-78,68
890,638	-15,19
890,809	13,48
890,98	-76,63
891,151	11,43
891,323	29,87
891,494	-27,48
891,665	-35,67
891,836	54,44
892,007	-74,58
892,178	70,83
892,349	44,2
892,52	-45,91
892,691	60,59
892,862	-9,05
893,032	-58,2
893,203	-15,19
893,374	1,19
893,545	31,91
893,716	-82,77
893,887	62,63
894,057	-19,29
894,228	-52,05
894,399	-27,48
894,57	70,83
894,74	-25,43
894,911	72,87
895,082	-7
895,253	-68,44
895,423	31,91
895,594	83,11
895,764	119,98
895,935	-62,29
896,106	21,67
896,276	-58,2
896,447	-25,43
896,617	-148,31
896,788	-72,53
896,958	13,48
897,129	-76,63
897,299	-103,25
897,47	119,98
897,64	15,53
897,81	-41,81
897,981	62,63
898,151	-86,87
898,322	-11,09
898,492	-13,14
898,662	-80,72
898,832	-0,85
899,003	11,43
899,173	1,19
899,343	-101,2
899,513	-82,77
