Data from deuterium_USB4F104151__3__10-57-07-419.txt Node

Date: Wed Apr 15 10:57:07 EDT 2026
User: LaboPhy
Spectrometer: USB4F10415
Trigger mode: 4
Integration Time (sec): 1,000000E-1
Scans to average: 1
Electric dark correction enabled: true
Nonlinearity correction enabled: false
Boxcar width: 0
XAxis mode: Wavelengths
Number of Pixels in Spectrum: 3648
>>>>>Begin Spectral Data<<<<<
178,204	-385,19
178,424	-385,19
178,644	-385,19
178,864	-489,64
179,084	-450,72
179,304	44,88
179,524	59,22
179,744	-57,51
179,964	44,88
180,184	-14,51
180,404	22,36
180,624	-24,75
180,844	10,07
181,064	-149,67
181,283	94,04
181,503	-80,04
181,723	51,03
181,943	-82,09
182,163	165,71
182,383	14,17
182,602	75,6
182,822	61,27
183,042	26,45
183,262	-73,9
183,482	63,32
183,701	38,74
183,921	32,6
184,141	-110,76
184,361	48,98
184,58	112,47
184,8	85,84
185,02	-80,04
185,239	40,79
185,459	18,26
185,679	132,95
185,898	-110,76
186,118	16,21
186,338	53,08
186,557	48,98
186,777	-118,95
186,997	-80,04
187,216	1,88
187,436	145,24
187,655	63,32
187,875	124,76
188,095	3,93
188,314	69,46
188,534	73,56
188,753	-43,18
188,973	161,62
189,192	221,01
189,412	-0,17
189,631	5,97
189,851	85,84
190,07	227,15
190,29	-75,95
190,509	-24,75
190,729	83,8
190,948	231,25
191,168	196,43
191,387	139,09
191,607	38,74
191,826	73,56
192,045	1,88
192,265	87,89
192,484	147,28
192,704	53,08
192,923	-106,67
193,142	106,32
193,362	55,12
193,581	141,14
193,8	59,22
194,02	75,6
194,239	102,23
194,458	81,75
194,678	55,12
194,897	-24,75
195,116	59,22
195,335	51,03
195,555	87,89
195,774	-51,37
195,993	51,03
196,212	55,12
196,432	71,51
196,651	1,88
196,87	57,17
197,089	315,22
197,308	53,08
197,528	89,94
197,747	-30,89
197,966	98,13
198,185	145,24
198,404	-141,48
198,623	153,43
198,842	91,99
199,062	75,6
199,281	48,98
199,5	53,08
199,719	48,98
199,938	40,79
200,157	36,69
200,376	120,66
200,595	155,47
200,814	53,08
201,033	55,12
201,252	210,77
201,471	26,45
201,69	40,79
201,909	61,27
202,128	89,94
202,347	98,13
202,566	36,69
202,785	-77,99
203,004	-12,46
203,223	257,87
203,442	-45,23
203,661	-61,61
203,879	122,71
204,098	151,38
204,317	-67,75
204,536	110,42
204,755	81,75
204,974	102,23
205,193	46,93
205,411	169,81
205,63	139,09
205,849	116,56
206,068	65,36
206,287	-63,66
206,505	171,86
206,724	34,64
206,943	-34,99
207,162	-30,89
207,381	81,75
207,599	8,02
207,818	59,22
208,037	-22,7
208,255	46,93
208,474	120,66
208,693	16,21
208,911	32,6
209,13	57,17
209,349	157,52
209,567	75,6
209,786	18,26
210,005	130,9
210,223	73,56
210,442	-96,43
210,661	-8,36
210,879	85,84
211,098	-6,31
211,316	32,6
211,535	87,89
211,753	106,32
211,972	89,94
212,191	-34,99
212,409	122,71
212,628	63,32
212,846	1,88
213,065	91,99
213,283	98,13
213,502	77,65
213,72	57,17
213,938	-2,22
214,157	-32,94
214,375	112,47
214,594	63,32
214,812	110,42
215,031	46,93
215,249	26,45
215,467	34,64
215,686	18,26
215,904	42,84
216,122	1,88
216,341	96,08
216,559	55,12
216,778	67,41
216,996	165,71
217,214	-26,79
217,432	-26,79
217,651	-84,14
217,869	71,51
218,087	81,75
218,306	32,6
218,524	26,45
218,742	-47,27
218,96	143,19
219,179	12,12
219,397	-32,94
219,615	292,69
219,833	126,8
220,051	-22,7
220,27	79,7
220,488	149,33
220,706	122,71
220,924	1,88
221,142	26,45
221,36	-2,22
221,578	130,9
221,796	-6,31
222,015	73,56
222,233	34,64
222,451	130,9
222,669	28,5
222,887	108,37
223,105	-10,41
223,323	77,65
223,541	-65,71
223,759	40,79
223,977	48,98
224,195	180,05
224,413	104,28
224,631	-8,36
224,849	91,99
225,067	163,67
225,285	-4,27
225,503	-82,09
225,721	-129,19
225,939	106,32
226,157	75,6
226,375	233,3
226,592	-28,84
226,81	104,28
227,028	139,09
227,246	171,86
227,464	91,99
227,682	163,67
227,9	32,6
228,117	100,18
228,335	34,64
228,553	-84,14
228,771	5,97
228,989	40,79
229,206	8,02
229,424	-55,47
229,642	46,93
229,86	38,74
230,077	178
230,295	57,17
230,513	126,8
230,731	53,08
230,948	182,1
231,166	223,06
231,384	-0,17
231,601	-43,18
231,819	223,06
232,037	-28,84
232,254	-51,37
232,472	85,84
232,689	10,07
232,907	143,19
233,125	22,36
233,342	-41,13
233,56	-28,84
233,777	10,07
233,995	20,31
234,213	104,28
234,43	61,27
234,648	3,93
234,865	-45,23
235,083	36,69
235,3	38,74
235,518	104,28
235,735	110,42
235,953	104,28
236,17	-8,36
236,388	65,36
236,605	38,74
236,822	137,04
237,04	106,32
237,257	124,76
237,475	3,93
237,692	-10,41
237,909	110,42
238,127	-43,18
238,344	57,17
238,562	10,07
238,779	-45,23
238,996	-55,47
239,214	51,03
239,431	24,4
239,648	-34,99
239,865	137,04
240,083	81,75
240,3	3,93
240,517	8,02
240,735	57,17
240,952	77,65
241,169	24,4
241,386	73,56
241,603	83,8
241,821	-82,09
242,038	10,07
242,255	204,63
242,472	-39,08
242,689	69,46
242,907	100,18
243,124	98,13
243,341	30,55
243,558	3,93
243,775	-57,51
243,992	-92,33
244,209	161,62
244,426	81,75
244,643	-0,17
244,86	46,93
245,078	94,04
245,295	106,32
245,512	20,31
245,729	-2,22
245,946	108,37
246,163	-8,36
246,38	18,26
246,597	30,55
246,814	85,84
247,031	122,71
247,248	5,97
247,464	157,52
247,681	44,88
247,898	83,8
248,115	55,12
248,332	-32,94
248,549	128,85
248,766	145,24
248,983	139,09
249,2	91,99
249,417	139,09
249,633	34,64
249,85	34,64
250,067	32,6
250,284	28,5
250,501	57,17
250,717	104,28
250,934	22,36
251,151	94,04
251,368	55,12
251,585	18,26
251,801	18,26
252,018	102,23
252,235	100,18
252,451	-0,17
252,668	59,22
252,885	120,66
253,102	16,21
253,318	-22,7
253,535	79,7
253,752	-22,7
253,968	-34,99
254,185	-55,47
254,401	85,84
254,618	110,42
254,835	-6,31
255,051	96,08
255,268	55,12
255,484	71,51
255,701	81,75
255,917	57,17
256,134	-30,89
256,351	16,21
256,567	-102,57
256,784	96,08
257	-51,37
257,217	141,14
257,433	30,55
257,65	-20,65
257,866	100,18
258,082	-59,56
258,299	55,12
258,515	36,69
258,732	18,26
258,948	-43,18
259,165	69,46
259,381	-57,51
259,597	59,22
259,814	5,97
260,03	-71,85
260,246	-8,36
260,463	87,89
260,679	141,14
260,895	8,02
261,112	91,99
261,328	44,88
261,544	-0,17
261,761	137,04
261,977	30,55
262,193	42,84
262,409	122,71
262,626	75,6
262,842	71,51
263,058	22,36
263,274	63,32
263,49	-14,51
263,707	91,99
263,923	114,52
264,139	-18,6
264,355	128,85
264,571	196,43
264,787	12,12
265,004	145,24
265,22	-14,51
265,436	-26,79
265,652	77,65
265,868	100,18
266,084	-69,8
266,3	36,69
266,516	-2,22
266,732	98,13
266,948	63,32
267,164	14,17
267,38	116,56
267,596	38,74
267,812	171,86
268,028	55,12
268,244	5,97
268,46	83,8
268,676	-8,36
268,892	59,22
269,108	-12,46
269,324	-26,79
269,54	-39,08
269,756	30,55
269,972	-73,9
270,188	8,02
270,403	-16,55
270,619	67,41
270,835	83,8
271,051	98,13
271,267	42,84
271,483	-16,55
271,698	65,36
271,914	55,12
272,13	44,88
272,346	-10,41
272,562	-32,94
272,777	137,04
272,993	14,17
273,209	5,97
273,425	130,9
273,64	-63,66
273,856	30,55
274,072	-82,09
274,287	-22,7
274,503	42,84
274,719	34,64
274,934	14,17
275,15	-59,56
275,366	10,07
275,581	8,02
275,797	22,36
276,012	57,17
276,228	24,4
276,444	89,94
276,659	98,13
276,875	-6,31
277,09	75,6
277,306	38,74
277,521	87,89
277,737	106,32
277,952	81,75
278,168	-2,22
278,383	-0,17
278,599	63,32
278,814	79,7
279,03	98,13
279,245	175,95
279,461	46,93
279,676	139,09
279,892	-18,6
280,107	-43,18
280,322	-22,7
280,538	94,04
280,753	-104,62
280,969	24,4
281,184	71,51
281,399	171,86
281,615	-53,42
281,83	83,8
282,045	-14,51
282,26	-47,27
282,476	32,6
282,691	53,08
282,906	-63,66
283,122	53,08
283,337	-86,19
283,552	-14,51
283,767	14,17
283,983	53,08
284,198	83,8
284,413	126,8
284,628	-51,37
284,843	24,4
285,058	112,47
285,274	34,64
285,489	30,55
285,704	32,6
285,919	28,5
286,134	46,93
286,349	34,64
286,564	5,97
286,779	169,81
286,995	63,32
287,21	-49,32
287,425	87,89
287,64	-2,22
287,855	57,17
288,07	-4,27
288,285	186,19
288,5	55,12
288,715	24,4
288,93	38,74
289,145	-94,38
289,36	79,7
289,575	-18,6
289,79	96,08
290,004	73,56
290,219	122,71
290,434	-49,32
290,649	22,36
290,864	-0,17
291,079	-57,51
291,294	173,91
291,509	10,07
291,724	-22,7
291,938	-37,03
292,153	53,08
292,368	79,7
292,583	67,41
292,798	71,51
293,012	-24,75
293,227	89,94
293,442	-0,17
293,657	118,61
293,871	112,47
294,086	85,84
294,301	163,67
294,516	114,52
294,73	57,17
294,945	-57,51
295,16	26,45
295,374	159,57
295,589	145,24
295,804	3,93
296,018	34,64
296,233	132,95
296,447	28,5
296,662	-14,51
296,877	161,62
297,091	81,75
297,306	91,99
297,52	63,32
297,735	28,5
297,949	71,51
298,164	20,31
298,378	122,71
298,593	-57,51
298,807	-2,22
299,022	-8,36
299,236	145,24
299,451	-4,27
299,665	46,93
299,88	-14,51
300,094	102,23
300,309	-43,18
300,523	38,74
300,737	-22,7
300,952	96,08
301,166	79,7
301,381	22,36
301,595	42,84
301,809	34,64
302,024	-34,99
302,238	-43,18
302,452	137,04
302,667	22,36
302,881	151,38
303,095	85,84
303,309	91,99
303,524	-43,18
303,738	-34,99
303,952	26,45
304,166	116,56
304,381	-133,29
304,595	163,67
304,809	-30,89
305,023	71,51
305,237	-55,47
305,452	59,22
305,666	169,81
305,88	46,93
306,094	128,85
306,308	51,03
306,522	159,57
306,736	38,74
306,95	161,62
307,164	18,26
307,379	1,88
307,593	130,9
307,807	135
308,021	153,43
308,235	96,08
308,449	-4,27
308,663	34,64
308,877	264,02
309,091	83,8
309,305	38,74
309,519	-24,75
309,733	235,35
309,947	-55,47
310,161	61,27
310,374	30,55
310,588	118,61
310,802	-14,51
311,016	-6,31
311,23	71,51
311,444	-59,56
311,658	-14,51
311,872	153,43
312,085	208,72
312,299	178
312,513	192,34
312,727	34,64
312,941	20,31
313,154	116,56
313,368	83,8
313,582	57,17
313,796	38,74
314,009	40,79
314,223	128,85
314,437	126,8
314,651	98,13
314,864	44,88
315,078	44,88
315,292	-51,37
315,505	-14,51
315,719	85,84
315,933	96,08
316,146	63,32
316,36	8,02
316,573	231,25
316,787	83,8
317,001	91,99
317,214	-43,18
317,428	51,03
317,641	-26,79
317,855	8,02
318,068	-18,6
318,282	83,8
318,495	155,47
318,709	108,37
318,922	32,6
319,136	184,15
319,349	106,32
319,563	16,21
319,776	79,7
319,99	-57,51
320,203	110,42
320,417	55,12
320,63	114,52
320,843	229,2
321,057	40,79
321,27	102,23
321,483	71,51
321,697	108,37
321,91	46,93
322,124	169,81
322,337	114,52
322,55	-2,22
322,763	126,8
322,977	96,08
323,19	-102,57
323,403	16,21
323,617	69,46
323,83	128,85
324,043	-0,17
324,256	100,18
324,469	-20,65
324,683	200,53
324,896	44,88
325,109	-24,75
325,322	-30,89
325,535	112,47
325,748	106,32
325,962	12,12
326,175	-2,22
326,388	38,74
326,601	73,56
326,814	14,17
327,027	73,56
327,24	188,24
327,453	-49,32
327,666	126,8
327,879	122,71
328,092	128,85
328,305	89,94
328,518	32,6
328,731	-26,79
328,944	83,8
329,157	55,12
329,37	10,07
329,583	159,57
329,796	149,33
330,009	-39,08
330,222	100,18
330,435	65,36
330,648	59,22
330,861	42,84
331,073	38,74
331,286	57,17
331,499	57,17
331,712	24,4
331,925	16,21
332,138	69,46
332,35	67,41
332,563	-69,8
332,776	186,19
332,989	-43,18
333,202	118,61
333,414	-55,47
333,627	63,32
333,84	42,84
334,053	20,31
334,265	-28,84
334,478	-18,6
334,691	22,36
334,903	178
335,116	14,17
335,329	36,69
335,541	79,7
335,754	141,14
335,966	73,56
336,179	83,8
336,392	85,84
336,604	65,36
336,817	165,71
337,029	112,47
337,242	110,42
337,454	196,43
337,667	143,19
337,88	137,04
338,092	128,85
338,305	112,47
338,517	57,17
338,729	114,52
338,942	149,33
339,154	-4,27
339,367	-45,23
339,579	141,14
339,792	-20,65
340,004	112,47
340,217	51,03
340,429	59,22
340,641	24,4
340,854	-65,71
341,066	14,17
341,278	202,58
341,491	214,87
341,703	5,97
341,915	-2,22
342,128	55,12
342,34	122,71
342,552	-45,23
342,764	46,93
342,977	-14,51
343,189	69,46
343,401	63,32
343,613	1,88
343,826	83,8
344,038	-65,71
344,25	67,41
344,462	110,42
344,674	67,41
344,886	51,03
345,099	139,09
345,311	122,71
345,523	-2,22
345,735	-41,13
345,947	116,56
346,159	71,51
346,371	116,56
346,583	57,17
346,795	210,77
347,007	20,31
347,219	91,99
347,431	55,12
347,643	165,71
347,855	89,94
348,067	188,24
348,279	-24,75
348,491	12,12
348,703	159,57
348,915	-57,51
349,127	-32,94
349,339	106,32
349,551	5,97
349,763	141,14
349,975	38,74
350,187	57,17
350,399	169,81
350,61	139,09
350,822	12,12
351,034	87,89
351,246	143,19
351,458	108,37
351,669	65,36
351,881	173,91
352,093	63,32
352,305	182,1
352,517	94,04
352,728	128,85
352,94	112,47
353,152	139,09
353,363	18,26
353,575	120,66
353,787	214,87
353,999	116,56
354,21	196,43
354,422	65,36
354,633	51,03
354,845	98,13
355,057	83,8
355,268	89,94
355,48	180,05
355,692	34,64
355,903	120,66
356,115	3,93
356,326	-32,94
356,538	266,07
356,749	104,28
356,961	253,78
357,172	57,17
357,384	36,69
357,595	282,45
357,807	71,51
358,018	26,45
358,23	73,56
358,441	196,43
358,653	124,76
358,864	145,24
359,075	5,97
359,287	96,08
359,498	227,15
359,709	184,15
359,921	63,32
360,132	69,46
360,344	-6,31
360,555	-39,08
360,766	124,76
360,977	85,84
361,189	75,6
361,4	51,03
361,611	153,43
361,823	108,37
362,034	130,9
362,245	-47,27
362,456	8,02
362,667	147,28
362,879	-61,61
363,09	83,8
363,301	89,94
363,512	96,08
363,723	91,99
363,935	-16,55
364,146	145,24
364,357	14,17
364,568	126,8
364,779	24,4
364,99	198,48
365,201	-32,94
365,412	137,04
365,623	-100,52
365,834	110,42
366,045	106,32
366,256	149,33
366,467	155,47
366,678	32,6
366,889	87,89
367,1	59,22
367,311	147,28
367,522	30,55
367,733	116,56
367,944	87,89
368,155	63,32
368,366	169,81
368,577	171,86
368,788	126,8
368,999	46,93
369,209	18,26
369,42	200,53
369,631	333,65
369,842	165,71
370,053	83,8
370,264	194,39
370,474	61,27
370,685	130,9
370,896	59,22
371,107	231,25
371,317	69,46
371,528	57,17
371,739	178
371,95	204,63
372,16	73,56
372,371	-6,31
372,582	3,93
372,792	96,08
373,003	124,76
373,214	149,33
373,424	108,37
373,635	26,45
373,846	147,28
374,056	163,67
374,267	141,14
374,477	163,67
374,688	63,32
374,898	104,28
375,109	126,8
375,319	163,67
375,53	116,56
375,74	153,43
375,951	55,12
376,161	89,94
376,372	139,09
376,582	-8,36
376,793	165,71
377,003	51,03
377,214	85,84
377,424	122,71
377,635	79,7
377,845	-24,75
378,055	196,43
378,266	-26,79
378,476	53,08
378,686	34,64
378,897	167,76
379,107	87,89
379,317	190,29
379,528	75,6
379,738	178
379,948	1,88
380,158	161,62
380,369	61,27
380,579	132,95
380,789	71,51
380,999	120,66
381,21	182,1
381,42	214,87
381,63	130,9
381,84	104,28
382,05	135
382,261	210,77
382,471	198,48
382,681	-18,6
382,891	270,16
383,101	188,24
383,311	24,4
383,521	96,08
383,731	149,33
383,941	188,24
384,151	100,18
384,361	79,7
384,571	87,89
384,781	112,47
384,991	266,07
385,201	231,25
385,411	122,71
385,621	108,37
385,831	87,89
386,041	40,79
386,251	108,37
386,461	178
386,671	42,84
386,881	14,17
387,091	8,02
387,301	91,99
387,511	34,64
387,72	196,43
387,93	157,52
388,14	24,4
388,35	112,47
388,56	182,1
388,769	178
388,979	190,29
389,189	87,89
389,399	91,99
389,609	106,32
389,818	178
390,028	110,42
390,238	96,08
390,447	44,88
390,657	96,08
390,867	87,89
391,076	26,45
391,286	36,69
391,496	96,08
391,705	122,71
391,915	173,91
392,125	73,56
392,334	28,5
392,544	247,63
392,753	137,04
392,963	-2,22
393,172	32,6
393,382	151,38
393,591	214,87
393,801	42,84
394,01	130,9
394,22	71,51
394,429	139,09
394,639	34,64
394,848	110,42
395,058	137,04
395,267	118,61
395,477	155,47
395,686	147,28
395,895	227,15
396,105	276,31
396,314	143,19
396,524	89,94
396,733	126,8
396,942	216,91
397,152	194,39
397,361	153,43
397,57	182,1
397,78	155,47
397,989	73,56
398,198	300,88
398,407	110,42
398,617	40,79
398,826	85,84
399,035	149,33
399,244	137,04
399,453	59,22
399,663	61,27
399,872	87,89
400,081	46,93
400,29	284,5
400,499	30,55
400,708	89,94
400,917	100,18
401,127	-2,22
401,336	98,13
401,545	286,54
401,754	218,96
401,963	132,95
402,172	81,75
402,381	-14,51
402,59	89,94
402,799	108,37
403,008	139,09
403,217	57,17
403,426	96,08
403,635	-37,03
403,844	46,93
404,053	61,27
404,262	94,04
404,471	175,95
404,68	110,42
404,888	102,23
405,097	96,08
405,306	151,38
405,515	137,04
405,724	85,84
405,933	116,56
406,142	167,76
406,35	135
406,559	42,84
406,768	114,52
406,977	208,72
407,185	157,52
407,394	79,7
407,603	46,93
407,812	135
408,02	255,83
408,229	75,6
408,438	198,48
408,646	61,27
408,855	214,87
409,064	175,95
409,272	173,91
409,481	245,59
409,69	249,68
409,898	161,62
410,107	325,46
410,315	358,22
410,524	204,63
410,733	194,39
410,941	229,2
411,15	184,15
411,358	206,67
411,567	225,11
411,775	102,23
411,984	139,09
412,192	157,52
412,401	20,31
412,609	190,29
412,818	175,95
413,026	83,8
413,234	59,22
413,443	108,37
413,651	-32,94
413,86	124,76
414,068	210,77
414,276	175,95
414,485	32,6
414,693	147,28
414,901	241,49
415,11	71,51
415,318	124,76
415,526	147,28
415,734	149,33
415,943	94,04
416,151	155,47
416,359	126,8
416,567	14,17
416,776	163,67
416,984	94,04
417,192	249,68
417,4	-16,55
417,608	3,93
417,817	-10,41
418,025	122,71
418,233	186,19
418,441	-8,36
418,649	-14,51
418,857	85,84
419,065	178
419,273	26,45
419,481	102,23
419,689	51,03
419,897	10,07
420,105	24,4
420,313	71,51
420,521	139,09
420,729	214,87
420,937	-94,38
421,145	22,36
421,353	77,65
421,561	243,54
421,769	30,55
421,977	-77,99
422,185	173,91
422,393	67,41
422,601	118,61
422,809	100,18
423,017	28,5
423,224	124,76
423,432	147,28
423,64	38,74
423,848	124,76
424,056	-4,27
424,263	184,15
424,471	-0,17
424,679	231,25
424,887	28,5
425,094	130,9
425,302	91,99
425,51	-49,32
425,718	94,04
425,925	57,17
426,133	-75,95
426,341	251,73
426,548	38,74
426,756	130,9
426,964	40,79
427,171	20,31
427,379	81,75
427,586	40,79
427,794	120,66
428,001	-8,36
428,209	63,32
428,417	163,67
428,624	79,7
428,832	57,17
429,039	157,52
429,247	102,23
429,454	108,37
429,662	169,81
429,869	141,14
430,076	71,51
430,284	182,1
430,491	149,33
430,699	30,55
430,906	186,19
431,114	98,13
431,321	126,8
431,528	98,13
431,736	128,85
431,943	167,76
432,15	225,11
432,358	270,16
432,565	489,29
432,772	386,9
432,979	575,31
433,187	665,42
433,394	845,64
433,601	925,51
433,808	1044,29
434,016	1038,15
434,223	968,52
434,43	915,27
434,637	759,63
434,844	728,91
435,052	579,4
435,259	520,01
435,466	425,81
435,673	300,88
435,88	186,19
436,087	257,87
436,294	249,68
436,501	145,24
436,708	67,41
436,915	145,24
437,122	71,51
437,329	46,93
437,537	24,4
437,743	128,85
437,95	221,01
438,157	89,94
438,364	69,46
438,571	63,32
438,778	112,47
438,985	128,85
439,192	106,32
439,399	42,84
439,606	79,7
439,813	135
440,02	102,23
440,227	284,5
440,433	253,78
440,64	145,24
440,847	44,88
441,054	75,6
441,261	223,06
441,467	16,21
441,674	114,52
441,881	155,47
442,088	-12,46
442,294	102,23
442,501	182,1
442,708	122,71
442,914	-32,94
443,121	46,93
443,328	110,42
443,534	153,43
443,741	122,71
443,948	-67,75
444,154	85,84
444,361	239,44
444,568	114,52
444,774	-12,46
444,981	8,02
445,187	186,19
445,394	104,28
445,6	46,93
445,807	-30,89
446,013	104,28
446,22	-22,7
446,426	63,32
446,633	96,08
446,839	188,24
447,046	40,79
447,252	188,24
447,459	112,47
447,665	18,26
447,871	141,14
448,078	126,8
448,284	143,19
448,491	40,79
448,697	87,89
448,903	178
449,11	16,21
449,316	53,08
449,522	147,28
449,728	8,02
449,935	89,94
450,141	10,07
450,347	175,95
450,553	55,12
450,76	48,98
450,966	55,12
451,172	67,41
451,378	44,88
451,584	-16,55
451,791	159,57
451,997	59,22
452,203	-71,85
452,409	192,34
452,615	155,47
452,821	30,55
453,027	-32,94
453,233	218,96
453,44	32,6
453,646	1,88
453,852	91,99
454,058	-112,81
454,264	122,71
454,47	120,66
454,676	46,93
454,882	122,71
455,088	40,79
455,294	67,41
455,5	108,37
455,705	116,56
455,911	5,97
456,117	26,45
456,323	8,02
456,529	161,62
456,735	87,89
456,941	118,61
457,147	112,47
457,352	57,17
457,558	-4,27
457,764	196,43
457,97	-16,55
458,176	120,66
458,381	65,36
458,587	233,3
458,793	91,99
458,999	-10,41
459,204	30,55
459,41	20,31
459,616	137,04
459,821	155,47
460,027	-34,99
460,233	81,75
460,438	237,39
460,644	32,6
460,85	124,76
461,055	114,52
461,261	104,28
461,466	44,88
461,672	75,6
461,878	38,74
462,083	155,47
462,289	-0,17
462,494	40,79
462,7	77,65
462,905	120,66
463,111	143,19
463,316	190,29
463,522	147,28
463,727	53,08
463,932	198,48
464,138	85,84
464,343	124,76
464,549	173,91
464,754	155,47
464,959	149,33
465,165	3,93
465,37	100,18
465,575	104,28
465,781	16,21
465,986	53,08
466,191	69,46
466,397	73,56
466,602	151,38
466,807	36,69
467,012	169,81
467,218	171,86
467,423	73,56
467,628	96,08
467,833	57,17
468,038	102,23
468,244	-43,18
468,449	59,22
468,654	53,08
468,859	-16,55
469,064	42,84
469,269	22,36
469,474	122,71
469,679	180,05
469,885	130,9
470,09	67,41
470,295	5,97
470,5	-26,79
470,705	110,42
470,91	79,7
471,115	180,05
471,32	73,56
471,525	206,67
471,73	169,81
471,935	30,55
472,139	24,4
472,344	-67,75
472,549	106,32
472,754	110,42
472,959	167,76
473,164	104,28
473,369	79,7
473,574	247,63
473,778	122,71
473,983	128,85
474,188	120,66
474,393	63,32
474,598	63,32
474,802	8,02
475,007	67,41
475,212	245,59
475,417	3,93
475,621	214,87
475,826	14,17
476,031	108,37
476,235	46,93
476,44	46,93
476,645	114,52
476,849	16,21
477,054	77,65
477,259	26,45
477,463	175,95
477,668	239,44
477,872	268,11
478,077	91,99
478,282	5,97
478,486	196,43
478,691	102,23
478,895	91,99
479,1	122,71
479,304	122,71
479,509	73,56
479,713	200,53
479,918	180,05
480,122	114,52
480,326	91,99
480,531	155,47
480,735	153,43
480,94	46,93
481,144	120,66
481,348	87,89
481,553	145,24
481,757	81,75
481,961	91,99
482,166	89,94
482,37	79,7
482,574	151,38
482,778	-8,36
482,983	180,05
483,187	114,52
483,391	126,8
483,595	247,63
483,8	446,29
484,004	833,35
484,208	1273,67
484,412	2111,29
484,616	3239,72
484,821	4536,08
485,025	5936,89
485,229	7415,52
485,433	8679,12
485,637	9645,76
485,841	10649,27
486,045	10813,1
486,249	10567,35
486,453	9936,57
486,657	9068,23
486,861	7870,17
487,065	6674,16
487,269	5576,45
487,473	4331,28
487,677	3720,99
487,881	3200,8
488,085	2305,84
488,289	1892,15
488,493	1455,94
488,697	1120,07
488,901	673,61
489,105	376,66
489,309	286,54
489,512	276,31
489,716	204,63
489,92	272,21
490,124	231,25
490,328	198,48
490,531	153,43
490,735	266,07
490,939	59,22
491,143	161,62
491,346	149,33
491,55	137,04
491,754	108,37
491,958	155,47
492,161	104,28
492,365	122,71
492,569	98,13
492,772	161,62
492,976	247,63
493,18	98,13
493,383	91,99
493,587	89,94
493,79	165,71
493,994	40,79
494,197	26,45
494,401	145,24
494,605	100,18
494,808	157,52
495,012	73,56
495,215	223,06
495,419	186,19
495,622	-34,99
495,825	75,6
496,029	91,99
496,232	196,43
496,436	79,7
496,639	147,28
496,843	77,65
497,046	-8,36
497,249	120,66
497,453	36,69
497,656	24,4
497,859	75,6
498,063	173,91
498,266	118,61
498,469	-57,51
498,673	3,93
498,876	-18,6
499,079	40,79
499,282	5,97
499,485	296,78
499,689	89,94
499,892	104,28
500,095	79,7
500,298	51,03
500,501	-57,51
500,705	28,5
500,908	8,02
501,111	57,17
501,314	143,19
501,517	253,78
501,72	24,4
501,923	128,85
502,126	-14,51
502,329	128,85
502,532	171,86
502,735	173,91
502,938	163,67
503,141	145,24
503,344	-43,18
503,547	216,91
503,75	57,17
503,953	28,5
504,156	114,52
504,359	98,13
504,562	14,17
504,765	36,69
504,968	163,67
505,17	153,43
505,373	118,61
505,576	94,04
505,779	104,28
505,982	-16,55
506,185	98,13
506,387	28,5
506,59	163,67
506,793	59,22
506,996	63,32
507,198	143,19
507,401	235,35
507,604	108,37
507,807	110,42
508,009	65,36
508,212	159,57
508,415	48,98
508,617	34,64
508,82	10,07
509,022	81,75
509,225	100,18
509,428	79,7
509,63	-8,36
509,833	75,6
510,035	214,87
510,238	161,62
510,44	-16,55
510,643	182,1
510,845	112,47
511,048	188,24
511,25	-0,17
511,453	75,6
511,655	87,89
511,858	128,85
512,06	161,62
512,262	3,93
512,465	124,76
512,667	110,42
512,87	-16,55
513,072	171,86
513,274	145,24
513,477	16,21
513,679	-18,6
513,881	8,02
514,084	-28,84
514,286	186,19
514,488	141,14
514,69	40,79
514,893	100,18
515,095	48,98
515,297	34,64
515,499	83,8
515,701	12,12
515,904	91,99
516,106	239,44
516,308	169,81
516,51	89,94
516,712	79,7
516,914	75,6
517,116	-14,51
517,318	8,02
517,52	22,36
517,722	46,93
517,925	26,45
518,127	87,89
518,329	233,3
518,531	40,79
518,733	71,51
518,935	-32,94
519,136	120,66
519,338	-22,7
519,54	38,74
519,742	59,22
519,944	192,34
520,146	42,84
520,348	108,37
520,55	20,31
520,752	53,08
520,954	18,26
521,155	91,99
521,357	-24,75
521,559	126,8
521,761	149,33
521,963	81,75
522,164	51,03
522,366	55,12
522,568	102,23
522,77	171,86
522,971	77,65
523,173	3,93
523,375	57,17
523,576	-34,99
523,778	34,64
523,98	71,51
524,181	227,15
524,383	122,71
524,584	46,93
524,786	69,46
524,988	61,27
525,189	42,84
525,391	69,46
525,592	-6,31
525,794	-39,08
525,995	-28,84
526,197	135
526,398	247,63
526,6	77,65
526,801	48,98
527,003	-86,19
527,204	96,08
527,406	69,46
527,607	63,32
527,808	63,32
528,01	51,03
528,211	73,56
528,412	-43,18
528,614	87,89
528,815	106,32
529,016	63,32
529,218	102,23
529,419	46,93
529,62	85,84
529,822	137,04
530,023	32,6
530,224	120,66
530,425	153,43
530,626	98,13
530,828	51,03
531,029	-10,41
531,23	130,9
531,431	32,6
531,632	98,13
531,833	63,32
532,035	36,69
532,236	26,45
532,437	89,94
532,638	18,26
532,839	-8,36
533,04	94,04
533,241	165,71
533,442	87,89
533,643	22,36
533,844	83,8
534,045	-67,75
534,246	85,84
534,447	-0,17
534,648	18,26
534,849	147,28
535,05	116,56
535,251	-20,65
535,451	83,8
535,652	-71,85
535,853	16,21
536,054	143,19
536,255	57,17
536,456	79,7
536,657	22,36
536,857	38,74
537,058	94,04
537,259	57,17
537,46	22,36
537,66	102,23
537,861	139,09
538,062	83,8
538,263	-73,9
538,463	83,8
538,664	57,17
538,865	-32,94
539,065	128,85
539,266	153,43
539,466	-39,08
539,667	186,19
539,868	118,61
540,068	122,71
540,269	120,66
540,469	8,02
540,67	180,05
540,87	190,29
541,071	10,07
541,271	130,9
541,472	153,43
541,672	161,62
541,873	65,36
542,073	106,32
542,274	38,74
542,474	157,52
542,675	16,21
542,875	94,04
543,075	-10,41
543,276	-10,41
543,476	40,79
543,676	128,85
543,877	1,88
544,077	122,71
544,277	149,33
544,478	34,64
544,678	100,18
544,878	91,99
545,078	79,7
545,279	91,99
545,479	12,12
545,679	14,17
545,879	1,88
546,079	73,56
546,28	-84,14
546,48	-6,31
546,68	108,37
546,88	57,17
547,08	30,55
547,28	110,42
547,48	-8,36
547,68	155,47
547,88	55,12
548,081	14,17
548,281	-32,94
548,481	87,89
548,681	96,08
548,881	79,7
549,081	18,26
549,28	38,74
549,48	5,97
549,68	65,36
549,88	96,08
550,08	-2,22
550,28	26,45
550,48	200,53
550,68	-0,17
550,88	24,4
551,08	-112,81
551,279	165,71
551,479	20,31
551,679	155,47
551,879	-6,31
552,079	28,5
552,278	98,13
552,478	128,85
552,678	98,13
552,878	159,57
553,077	46,93
553,277	28,5
553,477	34,64
553,676	71,51
553,876	110,42
554,076	38,74
554,275	108,37
554,475	-6,31
554,674	98,13
554,874	63,32
555,074	-73,9
555,273	1,88
555,473	10,07
555,672	-6,31
555,872	81,75
556,071	114,52
556,271	108,37
556,47	94,04
556,67	104,28
556,869	34,64
557,068	59,22
557,268	114,52
557,467	104,28
557,667	169,81
557,866	55,12
558,065	89,94
558,265	51,03
558,464	-24,75
558,663	38,74
558,863	132,95
559,062	81,75
559,261	5,97
559,461	75,6
559,66	-12,46
559,859	-26,79
560,058	42,84
560,258	-45,23
560,457	67,41
560,656	202,58
560,855	-86,19
561,054	55,12
561,253	128,85
561,453	48,98
561,652	40,79
561,851	75,6
562,05	-32,94
562,249	-24,75
562,448	102,23
562,647	-43,18
562,846	24,4
563,045	85,84
563,244	77,65
563,443	30,55
563,642	8,02
563,841	44,88
564,04	67,41
564,239	40,79
564,438	5,97
564,637	-51,37
564,836	16,21
565,035	-30,89
565,234	40,79
565,432	55,12
565,631	120,66
565,83	112,47
566,029	55,12
566,228	63,32
566,427	157,52
566,625	-43,18
566,824	102,23
567,023	-4,27
567,222	22,36
567,42	-2,22
567,619	30,55
567,818	118,61
568,016	304,98
568,215	59,22
568,414	112,47
568,612	145,24
568,811	63,32
569,01	73,56
569,208	38,74
569,407	153,43
569,605	96,08
569,804	42,84
570,002	61,27
570,201	55,12
570,4	175,95
570,598	89,94
570,797	53,08
570,995	81,75
571,193	165,71
571,392	89,94
571,59	98,13
571,789	231,25
571,987	200,53
572,186	186,19
572,384	16,21
572,582	67,41
572,781	124,76
572,979	46,93
573,177	61,27
573,376	169,81
573,574	216,91
573,772	22,36
573,971	69,46
574,169	-26,79
574,367	200,53
574,565	46,93
574,763	16,21
574,962	149,33
575,16	-8,36
575,358	34,64
575,556	157,52
575,754	124,76
575,952	91,99
576,151	155,47
576,349	186,19
576,547	-0,17
576,745	141,14
576,943	145,24
577,141	75,6
577,339	18,26
577,537	120,66
577,735	249,68
577,933	161,62
578,131	151,38
578,329	325,46
578,527	46,93
578,725	173,91
578,923	85,84
579,121	270,16
579,319	-26,79
579,516	122,71
579,714	366,42
579,912	130,9
580,11	42,84
580,308	55,12
580,506	130,9
580,704	18,26
580,901	120,66
581,099	235,35
581,297	126,8
581,495	184,15
581,692	59,22
581,89	296,78
582,088	204,63
582,285	161,62
582,483	118,61
582,681	235,35
582,878	180,05
583,076	208,72
583,274	141,14
583,471	233,3
583,669	204,63
583,866	51,03
584,064	96,08
584,262	94,04
584,459	96,08
584,657	98,13
584,854	126,8
585,052	178
585,249	145,24
585,447	221,01
585,644	48,98
585,841	192,34
586,039	186,19
586,236	155,47
586,434	81,75
586,631	32,6
586,828	48,98
587,026	178
587,223	28,5
587,42	59,22
587,618	85,84
587,815	266,07
588,012	145,24
588,21	128,85
588,407	130,9
588,604	65,36
588,801	38,74
588,999	40,79
589,196	145,24
589,393	8,02
589,59	18,26
589,787	102,23
589,984	178
590,182	106,32
590,379	51,03
590,576	118,61
590,773	100,18
590,97	87,89
591,167	147,28
591,364	190,29
591,561	10,07
591,758	178
591,955	106,32
592,152	98,13
592,349	5,97
592,546	48,98
592,743	61,27
592,94	24,4
593,137	104,28
593,334	163,67
593,531	173,91
593,727	159,57
593,924	151,38
594,121	100,18
594,318	55,12
594,515	159,57
594,712	196,43
594,908	268,11
595,105	3,93
595,302	159,57
595,499	182,1
595,696	221,01
595,892	67,41
596,089	188,24
596,286	40,79
596,482	204,63
596,679	178
596,876	20,31
597,072	173,91
597,269	110,42
597,466	91,99
597,662	-14,51
597,859	12,12
598,055	120,66
598,252	149,33
598,448	126,8
598,645	184,15
598,841	114,52
599,038	259,92
599,234	259,92
599,431	118,61
599,627	112,47
599,824	139,09
600,02	118,61
600,217	104,28
600,413	122,71
600,609	67,41
600,806	388,94
601,002	151,38
601,198	65,36
601,395	188,24
601,591	198,48
601,787	145,24
601,984	180,05
602,18	106,32
602,376	264,02
602,572	151,38
602,769	188,24
602,965	124,76
603,161	137,04
603,357	141,14
603,553	147,28
603,75	26,45
603,946	204,63
604,142	96,08
604,338	192,34
604,534	10,07
604,73	118,61
604,926	89,94
605,122	180,05
605,318	94,04
605,514	210,77
605,71	89,94
605,906	137,04
606,102	24,4
606,298	221,01
606,494	165,71
606,69	165,71
606,886	120,66
607,082	102,23
607,278	51,03
607,474	180,05
607,67	159,57
607,866	-22,7
608,062	57,17
608,257	94,04
608,453	94,04
608,649	73,56
608,845	-30,89
609,041	-24,75
609,236	198,48
609,432	79,7
609,628	100,18
609,824	155,47
610,019	22,36
610,215	69,46
610,411	89,94
610,606	173,91
610,802	34,64
610,998	108,37
611,193	137,04
611,389	-26,79
611,584	186,19
611,78	22,36
611,976	87,89
612,171	266,07
612,367	73,56
612,562	91,99
612,758	96,08
612,953	-112,81
613,149	30,55
613,344	40,79
613,539	3,93
613,735	87,89
613,93	151,38
614,126	48,98
614,321	57,17
614,517	223,06
614,712	157,52
614,907	186,19
615,103	169,81
615,298	85,84
615,493	30,55
615,688	67,41
615,884	149,33
616,079	112,47
616,274	137,04
616,47	-2,22
616,665	-41,13
616,86	57,17
617,055	1,88
617,25	-12,46
617,445	55,12
617,641	75,6
617,836	42,84
618,031	28,5
618,226	159,57
618,421	120,66
618,616	40,79
618,811	79,7
619,006	65,36
619,201	130,9
619,396	-49,32
619,591	63,32
619,786	48,98
619,981	124,76
620,176	75,6
620,371	18,26
620,566	34,64
620,761	116,56
620,956	169,81
621,151	44,88
621,346	106,32
621,541	-92,33
621,735	145,24
621,93	91,99
622,125	18,26
622,32	38,74
622,515	-80,04
622,709	149,33
622,904	175,95
623,099	91,99
623,294	151,38
623,488	48,98
623,683	132,95
623,878	53,08
624,072	178
624,267	-12,46
624,462	63,32
624,656	5,97
624,851	112,47
625,046	57,17
625,24	-8,36
625,435	8,02
625,629	73,56
625,824	239,44
626,018	167,76
626,213	96,08
626,407	67,41
626,602	98,13
626,796	-0,17
626,991	171,86
627,185	1,88
627,38	48,98
627,574	153,43
627,768	124,76
627,963	38,74
628,157	128,85
628,352	3,93
628,546	-49,32
628,74	-2,22
628,935	116,56
629,129	130,9
629,323	120,66
629,517	-8,36
629,712	-2,22
629,906	48,98
630,1	149,33
630,294	24,4
630,489	32,6
630,683	-14,51
630,877	44,88
631,071	114,52
631,265	32,6
631,459	85,84
631,653	51,03
631,848	104,28
632,042	96,08
632,236	12,12
632,43	163,67
632,624	77,65
632,818	114,52
633,012	272,21
633,206	61,27
633,4	26,45
633,594	83,8
633,788	73,56
633,982	126,8
634,176	167,76
634,369	96,08
634,563	26,45
634,757	-16,55
634,951	184,15
635,145	178
635,339	94,04
635,533	96,08
635,726	169,81
635,92	100,18
636,114	26,45
636,308	8,02
636,501	24,4
636,695	188,24
636,889	-10,41
637,083	114,52
637,276	38,74
637,47	-2,22
637,664	71,51
637,857	79,7
638,051	55,12
638,244	186,19
638,438	83,8
638,632	173,91
638,825	-10,41
639,019	245,59
639,212	14,17
639,406	143,19
639,599	-24,75
639,793	81,75
639,986	22,36
640,18	145,24
640,373	145,24
640,567	57,17
640,76	91,99
640,954	71,51
641,147	104,28
641,34	118,61
641,534	96,08
641,727	96,08
641,92	100,18
642,114	110,42
642,307	32,6
642,5	94,04
642,694	81,75
642,887	61,27
643,08	175,95
643,273	79,7
643,467	10,07
643,66	30,55
643,853	-12,46
644,046	171,86
644,239	145,24
644,432	-32,94
644,626	-90,28
644,819	46,93
645,012	40,79
645,205	180,05
645,398	40,79
645,591	75,6
645,784	-18,6
645,977	34,64
646,17	102,23
646,363	40,79
646,556	1,88
646,749	-55,47
646,942	85,84
647,135	190,29
647,328	32,6
647,521	118,61
647,714	-18,6
647,907	87,89
648,099	-0,17
648,292	139,09
648,485	137,04
648,678	79,7
648,871	34,64
649,064	112,47
649,256	-80,04
649,449	48,98
649,642	34,64
649,835	12,12
650,027	-2,22
650,22	122,71
650,413	91,99
650,605	104,28
650,798	34,64
650,991	87,89
651,183	98,13
651,376	130,9
651,568	198,48
651,761	145,24
651,954	161,62
652,146	128,85
652,339	237,39
652,531	274,26
652,724	180,05
652,916	147,28
653,109	10,07
653,301	225,11
653,494	218,96
653,686	206,67
653,879	298,83
654,071	309,07
654,263	257,87
654,456	612,17
654,648	2225,97
654,84	6817,52
655,033	15318,64
655,225	25800,14
655,417	37555,48
655,61	47625,34
655,802	55899,14
655,994	61182,9
656,186	62593,95
656,379	60011,46
656,571	56189,95
656,763	50318,42
656,955	45663,39
657,148	41186,53
657,34	37350,68
657,532	33707,35
657,724	30776,7
657,916	26531,26
658,108	23490,03
658,3	19226,16
658,492	16201,31
658,684	12990,1
658,876	10753,71
659,068	8681,17
659,26	6530,8
659,452	4947,72
659,644	3651,36
659,836	2772,78
660,028	1785,66
660,22	1277,76
660,412	976,71
660,604	743,24
660,796	601,93
660,988	632,65
661,18	362,32
661,372	284,5
661,563	364,37
661,755	182,1
661,947	161,62
662,139	116,56
662,331	194,39
662,522	171,86
662,714	51,03
662,906	124,76
663,097	206,67
663,289	85,84
663,481	10,07
663,673	190,29
663,864	106,32
664,056	178
664,247	44,88
664,439	221,01
664,631	165,71
664,822	128,85
665,014	69,46
665,205	128,85
665,397	28,5
665,588	102,23
665,78	89,94
665,971	147,28
666,163	-0,17
666,354	98,13
666,546	44,88
666,737	55,12
666,929	155,47
667,12	122,71
667,311	139,09
667,503	38,74
667,694	114,52
667,885	96,08
668,077	28,5
668,268	-43,18
668,459	83,8
668,651	89,94
668,842	32,6
669,033	-47,27
669,224	-57,51
669,416	266,07
669,607	89,94
669,798	-88,23
669,989	153,43
670,18	5,97
670,371	77,65
670,563	-32,94
670,754	141,14
670,945	85,84
671,136	79,7
671,327	10,07
671,518	112,47
671,709	145,24
671,9	126,8
672,091	221,01
672,282	36,69
672,473	26,45
672,664	-75,95
672,855	63,32
673,046	-28,84
673,237	149,33
673,428	98,13
673,619	169,81
673,809	-30,89
674	157,52
674,191	147,28
674,382	38,74
674,573	46,93
674,764	81,75
674,954	139,09
675,145	30,55
675,336	40,79
675,527	-41,13
675,717	16,21
675,908	44,88
676,099	116,56
676,289	18,26
676,48	-61,61
676,671	55,12
676,861	-61,61
677,052	14,17
677,243	-51,37
677,433	-94,38
677,624	143,19
677,814	59,22
678,005	8,02
678,195	118,61
678,386	-51,37
678,576	124,76
678,767	-100,52
678,957	53,08
679,148	14,17
679,338	151,38
679,529	-20,65
679,719	-20,65
679,909	5,97
680,1	139,09
680,29	73,56
680,481	-153,77
680,671	-22,7
680,861	128,85
681,052	46,93
681,242	34,64
681,432	83,8
681,622	73,56
681,813	-43,18
682,003	116,56
682,193	-82,09
682,383	-71,85
682,573	5,97
682,764	5,97
682,954	-84,14
683,144	42,84
683,334	-43,18
683,524	22,36
683,714	3,93
683,904	53,08
684,094	5,97
684,284	-26,79
684,474	128,85
684,664	114,52
684,854	46,93
685,044	-37,03
685,234	8,02
685,424	61,27
685,614	-18,6
685,804	161,62
685,994	61,27
686,184	14,17
686,374	87,89
686,564	22,36
686,753	77,65
686,943	-26,79
687,133	-12,46
687,323	36,69
687,513	81,75
687,702	89,94
687,892	63,32
688,082	106,32
688,272	71,51
688,461	16,21
688,651	143,19
688,841	42,84
689,03	-22,7
689,22	46,93
689,41	81,75
689,599	-49,32
689,789	-82,09
689,979	137,04
690,168	-57,51
690,358	91,99
690,547	63,32
690,737	40,79
690,926	96,08
691,116	16,21
691,305	5,97
691,495	98,13
691,684	-34,99
691,874	34,64
692,063	30,55
692,252	5,97
692,442	65,36
692,631	-22,7
692,82	16,21
693,01	42,84
693,199	32,6
693,388	81,75
693,578	5,97
693,767	71,51
693,956	44,88
694,146	22,36
694,335	73,56
694,524	-0,17
694,713	106,32
694,902	46,93
695,092	-39,08
695,281	89,94
695,47	75,6
695,659	38,74
695,848	48,98
696,037	-41,13
696,226	94,04
696,415	34,64
696,604	161,62
696,793	79,7
696,982	-26,79
697,171	188,24
697,36	22,36
697,549	71,51
697,738	-84,14
697,927	-6,31
698,116	-26,79
698,305	48,98
698,494	69,46
698,683	112,47
698,872	192,34
699,061	34,64
699,25	-57,51
699,438	116,56
699,627	-90,28
699,816	159,57
700,005	-24,75
700,193	-10,41
700,382	67,41
700,571	8,02
700,76	-22,7
700,948	110,42
701,137	139,09
701,326	100,18
701,514	-24,75
701,703	102,23
701,892	159,57
702,08	196,43
702,269	57,17
702,457	-71,85
702,646	59,22
702,834	69,46
703,023	145,24
703,212	128,85
703,4	-26,79
703,589	1,88
703,777	-2,22
703,965	3,93
704,154	-43,18
704,342	1,88
704,531	98,13
704,719	98,13
704,907	155,47
705,096	-116,9
705,284	-32,94
705,472	65,36
705,661	122,71
705,849	108,37
706,037	141,14
706,226	30,55
706,414	65,36
706,602	18,26
706,79	79,7
706,979	-59,56
707,167	83,8
707,355	-71,85
707,543	53,08
707,731	16,21
707,919	71,51
708,107	24,4
708,296	26,45
708,484	1,88
708,672	106,32
708,86	67,41
709,048	63,32
709,236	32,6
709,424	81,75
709,612	34,64
709,8	-55,47
709,988	18,26
710,176	132,95
710,364	155,47
710,551	-90,28
710,739	-8,36
710,927	-61,61
711,115	-10,41
711,303	135
711,491	130,9
711,679	-18,6
711,866	57,17
712,054	8,02
712,242	46,93
712,43	77,65
712,617	-55,47
712,805	81,75
712,993	46,93
713,181	-88,23
713,368	83,8
713,556	30,55
713,744	28,5
713,931	245,59
714,119	61,27
714,306	32,6
714,494	-59,56
714,682	-43,18
714,869	-69,8
715,057	-6,31
715,244	-127,14
715,432	-47,27
715,619	16,21
715,807	-30,89
715,994	1,88
716,182	20,31
716,369	114,52
716,556	83,8
716,744	-18,6
716,931	-118,95
717,119	-34,99
717,306	-34,99
717,493	34,64
717,681	-28,84
717,868	-12,46
718,055	83,8
718,242	-0,17
718,43	69,46
718,617	100,18
718,804	-69,8
718,991	22,36
719,179	34,64
719,366	42,84
719,553	48,98
719,74	-8,36
719,927	53,08
720,114	77,65
720,301	-26,79
720,488	-26,79
720,676	-92,33
720,863	98,13
721,05	139,09
721,237	63,32
721,424	67,41
721,611	-67,75
721,798	-22,7
721,985	-8,36
722,172	5,97
722,358	18,26
722,545	67,41
722,732	40,79
722,919	110,42
723,106	3,93
723,293	12,12
723,48	38,74
723,667	67,41
723,853	178
724,04	65,36
724,227	73,56
724,414	22,36
724,6	59,22
724,787	73,56
724,974	223,06
725,161	18,26
725,347	-34,99
725,534	24,4
725,72	75,6
725,907	116,56
726,094	106,32
726,28	55,12
726,467	65,36
726,653	-51,37
726,84	135
727,027	128,85
727,213	14,17
727,4	71,51
727,586	71,51
727,773	-34,99
727,959	-26,79
728,145	5,97
728,332	61,27
728,518	46,93
728,705	73,56
728,891	100,18
729,077	104,28
729,264	-49,32
729,45	-22,7
729,636	98,13
729,823	38,74
730,009	130,9
730,195	18,26
730,382	145,24
730,568	-32,94
730,754	-2,22
730,94	36,69
731,126	5,97
731,313	55,12
731,499	73,56
731,685	48,98
731,871	104,28
732,057	44,88
732,243	30,55
732,429	81,75
732,615	122,71
732,801	32,6
732,987	51,03
733,173	8,02
733,359	26,45
733,545	59,22
733,731	55,12
733,917	112,47
734,103	24,4
734,289	-6,31
734,475	-65,71
734,661	137,04
734,847	46,93
735,033	22,36
735,219	102,23
735,404	16,21
735,59	-37,03
735,776	-32,94
735,962	-24,75
736,148	130,9
736,333	55,12
736,519	-24,75
736,705	85,84
736,89	-26,79
737,076	34,64
737,262	26,45
737,447	-57,51
737,633	-24,75
737,819	26,45
738,004	67,41
738,19	38,74
738,375	3,93
738,561	116,56
738,747	110,42
738,932	36,69
739,118	208,72
739,303	94,04
739,489	30,55
739,674	-12,46
739,859	-4,27
740,045	34,64
740,23	98,13
740,416	-90,28
740,601	40,79
740,786	5,97
740,972	73,56
741,157	38,74
741,342	-10,41
741,528	-59,56
741,713	194,39
741,898	-53,42
742,084	-22,7
742,269	26,45
742,454	34,64
742,639	40,79
742,824	22,36
743,01	145,24
743,195	192,34
743,38	59,22
743,565	-24,75
743,75	8,02
743,935	81,75
744,12	114,52
744,305	-18,6
744,49	-47,27
744,675	8,02
744,86	22,36
745,045	147,28
745,23	83,8
745,415	-34,99
745,6	100,18
745,785	5,97
745,97	61,27
746,155	-4,27
746,34	106,32
746,525	59,22
746,71	165,71
746,895	-10,41
747,079	18,26
747,264	-67,75
747,449	112,47
747,634	147,28
747,819	98,13
748,003	55,12
748,188	-10,41
748,373	75,6
748,557	57,17
748,742	12,12
748,927	59,22
749,111	-4,27
749,296	20,31
749,481	3,93
749,665	81,75
749,85	-59,56
750,034	71,51
750,219	57,17
750,404	-8,36
750,588	-14,51
750,773	-59,56
750,957	42,84
751,141	24,4
751,326	165,71
751,51	-80,04
751,695	87,89
751,879	44,88
752,064	251,73
752,248	12,12
752,432	137,04
752,617	135
752,801	106,32
752,985	48,98
753,17	75,6
753,354	38,74
753,538	91,99
753,722	-4,27
753,907	5,97
754,091	-18,6
754,275	30,55
754,459	-0,17
754,643	-8,36
754,828	1,88
755,012	106,32
755,196	-41,13
755,38	-22,7
755,564	-43,18
755,748	30,55
755,932	38,74
756,116	59,22
756,3	130,9
756,484	40,79
756,668	94,04
756,852	-53,42
757,036	-57,51
757,22	24,4
757,404	-57,51
757,588	-49,32
757,772	139,09
757,956	-28,84
758,14	225,11
758,323	40,79
758,507	59,22
758,691	87,89
758,875	169,81
759,059	147,28
759,242	-6,31
759,426	38,74
759,61	98,13
759,794	-49,32
759,977	128,85
760,161	247,63
760,345	186,19
760,528	122,71
760,712	75,6
760,895	190,29
761,079	38,74
761,263	-39,08
761,446	53,08
761,63	44,88
761,813	104,28
761,997	-118,95
762,18	46,93
762,364	124,76
762,547	-80,04
762,731	-14,51
762,914	73,56
763,098	38,74
763,281	-0,17
763,464	24,4
763,648	44,88
763,831	20,31
764,015	-20,65
764,198	63,32
764,381	-26,79
764,564	18,26
764,748	30,55
764,931	67,41
765,114	46,93
765,297	122,71
765,481	-10,41
765,664	5,97
765,847	-14,51
766,03	135
766,213	-77,99
766,397	-51,37
766,58	-98,47
766,763	69,46
766,946	12,12
767,129	30,55
767,312	-34,99
767,495	14,17
767,678	-108,71
767,861	63,32
768,044	32,6
768,227	-30,89
768,41	24,4
768,593	30,55
768,776	24,4
768,959	-137,38
769,142	124,76
769,324	83,8
769,507	34,64
769,69	48,98
769,873	-53,42
770,056	198,48
770,239	3,93
770,421	137,04
770,604	112,47
770,787	59,22
770,97	69,46
771,152	-96,43
771,335	104,28
771,518	-39,08
771,7	102,23
771,883	188,24
772,066	12,12
772,248	71,51
772,431	116,56
772,613	-0,17
772,796	1,88
772,978	-22,7
773,161	151,38
773,343	20,31
773,526	-59,56
773,708	-41,13
773,891	-92,33
774,073	-14,51
774,256	-8,36
774,438	194,39
774,621	5,97
774,803	44,88
774,985	20,31
775,168	100,18
775,35	57,17
775,532	73,56
775,715	-43,18
775,897	85,84
776,079	46,93
776,261	233,3
776,444	288,59
776,626	425,81
776,808	577,36
776,99	646,99
777,173	888,65
777,355	972,61
777,537	1001,29
777,719	945,99
777,901	757,58
778,083	655,18
778,265	644,94
778,447	696,14
778,629	513,87
778,811	495,44
778,993	444,24
779,175	417,61
779,357	327,5
779,539	270,16
779,721	259,92
779,903	280,4
780,085	102,23
780,267	118,61
780,449	128,85
780,631	165,71
780,812	153,43
780,994	-2,22
781,176	16,21
781,358	-75,95
781,54	-8,36
781,721	139,09
781,903	104,28
782,085	-20,65
782,267	147,28
782,448	-43,18
782,63	16,21
782,812	14,17
782,993	87,89
783,175	24,4
783,357	-49,32
783,538	34,64
783,72	-43,18
783,901	-28,84
784,083	94,04
784,264	91,99
784,446	-67,75
784,627	-41,13
784,809	34,64
784,99	-55,47
785,172	85,84
785,353	-24,75
785,535	53,08
785,716	-26,79
785,897	-30,89
786,079	48,98
786,26	34,64
786,441	40,79
786,623	-37,03
786,804	-45,23
786,985	77,65
787,167	-24,75
787,348	-8,36
787,529	20,31
787,71	155,47
787,891	-26,79
788,073	-51,37
788,254	8,02
788,435	173,91
788,616	-22,7
788,797	-88,23
788,978	-49,32
789,159	-63,66
789,34	120,66
789,522	-16,55
789,703	-63,66
789,884	48,98
790,065	75,6
790,246	178
790,427	-20,65
790,607	114,52
790,788	38,74
790,969	-77,99
791,15	91,99
791,331	-57,51
791,512	24,4
791,693	-37,03
791,874	34,64
792,054	210,77
792,235	130,9
792,416	-82,09
792,597	-20,65
792,778	22,36
792,958	18,26
793,139	40,79
793,32	46,93
793,5	-8,36
793,681	75,6
793,862	18,26
794,042	24,4
794,223	-106,67
794,404	-26,79
794,584	-61,61
794,765	57,17
794,945	67,41
795,126	34,64
795,306	145,24
795,487	28,5
795,667	-30,89
795,848	79,7
796,028	-6,31
796,209	83,8
796,389	87,89
796,57	-0,17
796,75	-28,84
796,93	-20,65
797,111	1,88
797,291	-14,51
797,471	38,74
797,652	-28,84
797,832	3,93
798,012	28,5
798,192	40,79
798,373	-28,84
798,553	-30,89
798,733	59,22
798,913	-30,89
799,093	-0,17
799,274	44,88
799,454	38,74
799,634	71,51
799,814	14,17
799,994	67,41
800,174	71,51
800,354	55,12
800,534	-28,84
800,714	124,76
800,894	-153,77
801,074	-53,42
801,254	-51,37
801,434	108,37
801,614	-26,79
801,794	-112,81
801,974	1955,64
802,154	-0,17
802,334	128,85
802,514	-57,51
802,693	55,12
802,873	-22,7
803,053	118,61
803,233	36,69
803,413	-53,42
803,592	-69,8
803,772	-45,23
803,952	59,22
804,131	-55,47
804,311	38,74
804,491	186,19
804,67	-65,71
804,85	-141,48
805,03	85,84
805,209	75,6
805,389	36,69
805,568	-16,55
805,748	5,97
805,928	14,17
806,107	30,55
806,287	53,08
806,466	5,97
806,646	-30,89
806,825	-39,08
807,004	10,07
807,184	-2,22
807,363	108,37
807,543	28,5
807,722	-47,27
807,901	118,61
808,081	46,93
808,26	-112,81
808,439	55,12
808,619	40,79
808,798	-69,8
808,977	61,27
809,156	63,32
809,336	3,93
809,515	8,02
809,694	-80,04
809,873	-69,8
810,052	26,45
810,231	79,7
810,411	34,64
810,59	55,12
810,769	-26,79
810,948	55,12
811,127	-155,82
811,306	-34,99
811,485	-8,36
811,664	81,75
811,843	51,03
812,022	-37,03
812,201	-57,51
812,38	24,4
812,559	-77,99
812,737	-22,7
812,916	-41,13
813,095	-121
813,274	18,26
813,453	40,79
813,632	46,93
813,811	63,32
813,989	-51,37
814,168	34,64
814,347	-73,9
814,526	12,12
814,704	135
814,883	96,08
815,062	-59,56
815,24	91,99
815,419	-88,23
815,598	73,56
815,776	-57,51
815,955	14,17
816,133	-57,51
816,312	32,6
816,49	22,36
816,669	55,12
816,847	-96,43
817,026	3,93
817,204	34,64
817,383	40,79
817,561	-77,99
817,74	59,22
817,918	20,31
818,097	-41,13
818,275	-26,79
818,453	128,85
818,632	32,6
818,81	-34,99
818,988	-26,79
819,167	16,21
819,345	-24,75
819,523	-30,89
819,701	67,41
819,879	67,41
820,058	48,98
820,236	14,17
820,414	20,31
820,592	-75,95
820,77	10,07
820,948	-88,23
821,127	-16,55
821,305	63,32
821,483	-82,09
821,661	98,13
821,839	63,32
822,017	-69,8
822,195	-22,7
822,373	85,84
822,551	46,93
822,729	40,79
822,907	-30,89
823,085	3,93
823,262	8,02
823,44	-45,23
823,618	-51,37
823,796	-61,61
823,974	-12,46
824,152	-75,95
824,329	34,64
824,507	-6,31
824,685	8,02
824,863	-37,03
825,04	-20,65
825,218	112,47
825,396	14,17
825,574	32,6
825,751	-22,7
825,929	69,46
826,107	-106,67
826,284	18,26
826,462	81,75
826,639	-16,55
826,817	-63,66
826,994	-22,7
827,172	-135,34
827,349	104,28
827,527	55,12
827,704	-22,7
827,882	48,98
828,059	3,93
828,237	-24,75
828,414	71,51
828,591	-155,82
828,769	-6,31
828,946	-94,38
829,124	89,94
829,301	75,6
829,478	40,79
829,655	3,93
829,833	14,17
830,01	-84,14
830,187	22,36
830,364	32,6
830,542	-32,94
830,719	100,18
830,896	53,08
831,073	30,55
831,25	36,69
831,427	28,5
831,604	-4,27
831,782	-39,08
831,959	34,64
832,136	-28,84
832,313	24,4
832,49	-34,99
832,667	-0,17
832,844	85,84
833,021	87,89
833,198	16,21
833,374	-41,13
833,551	73,56
833,728	-59,56
833,905	143,19
834,082	-149,67
834,259	18,26
834,436	102,23
834,612	-57,51
834,789	30,55
834,966	94,04
835,143	-100,52
835,319	-84,14
835,496	-26,79
835,673	67,41
835,85	114,52
836,026	5,97
836,203	63,32
836,38	-59,56
836,556	-45,23
836,733	-90,28
836,909	171,86
837,086	-14,51
837,262	-80,04
837,439	-53,42
837,616	-67,75
837,792	94,04
837,968	-49,32
838,145	-129,19
838,321	-10,41
838,498	36,69
838,674	89,94
838,851	65,36
839,027	-77,99
839,203	73,56
839,38	71,51
839,556	-57,51
839,732	94,04
839,909	1,88
840,085	122,71
840,261	-26,79
840,437	20,31
840,614	8,02
840,79	85,84
840,966	42,84
841,142	44,88
841,318	-51,37
841,494	5,97
841,671	57,17
841,847	-67,75
842,023	-39,08
842,199	65,36
842,375	106,32
842,551	-39,08
842,727	-57,51
842,903	120,66
843,079	36,69
843,255	161,62
843,431	-45,23
843,607	-8,36
843,783	-80,04
843,959	208,72
844,134	255,83
844,31	268,11
844,486	218,96
844,662	319,31
844,838	270,16
845,013	300,88
845,189	270,16
845,365	292,69
845,541	186,19
845,716	118,61
845,892	178
846,068	59,22
846,244	28,5
846,419	110,42
846,595	-32,94
846,77	-8,36
846,946	75,6
847,122	-34,99
847,297	96,08
847,473	245,59
847,648	-63,66
847,824	110,42
847,999	-106,67
848,175	18,26
848,35	85,84
848,526	137,04
848,701	87,89
848,876	89,94
849,052	75,6
849,227	46,93
849,403	112,47
849,578	-53,42
849,753	-16,55
849,929	106,32
850,104	-65,71
850,279	32,6
850,454	10,07
850,63	48,98
850,805	128,85
850,98	79,7
851,155	-49,32
851,33	34,64
851,505	-6,31
851,681	151,38
851,856	1,88
852,031	55,12
852,206	100,18
852,381	-51,37
852,556	-59,56
852,731	34,64
852,906	20,31
853,081	51,03
853,256	63,32
853,431	-16,55
853,606	-102,57
853,781	-118,95
853,956	-82,09
854,131	14,17
854,305	-75,95
854,48	24,4
854,655	-86,19
854,83	-24,75
855,005	-12,46
855,18	79,7
855,354	26,45
855,529	67,41
855,704	-8,36
855,879	-6,31
856,053	-82,09
856,228	34,64
856,403	-133,29
856,577	-8,36
856,752	-114,86
856,926	3,93
857,101	-32,94
857,276	-104,62
857,45	30,55
857,625	122,71
857,799	-49,32
857,974	118,61
858,148	-141,48
858,323	26,45
858,497	-73,9
858,672	-0,17
858,846	-57,51
859,02	71,51
859,195	-63,66
859,369	14,17
859,543	1,88
859,718	-32,94
859,892	55,12
860,066	-14,51
860,241	-34,99
860,415	16,21
860,589	46,93
860,763	32,6
860,938	-34,99
861,112	130,9
861,286	5,97
861,46	24,4
861,634	14,17
861,808	32,6
861,982	-41,13
862,157	-67,75
862,331	65,36
862,505	-67,75
862,679	8,02
862,853	67,41
863,027	55,12
863,201	126,8
863,375	5,97
863,549	14,17
863,722	22,36
863,896	108,37
864,07	-104,62
864,244	3,93
864,418	137,04
864,592	-22,7
864,766	59,22
864,939	-30,89
865,113	-49,32
865,287	81,75
865,461	-75,95
865,634	-71,85
865,808	-49,32
865,982	3,93
866,156	-55,47
866,329	-90,28
866,503	53,08
866,676	65,36
866,85	-18,6
867,024	-43,18
867,197	61,27
867,371	42,84
867,544	30,55
867,718	-108,71
867,891	69,46
868,065	-67,75
868,238	63,32
868,412	155,47
868,585	30,55
868,759	-100,52
868,932	-170,15
869,105	-98,47
869,279	-20,65
869,452	-80,04
869,625	22,36
869,799	-2,22
869,972	-59,56
870,145	57,17
870,319	104,28
870,492	30,55
870,665	-0,17
870,838	-65,71
871,011	-100,52
871,185	-43,18
871,358	-41,13
871,531	178
871,704	-8,36
871,877	-37,03
872,05	-47,27
872,223	-88,23
872,396	89,94
872,569	12,12
872,742	-159,91
872,915	-59,56
873,088	-39,08
873,261	-53,42
873,434	71,51
873,607	-14,51
873,78	85,84
873,953	-96,43
874,126	-26,79
874,299	42,84
874,471	-88,23
874,644	14,17
874,817	30,55
874,99	206,67
875,163	14,17
875,335	77,65
875,508	-34,99
875,681	124,76
875,853	-73,9
876,026	10,07
876,199	102,23
876,371	32,6
876,544	59,22
876,717	69,46
876,889	-77,99
877,062	83,8
877,234	-30,89
877,407	30,55
877,579	22,36
877,752	5,97
877,924	18,26
878,097	89,94
878,269	-41,13
878,442	55,12
878,614	18,26
878,786	55,12
878,959	3,93
879,131	-67,75
879,303	-22,7
879,476	-28,84
879,648	83,8
879,82	28,5
879,993	-90,28
880,165	-28,84
880,337	-88,23
880,509	30,55
880,681	-63,66
880,854	-57,51
881,026	26,45
881,198	212,82
881,37	102,23
881,542	55,12
881,714	-53,42
881,886	-84,14
882,058	-16,55
882,23	-18,6
882,402	-2,22
882,574	57,17
882,746	57,17
882,918	194,39
883,09	57,17
883,262	-4,27
883,434	-30,89
883,606	-112,81
883,778	-47,27
883,95	87,89
884,122	-47,27
884,293	57,17
884,465	77,65
884,637	85,84
884,809	-61,61
884,98	26,45
885,152	-45,23
885,324	48,98
885,496	-98,47
885,667	-26,79
885,839	-26,79
886,011	89,94
886,182	71,51
886,354	38,74
886,525	18,26
886,697	36,69
886,869	-22,7
887,04	34,64
887,212	53,08
887,383	110,42
887,555	71,51
887,726	26,45
887,897	-34,99
888,069	-47,27
888,24	118,61
888,412	-34,99
888,583	48,98
888,754	-69,8
888,926	-92,33
889,097	-8,36
889,268	-121
889,44	-88,23
889,611	-123,05
889,782	-67,75
889,953	-80,04
890,125	100,18
890,296	-67,75
890,467	-30,89
890,638	-92,33
890,809	-32,94
890,98	-71,85
891,151	42,84
891,323	145,24
891,494	34,64
891,665	-67,75
891,836	-26,79
892,007	22,36
892,178	5,97
892,349	-32,94
892,52	-34,99
892,691	-26,79
892,862	8,02
893,032	-96,43
893,203	14,17
893,374	8,02
893,545	85,84
893,716	-63,66
893,887	3,93
894,057	-49,32
894,228	1,88
894,399	-63,66
894,57	120,66
894,74	73,56
894,911	30,55
895,082	-12,46
895,253	-59,56
895,423	-26,79
895,594	3,93
895,764	36,69
895,935	-100,52
896,106	48,98
896,276	-63,66
896,447	89,94
896,617	-149,67
896,788	-84,14
896,958	-2,22
897,129	-43,18
897,299	-57,51
897,47	106,32
897,64	22,36
897,81	-20,65
897,981	8,02
898,151	-57,51
898,322	87,89
898,492	114,52
898,662	-43,18
898,832	-73,9
899,003	-45,23
899,173	18,26
899,343	-69,8
899,513	-80,04
