Data from deuterium_USB4F104151__5__10-57-07-435.txt Node

Date: Wed Apr 15 10:57:07 EDT 2026
User: LaboPhy
Spectrometer: USB4F10415
Trigger mode: 4
Integration Time (sec): 1,000000E-1
Scans to average: 1
Electric dark correction enabled: true
Nonlinearity correction enabled: false
Boxcar width: 0
XAxis mode: Wavelengths
Number of Pixels in Spectrum: 3648
>>>>>Begin Spectral Data<<<<<
178,204	-416,25
178,424	-416,25
178,644	-416,25
178,864	-444,92
179,084	-451,07
179,304	-12,8
179,524	-29,18
179,744	-4,61
179,964	17,92
180,184	-4,61
180,404	56,83
180,624	-53,76
180,844	13,82
181,064	-61,95
181,283	67,07
181,503	-45,57
181,723	56,83
181,943	-141,82
182,163	144,89
182,383	-39,42
182,602	-10,75
182,822	169,47
183,042	110,08
183,262	-61,95
183,482	-72,19
183,701	-49,66
183,921	11,78
184,141	-25,09
184,361	40,45
184,58	54,78
184,8	28,16
185,02	-12,8
185,239	81,41
185,459	87,55
185,679	93,69
185,898	-104,96
186,118	-72,19
186,338	-25,09
186,557	105,98
186,777	-86,53
186,997	-41,47
187,216	-35,33
187,436	116,22
187,655	7,68
187,875	-0,51
188,095	-39,42
188,314	122,37
188,534	32,26
188,753	-90,62
188,973	36,35
189,192	120,32
189,412	5,63
189,631	-86,53
189,851	73,21
190,07	144,89
190,29	-78,33
190,509	1,54
190,729	-2,56
190,948	65,02
191,168	210,43
191,387	38,4
191,607	30,21
191,826	-18,94
192,045	-16,9
192,265	3,58
192,484	24,06
192,704	9,73
192,923	-2,56
193,142	130,56
193,362	208,38
193,581	132,61
193,8	9,73
194,02	75,26
194,239	-10,75
194,458	-39,42
194,678	-45,57
194,897	-14,85
195,116	62,98
195,335	40,45
195,555	77,31
195,774	-86,53
195,993	69,12
196,212	-25,09
196,432	-51,71
196,651	-49,66
196,87	50,69
197,089	165,37
197,308	-4,61
197,528	40,45
197,747	-84,48
197,966	22,02
198,185	87,55
198,404	-23,04
198,623	155,13
198,842	103,93
199,062	91,65
199,281	-25,09
199,5	-0,51
199,719	83,45
199,938	-12,8
200,157	85,5
200,376	-18,94
200,595	112,13
200,814	48,64
201,033	-70,14
201,252	159,23
201,471	83,45
201,69	-16,9
201,909	24,06
202,128	65,02
202,347	48,64
202,566	-53,76
202,785	-141,82
203,004	-43,52
203,223	228,86
203,442	-29,18
203,661	-88,57
203,879	79,36
204,098	146,94
204,317	-107,01
204,536	65,02
204,755	42,5
204,974	36,35
205,193	13,82
205,411	69,12
205,63	81,41
205,849	79,36
206,068	-16,9
206,287	-57,86
206,505	151,04
206,724	19,97
206,943	-117,25
207,162	-12,8
207,381	52,74
207,599	19,97
207,818	28,16
208,037	-133,63
208,255	40,45
208,474	11,78
208,693	-31,23
208,911	-6,66
209,13	-14,85
209,349	1,54
209,567	15,87
209,786	-49,66
210,005	65,02
210,223	40,45
210,442	-100,86
210,661	-23,04
210,879	5,63
211,098	-41,47
211,316	-8,7
211,535	24,06
211,753	1,54
211,972	40,45
212,191	-2,56
212,409	42,5
212,628	67,07
212,846	-2,56
213,065	19,97
213,283	93,69
213,502	3,58
213,72	-8,7
213,938	-18,94
214,157	-31,23
214,375	101,89
214,594	32,26
214,812	7,68
215,031	-39,42
215,249	15,87
215,467	46,59
215,686	32,26
215,904	9,73
216,122	30,21
216,341	132,61
216,559	97,79
216,778	95,74
216,996	177,66
217,214	81,41
217,432	15,87
217,651	-102,91
217,869	-45,57
218,087	79,36
218,306	22,02
218,524	-64
218,742	7,68
218,96	1,54
219,179	-55,81
219,397	26,11
219,615	181,76
219,833	83,45
220,051	-82,43
220,27	-2,56
220,488	91,65
220,706	56,83
220,924	-47,62
221,142	-104,96
221,36	-33,28
221,578	73,21
221,796	-57,86
222,015	1,54
222,233	-8,7
222,451	155,13
222,669	-70,14
222,887	62,98
223,105	15,87
223,323	-16,9
223,541	-98,81
223,759	73,21
223,977	24,06
224,195	159,23
224,413	89,6
224,631	40,45
224,849	126,46
225,067	167,42
225,285	-92,67
225,503	-45,57
225,721	-152,06
225,939	-6,66
226,157	-70,14
226,375	220,67
226,592	-18,94
226,81	15,87
227,028	65,02
227,246	48,64
227,464	-53,76
227,682	26,11
227,9	36,35
228,117	-96,77
228,335	34,3
228,553	-39,42
228,771	-70,14
228,989	-8,7
229,206	85,5
229,424	34,3
229,642	-10,75
229,86	-12,8
230,077	42,5
230,295	15,87
230,513	89,6
230,731	28,16
230,948	181,76
231,166	175,61
231,384	-37,38
231,601	58,88
231,819	175,61
232,037	-49,66
232,254	-64
232,472	22,02
232,689	-53,76
232,907	97,79
233,125	-31,23
233,342	-84,48
233,56	-55,81
233,777	-119,29
233,995	7,68
234,213	73,21
234,43	93,69
234,648	46,59
234,865	-51,71
235,083	34,3
235,3	36,35
235,518	56,83
235,735	91,65
235,953	71,17
236,17	32,26
236,388	73,21
236,605	15,87
236,822	22,02
237,04	91,65
237,257	-0,51
237,475	-51,71
237,692	-2,56
237,909	36,35
238,127	-94,72
238,344	-20,99
238,562	1,54
238,779	-131,58
238,996	-74,24
239,214	-74,24
239,431	44,54
239,648	-74,24
239,865	75,26
240,083	28,16
240,3	-6,66
240,517	-43,52
240,735	-74,24
240,952	130,56
241,169	-2,56
241,386	60,93
241,603	11,78
241,821	-145,92
242,038	110,08
242,255	5,63
242,472	-96,77
242,689	24,06
242,907	17,92
243,124	32,26
243,341	-8,7
243,558	-31,23
243,775	-162,3
243,992	-147,97
244,209	48,64
244,426	140,8
244,643	13,82
244,86	-84,48
245,078	-25,09
245,295	-29,18
245,512	24,06
245,729	-4,61
245,946	124,41
246,163	7,68
246,38	-16,9
246,597	-20,99
246,814	28,16
247,031	-47,62
247,248	11,78
247,464	73,21
247,681	69,12
247,898	-14,85
248,115	-23,04
248,332	-25,09
248,549	58,88
248,766	171,52
248,983	62,98
249,2	46,59
249,417	9,73
249,633	-6,66
249,85	89,6
250,067	-20,99
250,284	-29,18
250,501	-25,09
250,717	69,12
250,934	-82,43
251,151	-31,23
251,368	-10,75
251,585	9,73
251,801	3,58
252,018	-14,85
252,235	-33,28
252,451	-70,14
252,668	-31,23
252,885	77,31
253,102	11,78
253,318	-135,68
253,535	-4,61
253,752	-8,7
253,968	9,73
254,185	-16,9
254,401	36,35
254,618	93,69
254,835	24,06
255,051	15,87
255,268	46,59
255,484	-51,71
255,701	-33,28
255,917	48,64
256,134	-41,47
256,351	34,3
256,567	-59,9
256,784	-37,38
257	-131,58
257,217	126,46
257,433	62,98
257,65	-31,23
257,866	65,02
258,082	-178,69
258,299	-0,51
258,515	-10,75
258,732	-49,66
258,948	-107,01
259,165	-29,18
259,381	-55,81
259,597	13,82
259,814	-64
260,03	-25,09
260,246	-12,8
260,463	36,35
260,679	67,07
260,895	-74,24
261,112	5,63
261,328	-2,56
261,544	-47,62
261,761	97,79
261,977	-25,09
262,193	-39,42
262,409	65,02
262,626	28,16
262,842	-25,09
263,058	-117,25
263,274	40,45
263,49	40,45
263,707	24,06
263,923	46,59
264,139	-96,77
264,355	34,3
264,571	75,26
264,787	36,35
265,004	120,32
265,22	28,16
265,436	-64
265,652	-59,9
265,868	67,07
266,084	-111,1
266,3	-23,04
266,516	-53,76
266,732	126,46
266,948	52,74
267,164	-90,62
267,38	87,55
267,596	26,11
267,812	87,55
268,028	17,92
268,244	-55,81
268,46	-2,56
268,676	-70,14
268,892	11,78
269,108	-20,99
269,324	-80,38
269,54	-139,77
269,756	48,64
269,972	-115,2
270,188	17,92
270,403	-160,25
270,619	-18,94
270,835	62,98
271,051	24,06
271,267	-72,19
271,483	-66,05
271,698	36,35
271,914	69,12
272,13	-10,75
272,346	-74,24
272,562	-43,52
272,777	97,79
272,993	-115,2
273,209	-70,14
273,425	75,26
273,64	-80,38
273,856	42,5
274,072	-39,42
274,287	-57,86
274,503	93,69
274,719	60,93
274,934	-68,09
275,15	-98,81
275,366	15,87
275,581	13,82
275,797	-12,8
276,012	11,78
276,228	-0,51
276,444	77,31
276,659	56,83
276,875	-0,51
277,09	3,58
277,306	-39,42
277,521	42,5
277,737	3,58
277,952	120,32
278,168	-12,8
278,383	-45,57
278,599	56,83
278,814	62,98
279,03	36,35
279,245	52,74
279,461	-6,66
279,676	167,42
279,892	-61,95
280,107	-64
280,322	-33,28
280,538	56,83
280,753	-102,91
280,969	44,54
281,184	-10,75
281,399	124,41
281,615	28,16
281,83	-16,9
282,045	-121,34
282,26	-64
282,476	22,02
282,691	28,16
282,906	48,64
283,122	-57,86
283,337	-94,72
283,552	-8,7
283,767	-6,66
283,983	40,45
284,198	38,4
284,413	-8,7
284,628	-78,33
284,843	-37,38
285,058	56,83
285,274	-31,23
285,489	-29,18
285,704	19,97
285,919	3,58
286,134	-0,51
286,349	28,16
286,564	-33,28
286,779	32,26
286,995	-20,99
287,21	-96,77
287,425	11,78
287,64	-57,86
287,855	28,16
288,07	-109,05
288,285	-16,9
288,5	79,36
288,715	48,64
288,93	-2,56
289,145	-25,09
289,36	26,11
289,575	-2,56
289,79	167,42
290,004	-14,85
290,219	112,13
290,434	-49,66
290,649	-33,28
290,864	-35,33
291,079	52,74
291,294	69,12
291,509	-55,81
291,724	5,63
291,938	5,63
292,153	-43,52
292,368	-43,52
292,583	52,74
292,798	48,64
293,012	17,92
293,227	44,54
293,442	-16,9
293,657	69,12
293,871	73,21
294,086	-43,52
294,301	282,11
294,516	75,26
294,73	-2,56
294,945	-33,28
295,16	-113,15
295,374	26,11
295,589	48,64
295,804	-94,72
296,018	11,78
296,233	60,93
296,447	62,98
296,662	-25,09
296,877	44,54
297,091	22,02
297,306	1,54
297,52	44,54
297,735	-8,7
297,949	50,69
298,164	73,21
298,378	77,31
298,593	-72,19
298,807	-70,14
299,022	-51,71
299,236	153,09
299,451	-31,23
299,665	19,97
299,88	7,68
300,094	13,82
300,309	-53,76
300,523	3,58
300,737	-16,9
300,952	42,5
301,166	3,58
301,381	-94,72
301,595	-8,7
301,809	-0,51
302,024	-49,66
302,238	-88,57
302,452	40,45
302,667	-41,47
302,881	93,69
303,095	42,5
303,309	-41,47
303,524	-84,48
303,738	3,58
303,952	-47,62
304,166	105,98
304,381	-121,34
304,595	56,83
304,809	-123,39
305,023	56,83
305,237	-78,33
305,452	-27,14
305,666	65,02
305,88	99,84
306,094	58,88
306,308	19,97
306,522	-16,9
306,736	44,54
306,95	24,06
307,164	24,06
307,379	77,31
307,593	62,98
307,807	85,5
308,021	62,98
308,235	24,06
308,449	-119,29
308,663	-23,04
308,877	108,03
309,091	-25,09
309,305	24,06
309,519	-147,97
309,733	126,46
309,947	-20,99
310,161	32,26
310,374	130,56
310,588	114,17
310,802	-47,62
311,016	-6,66
311,23	75,26
311,444	-45,57
311,658	13,82
311,872	50,69
312,085	83,45
312,299	108,03
312,513	58,88
312,727	56,83
312,941	-14,85
313,154	17,92
313,368	13,82
313,582	15,87
313,796	7,68
314,009	67,07
314,223	5,63
314,437	48,64
314,651	73,21
314,864	50,69
315,078	-68,09
315,292	-49,66
315,505	108,03
315,719	-45,57
315,933	26,11
316,146	-53,76
316,36	-25,09
316,573	126,46
316,787	32,26
317,001	34,3
317,214	-104,96
317,428	-33,28
317,641	-45,57
317,855	-47,62
318,068	-12,8
318,282	67,07
318,495	126,46
318,709	40,45
318,922	-8,7
319,136	120,32
319,349	165,37
319,563	-64
319,776	54,78
319,99	-125,44
320,203	52,74
320,417	1,54
320,63	19,97
320,843	83,45
321,057	-20,99
321,27	-10,75
321,483	-4,61
321,697	69,12
321,91	-18,94
322,124	-27,14
322,337	48,64
322,55	-90,62
322,763	40,45
322,977	-25,09
323,19	7,68
323,403	11,78
323,617	105,98
323,83	32,26
324,043	-51,71
324,256	42,5
324,469	-107,01
324,683	151,04
324,896	30,21
325,109	-25,09
325,322	-111,1
325,535	83,45
325,748	48,64
325,962	-8,7
326,175	120,32
326,388	24,06
326,601	71,17
326,814	32,26
327,027	46,59
327,24	101,89
327,453	-115,2
327,666	30,21
327,879	171,52
328,092	124,41
328,305	87,55
328,518	5,63
328,731	-76,29
328,944	-33,28
329,157	130,56
329,37	-6,66
329,583	79,36
329,796	67,07
330,009	-31,23
330,222	28,16
330,435	-4,61
330,648	-6,66
330,861	-33,28
331,073	97,79
331,286	69,12
331,499	110,08
331,712	34,3
331,925	48,64
332,138	116,22
332,35	124,41
332,563	-16,9
332,776	110,08
332,989	-8,7
333,202	-0,51
333,414	48,64
333,627	73,21
333,84	32,26
334,053	22,02
334,265	-0,51
334,478	-29,18
334,691	7,68
334,903	56,83
335,116	1,54
335,329	83,45
335,541	71,17
335,754	159,23
335,966	17,92
336,179	40,45
336,392	-94,72
336,604	36,35
336,817	151,04
337,029	69,12
337,242	32,26
337,454	134,65
337,667	15,87
337,88	105,98
338,092	79,36
338,305	194,05
338,517	1,54
338,729	171,52
338,942	110,08
339,154	-119,29
339,367	-74,24
339,579	56,83
339,792	-49,66
340,004	24,06
340,217	-47,62
340,429	50,69
340,641	-25,09
340,854	-4,61
341,066	-31,23
341,278	87,55
341,491	110,08
341,703	19,97
341,915	-41,47
342,128	58,88
342,34	13,82
342,552	17,92
342,764	32,26
342,977	-41,47
343,189	38,4
343,401	13,82
343,613	-2,56
343,826	-18,94
344,038	-127,49
344,25	52,74
344,462	22,02
344,674	50,69
344,886	34,3
345,099	-14,85
345,311	79,36
345,523	-18,94
345,735	-70,14
345,947	-0,51
346,159	93,69
346,371	56,83
346,583	40,45
346,795	122,37
347,007	1,54
347,219	67,07
347,431	7,68
347,643	112,13
347,855	7,68
348,067	69,12
348,279	5,63
348,491	-10,75
348,703	130,56
348,915	67,07
349,127	-55,81
349,339	-20,99
349,551	-6,66
349,763	118,27
349,975	9,73
350,187	110,08
350,399	124,41
350,61	99,84
350,822	-37,38
351,034	69,12
351,246	42,5
351,458	97,79
351,669	-14,85
351,881	89,6
352,093	126,46
352,305	126,46
352,517	126,46
352,728	159,23
352,94	22,02
353,152	52,74
353,363	-49,66
353,575	58,88
353,787	200,19
353,999	83,45
354,21	95,74
354,422	-29,18
354,633	-10,75
354,845	79,36
355,057	62,98
355,268	93,69
355,48	52,74
355,692	17,92
355,903	114,17
356,115	-25,09
356,326	-41,47
356,538	185,85
356,749	-4,61
356,961	140,8
357,172	40,45
357,384	-6,66
357,595	165,37
357,807	-49,66
358,018	-27,14
358,23	83,45
358,441	144,89
358,653	24,06
358,864	48,64
359,075	-78,33
359,287	32,26
359,498	91,65
359,709	171,52
359,921	1,54
360,132	97,79
360,344	48,64
360,555	19,97
360,766	56,83
360,977	-41,47
361,189	65,02
361,4	28,16
361,611	112,13
361,823	132,61
362,034	-37,38
362,245	-74,24
362,456	73,21
362,667	124,41
362,879	-20,99
363,09	140,8
363,301	83,45
363,512	5,63
363,723	13,82
363,935	19,97
364,146	206,33
364,357	67,07
364,568	46,59
364,779	-2,56
364,99	200,19
365,201	-10,75
365,412	83,45
365,623	-45,57
365,834	105,98
366,045	83,45
366,256	103,93
366,467	67,07
366,678	89,6
366,889	-8,7
367,1	-14,85
367,311	87,55
367,522	-61,95
367,733	81,41
367,944	110,08
368,155	-119,29
368,366	87,55
368,577	71,17
368,788	112,13
368,999	7,68
369,209	38,4
369,42	216,57
369,631	273,92
369,842	120,32
370,053	34,3
370,264	52,74
370,474	-25,09
370,685	36,35
370,896	32,26
371,107	220,67
371,317	77,31
371,528	67,07
371,739	155,13
371,95	52,74
372,16	65,02
372,371	-100,86
372,582	58,88
372,792	48,64
373,003	34,3
373,214	81,41
373,424	122,37
373,635	-6,66
373,846	224,76
374,056	42,5
374,267	-25,09
374,477	101,89
374,688	28,16
374,898	15,87
375,109	-4,61
375,319	54,78
375,53	112,13
375,74	128,51
375,951	-86,53
376,161	17,92
376,372	138,75
376,582	17,92
376,793	69,12
377,003	24,06
377,214	15,87
377,424	32,26
377,635	46,59
377,845	-27,14
378,055	138,75
378,266	-45,57
378,476	91,65
378,686	73,21
378,897	65,02
379,107	157,18
379,317	75,26
379,528	-53,76
379,738	171,52
379,948	9,73
380,158	136,7
380,369	138,75
380,579	50,69
380,789	36,35
380,999	165,37
381,21	99,84
381,42	185,85
381,63	73,21
381,84	124,41
382,05	77,31
382,261	114,17
382,471	97,79
382,681	17,92
382,891	118,27
383,101	183,81
383,311	-47,62
383,521	-33,28
383,731	71,17
383,941	136,7
384,151	50,69
384,361	-29,18
384,571	77,31
384,781	60,93
384,991	235
385,201	138,75
385,411	-6,66
385,621	52,74
385,831	62,98
386,041	48,64
386,251	62,98
386,461	169,47
386,671	91,65
386,881	81,41
387,091	112,13
387,301	99,84
387,511	67,07
387,72	-27,14
387,93	79,36
388,14	-115,2
388,35	46,59
388,56	128,51
388,769	220,67
388,979	26,11
389,189	22,02
389,399	75,26
389,609	77,31
389,818	97,79
390,028	-6,66
390,238	124,41
390,447	-25,09
390,657	97,79
390,867	73,21
391,076	-98,81
391,286	65,02
391,496	32,26
391,705	91,65
391,915	65,02
392,125	97,79
392,334	32,26
392,544	122,37
392,753	81,41
392,963	-27,14
393,172	-6,66
393,382	38,4
393,591	214,52
393,801	13,82
394,01	148,99
394,22	101,89
394,429	-57,86
394,639	34,3
394,848	52,74
395,058	99,84
395,267	89,6
395,477	60,93
395,686	130,56
395,895	237,05
396,105	245,24
396,314	116,22
396,524	75,26
396,733	32,26
396,942	148,99
397,152	148,99
397,361	142,85
397,57	97,79
397,78	40,45
397,989	140,8
398,198	312,83
398,407	69,12
398,617	30,21
398,826	81,41
399,035	-41,47
399,244	54,78
399,453	32,26
399,663	65,02
399,872	46,59
400,081	36,35
400,29	136,7
400,499	42,5
400,708	71,17
400,917	85,5
401,127	56,83
401,336	-0,51
401,545	208,38
401,754	142,85
401,963	48,64
402,172	26,11
402,381	-4,61
402,59	7,68
402,799	-4,61
403,008	192
403,217	7,68
403,426	71,17
403,635	-92,67
403,844	42,5
404,053	-8,7
404,262	46,59
404,471	91,65
404,68	56,83
404,888	-41,47
405,097	67,07
405,306	58,88
405,515	128,51
405,724	50,69
405,933	144,89
406,142	38,4
406,35	75,26
406,559	65,02
406,768	30,21
406,977	181,76
407,185	17,92
407,394	97,79
407,603	30,21
407,812	38,4
408,02	175,61
408,229	28,16
408,438	101,89
408,646	7,68
408,855	85,5
409,064	192
409,272	103,93
409,481	187,9
409,69	126,46
409,898	132,61
410,107	275,96
410,315	370,17
410,524	171,52
410,733	241,15
410,941	151,04
411,15	171,52
411,358	151,04
411,567	220,67
411,775	124,41
411,984	97,79
412,192	108,03
412,401	1,54
412,609	116,22
412,818	189,95
413,026	89,6
413,234	1,54
413,443	22,02
413,651	-20,99
413,86	116,22
414,068	140,8
414,276	142,85
414,485	-20,99
414,693	110,08
414,901	99,84
415,11	56,83
415,318	-8,7
415,526	75,26
415,734	108,03
415,943	95,74
416,151	163,33
416,359	26,11
416,567	48,64
416,776	87,55
416,984	93,69
417,192	112,13
417,4	-18,94
417,608	24,06
417,817	-78,33
418,025	108,03
418,233	196,09
418,441	-27,14
418,649	-80,38
418,857	7,68
419,065	122,37
419,273	22,02
419,481	40,45
419,689	75,26
419,897	26,11
420,105	-45,57
420,313	101,89
420,521	114,17
420,729	187,9
420,937	-12,8
421,145	-16,9
421,353	138,75
421,561	77,31
421,769	40,45
421,977	-0,51
422,185	77,31
422,393	48,64
422,601	89,6
422,809	44,54
423,017	56,83
423,224	48,64
423,432	73,21
423,64	34,3
423,848	93,69
424,056	-53,76
424,263	50,69
424,471	-14,85
424,679	177,66
424,887	-8,7
425,094	87,55
425,302	60,93
425,51	-8,7
425,718	81,41
425,925	-0,51
426,133	-37,38
426,341	163,33
426,548	-33,28
426,756	3,58
426,964	118,27
427,171	-6,66
427,379	71,17
427,586	5,63
427,794	105,98
428,001	42,5
428,209	101,89
428,417	87,55
428,624	73,21
428,832	-0,51
429,039	-8,7
429,247	-31,23
429,454	52,74
429,662	87,55
429,869	67,07
430,076	9,73
430,284	60,93
430,491	105,98
430,699	75,26
430,906	130,56
431,114	77,31
431,321	89,6
431,528	48,64
431,736	83,45
431,943	157,18
432,15	185,85
432,358	228,86
432,565	499,19
432,772	196,09
432,979	615,93
433,187	697,85
433,394	796,15
433,601	837,11
433,808	964,08
434,016	939,51
434,223	857,59
434,43	857,59
434,637	861,68
434,844	714,23
435,052	626,17
435,259	491
435,466	390,65
435,673	257,53
435,88	269,82
436,087	224,76
436,294	228,86
436,501	81,41
436,708	-20,99
436,915	120,32
437,122	124,41
437,329	-37,38
437,537	46,59
437,743	24,06
437,95	161,28
438,157	73,21
438,364	60,93
438,571	-33,28
438,778	175,61
438,985	122,37
439,192	126,46
439,399	17,92
439,606	69,12
439,813	60,93
440,02	185,85
440,227	206,33
440,433	116,22
440,64	93,69
440,847	-18,94
441,054	81,41
441,261	83,45
441,467	52,74
441,674	15,87
441,881	132,61
442,088	60,93
442,294	99,84
442,501	138,75
442,708	110,08
442,914	5,63
443,121	161,28
443,328	87,55
443,534	93,69
443,741	44,54
443,948	-76,29
444,154	5,63
444,361	204,28
444,568	50,69
444,774	-12,8
444,981	-82,43
445,187	155,13
445,394	-47,62
445,6	1,54
445,807	11,78
446,013	11,78
446,22	-82,43
446,426	3,58
446,633	13,82
446,839	175,61
447,046	-86,53
447,252	58,88
447,459	-2,56
447,665	1,54
447,871	15,87
448,078	56,83
448,284	112,13
448,491	167,42
448,697	89,6
448,903	130,56
449,11	58,88
449,316	3,58
449,522	132,61
449,728	34,3
449,935	28,16
450,141	-82,43
450,347	60,93
450,553	87,55
450,76	3,58
450,966	81,41
451,172	22,02
451,378	65,02
451,584	-18,94
451,791	132,61
451,997	95,74
452,203	-16,9
452,409	22,02
452,615	97,79
452,821	-16,9
453,027	56,83
453,233	153,09
453,44	-14,85
453,646	-10,75
453,852	67,07
454,058	-55,81
454,264	9,73
454,47	69,12
454,676	-100,86
454,882	48,64
455,088	69,12
455,294	17,92
455,5	11,78
455,705	-23,04
455,911	3,58
456,117	-6,66
456,323	-18,94
456,529	101,89
456,735	-29,18
456,941	42,5
457,147	110,08
457,352	50,69
457,558	-61,95
457,764	101,89
457,97	83,45
458,176	89,6
458,381	97,79
458,587	138,75
458,793	17,92
458,999	-12,8
459,204	-25,09
459,41	19,97
459,616	-16,9
459,821	138,75
460,027	-29,18
460,233	138,75
460,438	134,65
460,644	-14,85
460,85	91,65
461,055	79,36
461,261	108,03
461,466	-100,86
461,672	48,64
461,878	15,87
462,083	108,03
462,289	-86,53
462,494	28,16
462,7	85,5
462,905	7,68
463,111	140,8
463,316	95,74
463,522	130,56
463,727	-18,94
463,932	-18,94
464,138	56,83
464,343	56,83
464,549	101,89
464,754	151,04
464,959	73,21
465,165	28,16
465,37	-6,66
465,575	-2,56
465,781	-33,28
465,986	30,21
466,191	15,87
466,397	24,06
466,602	128,51
466,807	71,17
467,012	26,11
467,218	75,26
467,423	56,83
467,628	48,64
467,833	-41,47
468,038	-31,23
468,244	-14,85
468,449	-35,33
468,654	62,98
468,859	62,98
469,064	7,68
469,269	15,87
469,474	40,45
469,679	83,45
469,885	81,41
470,09	1,54
470,295	62,98
470,5	-0,51
470,705	112,13
470,91	50,69
471,115	181,76
471,32	26,11
471,525	189,95
471,73	175,61
471,935	34,3
472,139	24,06
472,344	-88,57
472,549	32,26
472,754	151,04
472,959	83,45
473,164	40,45
473,369	-25,09
473,574	171,52
473,778	-23,04
473,983	132,61
474,188	17,92
474,393	-51,71
474,598	-49,66
474,802	114,17
475,007	-8,7
475,212	146,94
475,417	9,73
475,621	196,09
475,826	-23,04
476,031	-14,85
476,235	11,78
476,44	38,4
476,645	5,63
476,849	15,87
477,054	-104,96
477,259	26,11
477,463	142,85
477,668	237,05
477,872	144,89
478,077	62,98
478,282	-61,95
478,486	105,98
478,691	79,36
478,895	110,08
479,1	65,02
479,304	120,32
479,509	71,17
479,713	224,76
479,918	85,5
480,122	15,87
480,326	24,06
480,531	32,26
480,735	175,61
480,94	99,84
481,144	114,17
481,348	73,21
481,553	142,85
481,757	-10,75
481,961	36,35
482,166	-6,66
482,37	44,54
482,574	73,21
482,778	-16,9
482,983	85,5
483,187	73,21
483,391	34,3
483,595	222,72
483,8	359,93
484,004	722,42
484,208	1328,62
484,412	2039,26
484,616	3206,61
484,821	4414,91
485,025	5981,6
485,229	7544,2
485,433	8693,12
485,637	9973,1
485,841	10632,54
486,045	10884,44
486,249	10960,22
486,453	9991,53
486,657	9108,85
486,861	7925,13
487,065	6729,11
487,269	5471,66
487,473	4451,77
487,677	3700,17
487,881	3159,5
488,085	2366,94
488,289	1738,21
488,493	1353,2
488,697	1091,06
488,901	622,07
489,105	376,31
489,309	349,69
489,512	329,21
489,716	179,71
489,92	144,89
490,124	138,75
490,328	136,7
490,531	110,08
490,735	232,96
490,939	36,35
491,143	165,37
491,346	93,69
491,55	3,58
491,754	105,98
491,958	138,75
492,161	9,73
492,365	71,17
492,569	44,54
492,772	153,09
492,976	140,8
493,18	71,17
493,383	87,55
493,587	36,35
493,79	89,6
493,994	-59,9
494,197	-66,05
494,401	124,41
494,605	19,97
494,808	17,92
495,012	108,03
495,215	128,51
495,419	75,26
495,622	-2,56
495,825	-16,9
496,029	9,73
496,232	124,41
496,436	81,41
496,639	103,93
496,843	28,16
497,046	-0,51
497,249	181,76
497,453	24,06
497,656	-10,75
497,859	-37,38
498,063	93,69
498,266	122,37
498,469	-66,05
498,673	-20,99
498,876	-31,23
499,079	-55,81
499,282	110,08
499,485	267,77
499,689	32,26
499,892	120,32
500,095	-20,99
500,298	42,5
500,501	-0,51
500,705	-25,09
500,908	44,54
501,111	-96,77
501,314	99,84
501,517	81,41
501,72	34,3
501,923	65,02
502,126	-0,51
502,329	89,6
502,532	85,5
502,735	108,03
502,938	157,18
503,141	124,41
503,344	-70,14
503,547	142,85
503,75	-12,8
503,953	-33,28
504,156	67,07
504,359	75,26
504,562	-0,51
504,765	44,54
504,968	19,97
505,17	56,83
505,373	73,21
505,576	112,13
505,779	65,02
505,982	-51,71
506,185	-49,66
506,387	34,3
506,59	105,98
506,793	34,3
506,996	87,55
507,198	124,41
507,401	89,6
507,604	132,61
507,807	46,59
508,009	75,26
508,212	120,32
508,415	-2,56
508,617	46,59
508,82	56,83
509,022	-18,94
509,225	101,89
509,428	99,84
509,63	48,64
509,833	-49,66
510,035	185,85
510,238	187,9
510,44	-104,96
510,643	116,22
510,845	105,98
511,048	175,61
511,25	32,26
511,453	15,87
511,655	99,84
511,858	134,65
512,06	173,57
512,262	-43,52
512,465	28,16
512,667	36,35
512,87	-53,76
513,072	99,84
513,274	60,93
513,477	-76,29
513,679	73,21
513,881	-33,28
514,084	3,58
514,286	122,37
514,488	97,79
514,69	83,45
514,893	-29,18
515,095	62,98
515,297	40,45
515,499	56,83
515,701	-2,56
515,904	83,45
516,106	189,95
516,308	69,12
516,51	52,74
516,712	89,6
516,914	81,41
517,116	-59,9
517,318	1,54
517,52	28,16
517,722	54,78
517,925	-14,85
518,127	-18,94
518,329	99,84
518,531	-100,86
518,733	-6,66
518,935	-25,09
519,136	101,89
519,338	28,16
519,54	28,16
519,742	32,26
519,944	181,76
520,146	52,74
520,348	48,64
520,55	89,6
520,752	-49,66
520,954	-61,95
521,155	26,11
521,357	7,68
521,559	77,31
521,761	148,99
521,963	40,45
522,164	87,55
522,366	97,79
522,568	110,08
522,77	48,64
522,971	79,36
523,173	24,06
523,375	140,8
523,576	-8,7
523,778	-23,04
523,98	44,54
524,181	118,27
524,383	69,12
524,584	-23,04
524,786	-4,61
524,988	7,68
525,189	44,54
525,391	97,79
525,592	-70,14
525,794	-31,23
525,995	-29,18
526,197	-74,24
526,398	214,52
526,6	67,07
526,801	44,54
527,003	-125,44
527,204	19,97
527,406	93,69
527,607	73,21
527,808	3,58
528,01	56,83
528,211	134,65
528,412	-111,1
528,614	50,69
528,815	28,16
529,016	83,45
529,218	93,69
529,419	60,93
529,62	-53,76
529,822	116,22
530,023	24,06
530,224	1,54
530,425	26,11
530,626	-31,23
530,828	-20,99
531,029	-27,14
531,23	46,59
531,431	-20,99
531,632	171,52
531,833	-4,61
532,035	34,3
532,236	-86,53
532,437	79,36
532,638	-23,04
532,839	-76,29
533,04	-29,18
533,241	116,22
533,442	13,82
533,643	-8,7
533,844	-10,75
534,045	-41,47
534,246	-0,51
534,447	-23,04
534,648	-2,56
534,849	105,98
535,05	38,4
535,251	-6,66
535,451	91,65
535,652	-31,23
535,853	-111,1
536,054	91,65
536,255	42,5
536,456	15,87
536,657	-27,14
536,857	56,83
537,058	46,59
537,259	-0,51
537,46	56,83
537,66	-72,19
537,861	9,73
538,062	-25,09
538,263	-70,14
538,463	46,59
538,664	85,5
538,865	-102,91
539,065	67,07
539,266	60,93
539,466	-84,48
539,667	142,85
539,868	17,92
540,068	-37,38
540,269	19,97
540,469	-6,66
540,67	116,22
540,87	126,46
541,071	-33,28
541,271	42,5
541,472	97,79
541,672	91,65
541,873	-12,8
542,073	3,58
542,274	32,26
542,474	60,93
542,675	116,22
542,875	30,21
543,075	-162,3
543,276	-25,09
543,476	-2,56
543,676	103,93
543,877	-25,09
544,077	56,83
544,277	136,7
544,478	67,07
544,678	46,59
544,878	71,17
545,078	-16,9
545,279	-64
545,479	-2,56
545,679	-25,09
545,879	-10,75
546,079	54,78
546,28	-137,73
546,48	56,83
546,68	124,41
546,88	65,02
547,08	56,83
547,28	122,37
547,48	-145,92
547,68	93,69
547,88	69,12
548,081	50,69
548,281	3,58
548,481	-49,66
548,681	15,87
548,881	60,93
549,081	93,69
549,28	7,68
549,48	-41,47
549,68	95,74
549,88	-29,18
550,08	-59,9
550,28	-4,61
550,48	97,79
550,68	32,26
550,88	24,06
551,08	-35,33
551,279	-6,66
551,479	19,97
551,679	148,99
551,879	-20,99
552,079	5,63
552,278	40,45
552,478	85,5
552,678	89,6
552,878	167,42
553,077	24,06
553,277	40,45
553,477	-33,28
553,676	126,46
553,876	56,83
554,076	48,64
554,275	28,16
554,475	128,51
554,674	132,61
554,874	81,41
555,074	-121,34
555,273	-8,7
555,473	-49,66
555,672	36,35
555,872	1,54
556,071	81,41
556,271	122,37
556,47	-45,57
556,67	65,02
556,869	7,68
557,068	42,5
557,268	52,74
557,467	24,06
557,667	108,03
557,866	5,63
558,065	26,11
558,265	108,03
558,464	-90,62
558,663	7,68
558,863	17,92
559,062	83,45
559,261	34,3
559,461	38,4
559,66	34,3
559,859	-33,28
560,058	-25,09
560,258	-86,53
560,457	-8,7
560,656	134,65
560,855	7,68
561,054	77,31
561,253	-0,51
561,453	-25,09
561,652	32,26
561,851	-4,61
562,05	-78,33
562,249	-78,33
562,448	54,78
562,647	-41,47
562,846	95,74
563,045	32,26
563,244	7,68
563,443	75,26
563,642	-0,51
563,841	36,35
564,04	114,17
564,239	-16,9
564,438	30,21
564,637	-80,38
564,836	36,35
565,035	-49,66
565,234	1,54
565,432	42,5
565,631	122,37
565,83	54,78
566,029	17,92
566,228	15,87
566,427	110,08
566,625	-59,9
566,824	38,4
567,023	-82,43
567,222	26,11
567,42	-45,57
567,619	24,06
567,818	48,64
568,016	153,09
568,215	17,92
568,414	71,17
568,612	50,69
568,811	89,6
569,01	110,08
569,208	58,88
569,407	77,31
569,605	73,21
569,804	75,26
570,002	128,51
570,201	-12,8
570,4	175,61
570,598	42,5
570,797	52,74
570,995	-61,95
571,193	15,87
571,392	71,17
571,59	17,92
571,789	163,33
571,987	77,31
572,186	165,37
572,384	79,36
572,582	91,65
572,781	124,41
572,979	-68,09
573,177	91,65
573,376	89,6
573,574	81,41
573,772	112,13
573,971	-2,56
574,169	-64
574,367	79,36
574,565	42,5
574,763	30,21
574,962	101,89
575,16	71,17
575,358	-0,51
575,556	91,65
575,754	71,17
575,952	44,54
576,151	50,69
576,349	214,52
576,547	15,87
576,745	-4,61
576,943	140,8
577,141	65,02
577,339	56,83
577,537	34,3
577,735	116,22
577,933	187,9
578,131	24,06
578,329	247,29
578,527	99,84
578,725	138,75
578,923	24,06
579,121	167,42
579,319	-23,04
579,516	93,69
579,714	339,45
579,912	75,26
580,11	60,93
580,308	148,99
580,506	112,13
580,704	95,74
580,901	5,63
581,099	214,52
581,297	130,56
581,495	167,42
581,692	105,98
581,89	243,2
582,088	108,03
582,285	132,61
582,483	110,08
582,681	91,65
582,878	69,12
583,076	116,22
583,274	138,75
583,471	165,37
583,669	97,79
583,866	24,06
584,064	83,45
584,262	17,92
584,459	58,88
584,657	42,5
584,854	128,51
585,052	89,6
585,249	114,17
585,447	136,7
585,644	-14,85
585,841	101,89
586,039	93,69
586,236	142,85
586,434	-6,66
586,631	1,54
586,828	-35,33
587,026	75,26
587,223	40,45
587,42	42,5
587,618	83,45
587,815	220,67
588,012	7,68
588,21	69,12
588,407	116,22
588,604	75,26
588,801	44,54
588,999	62,98
589,196	202,24
589,393	24,06
589,59	65,02
589,787	52,74
589,984	13,82
590,182	116,22
590,379	-49,66
590,576	24,06
590,773	-33,28
590,97	36,35
591,167	79,36
591,364	56,83
591,561	-18,94
591,758	243,2
591,955	81,41
592,152	36,35
592,349	11,78
592,546	83,45
592,743	103,93
592,94	38,4
593,137	108,03
593,334	85,5
593,531	146,94
593,727	126,46
593,924	126,46
594,121	36,35
594,318	-37,38
594,515	126,46
594,712	163,33
594,908	157,18
595,105	-49,66
595,302	77,31
595,499	97,79
595,696	159,23
595,892	-18,94
596,089	187,9
596,286	-64
596,482	148,99
596,679	93,69
596,876	-53,76
597,072	132,61
597,269	48,64
597,466	136,7
597,662	40,45
597,859	65,02
598,055	15,87
598,252	108,03
598,448	97,79
598,645	101,89
598,841	50,69
599,038	187,9
599,234	175,61
599,431	118,27
599,627	159,23
599,824	77,31
600,02	65,02
600,217	-41,47
600,413	91,65
600,609	97,79
600,806	304,64
601,002	118,27
601,198	1,54
601,395	108,03
601,591	132,61
601,787	48,64
601,984	44,54
602,18	189,95
602,376	105,98
602,572	136,7
602,769	232,96
602,965	148,99
603,161	173,57
603,357	155,13
603,553	124,41
603,75	93,69
603,946	7,68
604,142	19,97
604,338	196,09
604,534	7,68
604,73	15,87
604,926	-20,99
605,122	134,65
605,318	77,31
605,514	99,84
605,71	75,26
605,906	161,28
606,102	11,78
606,298	208,38
606,494	134,65
606,69	210,43
606,886	22,02
607,082	19,97
607,278	19,97
607,474	161,28
607,67	56,83
607,866	-12,8
608,062	130,56
608,257	146,94
608,453	-49,66
608,649	198,14
608,845	46,59
609,041	-70,14
609,236	-18,94
609,432	67,07
609,628	75,26
609,824	130,56
610,019	44,54
610,215	40,45
610,411	95,74
610,606	183,81
610,802	50,69
610,998	93,69
611,193	81,41
611,389	-41,47
611,584	126,46
611,78	-37,38
611,976	15,87
612,171	202,24
612,367	108,03
612,562	52,74
612,758	122,37
612,953	-84,48
613,149	36,35
613,344	22,02
613,539	24,06
613,735	83,45
613,93	-0,51
614,126	-25,09
614,321	116,22
614,517	165,37
614,712	140,8
614,907	204,28
615,103	108,03
615,298	83,45
615,493	-84,48
615,688	67,07
615,884	120,32
616,079	46,59
616,274	81,41
616,47	22,02
616,665	-4,61
616,86	34,3
617,055	-23,04
617,25	-86,53
617,445	71,17
617,641	-14,85
617,836	-64
618,031	-33,28
618,226	36,35
618,421	60,93
618,616	22,02
618,811	15,87
619,006	15,87
619,201	144,89
619,396	60,93
619,591	-8,7
619,786	26,11
619,981	146,94
620,176	89,6
620,371	46,59
620,566	48,64
620,761	40,45
620,956	71,17
621,151	-35,33
621,346	24,06
621,541	11,78
621,735	77,31
621,93	56,83
622,125	-14,85
622,32	-70,14
622,515	-64
622,709	130,56
622,904	48,64
623,099	60,93
623,294	89,6
623,488	142,85
623,683	56,83
623,878	122,37
624,072	34,3
624,267	-47,62
624,462	-8,7
624,656	-107,01
624,851	89,6
625,046	-27,14
625,24	9,73
625,435	26,11
625,629	44,54
625,824	79,36
626,018	38,4
626,213	24,06
626,407	58,88
626,602	142,85
626,796	-37,38
626,991	163,33
627,185	15,87
627,38	-2,56
627,574	67,07
627,768	161,28
627,963	30,21
628,157	116,22
628,352	-18,94
628,546	1,54
628,74	138,75
628,935	40,45
629,129	28,16
629,323	52,74
629,517	-86,53
629,712	-10,75
629,906	26,11
630,1	126,46
630,294	38,4
630,489	-43,52
630,683	-29,18
630,877	5,63
631,071	103,93
631,265	-10,75
631,459	46,59
631,653	19,97
631,848	44,54
632,042	58,88
632,236	40,45
632,43	77,31
632,624	-45,57
632,818	54,78
633,012	134,65
633,206	-2,56
633,4	7,68
633,594	81,41
633,788	60,93
633,982	58,88
634,176	194,05
634,369	40,45
634,563	36,35
634,757	-100,86
634,951	73,21
635,145	146,94
635,339	11,78
635,533	105,98
635,726	97,79
635,92	22,02
636,114	-25,09
636,308	30,21
636,501	65,02
636,695	140,8
636,889	-102,91
637,083	67,07
637,276	54,78
637,47	-6,66
637,664	110,08
637,857	40,45
638,051	42,5
638,244	103,93
638,438	26,11
638,632	185,85
638,825	-25,09
639,019	165,37
639,212	-25,09
639,406	97,79
639,599	-20,99
639,793	69,12
639,986	62,98
640,18	298,49
640,373	-53,76
640,567	65,02
640,76	95,74
640,954	103,93
641,147	42,5
641,34	73,21
641,534	-86,53
641,727	110,08
641,92	60,93
642,114	112,13
642,307	-20,99
642,5	60,93
642,694	19,97
642,887	67,07
643,08	112,13
643,273	208,38
643,467	-20,99
643,66	-64
643,853	-61,95
644,046	105,98
644,239	69,12
644,432	40,45
644,626	-53,76
644,819	-25,09
645,012	71,17
645,205	155,13
645,398	183,81
645,591	38,4
645,784	40,45
645,977	-6,66
646,17	42,5
646,363	77,31
646,556	-55,81
646,749	-64
646,942	-4,61
647,135	93,69
647,328	-14,85
647,521	110,08
647,714	26,11
647,907	15,87
648,099	-45,57
648,292	73,21
648,485	91,65
648,678	44,54
648,871	-102,91
649,064	11,78
649,256	5,63
649,449	79,36
649,642	-98,81
649,835	9,73
650,027	-55,81
650,22	93,69
650,413	32,26
650,605	155,13
650,798	-70,14
650,991	101,89
651,183	95,74
651,376	11,78
651,568	128,51
651,761	89,6
651,954	101,89
652,146	138,75
652,339	196,09
652,531	171,52
652,724	-8,7
652,916	83,45
653,109	15,87
653,301	171,52
653,494	132,61
653,686	192
653,879	220,67
654,071	259,58
654,263	247,29
654,456	574,97
654,648	2356,7
654,84	6835,61
655,033	15383,83
655,225	26262,64
655,417	37692,35
655,61	48296,74
655,802	56523,43
655,994	61649,49
656,186	63048,25
656,379	60602,98
656,571	56341,16
656,763	50551,55
656,955	46076,74
657,148	42154,88
657,34	37858,24
657,532	33915,9
657,724	30573,61
657,916	27202,66
658,108	23536,79
658,3	19354,84
658,492	16151,82
658,684	13040,95
658,876	10997,08
659,068	8580,48
659,26	6796,7
659,452	4875,7
659,644	3579,34
659,836	2680,28
660,028	1828,32
660,22	1334,76
660,412	982,51
660,604	681,46
660,796	462,33
660,988	572,92
661,18	298,49
661,372	327,16
661,563	263,68
661,755	251,39
661,947	124,41
662,139	83,45
662,331	118,27
662,522	183,81
662,714	13,82
662,906	69,12
663,097	83,45
663,289	95,74
663,481	24,06
663,673	157,18
663,864	146,94
664,056	130,56
664,247	30,21
664,439	192
664,631	93,69
664,822	36,35
665,014	54,78
665,205	-18,94
665,397	-25,09
665,588	89,6
665,78	-4,61
665,971	65,02
666,163	67,07
666,354	69,12
666,546	9,73
666,737	75,26
666,929	-33,28
667,12	24,06
667,311	28,16
667,503	9,73
667,694	19,97
667,885	85,5
668,077	148,99
668,268	-107,01
668,459	17,92
668,651	9,73
668,842	91,65
669,033	26,11
669,224	-47,62
669,416	212,48
669,607	24,06
669,798	-51,71
669,989	165,37
670,18	46,59
670,371	40,45
670,563	-6,66
670,754	91,65
670,945	75,26
671,136	36,35
671,327	-16,9
671,518	75,26
671,709	146,94
671,9	-18,94
672,091	159,23
672,282	71,17
672,473	-12,8
672,664	-107,01
672,855	-4,61
673,046	-27,14
673,237	24,06
673,428	38,4
673,619	97,79
673,809	-88,57
674	79,36
674,191	54,78
674,382	3,58
674,573	-4,61
674,764	-0,51
674,954	60,93
675,145	-18,94
675,336	-14,85
675,527	-51,71
675,717	-61,95
675,908	3,58
676,099	-82,43
676,289	-16,9
676,48	-104,96
676,671	-23,04
676,861	32,26
677,052	-12,8
677,243	44,54
677,433	-57,86
677,624	34,3
677,814	7,68
678,005	-76,29
678,195	105,98
678,386	-72,19
678,576	40,45
678,767	-125,44
678,957	-61,95
679,148	101,89
679,338	128,51
679,529	5,63
679,719	-41,47
679,909	15,87
680,1	83,45
680,29	30,21
680,481	-117,25
680,671	75,26
680,861	-33,28
681,052	-4,61
681,242	-57,86
681,432	87,55
681,622	-49,66
681,813	-68,09
682,003	-72,19
682,193	-125,44
682,383	60,93
682,573	5,63
682,764	-98,81
682,954	48,64
683,144	50,69
683,334	-33,28
683,524	-70,14
683,714	28,16
683,904	-31,23
684,094	-18,94
684,284	-6,66
684,474	69,12
684,664	69,12
684,854	73,21
685,044	-12,8
685,234	-47,62
685,424	34,3
685,614	-35,33
685,804	163,33
685,994	60,93
686,184	7,68
686,374	36,35
686,564	-57,86
686,753	15,87
686,943	-92,67
687,133	-53,76
687,323	32,26
687,513	15,87
687,702	-23,04
687,892	-59,9
688,082	128,51
688,272	44,54
688,461	26,11
688,651	165,37
688,841	32,26
689,03	-84,48
689,22	-107,01
689,41	-0,51
689,599	73,21
689,789	-86,53
689,979	171,52
690,168	-47,62
690,358	65,02
690,547	56,83
690,737	3,58
690,926	5,63
691,116	26,11
691,305	9,73
691,495	24,06
691,684	-82,43
691,874	-45,57
692,063	-20,99
692,252	30,21
692,442	42,5
692,631	1,54
692,82	-8,7
693,01	52,74
693,199	32,26
693,388	32,26
693,578	58,88
693,767	-4,61
693,956	-16,9
694,146	3,58
694,335	50,69
694,524	22,02
694,713	77,31
694,902	11,78
695,092	-2,56
695,281	36,35
695,47	-10,75
695,659	-47,62
695,848	-66,05
696,037	-20,99
696,226	116,22
696,415	62,98
696,604	73,21
696,793	108,03
696,982	-29,18
697,171	185,85
697,36	-14,85
697,549	-2,56
697,738	-156,16
697,927	-29,18
698,116	-35,33
698,305	79,36
698,494	-49,66
698,683	56,83
698,872	146,94
699,061	-2,56
699,25	17,92
699,438	7,68
699,627	5,63
699,816	118,27
700,005	-98,81
700,193	46,59
700,382	93,69
700,571	24,06
700,76	26,11
700,948	44,54
701,137	114,17
701,326	17,92
701,514	-18,94
701,703	67,07
701,892	13,82
702,08	183,81
702,269	9,73
702,457	-80,38
702,646	38,4
702,834	-20,99
703,023	48,64
703,212	54,78
703,4	-27,14
703,589	-2,56
703,777	-37,38
703,965	-51,71
704,154	-41,47
704,342	-61,95
704,531	9,73
704,719	-31,23
704,907	77,31
705,096	-152,06
705,284	-74,24
705,472	-10,75
705,661	38,4
705,849	-57,86
706,037	183,81
706,226	-6,66
706,414	-27,14
706,602	-37,38
706,79	69,12
706,979	-29,18
707,167	19,97
707,355	-145,92
707,543	-41,47
707,731	67,07
707,919	-0,51
708,107	-4,61
708,296	-98,81
708,484	-18,94
708,672	81,41
708,86	7,68
709,048	-61,95
709,236	-47,62
709,424	-57,86
709,612	-39,42
709,8	-102,91
709,988	34,3
710,176	11,78
710,364	85,5
710,551	-45,57
710,739	-51,71
710,927	-41,47
711,115	-12,8
711,303	3,58
711,491	62,98
711,679	-10,75
711,866	-20,99
712,054	-84,48
712,242	36,35
712,43	48,64
712,617	-78,33
712,805	-8,7
712,993	-51,71
713,181	-88,57
713,368	32,26
713,556	-57,86
713,744	-37,38
713,931	144,89
714,119	-2,56
714,306	-41,47
714,494	-16,9
714,682	-33,28
714,869	-125,44
715,057	-37,38
715,244	-135,68
715,432	3,58
715,619	-14,85
715,807	3,58
715,994	-49,66
716,182	19,97
716,369	-61,95
716,556	75,26
716,744	-47,62
716,931	-98,81
717,119	65,02
717,306	-41,47
717,493	40,45
717,681	-107,01
717,868	-74,24
718,055	1,54
718,242	-43,52
718,43	-14,85
718,617	40,45
718,804	-25,09
718,991	67,07
719,179	69,12
719,366	58,88
719,553	-4,61
719,74	-29,18
719,927	-92,67
720,114	-29,18
720,301	-190,97
720,488	-78,33
720,676	-53,76
720,863	28,16
721,05	103,93
721,237	71,17
721,424	62,98
721,611	-39,42
721,798	-160,25
721,985	-57,86
722,172	-43,52
722,358	-31,23
722,545	73,21
722,732	-16,9
722,919	56,83
723,106	-20,99
723,293	-66,05
723,48	-33,28
723,667	-92,67
723,853	1,54
724,04	42,5
724,227	89,6
724,414	-16,9
724,6	48,64
724,787	157,18
724,974	122,37
725,161	19,97
725,347	-121,34
725,534	38,4
725,72	101,89
725,907	93,69
726,094	71,17
726,28	-45,57
726,467	-72,19
726,653	-102,91
726,84	32,26
727,027	62,98
727,213	-45,57
727,4	26,11
727,586	36,35
727,773	56,83
727,959	7,68
728,145	-23,04
728,332	-41,47
728,518	-55,81
728,705	89,6
728,891	-4,61
729,077	-29,18
729,264	-94,72
729,45	42,5
729,636	97,79
729,823	-53,76
730,009	24,06
730,195	-29,18
730,382	44,54
730,568	-72,19
730,754	34,3
730,94	-82,43
731,126	-57,86
731,313	17,92
731,499	-31,23
731,685	-23,04
731,871	-8,7
732,057	7,68
732,243	44,54
732,429	-0,51
732,615	40,45
732,801	73,21
732,987	-80,38
733,173	36,35
733,359	-39,42
733,545	38,4
733,731	-6,66
733,917	140,8
734,103	-29,18
734,289	-29,18
734,475	-59,9
734,661	142,85
734,847	-23,04
735,033	-88,57
735,219	65,02
735,404	9,73
735,59	-66,05
735,776	-31,23
735,962	-29,18
736,148	173,57
736,333	116,22
736,519	24,06
736,705	-16,9
736,89	26,11
737,076	56,83
737,262	-72,19
737,447	-96,77
737,633	-94,72
737,819	71,17
738,004	-43,52
738,19	-6,66
738,375	42,5
738,561	24,06
738,747	-4,61
738,932	-145,92
739,118	132,61
739,303	34,3
739,489	17,92
739,674	-31,23
739,859	-72,19
740,045	34,3
740,23	17,92
740,416	-166,4
740,601	-33,28
740,786	-53,76
740,972	-66,05
741,157	-41,47
741,342	-25,09
741,528	-115,2
741,713	60,93
741,898	-96,77
742,084	11,78
742,269	1,54
742,454	26,11
742,639	36,35
742,824	-8,7
743,01	87,55
743,195	173,57
743,38	40,45
743,565	-25,09
743,75	-10,75
743,935	87,55
744,12	40,45
744,305	-147,97
744,49	30,21
744,675	-41,47
744,86	-55,81
745,045	7,68
745,23	54,78
745,415	17,92
745,6	103,93
745,785	-76,29
745,97	28,16
746,155	-70,14
746,34	48,64
746,525	13,82
746,71	101,89
746,895	-59,9
747,079	-10,75
747,264	-76,29
747,449	81,41
747,634	-16,9
747,819	36,35
748,003	91,65
748,188	-64
748,373	36,35
748,557	-12,8
748,742	-59,9
748,927	17,92
749,111	30,21
749,296	-64
749,481	9,73
749,665	30,21
749,85	-18,94
750,034	22,02
750,219	-25,09
750,404	-59,9
750,588	15,87
750,773	-10,75
750,957	34,3
751,141	7,68
751,326	28,16
751,51	-131,58
751,695	-23,04
751,879	-61,95
752,064	153,09
752,248	-107,01
752,432	155,13
752,617	73,21
752,801	40,45
752,985	-64
753,17	122,37
753,354	46,59
753,538	42,5
753,722	-127,49
753,907	-107,01
754,091	-31,23
754,275	60,93
754,459	-168,45
754,643	-127,49
754,828	17,92
755,012	77,31
755,196	-78,33
755,38	48,64
755,564	-10,75
755,748	-0,51
755,932	89,6
756,116	15,87
756,3	77,31
756,484	-47,62
756,668	34,3
756,852	-107,01
757,036	-49,66
757,22	3,58
757,404	-72,19
757,588	-8,7
757,772	60,93
757,956	-90,62
758,14	69,12
758,323	-49,66
758,507	36,35
758,691	-45,57
758,875	40,45
759,059	103,93
759,242	-156,16
759,426	-31,23
759,61	-6,66
759,794	-88,57
759,977	62,98
760,161	241,15
760,345	85,5
760,528	38,4
760,712	5,63
760,895	83,45
761,079	60,93
761,263	-72,19
761,446	-6,66
761,63	24,06
761,813	95,74
761,997	-51,71
762,18	36,35
762,364	50,69
762,547	-66,05
762,731	11,78
762,914	112,13
763,098	1,54
763,281	67,07
763,464	28,16
763,648	-43,52
763,831	-98,81
764,015	1,54
764,198	24,06
764,381	-29,18
764,564	-18,94
764,748	3,58
764,931	17,92
765,114	-33,28
765,297	112,13
765,481	-2,56
765,664	-55,81
765,847	-53,76
766,03	75,26
766,213	-68,09
766,397	-68,09
766,58	-72,19
766,763	44,54
766,946	46,59
767,129	-33,28
767,312	-29,18
767,495	-74,24
767,678	-55,81
767,861	-8,7
768,044	-16,9
768,227	-145,92
768,41	1,54
768,593	50,69
768,776	42,5
768,959	-57,86
769,142	108,03
769,324	-145,92
769,507	1,54
769,69	-64
769,873	-86,53
770,056	171,52
770,239	-61,95
770,421	13,82
770,604	95,74
770,787	24,06
770,97	60,93
771,152	-92,67
771,335	40,45
771,518	-55,81
771,7	128,51
771,883	32,26
772,066	-35,33
772,248	-31,23
772,431	52,74
772,613	77,31
772,796	28,16
772,978	-37,38
773,161	171,52
773,343	-39,42
773,526	-57,86
773,708	-76,29
773,891	-119,29
774,073	-14,85
774,256	-131,58
774,438	85,5
774,621	-25,09
774,803	19,97
774,985	-12,8
775,168	85,5
775,35	36,35
775,532	91,65
775,715	13,82
775,897	89,6
776,079	-20,99
776,261	91,65
776,444	222,72
776,626	396,79
776,808	595,45
776,99	634,36
777,173	796,15
777,355	880,11
777,537	953,84
777,719	910,83
777,901	765,43
778,083	665,08
778,265	525,82
778,447	564,73
778,629	411,13
778,811	470,52
778,993	374,27
779,175	351,74
779,357	341,5
779,539	134,65
779,721	159,23
779,903	204,28
780,085	36,35
780,267	32,26
780,449	159,23
780,631	122,37
780,812	132,61
780,994	48,64
781,176	-31,23
781,358	26,11
781,54	38,4
781,721	56,83
781,903	32,26
782,085	-55,81
782,267	62,98
782,448	-88,57
782,63	-35,33
782,812	-29,18
782,993	56,83
783,175	5,63
783,357	1,54
783,538	-53,76
783,72	-14,85
783,901	-12,8
784,083	15,87
784,264	-33,28
784,446	-80,38
784,627	-150,01
784,809	83,45
784,99	-31,23
785,172	34,3
785,353	-74,24
785,535	-53,76
785,716	-47,62
785,897	-37,38
786,079	-35,33
786,26	-25,09
786,441	-55,81
786,623	-176,64
786,804	-117,25
786,985	3,58
787,167	9,73
787,348	-86,53
787,529	13,82
787,71	110,08
787,891	17,92
788,073	-94,72
788,254	-123,39
788,435	155,13
788,616	-57,86
788,797	-18,94
788,978	-35,33
789,159	-59,9
789,34	1,54
789,522	1,54
789,703	-72,19
789,884	-29,18
790,065	9,73
790,246	108,03
790,427	-45,57
790,607	50,69
790,788	105,98
790,969	-74,24
791,15	-16,9
791,331	-8,7
791,512	-59,9
791,693	-129,53
791,874	-78,33
792,054	161,28
792,235	3,58
792,416	-119,29
792,597	-88,57
792,778	-16,9
792,958	-6,66
793,139	11,78
793,32	11,78
793,5	-147,97
793,681	85,5
793,862	62,98
794,042	-33,28
794,223	-152,06
794,404	79,36
794,584	-145,92
794,765	-57,86
794,945	-41,47
795,126	40,45
795,306	159,23
795,487	1,54
795,667	-74,24
795,848	-0,51
796,028	-8,7
796,209	-16,9
796,389	-0,51
796,57	-0,51
796,75	-72,19
796,93	30,21
797,111	-72,19
797,291	-20,99
797,471	15,87
797,652	-33,28
797,832	-119,29
798,012	3,58
798,192	-31,23
798,373	-162,3
798,553	-68,09
798,733	7,68
798,913	-84,48
799,093	-29,18
799,274	-18,94
799,454	-31,23
799,634	34,3
799,814	26,11
799,994	-8,7
800,174	32,26
800,354	-57,86
800,534	-156,16
800,714	24,06
800,894	-107,01
801,074	-53,76
801,254	-31,23
801,434	58,88
801,614	-39,42
801,794	-137,73
801,974	1996,26
802,154	-59,9
802,334	40,45
802,514	-104,96
802,693	13,82
802,873	-27,14
803,053	122,37
803,233	116,22
803,413	-20,99
803,592	-94,72
803,772	-100,86
803,952	-6,66
804,131	-104,96
804,311	34,3
804,491	7,68
804,67	-115,2
804,85	-53,76
805,03	-10,75
805,209	89,6
805,389	-96,77
805,568	-2,56
805,748	-41,47
805,928	-66,05
806,107	85,5
806,287	-18,94
806,466	-64
806,646	-20,99
806,825	-33,28
807,004	-6,66
807,184	9,73
807,363	42,5
807,543	32,26
807,722	-33,28
807,901	67,07
808,081	-33,28
808,26	-227,84
808,439	-12,8
808,619	-68,09
808,798	-49,66
808,977	5,63
809,156	81,41
809,336	-27,14
809,515	50,69
809,694	-170,49
809,873	-82,43
810,052	-20,99
810,231	-0,51
810,411	-0,51
810,59	24,06
810,769	-37,38
810,948	-23,04
811,127	-86,53
811,306	38,4
811,485	-57,86
811,664	97,79
811,843	44,54
812,022	48,64
812,201	-14,85
812,38	-14,85
812,559	-20,99
812,737	-31,23
812,916	-145,92
813,095	-72,19
813,274	-8,7
813,453	56,83
813,632	11,78
813,811	28,16
813,989	-45,57
814,168	30,21
814,347	-72,19
814,526	-2,56
814,704	79,36
814,883	110,08
815,062	-53,76
815,24	15,87
815,419	-94,72
815,598	46,59
815,776	-176,64
815,955	-14,85
816,133	-184,83
816,312	42,5
816,49	-72,19
816,669	-33,28
816,847	-98,81
817,026	-107,01
817,204	-12,8
817,383	-4,61
817,561	-115,2
817,74	58,88
817,918	38,4
818,097	-39,42
818,275	-78,33
818,453	-25,09
818,632	-14,85
818,81	-29,18
818,988	-76,29
819,167	-41,47
819,345	-35,33
819,523	-64
819,701	-102,91
819,879	1,54
820,058	-76,29
820,236	24,06
820,414	-61,95
820,592	-14,85
820,77	-57,86
820,948	-33,28
821,127	-31,23
821,305	-0,51
821,483	-96,77
821,661	56,83
821,839	-20,99
822,017	-59,9
822,195	-16,9
822,373	65,02
822,551	67,07
822,729	50,69
822,907	-68,09
823,085	-39,42
823,262	-41,47
823,44	-12,8
823,618	-2,56
823,796	1,54
823,974	-64
824,152	-109,05
824,329	-86,53
824,507	-2,56
824,685	-4,61
824,863	-107,01
825,04	-78,33
825,218	-66,05
825,396	-47,62
825,574	34,3
825,751	9,73
825,929	52,74
826,107	-119,29
826,284	-49,66
826,462	40,45
826,639	-102,91
826,817	-109,05
826,994	1,54
827,172	-82,43
827,349	11,78
827,527	36,35
827,704	99,84
827,882	-0,51
828,059	-139,77
828,237	-125,44
828,414	-45,57
828,591	-113,15
828,769	-78,33
828,946	-45,57
829,124	-23,04
829,301	-2,56
829,478	-68,09
829,655	-4,61
829,833	-4,61
830,01	-190,97
830,187	-41,47
830,364	-102,91
830,542	-12,8
830,719	69,12
830,896	-51,71
831,073	-16,9
831,25	32,26
831,427	-16,9
831,604	-53,76
831,782	-178,69
831,959	-14,85
832,136	13,82
832,313	-43,52
832,49	-84,48
832,667	7,68
832,844	-109,05
833,021	28,16
833,198	-45,57
833,374	1,54
833,551	-72,19
833,728	-31,23
833,905	15,87
834,082	-125,44
834,259	1,54
834,436	-39,42
834,612	-59,9
834,789	17,92
834,966	-66,05
835,143	-57,86
835,319	-119,29
835,496	-31,23
835,673	-57,86
835,85	-41,47
836,026	7,68
836,203	50,69
836,38	-94,72
836,556	-90,62
836,733	-55,81
836,909	34,3
837,086	-74,24
837,262	-205,31
837,439	-33,28
837,616	-70,14
837,792	-23,04
837,968	-57,86
838,145	-172,54
838,321	-90,62
838,498	-12,8
838,674	108,03
838,851	19,97
839,027	-47,62
839,203	-59,9
839,38	-0,51
839,556	-80,38
839,732	-6,66
839,909	-74,24
840,085	26,11
840,261	-133,63
840,437	-64
840,614	-39,42
840,79	-2,56
840,966	50,69
841,142	46,59
841,318	-156,16
841,494	69,12
841,671	34,3
841,847	-135,68
842,023	-147,97
842,199	69,12
842,375	40,45
842,551	-229,88
842,727	-143,87
842,903	103,93
843,079	-123,39
843,255	157,18
843,431	-29,18
843,607	-31,23
843,783	-141,82
843,959	204,28
844,134	105,98
844,31	394,75
844,486	294,4
844,662	241,15
844,838	290,3
845,013	261,63
845,189	318,97
845,365	220,67
845,541	181,76
845,716	230,91
845,892	196,09
846,068	69,12
846,244	67,07
846,419	138,75
846,595	22,02
846,77	7,68
846,946	148,99
847,122	-6,66
847,297	-12,8
847,473	171,52
847,648	-45,57
847,824	67,07
847,999	-84,48
848,175	58,88
848,35	50,69
848,526	73,21
848,701	42,5
848,876	40,45
849,052	73,21
849,227	-12,8
849,403	36,35
849,578	22,02
849,753	26,11
849,929	13,82
850,104	-104,96
850,279	-45,57
850,454	-25,09
850,63	52,74
850,805	17,92
850,98	48,64
851,155	40,45
851,33	3,58
851,505	-119,29
851,681	71,17
851,856	-143,87
852,031	-12,8
852,206	-6,66
852,381	-117,25
852,556	-66,05
852,731	-16,9
852,906	60,93
853,081	-18,94
853,256	91,65
853,431	-94,72
853,606	-131,58
853,781	-51,71
853,956	-139,77
854,131	-57,86
854,305	-49,66
854,48	-109,05
854,655	-117,25
854,83	-31,23
855,005	-14,85
855,18	-64
855,354	-90,62
855,529	-18,94
855,704	-53,76
855,879	7,68
856,053	-92,67
856,228	-51,71
856,403	-59,9
856,577	67,07
856,752	-100,86
856,926	-70,14
857,101	26,11
857,276	-131,58
857,45	-72,19
857,625	73,21
857,799	-43,52
857,974	-64
858,148	-164,35
858,323	65,02
858,497	-41,47
858,672	-107,01
858,846	-109,05
859,02	32,26
859,195	-111,1
859,369	-12,8
859,543	-4,61
859,718	-57,86
859,892	-29,18
860,066	-94,72
860,241	-12,8
860,415	-90,62
860,589	-57,86
860,763	-84,48
860,938	-66,05
861,112	-25,09
861,286	-82,43
861,46	44,54
861,634	17,92
861,808	-0,51
861,982	-57,86
862,157	-88,57
862,331	-57,86
862,505	-150,01
862,679	-88,57
862,853	-96,77
863,027	-111,1
863,201	126,46
863,375	-47,62
863,549	56,83
863,722	-6,66
863,896	-10,75
864,07	-150,01
864,244	-68,09
864,418	19,97
864,592	-39,42
864,766	46,59
864,939	3,58
865,113	-131,58
865,287	24,06
865,461	-57,86
865,634	-57,86
865,808	-2,56
865,982	-98,81
866,156	-100,86
866,329	-143,87
866,503	-64
866,676	22,02
866,85	99,84
867,024	-80,38
867,197	75,26
867,371	-16,9
867,544	56,83
867,718	-64
867,891	46,59
868,065	-90,62
868,238	-55,81
868,412	36,35
868,585	-53,76
868,759	-104,96
868,932	-64
869,105	-57,86
869,279	-66,05
869,452	-90,62
869,625	9,73
869,799	-96,77
869,972	-96,77
870,145	-4,61
870,319	17,92
870,492	-2,56
870,665	15,87
870,838	-47,62
871,011	-184,83
871,185	-80,38
871,358	-96,77
871,531	15,87
871,704	-129,53
871,877	32,26
872,05	-59,9
872,223	-141,82
872,396	-16,9
872,569	48,64
872,742	-154,11
872,915	-33,28
873,088	-96,77
873,261	-82,43
873,434	-8,7
873,607	-23,04
873,78	89,6
873,953	-178,69
874,126	24,06
874,299	-20,99
874,471	-141,82
874,644	32,26
874,817	-12,8
874,99	114,17
875,163	-102,91
875,335	32,26
875,508	-88,57
875,681	-2,56
875,853	-59,9
876,026	-35,33
876,199	56,83
876,371	-78,33
876,544	-0,51
876,717	81,41
876,889	-90,62
877,062	-6,66
877,234	-94,72
877,407	-104,96
877,579	9,73
877,752	-0,51
877,924	-0,51
878,097	-4,61
878,269	-121,34
878,442	-8,7
878,614	-47,62
878,786	-57,86
878,959	-57,86
879,131	-80,38
879,303	-156,16
879,476	-23,04
879,648	-41,47
879,82	-51,71
879,993	-82,43
880,165	-107,01
880,337	-168,45
880,509	26,11
880,681	-147,97
880,854	-70,14
881,026	60,93
881,198	89,6
881,37	-27,14
881,542	-10,75
881,714	-14,85
881,886	-39,42
882,058	-76,29
882,23	13,82
882,402	-12,8
882,574	71,17
882,746	30,21
882,918	34,3
883,09	-16,9
883,262	-39,42
883,434	-88,57
883,606	-135,68
883,778	-4,61
883,95	101,89
884,122	-53,76
884,293	32,26
884,465	-12,8
884,637	40,45
884,809	-70,14
884,98	-23,04
885,152	-66,05
885,324	95,74
885,496	-94,72
885,667	-27,14
885,839	-88,57
886,011	19,97
886,182	1,54
886,354	42,5
886,525	-41,47
886,697	-6,66
886,869	-113,15
887,04	-29,18
887,212	1,54
887,383	56,83
887,555	7,68
887,726	-100,86
887,897	-94,72
888,069	-0,51
888,24	1,54
888,412	-49,66
888,583	1,54
888,754	-102,91
888,926	-180,73
889,097	-107,01
889,268	-76,29
889,44	-33,28
889,611	-176,64
889,782	-152,06
889,953	-111,1
890,125	75,26
890,296	-129,53
890,467	-90,62
890,638	-92,67
890,809	-66,05
890,98	-68,09
891,151	15,87
891,323	52,74
891,494	-139,77
891,665	15,87
891,836	-8,7
892,007	28,16
892,178	-14,85
892,349	-18,94
892,52	-150,01
892,691	-51,71
892,862	-123,39
893,032	-156,16
893,203	-59,9
893,374	-8,7
893,545	-41,47
893,716	-104,96
893,887	83,45
894,057	1,54
894,228	-18,94
894,399	-78,33
894,57	83,45
894,74	1,54
894,911	1,54
895,082	-41,47
895,253	-78,33
895,423	-10,75
895,594	65,02
895,764	34,3
895,935	-119,29
896,106	-16,9
896,276	-76,29
896,447	19,97
896,617	-135,68
896,788	-113,15
896,958	-123,39
897,129	-0,51
897,299	-37,38
897,47	56,83
897,64	3,58
897,81	-76,29
897,981	24,06
898,151	-96,77
898,322	36,35
898,492	-8,7
898,662	-147,97
898,832	-64
899,003	-55,81
899,173	3,58
899,343	-113,15
899,513	-125,44
