Data from deuterium_USB4F104151__21__10-57-07-567.txt Node

Date: Wed Apr 15 10:57:07 EDT 2026
User: LaboPhy
Spectrometer: USB4F10415
Trigger mode: 4
Integration Time (sec): 1,000000E-1
Scans to average: 1
Electric dark correction enabled: true
Nonlinearity correction enabled: false
Boxcar width: 0
XAxis mode: Wavelengths
Number of Pixels in Spectrum: 3648
>>>>>Begin Spectral Data<<<<<
178,204	-415,57
178,424	-415,57
178,644	-415,57
178,864	-472,91
179,084	-477,01
179,304	43,18
179,524	-42,84
179,744	6,31
179,964	65,71
180,184	82,09
180,404	0,17
180,624	-59,22
180,844	6,31
181,064	-102,23
181,283	71,85
181,503	-79,7
181,723	8,36
181,943	-94,04
182,163	200,87
182,383	-65,36
182,602	32,94
182,822	186,54
183,042	-18,26
183,262	39,08
183,482	-48,98
183,701	137,38
183,921	20,65
184,141	14,51
184,361	61,61
184,58	-69,46
184,8	-28,5
185,02	-42,84
185,239	106,67
185,459	49,32
185,679	159,91
185,898	-116,56
186,118	69,8
186,338	61,61
186,557	147,62
186,777	-85,84
186,997	30,89
187,216	22,7
187,436	186,54
187,655	69,8
187,875	20,65
188,095	14,51
188,314	92,33
188,534	65,71
188,753	-96,08
188,973	-14,17
189,192	270,5
189,412	-71,51
189,631	37,03
189,851	24,75
190,07	180,39
190,29	-89,94
190,509	-38,74
190,729	-24,4
190,948	123,05
191,168	211,11
191,387	110,76
191,607	28,84
191,826	51,37
192,045	53,42
192,265	10,41
192,484	143,53
192,704	63,66
192,923	-65,36
193,142	151,72
193,362	149,67
193,581	102,57
193,8	69,8
194,02	53,42
194,239	-1,88
194,458	143,53
194,678	4,27
194,897	-12,12
195,116	45,23
195,335	59,56
195,555	129,19
195,774	41,13
195,993	121
196,212	41,13
196,432	-55,12
196,651	2,22
196,87	-28,5
197,089	256,17
197,308	26,79
197,528	53,42
197,747	-65,36
197,966	84,14
198,185	98,47
198,404	-48,98
198,623	67,75
198,842	84,14
199,062	57,51
199,281	82,09
199,5	41,13
199,719	71,85
199,938	22,7
200,157	53,42
200,376	73,9
200,595	172,2
200,814	16,55
201,033	-94,04
201,252	202,92
201,471	-12,12
201,69	39,08
201,909	-10,07
202,128	127,14
202,347	49,32
202,566	34,99
202,785	-85,84
203,004	-63,32
203,223	254,12
203,442	82,09
203,661	-91,99
203,879	0,17
204,098	147,62
204,317	-51,03
204,536	131,24
204,755	84,14
204,974	114,86
205,193	28,84
205,411	98,47
205,63	168,1
205,849	121
206,068	16,55
206,287	-51,03
206,505	247,97
206,724	65,71
206,943	-26,45
207,162	53,42
207,381	133,29
207,599	4,27
207,818	80,04
208,037	-75,6
208,255	49,32
208,474	102,57
208,693	28,84
208,911	-32,6
209,13	133,29
209,349	47,27
209,567	149,67
209,786	59,56
210,005	92,33
210,223	14,51
210,442	-145,24
210,661	-77,65
210,879	96,43
211,098	94,38
211,316	-10,07
211,535	22,7
211,753	0,17
211,972	112,81
212,191	-1,88
212,409	8,36
212,628	102,57
212,846	-57,17
213,065	41,13
213,283	106,67
213,502	-26,45
213,72	65,71
213,938	-38,74
214,157	-3,93
214,375	104,62
214,594	-5,97
214,812	112,81
215,031	-5,97
215,249	6,31
215,467	45,23
215,686	12,46
215,904	106,67
216,122	39,08
216,341	180,39
216,559	65,71
216,778	94,38
216,996	131,24
217,214	-10,07
217,432	-3,93
217,651	-53,08
217,869	-18,26
218,087	202,92
218,306	-42,84
218,524	41,13
218,742	-1,88
218,96	178,34
219,179	-42,84
219,397	-20,31
219,615	276,65
219,833	114,86
220,051	-40,79
220,27	90,28
220,488	118,95
220,706	34,99
220,924	-32,6
221,142	-26,45
221,36	12,46
221,578	57,51
221,796	14,51
222,015	96,43
222,233	80,04
222,451	247,97
222,669	-51,03
222,887	14,51
223,105	112,81
223,323	30,89
223,541	-51,03
223,759	121
223,977	82,09
224,195	237,74
224,413	114,86
224,631	18,6
224,849	131,24
225,067	274,6
225,285	-36,69
225,503	32,94
225,721	-28,5
225,939	61,61
226,157	22,7
226,375	186,54
226,592	43,18
226,81	80,04
227,028	102,57
227,246	53,42
227,464	96,43
227,682	37,03
227,9	94,38
228,117	104,62
228,335	22,7
228,553	55,47
228,771	14,51
228,989	49,32
229,206	110,76
229,424	-42,84
229,642	-77,65
229,86	-8,02
230,077	129,19
230,295	100,52
230,513	53,42
230,731	37,03
230,948	186,54
231,166	164,01
231,384	24,75
231,601	-48,98
231,819	194,73
232,037	-89,94
232,254	-46,93
232,472	-26,45
232,689	-75,6
232,907	211,11
233,125	-94,04
233,342	-26,45
233,56	86,19
233,777	88,23
233,995	28,84
234,213	53,42
234,43	129,19
234,648	69,8
234,865	-65,36
235,083	110,76
235,3	135,34
235,518	45,23
235,735	139,43
235,953	14,51
236,17	53,42
236,388	20,65
236,605	49,32
236,822	37,03
237,04	82,09
237,257	39,08
237,475	2,22
237,692	8,36
237,909	51,37
238,127	47,27
238,344	22,7
238,562	88,23
238,779	-46,93
238,996	-34,64
239,214	-53,08
239,431	51,37
239,648	20,65
239,865	53,42
240,083	-16,21
240,3	0,17
240,517	37,03
240,735	45,23
240,952	147,62
241,169	137,38
241,386	37,03
241,603	37,03
241,821	-83,8
242,038	37,03
242,255	121
242,472	-81,75
242,689	98,47
242,907	53,42
243,124	77,99
243,341	47,27
243,558	-12,12
243,775	-65,36
243,992	-55,12
244,209	123,05
244,426	184,49
244,643	129,19
244,86	-55,12
245,078	96,43
245,295	-5,97
245,512	12,46
245,729	45,23
245,946	51,37
246,163	45,23
246,38	-32,6
246,597	28,84
246,814	-77,65
247,031	69,8
247,248	-16,21
247,464	28,84
247,681	69,8
247,898	22,7
248,115	135,34
248,332	-8,02
248,549	145,58
248,766	139,43
248,983	145,58
249,2	59,56
249,417	102,57
249,633	-36,69
249,85	139,43
250,067	39,08
250,284	65,71
250,501	24,75
250,717	18,6
250,934	34,99
251,151	65,71
251,368	8,36
251,585	12,46
251,801	51,37
252,018	-85,84
252,235	118,95
252,451	-112,47
252,668	-22,36
252,885	159,91
253,102	55,47
253,318	-36,69
253,535	18,6
253,752	-12,12
253,968	28,84
254,185	12,46
254,401	16,55
254,618	49,32
254,835	-5,97
255,051	145,58
255,268	67,75
255,484	34,99
255,701	-42,84
255,917	45,23
256,134	22,7
256,351	4,27
256,567	-69,46
256,784	39,08
257	-81,75
257,217	69,8
257,433	67,75
257,65	22,7
257,866	157,86
258,082	-130,9
258,299	-10,07
258,515	10,41
258,732	39,08
258,948	12,46
259,165	53,42
259,381	-44,88
259,597	92,33
259,814	-10,07
260,03	-26,45
260,246	8,36
260,463	149,67
260,679	39,08
260,895	28,84
261,112	45,23
261,328	-34,64
261,544	41,13
261,761	231,59
261,977	-75,6
262,193	-55,12
262,409	49,32
262,626	24,75
262,842	45,23
263,058	-44,88
263,274	112,81
263,49	10,41
263,707	55,47
263,923	47,27
264,139	-85,84
264,355	24,75
264,571	118,95
264,787	-3,93
265,004	149,67
265,22	14,51
265,436	-51,03
265,652	-5,97
265,868	-26,45
266,084	-63,32
266,3	55,47
266,516	-91,99
266,732	108,71
266,948	41,13
267,164	12,46
267,38	186,54
267,596	18,6
267,812	211,11
268,028	41,13
268,244	-65,36
268,46	59,56
268,676	6,31
268,892	-10,07
269,108	22,7
269,324	-46,93
269,54	8,36
269,756	80,04
269,972	-55,12
270,188	61,61
270,403	12,46
270,619	20,65
270,835	141,48
271,051	14,51
271,267	-94,04
271,483	-63,32
271,698	116,9
271,914	65,71
272,13	45,23
272,346	-14,17
272,562	0,17
272,777	127,14
272,993	-63,32
273,209	-3,93
273,425	6,31
273,64	-102,23
273,856	157,86
274,072	4,27
274,287	41,13
274,503	47,27
274,719	125,1
274,934	-40,79
275,15	-98,13
275,366	-3,93
275,581	-75,6
275,797	84,14
276,012	-14,17
276,228	-46,93
276,444	37,03
276,659	135,34
276,875	-28,5
277,09	-48,98
277,306	22,7
277,521	135,34
277,737	129,19
277,952	67,75
278,168	67,75
278,383	41,13
278,599	77,99
278,814	47,27
279,03	14,51
279,245	98,47
279,461	-18,26
279,676	84,14
279,892	-79,7
280,107	-32,6
280,322	24,75
280,538	10,41
280,753	-20,31
280,969	55,47
281,184	32,94
281,399	118,95
281,615	61,61
281,83	-40,79
282,045	-8,02
282,26	-10,07
282,476	47,27
282,691	73,9
282,906	84,14
283,122	37,03
283,337	20,65
283,552	82,09
283,767	12,46
283,983	108,71
284,198	8,36
284,413	34,99
284,628	-69,46
284,843	67,75
285,058	92,33
285,274	143,53
285,489	-36,69
285,704	104,62
285,919	6,31
286,134	28,84
286,349	121
286,564	59,56
286,779	161,96
286,995	34,99
287,21	-30,55
287,425	-34,64
287,64	-75,6
287,855	-20,31
288,07	-26,45
288,285	161,96
288,5	131,24
288,715	127,14
288,93	8,36
289,145	14,51
289,36	47,27
289,575	-8,02
289,79	84,14
290,004	47,27
290,219	84,14
290,434	-51,03
290,649	53,42
290,864	-83,8
291,079	32,94
291,294	45,23
291,509	16,55
291,724	16,55
291,938	-18,26
292,153	14,51
292,368	-34,64
292,583	30,89
292,798	20,65
293,012	71,85
293,227	53,42
293,442	4,27
293,657	80,04
293,871	100,52
294,086	53,42
294,301	200,87
294,516	77,99
294,73	4,27
294,945	-65,36
295,16	-1,88
295,374	96,43
295,589	106,67
295,804	61,61
296,018	49,32
296,233	141,48
296,447	45,23
296,662	-10,07
296,877	153,77
297,091	24,75
297,306	63,66
297,52	71,85
297,735	53,42
297,949	12,46
298,164	53,42
298,378	45,23
298,593	-44,88
298,807	37,03
299,022	-32,6
299,236	200,87
299,451	-5,97
299,665	-3,93
299,88	55,47
300,094	86,19
300,309	12,46
300,523	32,94
300,737	-18,26
300,952	57,51
301,166	53,42
301,381	-40,79
301,595	-63,32
301,809	123,05
302,024	-59,22
302,238	-61,27
302,452	88,23
302,667	90,28
302,881	143,53
303,095	90,28
303,309	20,65
303,524	-69,46
303,738	-81,75
303,952	39,08
304,166	53,42
304,381	-124,76
304,595	229,54
304,809	-18,26
305,023	26,79
305,237	-65,36
305,452	12,46
305,666	2,22
305,88	59,56
306,094	137,38
306,308	102,57
306,522	92,33
306,736	86,19
306,95	141,48
307,164	24,75
307,379	-12,12
307,593	161,96
307,807	139,43
308,021	121
308,235	51,37
308,449	-114,52
308,663	12,46
308,877	227,5
309,091	43,18
309,305	112,81
309,519	-106,32
309,733	133,29
309,947	-53,08
310,161	57,51
310,374	90,28
310,588	159,91
310,802	-16,21
311,016	16,55
311,23	135,34
311,444	-73,56
311,658	26,79
311,872	77,99
312,085	151,72
312,299	129,19
312,513	112,81
312,727	37,03
312,941	-38,74
313,154	69,8
313,368	63,66
313,582	14,51
313,796	94,38
314,009	75,95
314,223	159,91
314,437	53,42
314,651	69,8
314,864	-8,02
315,078	32,94
315,292	-24,4
315,505	-8,02
315,719	49,32
315,933	8,36
316,146	-40,79
316,36	-36,69
316,573	96,43
316,787	180,39
317,001	8,36
317,214	-53,08
317,428	41,13
317,641	-51,03
317,855	-16,21
318,068	67,75
318,282	-12,12
318,495	184,49
318,709	114,86
318,922	37,03
319,136	127,14
319,349	118,95
319,563	-5,97
319,776	102,57
319,99	-12,12
320,203	96,43
320,417	-53,08
320,63	121
320,843	260,26
321,057	100,52
321,27	34,99
321,483	75,95
321,697	69,8
321,91	96,43
322,124	86,19
322,337	73,9
322,55	-38,74
322,763	30,89
322,977	94,38
323,19	69,8
323,403	14,51
323,617	53,42
323,83	-12,12
324,043	4,27
324,256	-3,93
324,469	-83,8
324,683	168,1
324,896	53,42
325,109	-67,41
325,322	-44,88
325,535	118,95
325,748	80,04
325,962	-3,93
326,175	71,85
326,388	59,56
326,601	137,38
326,814	-12,12
327,027	102,57
327,24	151,72
327,453	-81,75
327,666	12,46
327,879	139,43
328,092	75,95
328,305	125,1
328,518	96,43
328,731	30,89
328,944	8,36
329,157	73,9
329,37	6,31
329,583	202,92
329,796	125,1
330,009	-28,5
330,222	67,75
330,435	112,81
330,648	14,51
330,861	69,8
331,073	80,04
331,286	51,37
331,499	116,9
331,712	-46,93
331,925	16,55
332,138	90,28
332,35	129,19
332,563	-24,4
332,776	114,86
332,989	-69,46
333,202	-71,51
333,414	80,04
333,627	61,61
333,84	-22,36
334,053	49,32
334,265	86,19
334,478	20,65
334,691	-1,88
334,903	14,51
335,116	-12,12
335,329	20,65
335,541	135,34
335,754	182,44
335,966	-8,02
336,179	125,1
336,392	2,22
336,604	-1,88
336,817	127,14
337,029	129,19
337,242	18,6
337,454	151,72
337,667	67,75
337,88	204,97
338,092	172,2
338,305	73,9
338,517	47,27
338,729	98,47
338,942	141,48
339,154	-12,12
339,367	-59,22
339,579	59,56
339,792	4,27
340,004	145,58
340,217	16,55
340,429	139,43
340,641	-16,21
340,854	-28,5
341,066	-24,4
341,278	127,14
341,491	231,59
341,703	63,66
341,915	-10,07
342,128	110,76
342,34	53,42
342,552	-44,88
342,764	77,99
342,977	28,84
343,189	102,57
343,401	82,09
343,613	-32,6
343,826	69,8
344,038	-16,21
344,25	51,37
344,462	47,27
344,674	121
344,886	14,51
345,099	77,99
345,311	59,56
345,523	41,13
345,735	20,65
345,947	75,95
346,159	57,51
346,371	0,17
346,583	61,61
346,795	149,67
347,007	4,27
347,219	80,04
347,431	49,32
347,643	202,92
347,855	47,27
348,067	186,54
348,279	-61,27
348,491	37,03
348,703	53,42
348,915	69,8
349,127	28,84
349,339	112,81
349,551	6,31
349,763	118,95
349,975	69,8
350,187	98,47
350,399	75,95
350,61	73,9
350,822	90,28
351,034	45,23
351,246	133,29
351,458	145,58
351,669	127,14
351,881	141,48
352,093	153,77
352,305	92,33
352,517	82,09
352,728	108,71
352,94	73,9
353,152	69,8
353,363	32,94
353,575	32,94
353,787	133,29
353,999	127,14
354,21	106,67
354,422	-55,12
354,633	45,23
354,845	41,13
355,057	88,23
355,268	104,62
355,48	159,91
355,692	0,17
355,903	37,03
356,115	39,08
356,326	-79,7
356,538	106,67
356,749	121
356,961	178,34
357,172	45,23
357,384	-61,27
357,595	262,31
357,807	-20,31
358,018	43,18
358,23	77,99
358,441	215,21
358,653	127,14
358,864	75,95
359,075	-12,12
359,287	106,67
359,498	137,38
359,709	63,66
359,921	34,99
360,132	98,47
360,344	86,19
360,555	49,32
360,766	41,13
360,977	32,94
361,189	77,99
361,4	49,32
361,611	229,54
361,823	112,81
362,034	82,09
362,245	-71,51
362,456	63,66
362,667	151,72
362,879	12,46
363,09	65,71
363,301	63,66
363,512	135,34
363,723	-3,93
363,935	88,23
364,146	114,86
364,357	63,66
364,568	55,47
364,779	-71,51
364,99	143,53
365,201	8,36
365,412	127,14
365,623	-89,94
365,834	139,43
366,045	59,56
366,256	90,28
366,467	147,62
366,678	28,84
366,889	94,38
367,1	77,99
367,311	88,23
367,522	92,33
367,733	90,28
367,944	135,34
368,155	73,9
368,366	200,87
368,577	174,25
368,788	184,49
368,999	-75,6
369,209	-34,64
369,42	274,6
369,631	250,02
369,842	114,86
370,053	90,28
370,264	155,82
370,474	37,03
370,685	69,8
370,896	71,85
371,107	139,43
371,317	86,19
371,528	110,76
371,739	200,87
371,95	112,81
372,16	90,28
372,371	-75,6
372,582	24,75
372,792	32,94
373,003	55,47
373,214	90,28
373,424	84,14
373,635	28,84
373,846	233,64
374,056	32,94
374,267	161,96
374,477	174,25
374,688	4,27
374,898	90,28
375,109	102,57
375,319	65,71
375,53	118,95
375,74	73,9
375,951	63,66
376,161	73,9
376,372	102,57
376,582	26,79
376,793	80,04
377,003	-20,31
377,214	-42,84
377,424	168,1
377,635	98,47
377,845	51,37
378,055	184,49
378,266	49,32
378,476	-8,02
378,686	149,67
378,897	32,94
379,107	110,76
379,317	178,34
379,528	82,09
379,738	174,25
379,948	16,55
380,158	135,34
380,369	47,27
380,579	104,62
380,789	59,56
380,999	161,96
381,21	172,2
381,42	219,3
381,63	61,61
381,84	229,54
382,05	131,24
382,261	157,86
382,471	207,02
382,681	63,66
382,891	159,91
383,101	71,85
383,311	59,56
383,521	73,9
383,731	151,72
383,941	202,92
384,151	108,71
384,361	69,8
384,571	147,62
384,781	22,7
384,991	225,45
385,201	239,78
385,411	127,14
385,621	94,38
385,831	114,86
386,041	59,56
386,251	84,14
386,461	184,49
386,671	86,19
386,881	24,75
387,091	86,19
387,301	178,34
387,511	127,14
387,72	147,62
387,93	127,14
388,14	-12,12
388,35	59,56
388,56	211,11
388,769	174,25
388,979	127,14
389,189	67,75
389,399	114,86
389,609	166,06
389,818	147,62
390,028	123,05
390,238	135,34
390,447	41,13
390,657	-30,55
390,867	18,6
391,076	-36,69
391,286	75,95
391,496	34,99
391,705	43,18
391,915	211,11
392,125	121
392,334	-69,46
392,544	104,62
392,753	121
392,963	-5,97
393,172	53,42
393,382	49,32
393,591	243,88
393,801	20,65
394,01	237,74
394,22	131,24
394,429	75,95
394,639	88,23
394,848	159,91
395,058	174,25
395,267	45,23
395,477	215,21
395,686	69,8
395,895	290,98
396,105	342,18
396,314	100,52
396,524	90,28
396,733	143,53
396,942	233,64
397,152	176,3
397,361	174,25
397,57	155,82
397,78	82,09
397,989	166,06
398,198	293,03
398,407	131,24
398,617	96,43
398,826	67,75
399,035	37,03
399,244	139,43
399,453	77,99
399,663	65,71
399,872	41,13
400,081	-8,02
400,29	127,14
400,499	-12,12
400,708	127,14
400,917	-51,03
401,127	24,75
401,336	32,94
401,545	219,3
401,754	159,91
401,963	45,23
402,172	20,65
402,381	12,46
402,59	61,61
402,799	59,56
403,008	192,68
403,217	82,09
403,426	90,28
403,635	-44,88
403,844	67,75
404,053	28,84
404,262	69,8
404,471	239,78
404,68	67,75
404,888	59,56
405,097	6,31
405,306	30,89
405,515	145,58
405,724	59,56
405,933	143,53
406,142	82,09
406,35	108,71
406,559	47,27
406,768	24,75
406,977	135,34
407,185	184,49
407,394	127,14
407,603	57,51
407,812	59,56
408,02	198,82
408,229	145,58
408,438	133,29
408,646	67,75
408,855	139,43
409,064	161,96
409,272	204,97
409,481	200,87
409,69	190,63
409,898	110,76
410,107	350,37
410,315	333,99
410,524	215,21
410,733	340,13
410,941	202,92
411,15	254,12
411,358	155,82
411,567	274,6
411,775	77,99
411,984	121
412,192	129,19
412,401	-46,93
412,609	178,34
412,818	121
413,026	43,18
413,234	45,23
413,443	6,31
413,651	-32,6
413,86	102,57
414,068	100,52
414,276	219,3
414,485	20,65
414,693	164,01
414,901	145,58
415,11	143,53
415,318	20,65
415,526	57,51
415,734	182,44
415,943	65,71
416,151	123,05
416,359	47,27
416,567	123,05
416,776	106,67
416,984	176,3
417,192	198,82
417,4	-22,36
417,608	-24,4
417,817	12,46
418,025	127,14
418,233	176,3
418,441	-8,02
418,649	-30,55
418,857	100,52
419,065	168,1
419,273	71,85
419,481	61,61
419,689	82,09
419,897	0,17
420,105	-28,5
420,313	80,04
420,521	151,72
420,729	178,34
420,937	-5,97
421,145	12,46
421,353	104,62
421,561	266,41
421,769	82,09
421,977	-40,79
422,185	88,23
422,393	39,08
422,601	135,34
422,809	90,28
423,017	80,04
423,224	57,51
423,432	229,54
423,64	90,28
423,848	188,58
424,056	-22,36
424,263	123,05
424,471	110,76
424,679	149,67
424,887	-36,69
425,094	164,01
425,302	166,06
425,51	51,37
425,718	153,77
425,925	80,04
426,133	-16,21
426,341	252,07
426,548	30,89
426,756	-24,4
426,964	118,95
427,171	55,47
427,379	39,08
427,586	90,28
427,794	69,8
428,001	75,95
428,209	100,52
428,417	16,55
428,624	57,51
428,832	18,6
429,039	-24,4
429,247	47,27
429,454	49,32
429,662	209,06
429,869	80,04
430,076	71,85
430,284	151,72
430,491	168,1
430,699	41,13
430,906	215,21
431,114	47,27
431,321	110,76
431,528	63,66
431,736	143,53
431,943	194,73
432,15	278,69
432,358	387,24
432,565	432,29
432,772	342,18
432,979	600,23
433,187	727,2
433,394	790,69
433,601	850,08
433,808	995,48
434,016	981,15
434,223	866,46
434,43	864,41
434,637	878,75
434,844	848,03
435,052	549,03
435,259	499,88
435,466	372,9
435,673	327,85
435,88	276,65
436,087	229,54
436,294	188,58
436,501	77,99
436,708	75,95
436,915	88,23
437,122	225,45
437,329	-3,93
437,537	-32,6
437,743	45,23
437,95	174,25
438,157	71,85
438,364	20,65
438,571	65,71
438,778	67,75
438,985	51,37
439,192	170,15
439,399	14,51
439,606	51,37
439,813	129,19
440,02	129,19
440,227	219,3
440,433	221,35
440,64	102,57
440,847	-30,55
441,054	84,14
441,261	182,44
441,467	75,95
441,674	-30,55
441,881	139,43
442,088	-20,31
442,294	37,03
442,501	135,34
442,708	127,14
442,914	90,28
443,121	92,33
443,328	26,79
443,534	110,76
443,741	37,03
443,948	-63,32
444,154	129,19
444,361	280,74
444,568	65,71
444,774	43,18
444,981	-3,93
445,187	172,2
445,394	59,56
445,6	-16,21
445,807	12,46
446,013	39,08
446,22	28,84
446,426	41,13
446,633	135,34
446,839	155,82
447,046	-81,75
447,252	90,28
447,459	0,17
447,665	90,28
447,871	121
448,078	180,39
448,284	28,84
448,491	200,87
448,697	61,61
448,903	82,09
449,11	24,75
449,316	-22,36
449,522	108,71
449,728	75,95
449,935	157,86
450,141	12,46
450,347	176,3
450,553	37,03
450,76	57,51
450,966	80,04
451,172	-1,88
451,378	20,65
451,584	80,04
451,791	151,72
451,997	57,51
452,203	-3,93
452,409	155,82
452,615	121
452,821	34,99
453,027	-28,5
453,233	174,25
453,44	4,27
453,646	16,55
453,852	57,51
454,058	-59,22
454,264	147,62
454,47	157,86
454,676	-1,88
454,882	28,84
455,088	53,42
455,294	4,27
455,5	94,38
455,705	34,99
455,911	10,41
456,117	-40,79
456,323	16,55
456,529	94,38
456,735	30,89
456,941	53,42
457,147	77,99
457,352	100,52
457,558	4,27
457,764	135,34
457,97	28,84
458,176	135,34
458,381	-42,84
458,587	186,54
458,793	94,38
458,999	-36,69
459,204	80,04
459,41	-8,02
459,616	88,23
459,821	59,56
460,027	-94,04
460,233	69,8
460,438	127,14
460,644	-12,12
460,85	80,04
461,055	125,1
461,261	86,19
461,466	-36,69
461,672	32,94
461,878	-36,69
462,083	90,28
462,289	24,75
462,494	61,61
462,7	106,67
462,905	106,67
463,111	168,1
463,316	166,06
463,522	145,58
463,727	65,71
463,932	92,33
464,138	61,61
464,343	168,1
464,549	131,24
464,754	178,34
464,959	182,44
465,165	24,75
465,37	118,95
465,575	30,89
465,781	86,19
465,986	16,55
466,191	71,85
466,397	14,51
466,602	151,72
466,807	71,85
467,012	98,47
467,218	127,14
467,423	20,65
467,628	-16,21
467,833	51,37
468,038	166,06
468,244	26,79
468,449	-24,4
468,654	114,86
468,859	45,23
469,064	47,27
469,269	127,14
469,474	10,41
469,679	118,95
469,885	41,13
470,09	39,08
470,295	94,38
470,5	80,04
470,705	57,51
470,91	98,47
471,115	176,3
471,32	-32,6
471,525	186,54
471,73	172,2
471,935	45,23
472,139	12,46
472,344	0,17
472,549	26,79
472,754	90,28
472,959	178,34
473,164	69,8
473,369	47,27
473,574	102,57
473,778	59,56
473,983	92,33
474,188	213,16
474,393	77,99
474,598	32,94
474,802	63,66
475,007	8,36
475,212	174,25
475,417	49,32
475,621	182,44
475,826	0,17
476,031	98,47
476,235	47,27
476,44	28,84
476,645	149,67
476,849	-1,88
477,054	-71,51
477,259	30,89
477,463	229,54
477,668	209,06
477,872	217,26
478,077	67,75
478,282	102,57
478,486	123,05
478,691	20,65
478,895	61,61
479,1	153,77
479,304	157,86
479,509	86,19
479,713	141,48
479,918	32,94
480,122	73,9
480,326	118,95
480,531	110,76
480,735	110,76
480,94	75,95
481,144	123,05
481,348	73,9
481,553	143,53
481,757	28,84
481,961	112,81
482,166	172,2
482,37	133,29
482,574	37,03
482,778	53,42
482,983	135,34
483,187	104,62
483,391	131,24
483,595	192,68
483,8	391,33
484,004	764,06
484,208	1323,16
484,412	2181,26
484,616	3217,53
484,821	4509,8
485,025	5791,83
485,229	7413,82
485,433	8478,76
485,637	9764,89
485,841	10442,76
486,045	10586,12
486,249	10369,04
486,453	9738,26
486,657	8857,64
486,861	7911,47
487,065	6541,38
487,269	5460,06
487,473	4427,88
487,677	3772,53
487,881	3213,43
488,085	2334,86
488,289	1894,54
488,493	1261,72
488,697	1101,98
488,901	637,09
489,105	350,37
489,309	278,69
489,512	381,09
489,716	141,48
489,92	231,59
490,124	155,82
490,328	225,45
490,531	59,56
490,735	213,16
490,939	106,67
491,143	94,38
491,346	151,72
491,55	80,04
491,754	92,33
491,958	127,14
492,161	161,96
492,365	86,19
492,569	-32,6
492,772	125,1
492,976	178,34
493,18	45,23
493,383	61,61
493,587	43,18
493,79	221,35
493,994	-8,02
494,197	-36,69
494,401	155,82
494,605	49,32
494,808	108,71
495,012	84,14
495,215	217,26
495,419	141,48
495,622	110,76
495,825	61,61
496,029	73,9
496,232	94,38
496,436	4,27
496,639	114,86
496,843	123,05
497,046	-32,6
497,249	123,05
497,453	94,38
497,656	57,51
497,859	75,95
498,063	114,86
498,266	176,3
498,469	-44,88
498,673	96,43
498,876	53,42
499,079	2,22
499,282	53,42
499,485	280,74
499,689	90,28
499,892	75,95
500,095	32,94
500,298	102,57
500,501	8,36
500,705	0,17
500,908	80,04
501,111	43,18
501,314	229,54
501,517	194,73
501,72	110,76
501,923	32,94
502,126	84,14
502,329	96,43
502,532	131,24
502,735	45,23
502,938	168,1
503,141	123,05
503,344	-100,18
503,547	73,9
503,75	2,22
503,953	8,36
504,156	77,99
504,359	-18,26
504,562	61,61
504,765	61,61
504,968	121
505,17	47,27
505,373	129,19
505,576	80,04
505,779	86,19
505,982	-24,4
506,185	102,57
506,387	34,99
506,59	200,87
506,793	86,19
506,996	65,71
507,198	71,85
507,401	221,35
507,604	180,39
507,807	67,75
508,009	112,81
508,212	53,42
508,415	24,75
508,617	98,47
508,82	28,84
509,022	39,08
509,225	139,43
509,428	82,09
509,63	88,23
509,833	-32,6
510,035	266,41
510,238	77,99
510,44	-12,12
510,643	135,34
510,845	143,53
511,048	157,86
511,25	-14,17
511,453	47,27
511,655	45,23
511,858	225,45
512,06	207,02
512,262	-44,88
512,465	63,66
512,667	63,66
512,87	-18,26
513,072	164,01
513,274	88,23
513,477	-5,97
513,679	63,66
513,881	59,56
514,084	16,55
514,286	164,01
514,488	139,43
514,69	26,79
514,893	-42,84
515,095	98,47
515,297	-65,36
515,499	82,09
515,701	-1,88
515,904	77,99
516,106	225,45
516,308	53,42
516,51	159,91
516,712	73,9
516,914	161,96
517,116	-5,97
517,318	34,99
517,52	73,9
517,722	149,67
517,925	20,65
518,127	57,51
518,329	145,58
518,531	-26,45
518,733	22,7
518,935	-5,97
519,136	178,34
519,338	16,55
519,54	4,27
519,742	88,23
519,944	149,67
520,146	135,34
520,348	88,23
520,55	155,82
520,752	34,99
520,954	24,75
521,155	112,81
521,357	82,09
521,559	106,67
521,761	94,38
521,963	143,53
522,164	69,8
522,366	100,52
522,568	55,47
522,77	20,65
522,971	137,38
523,173	-28,5
523,375	102,57
523,576	-24,4
523,778	59,56
523,98	77,99
524,181	159,91
524,383	63,66
524,584	71,85
524,786	71,85
524,988	67,75
525,189	65,71
525,391	100,52
525,592	-40,79
525,794	-8,02
525,995	-36,69
526,197	65,71
526,398	252,07
526,6	90,28
526,801	75,95
527,003	-112,47
527,204	-100,18
527,406	118,95
527,607	65,71
527,808	24,75
528,01	96,43
528,211	32,94
528,412	-42,84
528,614	96,43
528,815	129,19
529,016	67,75
529,218	43,18
529,419	28,84
529,62	-44,88
529,822	129,19
530,023	10,41
530,224	26,79
530,425	104,62
530,626	-28,5
530,828	39,08
531,029	26,79
531,23	80,04
531,431	-34,64
531,632	168,1
531,833	57,51
532,035	-18,26
532,236	53,42
532,437	125,1
532,638	57,51
532,839	14,51
533,04	145,58
533,241	157,86
533,442	-3,93
533,643	32,94
533,844	-40,79
534,045	-18,26
534,246	57,51
534,447	16,55
534,648	18,6
534,849	161,96
535,05	47,27
535,251	2,22
535,451	112,81
535,652	-8,02
535,853	-12,12
536,054	96,43
536,255	61,61
536,456	84,14
536,657	51,37
536,857	41,13
537,058	151,72
537,259	28,84
537,46	24,75
537,66	63,66
537,861	116,9
538,062	0,17
538,263	-57,17
538,463	47,27
538,664	84,14
538,865	-3,93
539,065	96,43
539,266	80,04
539,466	-22,36
539,667	112,81
539,868	112,81
540,068	37,03
540,269	106,67
540,469	20,65
540,67	129,19
540,87	143,53
541,071	-118,61
541,271	121
541,472	182,44
541,672	129,19
541,873	4,27
542,073	75,95
542,274	24,75
542,474	118,95
542,675	47,27
542,875	82,09
543,075	-69,46
543,276	51,37
543,476	86,19
543,676	116,9
543,877	41,13
544,077	80,04
544,277	112,81
544,478	67,75
544,678	12,46
544,878	53,42
545,078	75,95
545,279	80,04
545,479	8,36
545,679	20,65
545,879	20,65
546,079	69,8
546,28	-51,03
546,48	123,05
546,68	121
546,88	61,61
547,08	82,09
547,28	123,05
547,48	32,94
547,68	174,25
547,88	86,19
548,081	88,23
548,281	-130,9
548,481	51,37
548,681	-1,88
548,881	73,9
549,081	86,19
549,28	-5,97
549,48	55,47
549,68	112,81
549,88	30,89
550,08	-8,02
550,28	-16,21
550,48	114,86
550,68	28,84
550,88	-57,17
551,08	88,23
551,279	86,19
551,479	-14,17
551,679	137,38
551,879	14,51
552,079	37,03
552,278	45,23
552,478	131,24
552,678	59,56
552,878	94,38
553,077	4,27
553,277	14,51
553,477	82,09
553,676	30,89
553,876	41,13
554,076	65,71
554,275	63,66
554,475	80,04
554,674	80,04
554,874	43,18
555,074	6,31
555,273	28,84
555,473	88,23
555,672	77,99
555,872	53,42
556,071	22,7
556,271	159,91
556,47	127,14
556,67	10,41
556,869	41,13
557,068	-57,17
557,268	106,67
557,467	80,04
557,667	77,99
557,866	37,03
558,065	102,57
558,265	10,41
558,464	-46,93
558,663	22,7
558,863	102,57
559,062	84,14
559,261	51,37
559,461	45,23
559,66	53,42
559,859	-26,45
560,058	49,32
560,258	-77,65
560,457	82,09
560,656	133,29
560,855	-122,71
561,054	90,28
561,253	63,66
561,453	59,56
561,652	12,46
561,851	149,67
562,05	-1,88
562,249	-61,27
562,448	34,99
562,647	-20,31
562,846	-18,26
563,045	178,34
563,244	75,95
563,443	98,47
563,642	59,56
563,841	6,31
564,04	24,75
564,239	-1,88
564,438	22,7
564,637	-126,8
564,836	20,65
565,035	47,27
565,234	-69,46
565,432	118,95
565,631	73,9
565,83	20,65
566,029	55,47
566,228	-18,26
566,427	141,48
566,625	-53,08
566,824	63,66
567,023	69,8
567,222	32,94
567,42	0,17
567,619	80,04
567,818	12,46
568,016	202,92
568,215	71,85
568,414	135,34
568,612	39,08
568,811	88,23
569,01	12,46
569,208	102,57
569,407	135,34
569,605	278,69
569,804	77,99
570,002	112,81
570,201	67,75
570,4	90,28
570,598	116,9
570,797	75,95
570,995	-94,04
571,193	125,1
571,392	96,43
571,59	0,17
571,789	139,43
571,987	135,34
572,186	233,64
572,384	63,66
572,582	112,81
572,781	229,54
572,979	28,84
573,177	147,62
573,376	133,29
573,574	243,88
573,772	10,41
573,971	30,89
574,169	-85,84
574,367	141,48
574,565	59,56
574,763	143,53
574,962	112,81
575,16	67,75
575,358	51,37
575,556	86,19
575,754	16,55
575,952	161,96
576,151	121
576,349	190,63
576,547	55,47
576,745	135,34
576,943	106,67
577,141	112,81
577,339	49,32
577,537	55,47
577,735	204,97
577,933	125,1
578,131	30,89
578,329	309,41
578,527	96,43
578,725	211,11
578,923	-12,12
579,121	139,43
579,319	-30,55
579,516	161,96
579,714	297,13
579,912	164,01
580,11	-42,84
580,308	168,1
580,506	100,52
580,704	2,22
580,901	16,55
581,099	180,39
581,297	190,63
581,495	215,21
581,692	114,86
581,89	297,13
582,088	219,3
582,285	125,1
582,483	125,1
582,681	131,24
582,878	110,76
583,076	190,63
583,274	182,44
583,471	315,56
583,669	151,72
583,866	61,61
584,064	114,86
584,262	45,23
584,459	73,9
584,657	129,19
584,854	174,25
585,052	94,38
585,249	168,1
585,447	102,57
585,644	-1,88
585,841	168,1
586,039	192,68
586,236	225,45
586,434	51,37
586,631	65,71
586,828	53,42
587,026	51,37
587,223	24,75
587,42	55,47
587,618	61,61
587,815	207,02
588,012	55,47
588,21	53,42
588,407	176,3
588,604	221,35
588,801	104,62
588,999	90,28
589,196	157,86
589,393	12,46
589,59	118,95
589,787	71,85
589,984	96,43
590,182	75,95
590,379	51,37
590,576	129,19
590,773	61,61
590,97	84,14
591,167	149,67
591,364	135,34
591,561	-28,5
591,758	235,69
591,955	159,91
592,152	61,61
592,349	12,46
592,546	67,75
592,743	-18,26
592,94	-3,93
593,137	188,58
593,334	141,48
593,531	151,72
593,727	147,62
593,924	135,34
594,121	77,99
594,318	114,86
594,515	192,68
594,712	192,68
594,908	166,06
595,105	-32,6
595,302	184,49
595,499	45,23
595,696	219,3
595,892	86,19
596,089	168,1
596,286	53,42
596,482	202,92
596,679	151,72
596,876	73,9
597,072	63,66
597,269	65,71
597,466	118,95
597,662	37,03
597,859	61,61
598,055	61,61
598,252	73,9
598,448	159,91
598,645	168,1
598,841	151,72
599,038	247,97
599,234	227,5
599,431	192,68
599,627	114,86
599,824	71,85
600,02	102,57
600,217	20,65
600,413	178,34
600,609	141,48
600,806	329,89
601,002	127,14
601,198	30,89
601,395	213,16
601,591	73,9
601,787	69,8
601,984	172,2
602,18	108,71
602,376	55,47
602,572	262,31
602,769	235,69
602,965	139,43
603,161	194,73
603,357	202,92
603,553	241,83
603,75	8,36
603,946	88,23
604,142	168,1
604,338	284,84
604,534	-10,07
604,73	65,71
604,926	102,57
605,122	137,38
605,318	51,37
605,514	166,06
605,71	-1,88
605,906	219,3
606,102	65,71
606,298	196,78
606,494	125,1
606,69	217,26
606,886	45,23
607,082	112,81
607,278	14,51
607,474	82,09
607,67	118,95
607,866	28,84
608,062	131,24
608,257	92,33
608,453	-5,97
608,649	196,78
608,845	30,89
609,041	-30,55
609,236	174,25
609,432	112,81
609,628	229,54
609,824	110,76
610,019	34,99
610,215	118,95
610,411	145,58
610,606	239,78
610,802	90,28
610,998	108,71
611,193	94,38
611,389	-71,51
611,584	63,66
611,78	-28,5
611,976	194,73
612,171	256,17
612,367	59,56
612,562	88,23
612,758	98,47
612,953	49,32
613,149	86,19
613,344	30,89
613,539	30,89
613,735	116,9
613,93	69,8
614,126	88,23
614,321	77,99
614,517	245,93
614,712	88,23
614,907	182,44
615,103	88,23
615,298	141,48
615,493	28,84
615,688	69,8
615,884	51,37
616,079	77,99
616,274	123,05
616,47	-77,65
616,665	-53,08
616,86	80,04
617,055	45,23
617,25	-22,36
617,445	77,99
617,641	75,95
617,836	12,46
618,031	53,42
618,226	45,23
618,421	45,23
618,616	2,22
618,811	-8,02
619,006	34,99
619,201	204,97
619,396	73,9
619,591	-67,41
619,786	110,76
619,981	127,14
620,176	75,95
620,371	32,94
620,566	4,27
620,761	194,73
620,956	4,27
621,151	84,14
621,346	114,86
621,541	28,84
621,735	223,4
621,93	139,43
622,125	94,38
622,32	-61,27
622,515	-57,17
622,709	192,68
622,904	67,75
623,099	32,94
623,294	49,32
623,488	67,75
623,683	28,84
623,878	28,84
624,072	65,71
624,267	-1,88
624,462	86,19
624,656	-3,93
624,851	86,19
625,046	41,13
625,24	8,36
625,435	20,65
625,629	-20,31
625,824	241,83
626,018	96,43
626,213	129,19
626,407	90,28
626,602	110,76
626,796	-28,5
626,991	231,59
627,185	-65,36
627,38	176,3
627,574	204,97
627,768	133,29
627,963	53,42
628,157	86,19
628,352	34,99
628,546	-12,12
628,74	178,34
628,935	104,62
629,129	8,36
629,323	96,43
629,517	-26,45
629,712	49,32
629,906	65,71
630,1	41,13
630,294	192,68
630,489	94,38
630,683	-22,36
630,877	90,28
631,071	176,3
631,265	-3,93
631,459	69,8
631,653	39,08
631,848	26,79
632,042	151,72
632,236	-10,07
632,43	157,86
632,624	106,67
632,818	20,65
633,012	127,14
633,206	41,13
633,4	51,37
633,594	104,62
633,788	-12,12
633,982	53,42
634,176	166,06
634,369	82,09
634,563	71,85
634,757	-51,03
634,951	53,42
635,145	200,87
635,339	4,27
635,533	143,53
635,726	96,43
635,92	116,9
636,114	22,7
636,308	32,94
636,501	45,23
636,695	172,2
636,889	-28,5
637,083	34,99
637,276	80,04
637,47	-26,45
637,664	20,65
637,857	-18,26
638,051	16,55
638,244	153,77
638,438	57,51
638,632	221,35
638,825	-79,7
639,019	178,34
639,212	18,6
639,406	129,19
639,599	-10,07
639,793	47,27
639,986	73,9
640,18	190,63
640,373	-22,36
640,567	170,15
640,76	102,57
640,954	61,61
641,147	-12,12
641,34	28,84
641,534	57,51
641,727	139,43
641,92	143,53
642,114	88,23
642,307	94,38
642,5	159,91
642,694	26,79
642,887	43,18
643,08	145,58
643,273	170,15
643,467	10,41
643,66	8,36
643,853	-46,93
644,046	135,34
644,239	80,04
644,432	-40,79
644,626	37,03
644,819	114,86
645,012	86,19
645,205	94,38
645,398	73,9
645,591	59,56
645,784	8,36
645,977	-26,45
646,17	6,31
646,363	30,89
646,556	96,43
646,749	-42,84
646,942	67,75
647,135	127,14
647,328	28,84
647,521	112,81
647,714	129,19
647,907	90,28
648,099	-46,93
648,292	127,14
648,485	90,28
648,678	41,13
648,871	57,51
649,064	139,43
649,256	10,41
649,449	-18,26
649,642	-46,93
649,835	51,37
650,027	90,28
650,22	174,25
650,413	28,84
650,605	114,86
650,798	39,08
650,991	108,71
651,183	125,1
651,376	151,72
651,568	168,1
651,761	190,63
651,954	209,06
652,146	137,38
652,339	188,58
652,531	252,07
652,724	24,75
652,916	110,76
653,109	-16,21
653,301	155,82
653,494	219,3
653,686	153,77
653,879	315,56
654,071	219,3
654,263	235,69
654,456	565,41
654,648	2279,56
654,84	6649,93
655,033	15146,95
655,225	25800,48
655,417	36910,71
655,61	47463,89
655,802	55690,58
655,994	60701,96
656,186	62430,45
656,379	59385,12
656,571	55883,09
656,763	49735,09
656,955	45004,28
657,148	41461,3
657,34	37588,59
657,532	33560,23
657,724	30375,64
657,916	27027,21
658,108	23162,7
658,3	19324,8
658,492	15959,99
658,684	12972
658,876	10805,25
659,068	8560,68
659,26	6740,04
659,452	4862,05
659,644	3706,99
659,836	2758,78
660,028	1892,49
660,22	1276,06
660,412	1040,54
660,604	630,95
660,796	473,25
660,988	528,55
661,18	422,05
661,372	264,36
661,563	207,02
661,755	276,65
661,947	65,71
662,139	159,91
662,331	123,05
662,522	198,82
662,714	67,75
662,906	45,23
663,097	168,1
663,289	108,71
663,481	-26,45
663,673	192,68
663,864	69,8
664,056	166,06
664,247	39,08
664,439	178,34
664,631	80,04
664,822	118,95
665,014	47,27
665,205	-79,7
665,397	86,19
665,588	155,82
665,78	137,38
665,971	139,43
666,163	63,66
666,354	141,48
666,546	-22,36
666,737	24,75
666,929	12,46
667,12	73,9
667,311	129,19
667,503	24,75
667,694	129,19
667,885	110,76
668,077	106,67
668,268	-3,93
668,459	65,71
668,651	59,56
668,842	69,8
669,033	75,95
669,224	-20,31
669,416	241,83
669,607	4,27
669,798	-1,88
669,989	151,72
670,18	4,27
670,371	77,99
670,563	-46,93
670,754	161,96
670,945	135,34
671,136	88,23
671,327	-1,88
671,518	159,91
671,709	151,72
671,9	84,14
672,091	121
672,282	77,99
672,473	69,8
672,664	55,47
672,855	49,32
673,046	90,28
673,237	118,95
673,428	-32,6
673,619	137,38
673,809	-69,46
674	176,3
674,191	143,53
674,382	26,79
674,573	63,66
674,764	-61,27
674,954	94,38
675,145	-1,88
675,336	61,61
675,527	-10,07
675,717	-44,88
675,908	47,27
676,099	24,75
676,289	-22,36
676,48	-91,99
676,671	37,03
676,861	-8,02
677,052	80,04
677,243	26,79
677,433	-55,12
677,624	94,38
677,814	-24,4
678,005	-12,12
678,195	166,06
678,386	-67,41
678,576	8,36
678,767	-51,03
678,957	28,84
679,148	94,38
679,338	135,34
679,529	67,75
679,719	65,71
679,909	135,34
680,1	104,62
680,29	30,89
680,481	-73,56
680,671	86,19
680,861	88,23
681,052	75,95
681,242	-38,74
681,432	73,9
681,622	57,51
681,813	-20,31
682,003	12,46
682,193	-8,02
682,383	80,04
682,573	-1,88
682,764	-48,98
682,954	43,18
683,144	137,38
683,334	14,51
683,524	4,27
683,714	-36,69
683,904	118,95
684,094	6,31
684,284	-1,88
684,474	106,67
684,664	123,05
684,854	69,8
685,044	14,51
685,234	30,89
685,424	90,28
685,614	-24,4
685,804	112,81
685,994	41,13
686,184	16,55
686,374	14,51
686,564	73,9
686,753	84,14
686,943	18,6
687,133	8,36
687,323	-1,88
687,513	82,09
687,702	4,27
687,892	-36,69
688,082	80,04
688,272	53,42
688,461	16,55
688,651	161,96
688,841	45,23
689,03	2,22
689,22	55,47
689,41	73,9
689,599	67,75
689,789	-24,4
689,979	104,62
690,168	32,94
690,358	24,75
690,547	47,27
690,737	4,27
690,926	67,75
691,116	94,38
691,305	69,8
691,495	47,27
691,684	-46,93
691,874	-28,5
692,063	-8,02
692,252	61,61
692,442	116,9
692,631	-10,07
692,82	-14,17
693,01	90,28
693,199	10,41
693,388	30,89
693,578	53,42
693,767	110,76
693,956	39,08
694,146	20,65
694,335	82,09
694,524	69,8
694,713	86,19
694,902	-12,12
695,092	22,7
695,281	77,99
695,47	-10,07
695,659	24,75
695,848	-32,6
696,037	-8,02
696,226	86,19
696,415	61,61
696,604	86,19
696,793	45,23
696,982	26,79
697,171	125,1
697,36	-40,79
697,549	45,23
697,738	-128,85
697,927	12,46
698,116	-20,31
698,305	55,47
698,494	55,47
698,683	-59,22
698,872	118,95
699,061	47,27
699,25	-61,27
699,438	41,13
699,627	-36,69
699,816	121
700,005	-98,13
700,193	-24,4
700,382	63,66
700,571	98,47
700,76	24,75
700,948	75,95
701,137	30,89
701,326	73,9
701,514	-5,97
701,703	102,57
701,892	77,99
702,08	194,73
702,269	4,27
702,457	0,17
702,646	30,89
702,834	20,65
703,023	131,24
703,212	143,53
703,4	20,65
703,589	4,27
703,777	6,31
703,965	-96,08
704,154	4,27
704,342	-75,6
704,531	-44,88
704,719	-42,84
704,907	2,22
705,096	-32,6
705,284	-24,4
705,472	51,37
705,661	28,84
705,849	0,17
706,037	198,82
706,226	28,84
706,414	28,84
706,602	-51,03
706,79	77,99
706,979	-38,74
707,167	57,51
707,355	-126,8
707,543	28,84
707,731	55,47
707,919	0,17
708,107	32,94
708,296	-42,84
708,484	-24,4
708,672	32,94
708,86	51,37
709,048	-83,8
709,236	8,36
709,424	-20,31
709,612	28,84
709,8	-30,55
709,988	-14,17
710,176	110,76
710,364	59,56
710,551	10,41
710,739	-1,88
710,927	45,23
711,115	-1,88
711,303	143,53
711,491	159,91
711,679	-46,93
711,866	65,71
712,054	0,17
712,242	14,51
712,43	106,67
712,617	10,41
712,805	100,52
712,993	37,03
713,181	-167,76
713,368	96,43
713,556	-1,88
713,744	82,09
713,931	192,68
714,119	39,08
714,306	88,23
714,494	-75,6
714,682	24,75
714,869	-94,04
715,057	-79,7
715,244	-30,55
715,432	28,84
715,619	-59,22
715,807	18,6
715,994	-36,69
716,182	-67,41
716,369	94,38
716,556	57,51
716,744	-36,69
716,931	-38,74
717,119	26,79
717,306	-40,79
717,493	32,94
717,681	-5,97
717,868	-67,41
718,055	51,37
718,242	32,94
718,43	-40,79
718,617	77,99
718,804	12,46
718,991	92,33
719,179	82,09
719,366	63,66
719,553	26,79
719,74	-10,07
719,927	-32,6
720,114	4,27
720,301	-30,55
720,488	-8,02
720,676	6,31
720,863	133,29
721,05	209,06
721,237	53,42
721,424	106,67
721,611	14,51
721,798	-34,64
721,985	12,46
722,172	-40,79
722,358	-59,22
722,545	88,23
722,732	32,94
722,919	45,23
723,106	32,94
723,293	32,94
723,48	45,23
723,667	-36,69
723,853	61,61
724,04	39,08
724,227	102,57
724,414	-40,79
724,6	24,75
724,787	180,39
724,974	159,91
725,161	-59,22
725,347	-63,32
725,534	30,89
725,72	28,84
725,907	149,67
726,094	75,95
726,28	-5,97
726,467	-8,02
726,653	-67,41
726,84	118,95
727,027	147,62
727,213	37,03
727,4	80,04
727,586	30,89
727,773	41,13
727,959	104,62
728,145	-42,84
728,332	28,84
728,518	-65,36
728,705	61,61
728,891	71,85
729,077	-20,31
729,264	-8,02
729,45	-42,84
729,636	67,75
729,823	22,7
730,009	57,51
730,195	20,65
730,382	53,42
730,568	-89,94
730,754	6,31
730,94	20,65
731,126	30,89
731,313	24,75
731,499	-26,45
731,685	94,38
731,871	125,1
732,057	8,36
732,243	41,13
732,429	49,32
732,615	155,82
732,801	45,23
732,987	18,6
733,173	-8,02
733,359	-83,8
733,545	-40,79
733,731	2,22
733,917	90,28
734,103	10,41
734,289	73,9
734,475	14,51
734,661	213,16
734,847	59,56
735,033	30,89
735,219	45,23
735,404	-34,64
735,59	-5,97
735,776	24,75
735,962	77,99
736,148	18,6
736,333	108,71
736,519	53,42
736,705	32,94
736,89	92,33
737,076	-42,84
737,262	-40,79
737,447	-10,07
737,633	-38,74
737,819	110,76
738,004	-14,17
738,19	-44,88
738,375	28,84
738,561	151,72
738,747	-22,36
738,932	-44,88
739,118	143,53
739,303	102,57
739,489	84,14
739,674	-1,88
739,859	-53,08
740,045	55,47
740,23	37,03
740,416	-110,42
740,601	2,22
740,786	-3,93
740,972	-48,98
741,157	-42,84
741,342	-22,36
741,528	-110,42
741,713	80,04
741,898	12,46
742,084	2,22
742,269	-65,36
742,454	108,71
742,639	166,06
742,824	-34,64
743,01	159,91
743,195	114,86
743,38	4,27
743,565	0,17
743,75	18,6
743,935	153,77
744,12	143,53
744,305	-96,08
744,49	53,42
744,675	73,9
744,86	-51,03
745,045	96,43
745,23	-16,21
745,415	12,46
745,6	65,71
745,785	37,03
745,97	166,06
746,155	18,6
746,34	145,58
746,525	6,31
746,71	61,61
746,895	-36,69
747,079	-12,12
747,264	26,79
747,449	49,32
747,634	98,47
747,819	16,55
748,003	24,75
748,188	-53,08
748,373	118,95
748,557	69,8
748,742	-20,31
748,927	61,61
749,111	-46,93
749,296	24,75
749,481	45,23
749,665	45,23
749,85	12,46
750,034	65,71
750,219	47,27
750,404	8,36
750,588	37,03
750,773	-94,04
750,957	-10,07
751,141	4,27
751,326	67,75
751,51	-112,47
751,695	32,94
751,879	63,66
752,064	186,54
752,248	18,6
752,432	118,95
752,617	90,28
752,801	123,05
752,985	39,08
753,17	75,95
753,354	69,8
753,538	65,71
753,722	-69,46
753,907	-1,88
754,091	-122,71
754,275	75,95
754,459	-83,8
754,643	-34,64
754,828	43,18
755,012	90,28
755,196	-5,97
755,38	24,75
755,564	0,17
755,748	-53,08
755,932	135,34
756,116	90,28
756,3	98,47
756,484	32,94
756,668	39,08
756,852	-10,07
757,036	-77,65
757,22	0,17
757,404	-30,55
757,588	20,65
757,772	96,43
757,956	-24,4
758,14	192,68
758,323	-53,08
758,507	39,08
758,691	34,99
758,875	80,04
759,059	106,67
759,242	73,9
759,426	102,57
759,61	65,71
759,794	-1,88
759,977	18,6
760,161	245,93
760,345	123,05
760,528	57,51
760,712	110,76
760,895	61,61
761,079	39,08
761,263	-89,94
761,446	-36,69
761,63	14,51
761,813	104,62
761,997	-42,84
762,18	-24,4
762,364	53,42
762,547	-75,6
762,731	16,55
762,914	80,04
763,098	-26,45
763,281	-102,23
763,464	-18,26
763,648	55,47
763,831	-51,03
764,015	-100,18
764,198	147,62
764,381	-20,31
764,564	2,22
764,748	88,23
764,931	75,95
765,114	43,18
765,297	28,84
765,481	-20,31
765,664	57,51
765,847	-42,84
766,03	39,08
766,213	-1,88
766,397	61,61
766,58	-55,12
766,763	45,23
766,946	2,22
767,129	-61,27
767,312	63,66
767,495	69,8
767,678	-20,31
767,861	8,36
768,044	-36,69
768,227	-20,31
768,41	-26,45
768,593	20,65
768,776	92,33
768,959	28,84
769,142	106,67
769,324	61,61
769,507	28,84
769,69	0,17
769,873	-3,93
770,056	161,96
770,239	-24,4
770,421	39,08
770,604	75,95
770,787	59,56
770,97	84,14
771,152	-51,03
771,335	59,56
771,518	-36,69
771,7	141,48
771,883	184,49
772,066	-36,69
772,248	18,6
772,431	127,14
772,613	26,79
772,796	88,23
772,978	6,31
773,161	198,82
773,343	-18,26
773,526	-67,41
773,708	-122,71
773,891	-44,88
774,073	-34,64
774,256	-85,84
774,438	135,34
774,621	-75,6
774,803	59,56
774,985	24,75
775,168	118,95
775,35	-1,88
775,532	108,71
775,715	-61,27
775,897	41,13
776,079	84,14
776,261	143,53
776,444	305,32
776,626	364,71
776,808	604,32
776,99	614,56
777,173	921,76
777,355	962,72
777,537	1030,3
777,719	909,47
777,901	759,97
778,083	692,38
778,265	559,27
778,447	528,55
778,629	487,59
778,811	430,24
778,993	506,02
779,175	387,24
779,357	317,61
779,539	215,21
779,721	264,36
779,903	151,72
780,085	192,68
780,267	139,43
780,449	45,23
780,631	198,82
780,812	176,3
780,994	28,84
781,176	53,42
781,358	4,27
781,54	26,79
781,721	26,79
781,903	114,86
782,085	-22,36
782,267	112,81
782,448	-42,84
782,63	10,41
782,812	12,46
782,993	63,66
783,175	59,56
783,357	-20,31
783,538	77,99
783,72	-46,93
783,901	24,75
784,083	-30,55
784,264	51,37
784,446	-67,41
784,627	-51,03
784,809	65,71
784,99	-26,45
785,172	47,27
785,353	63,66
785,535	45,23
785,716	-91,99
785,897	-69,46
786,079	-20,31
786,26	24,75
786,441	49,32
786,623	-104,28
786,804	-130,9
786,985	-12,12
787,167	16,55
787,348	20,65
787,529	-3,93
787,71	174,25
787,891	-10,07
788,073	-71,51
788,254	-130,9
788,435	88,23
788,616	-18,26
788,797	-48,98
788,978	8,36
789,159	-10,07
789,34	53,42
789,522	6,31
789,703	-28,5
789,884	94,38
790,065	37,03
790,246	73,9
790,427	4,27
790,607	73,9
790,788	39,08
790,969	-128,85
791,15	34,99
791,331	-51,03
791,512	-57,17
791,693	-106,32
791,874	-12,12
792,054	170,15
792,235	67,75
792,416	-83,8
792,597	-18,26
792,778	8,36
792,958	28,84
793,139	43,18
793,32	110,76
793,5	-128,85
793,681	88,23
793,862	24,75
794,042	-16,21
794,223	-55,12
794,404	-81,75
794,584	-96,08
794,765	0,17
794,945	0,17
795,126	112,81
795,306	143,53
795,487	-5,97
795,667	63,66
795,848	-8,02
796,028	-18,26
796,209	45,23
796,389	75,95
796,57	49,32
796,75	-51,03
796,93	67,75
797,111	-3,93
797,291	-63,32
797,471	125,1
797,652	-73,56
797,832	-89,94
798,012	-1,88
798,192	30,89
798,373	-69,46
798,553	-32,6
798,733	102,57
798,913	-79,7
799,093	-40,79
799,274	75,95
799,454	84,14
799,634	43,18
799,814	82,09
799,994	51,37
800,174	34,99
800,354	0,17
800,534	-128,85
800,714	112,81
800,894	47,27
801,074	-63,32
801,254	-38,74
801,434	90,28
801,614	20,65
801,794	-3,93
801,974	1904,78
802,154	-67,41
802,334	110,76
802,514	18,6
802,693	-40,79
802,873	-57,17
803,053	98,47
803,233	47,27
803,413	6,31
803,592	-12,12
803,772	-5,97
803,952	0,17
804,131	-61,27
804,311	98,47
804,491	73,9
804,67	-8,02
804,85	-55,12
805,03	112,81
805,209	47,27
805,389	-42,84
805,568	-61,27
805,748	-34,64
805,928	6,31
806,107	69,8
806,287	-28,5
806,466	129,19
806,646	-42,84
806,825	22,7
807,004	-24,4
807,184	32,94
807,363	110,76
807,543	0,17
807,722	-100,18
807,901	-1,88
808,081	63,66
808,26	-73,56
808,439	-32,6
808,619	49,32
808,798	-75,6
808,977	61,61
809,156	90,28
809,336	32,94
809,515	88,23
809,694	-53,08
809,873	-85,84
810,052	77,99
810,231	147,62
810,411	-8,02
810,59	37,03
810,769	24,75
810,948	-5,97
811,127	-165,71
811,306	0,17
811,485	-79,7
811,664	102,57
811,843	-36,69
812,022	-55,12
812,201	-10,07
812,38	4,27
812,559	-48,98
812,737	82,09
812,916	-110,42
813,095	-116,56
813,274	8,36
813,453	-36,69
813,632	-10,07
813,811	96,43
813,989	-67,41
814,168	4,27
814,347	-102,23
814,526	24,75
814,704	96,43
814,883	104,62
815,062	-81,75
815,24	90,28
815,419	-8,02
815,598	14,51
815,776	-114,52
815,955	-77,65
816,133	-94,04
816,312	14,51
816,49	-36,69
816,669	14,51
816,847	0,17
817,026	110,76
817,204	-32,6
817,383	24,75
817,561	-32,6
817,74	-8,02
817,918	63,66
818,097	-61,27
818,275	10,41
818,453	49,32
818,632	32,94
818,81	12,46
818,988	0,17
819,167	-75,6
819,345	-12,12
819,523	-38,74
819,701	-16,21
819,879	-16,21
820,058	41,13
820,236	49,32
820,414	24,75
820,592	30,89
820,77	8,36
820,948	-61,27
821,127	-77,65
821,305	6,31
821,483	-81,75
821,661	82,09
821,839	22,7
822,017	-83,8
822,195	28,84
822,373	53,42
822,551	8,36
822,729	116,9
822,907	26,79
823,085	22,7
823,262	14,51
823,44	-75,6
823,618	-53,08
823,796	63,66
823,974	-8,02
824,152	-61,27
824,329	-40,79
824,507	-18,26
824,685	22,7
824,863	-51,03
825,04	-8,02
825,218	20,65
825,396	16,55
825,574	16,55
825,751	82,09
825,929	65,71
826,107	-108,37
826,284	32,94
826,462	-40,79
826,639	-116,56
826,817	-94,04
826,994	4,27
827,172	-71,51
827,349	49,32
827,527	-10,07
827,704	-110,42
827,882	90,28
828,059	45,23
828,237	-16,21
828,414	37,03
828,591	-124,76
828,769	-1,88
828,946	-12,12
829,124	43,18
829,301	96,43
829,478	4,27
829,655	26,79
829,833	24,75
830,01	-153,43
830,187	18,6
830,364	-16,21
830,542	-18,26
830,719	94,38
830,896	139,43
831,073	-34,64
831,25	4,27
831,427	28,84
831,604	-61,27
831,782	-59,22
831,959	65,71
832,136	-122,71
832,313	12,46
832,49	-120,66
832,667	-12,12
832,844	-81,75
833,021	39,08
833,198	-12,12
833,374	-30,55
833,551	-5,97
833,728	-24,4
833,905	88,23
834,082	-94,04
834,259	-71,51
834,436	73,9
834,612	-112,47
834,789	102,57
834,966	-65,36
835,143	59,56
835,319	0,17
835,496	61,61
835,673	32,94
835,85	61,61
836,026	-3,93
836,203	-30,55
836,38	-12,12
836,556	-44,88
836,733	-77,65
836,909	104,62
837,086	8,36
837,262	-98,13
837,439	-26,45
837,616	-96,08
837,792	-22,36
837,968	-46,93
838,145	-159,57
838,321	0,17
838,498	22,7
838,674	80,04
838,851	0,17
839,027	-5,97
839,203	45,23
839,38	43,18
839,556	-132,95
839,732	131,24
839,909	-26,45
840,085	55,47
840,261	-98,13
840,437	-71,51
840,614	-40,79
840,79	24,75
840,966	22,7
841,142	4,27
841,318	-102,23
841,494	69,8
841,671	102,57
841,847	10,41
842,023	-57,17
842,199	53,42
842,375	94,38
842,551	-61,27
842,727	-61,27
842,903	118,95
843,079	-85,84
843,255	149,67
843,431	22,7
843,607	73,9
843,783	-20,31
843,959	155,82
844,134	170,15
844,31	315,56
844,486	264,36
844,662	286,89
844,838	377
845,013	258,21
845,189	387,24
845,365	229,54
845,541	159,91
845,716	168,1
845,892	274,6
846,068	57,51
846,244	28,84
846,419	110,76
846,595	61,61
846,77	10,41
846,946	88,23
847,122	0,17
847,297	-38,74
847,473	168,1
847,648	-81,75
847,824	49,32
847,999	-108,37
848,175	4,27
848,35	51,37
848,526	94,38
848,701	123,05
848,876	63,66
849,052	155,82
849,227	6,31
849,403	-28,5
849,578	-53,08
849,753	39,08
849,929	20,65
850,104	-79,7
850,279	-67,41
850,454	-14,17
850,63	59,56
850,805	34,99
850,98	-5,97
851,155	-10,07
851,33	32,94
851,505	-40,79
851,681	196,78
851,856	-59,22
852,031	102,57
852,206	10,41
852,381	-151,38
852,556	22,7
852,731	-36,69
852,906	55,47
853,081	12,46
853,256	63,66
853,431	22,7
853,606	-100,18
853,781	-73,56
853,956	-120,66
854,131	-18,26
854,305	-104,28
854,48	-53,08
854,655	-3,93
854,83	-75,6
855,005	-20,31
855,18	8,36
855,354	-28,5
855,529	-3,93
855,704	6,31
855,879	67,75
856,053	-114,52
856,228	41,13
856,403	-48,98
856,577	65,71
856,752	-122,71
856,926	-94,04
857,101	6,31
857,276	-22,36
857,45	16,55
857,625	86,19
857,799	-5,97
857,974	8,36
858,148	-120,66
858,323	55,47
858,497	53,42
858,672	-75,6
858,846	-51,03
859,02	28,84
859,195	-137,04
859,369	-42,84
859,543	34,99
859,718	-71,51
859,892	-48,98
860,066	-67,41
860,241	-28,5
860,415	-30,55
860,589	49,32
860,763	-28,5
860,938	-53,08
861,112	59,56
861,286	-3,93
861,46	-18,26
861,634	-3,93
861,808	96,43
861,982	-36,69
862,157	-1,88
862,331	20,65
862,505	-69,46
862,679	-57,17
862,853	-46,93
863,027	45,23
863,201	145,58
863,375	-40,79
863,549	20,65
863,722	96,43
863,896	94,38
864,07	-38,74
864,244	-20,31
864,418	34,99
864,592	-3,93
864,766	-8,02
864,939	45,23
865,113	-32,6
865,287	102,57
865,461	-5,97
865,634	10,41
865,808	10,41
865,982	-63,32
866,156	20,65
866,329	-65,36
866,503	4,27
866,676	43,18
866,85	47,27
867,024	-51,03
867,197	75,95
867,371	30,89
867,544	-91,99
867,718	-94,04
867,891	47,27
868,065	-110,42
868,238	-14,17
868,412	59,56
868,585	45,23
868,759	14,51
868,932	-22,36
869,105	-77,65
869,279	45,23
869,452	-77,65
869,625	2,22
869,799	-46,93
869,972	-85,84
870,145	-10,07
870,319	84,14
870,492	-32,6
870,665	-20,31
870,838	-81,75
871,011	-83,8
871,185	-30,55
871,358	20,65
871,531	67,75
871,704	-16,21
871,877	32,94
872,05	-91,99
872,223	-57,17
872,396	-5,97
872,569	6,31
872,742	-94,04
872,915	-46,93
873,088	-53,08
873,261	-75,6
873,434	77,99
873,607	-85,84
873,78	110,76
873,953	-91,99
874,126	45,23
874,299	-3,93
874,471	-42,84
874,644	4,27
874,817	69,8
874,99	123,05
875,163	-44,88
875,335	47,27
875,508	-34,64
875,681	145,58
875,853	2,22
876,026	10,41
876,199	67,75
876,371	30,89
876,544	-1,88
876,717	92,33
876,889	-46,93
877,062	57,51
877,234	-20,31
877,407	-10,07
877,579	82,09
877,752	-42,84
877,924	49,32
878,097	39,08
878,269	-34,64
878,442	-24,4
878,614	4,27
878,786	-10,07
878,959	16,55
879,131	-44,88
879,303	-106,32
879,476	-36,69
879,648	129,19
879,82	-18,26
879,993	-1,88
880,165	-3,93
880,337	-77,65
880,509	-12,12
880,681	-182,1
880,854	-94,04
881,026	51,37
881,198	86,19
881,37	-42,84
881,542	-40,79
881,714	84,14
881,886	-67,41
882,058	0,17
882,23	57,51
882,402	-30,55
882,574	16,55
882,746	90,28
882,918	178,34
883,09	26,79
883,262	-110,42
883,434	75,95
883,606	-112,47
883,778	-42,84
883,95	143,53
884,122	-48,98
884,293	86,19
884,465	-55,12
884,637	118,95
884,809	-40,79
884,98	65,71
885,152	-55,12
885,324	-24,4
885,496	-26,45
885,667	-91,99
885,839	-5,97
886,011	112,81
886,182	0,17
886,354	-55,12
886,525	32,94
886,697	37,03
886,869	-18,26
887,04	-149,33
887,212	71,85
887,383	131,24
887,555	34,99
887,726	-32,6
887,897	-12,12
888,069	-3,93
888,24	30,89
888,412	12,46
888,583	32,94
888,754	-32,6
888,926	-149,33
889,097	-106,32
889,268	-104,28
889,44	22,7
889,611	-104,28
889,782	-51,03
889,953	-44,88
890,125	61,61
890,296	-77,65
890,467	-18,26
890,638	-63,32
890,809	12,46
890,98	8,36
891,151	-59,22
891,323	77,99
891,494	-28,5
891,665	-1,88
891,836	12,46
892,007	-44,88
892,178	45,23
892,349	-34,64
892,52	-77,65
892,691	-24,4
892,862	-87,89
893,032	-87,89
893,203	-55,12
893,374	28,84
893,545	-10,07
893,716	-55,12
893,887	-1,88
894,057	-104,28
894,228	8,36
894,399	-34,64
894,57	69,8
894,74	30,89
894,911	61,61
895,082	32,94
895,253	-22,36
895,423	-59,22
895,594	106,67
895,764	80,04
895,935	-145,24
896,106	26,79
896,276	-57,17
896,447	10,41
896,617	-36,69
896,788	-147,28
896,958	45,23
897,129	-10,07
897,299	-22,36
897,47	98,47
897,64	37,03
897,81	-73,56
897,981	-3,93
898,151	-94,04
898,322	75,95
898,492	2,22
898,662	-59,22
898,832	-40,79
899,003	10,41
899,173	37,03
899,343	-61,27
899,513	-63,32
