Data from deuterium_USB4F104151__22__10-57-07-576.txt Node

Date: Wed Apr 15 10:57:07 EDT 2026
User: LaboPhy
Spectrometer: USB4F10415
Trigger mode: 4
Integration Time (sec): 1,000000E-1
Scans to average: 1
Electric dark correction enabled: true
Nonlinearity correction enabled: false
Boxcar width: 0
XAxis mode: Wavelengths
Number of Pixels in Spectrum: 3648
>>>>>Begin Spectral Data<<<<<
178,204	-441,34
178,424	-441,34
178,644	-441,34
178,864	-498,68
179,084	-383,99
179,304	56,32
179,524	-7,17
179,744	-19,46
179,964	-33,79
180,184	56,32
180,404	58,37
180,624	-70,65
180,844	-44,03
181,064	-17,41
181,283	27,65
181,503	-54,27
181,723	48,13
181,943	-146,43
182,163	179,2
182,383	-46,08
182,602	-11,26
182,822	121,85
183,042	82,94
183,262	-58,37
183,482	7,17
183,701	39,94
183,921	39,94
184,141	-19,46
184,361	60,42
184,58	78,85
184,8	68,61
185,02	-31,74
185,239	80,89
185,459	80,89
185,679	121,85
185,898	-60,42
186,118	41,98
186,338	33,79
186,557	181,25
186,777	-80,89
186,997	-21,5
187,216	37,89
187,436	193,53
187,655	29,7
187,875	39,94
188,095	-17,41
188,314	232,44
188,534	132,09
188,753	1,02
188,973	185,34
189,192	222,2
189,412	-21,5
189,631	21,5
189,851	93,18
190,07	144,38
190,29	-72,7
190,509	-7,17
190,729	107,52
190,948	138,24
191,168	191,49
191,387	46,08
191,607	82,94
191,826	68,61
192,045	7,17
192,265	-39,94
192,484	9,22
192,704	15,36
192,923	-70,65
193,142	168,96
193,362	113,66
193,581	82,94
193,8	1,02
194,02	74,75
194,239	41,98
194,458	89,09
194,678	39,94
194,897	3,07
195,116	3,07
195,335	48,13
195,555	64,51
195,774	-50,18
195,993	117,76
196,212	48,13
196,432	-35,84
196,651	41,98
196,87	56,32
197,089	259,07
197,308	1,02
197,528	101,37
197,747	-7,17
197,966	91,13
198,185	146,43
198,404	-15,36
198,623	56,32
198,842	164,86
199,062	58,37
199,281	66,56
199,5	109,57
199,719	64,51
199,938	-9,22
200,157	97,28
200,376	109,57
200,595	46,08
200,814	27,65
201,033	-17,41
201,252	211,96
201,471	-15,36
201,69	50,18
201,909	17,41
202,128	80,89
202,347	29,7
202,566	31,74
202,785	-87,04
203,004	1,02
203,223	289,79
203,442	23,55
203,661	-21,5
203,879	115,71
204,098	191,49
204,317	-25,6
204,536	21,5
204,755	60,42
204,974	58,37
205,193	-68,61
205,411	-1,02
205,63	103,42
205,849	33,79
206,068	-11,26
206,287	-9,22
206,505	62,46
206,724	58,37
206,943	19,46
207,162	5,12
207,381	56,32
207,599	70,65
207,818	11,26
208,037	-23,55
208,255	66,56
208,474	15,36
208,693	-50,18
208,911	52,22
209,13	158,72
209,349	146,43
209,567	162,81
209,786	78,85
210,005	113,66
210,223	27,65
210,442	-93,18
210,661	35,84
210,879	60,42
211,098	25,6
211,316	7,17
211,535	119,81
211,753	-17,41
211,972	50,18
212,191	-21,5
212,409	52,22
212,628	119,81
212,846	-25,6
213,065	54,27
213,283	80,89
213,502	17,41
213,72	19,46
213,938	76,8
214,157	-29,7
214,375	121,85
214,594	37,89
214,812	80,89
215,031	-64,51
215,249	78,85
215,467	93,18
215,686	60,42
215,904	31,74
216,122	-9,22
216,341	228,35
216,559	101,37
216,778	111,61
216,996	138,24
217,214	17,41
217,432	-44,03
217,651	29,7
217,869	5,12
218,087	15,36
218,306	-27,65
218,524	1,02
218,742	17,41
218,96	80,89
219,179	-21,5
219,397	3,07
219,615	214,01
219,833	19,46
220,051	23,55
220,27	113,66
220,488	105,47
220,706	48,13
220,924	21,5
221,142	-29,7
221,36	25,6
221,578	80,89
221,796	17,41
222,015	-5,12
222,233	84,99
222,451	162,81
222,669	-121,85
222,887	70,65
223,105	-17,41
223,323	46,08
223,541	-54,27
223,759	84,99
223,977	66,56
224,195	105,47
224,413	181,25
224,631	50,18
224,849	37,89
225,067	230,4
225,285	-31,74
225,503	-23,55
225,721	-164,86
225,939	113,66
226,157	19,46
226,375	179,2
226,592	-87,04
226,81	25,6
227,028	115,71
227,246	93,18
227,464	15,36
227,682	64,51
227,9	78,85
228,117	50,18
228,335	58,37
228,553	31,74
228,771	117,76
228,989	31,74
229,206	76,8
229,424	-5,12
229,642	19,46
229,86	-25,6
230,077	58,37
230,295	101,37
230,513	179,2
230,731	13,31
230,948	164,86
231,166	115,71
231,384	105,47
231,601	35,84
231,819	156,67
232,037	-58,37
232,254	41,98
232,472	-5,12
232,689	-17,41
232,907	136,19
233,125	-33,79
233,342	-37,89
233,56	-29,7
233,777	17,41
233,995	-33,79
234,213	168,96
234,43	21,5
234,648	-35,84
234,865	-21,5
235,083	72,7
235,3	27,65
235,518	50,18
235,735	123,9
235,953	64,51
236,17	31,74
236,388	-1,02
236,605	39,94
236,822	70,65
237,04	179,2
237,257	39,94
237,475	-5,12
237,692	78,85
237,909	117,76
238,127	17,41
238,344	130,05
238,562	9,22
238,779	-91,13
238,996	35,84
239,214	-21,5
239,431	76,8
239,648	33,79
239,865	101,37
240,083	31,74
240,3	11,26
240,517	-17,41
240,735	-7,17
240,952	142,33
241,169	58,37
241,386	35,84
241,603	46,08
241,821	-70,65
242,038	74,75
242,255	70,65
242,472	-56,32
242,689	72,7
242,907	60,42
243,124	91,13
243,341	29,7
243,558	-17,41
243,775	-33,79
243,992	-70,65
244,209	113,66
244,426	181,25
244,643	50,18
244,86	-60,42
245,078	107,52
245,295	64,51
245,512	25,6
245,729	5,12
245,946	84,99
246,163	-5,12
246,38	58,37
246,597	-3,07
246,814	84,99
247,031	60,42
247,248	-44,03
247,464	60,42
247,681	35,84
247,898	35,84
248,115	37,89
248,332	-56,32
248,549	195,58
248,766	140,29
248,983	11,26
249,2	-5,12
249,417	76,8
249,633	-29,7
249,85	-21,5
250,067	-21,5
250,284	56,32
250,501	76,8
250,717	5,12
250,934	-99,33
251,151	31,74
251,368	64,51
251,585	78,85
251,801	37,89
252,018	7,17
252,235	168,96
252,451	-121,85
252,668	-33,79
252,885	158,72
253,102	-68,61
253,318	5,12
253,535	-52,22
253,752	-33,79
253,968	35,84
254,185	-68,61
254,401	74,75
254,618	89,09
254,835	-39,94
255,051	130,05
255,268	74,75
255,484	64,51
255,701	33,79
255,917	37,89
256,134	-54,27
256,351	15,36
256,567	-37,89
256,784	64,51
257	-52,22
257,217	177,15
257,433	107,52
257,65	15,36
257,866	74,75
258,082	-115,71
258,299	-37,89
258,515	66,56
258,732	-1,02
258,948	-25,6
259,165	44,03
259,381	-87,04
259,597	68,61
259,814	89,09
260,03	35,84
260,246	-33,79
260,463	115,71
260,679	101,37
260,895	78,85
261,112	70,65
261,328	-29,7
261,544	64,51
261,761	209,92
261,977	-19,46
262,193	-87,04
262,409	99,33
262,626	97,28
262,842	-13,31
263,058	-64,51
263,274	78,85
263,49	105,47
263,707	41,98
263,923	97,28
264,139	-173,05
264,355	50,18
264,571	64,51
264,787	93,18
265,004	134,14
265,22	17,41
265,436	-9,22
265,652	82,94
265,868	60,42
266,084	-87,04
266,3	60,42
266,516	-39,94
266,732	50,18
266,948	-5,12
267,164	31,74
267,38	140,29
267,596	39,94
267,812	91,13
268,028	35,84
268,244	66,56
268,46	-13,31
268,676	-13,31
268,892	105,47
269,108	-9,22
269,324	-9,22
269,54	-15,36
269,756	80,89
269,972	-107,52
270,188	-17,41
270,403	-58,37
270,619	64,51
270,835	21,5
271,051	7,17
271,267	19,46
271,483	-1,02
271,698	115,71
271,914	68,61
272,13	27,65
272,346	-9,22
272,562	91,13
272,777	91,13
272,993	64,51
273,209	-31,74
273,425	154,62
273,64	-66,56
273,856	50,18
274,072	-62,46
274,287	-58,37
274,503	134,14
274,719	31,74
274,934	1,02
275,15	-89,09
275,366	60,42
275,581	-1,02
275,797	39,94
276,012	97,28
276,228	72,7
276,444	13,31
276,659	99,33
276,875	-5,12
277,09	27,65
277,306	-99,33
277,521	41,98
277,737	29,7
277,952	195,58
278,168	29,7
278,383	27,65
278,599	29,7
278,814	99,33
279,03	68,61
279,245	130,05
279,461	29,7
279,676	140,29
279,892	-35,84
280,107	-31,74
280,322	-48,13
280,538	82,94
280,753	7,17
280,969	78,85
281,184	39,94
281,399	154,62
281,615	78,85
281,83	201,72
282,045	-58,37
282,26	-91,13
282,476	-44,03
282,691	107,52
282,906	144,38
283,122	-5,12
283,337	17,41
283,552	46,08
283,767	-72,7
283,983	66,56
284,198	11,26
284,413	48,13
284,628	-11,26
284,843	72,7
285,058	58,37
285,274	13,31
285,489	-15,36
285,704	113,66
285,919	39,94
286,134	-50,18
286,349	23,55
286,564	-17,41
286,779	103,42
286,995	-1,02
287,21	-46,08
287,425	17,41
287,64	-3,07
287,855	9,22
288,07	-87,04
288,285	91,13
288,5	140,29
288,715	68,61
288,93	19,46
289,145	11,26
289,36	48,13
289,575	21,5
289,79	64,51
290,004	-33,79
290,219	80,89
290,434	9,22
290,649	-48,13
290,864	50,18
291,079	7,17
291,294	39,94
291,509	56,32
291,724	-1,02
291,938	-1,02
292,153	103,42
292,368	-15,36
292,583	-25,6
292,798	39,94
293,012	64,51
293,227	95,23
293,442	27,65
293,657	84,99
293,871	97,28
294,086	62,46
294,301	220,16
294,516	113,66
294,73	-23,55
294,945	-66,56
295,16	44,03
295,374	68,61
295,589	87,04
295,804	29,7
296,018	37,89
296,233	101,37
296,447	19,46
296,662	-29,7
296,877	158,72
297,091	138,24
297,306	78,85
297,52	-7,17
297,735	84,99
297,949	-46,08
298,164	21,5
298,378	46,08
298,593	-41,98
298,807	5,12
299,022	82,94
299,236	142,33
299,451	23,55
299,665	7,17
299,88	-33,79
300,094	76,8
300,309	-62,46
300,523	41,98
300,737	41,98
300,952	-13,31
301,166	52,22
301,381	-41,98
301,595	41,98
301,809	48,13
302,024	21,5
302,238	-5,12
302,452	138,24
302,667	21,5
302,881	140,29
303,095	60,42
303,309	17,41
303,524	-23,55
303,738	-21,5
303,952	-119,81
304,166	1,02
304,381	-95,23
304,595	130,05
304,809	-66,56
305,023	-3,07
305,237	70,65
305,452	23,55
305,666	74,75
305,88	103,42
306,094	84,99
306,308	80,89
306,522	117,76
306,736	39,94
306,95	89,09
307,164	31,74
307,379	-1,02
307,593	164,86
307,807	68,61
308,021	121,85
308,235	97,28
308,449	-58,37
308,663	97,28
308,877	205,82
309,091	-9,22
309,305	66,56
309,519	-39,94
309,733	89,09
309,947	-117,76
310,161	52,22
310,374	140,29
310,588	162,81
310,802	7,17
311,016	11,26
311,23	66,56
311,444	-80,89
311,658	-5,12
311,872	125,95
312,085	87,04
312,299	224,25
312,513	130,05
312,727	70,65
312,941	11,26
313,154	113,66
313,368	78,85
313,582	41,98
313,796	103,42
314,009	31,74
314,223	130,05
314,437	72,7
314,651	168,96
314,864	70,65
315,078	7,17
315,292	-21,5
315,505	5,12
315,719	21,5
315,933	37,89
316,146	-11,26
316,36	-50,18
316,573	146,43
316,787	148,48
317,001	66,56
317,214	1,02
317,428	93,18
317,641	-1,02
317,855	-33,79
318,068	46,08
318,282	29,7
318,495	179,2
318,709	109,57
318,922	-13,31
319,136	195,58
319,349	132,09
319,563	-29,7
319,776	97,28
319,99	-66,56
320,203	50,18
320,417	31,74
320,63	21,5
320,843	185,34
321,057	44,03
321,27	-17,41
321,483	125,95
321,697	207,87
321,91	91,13
322,124	82,94
322,337	134,14
322,55	-41,98
322,763	50,18
322,977	-1,02
323,19	1,02
323,403	11,26
323,617	39,94
323,83	130,05
324,043	82,94
324,256	89,09
324,469	25,6
324,683	162,81
324,896	7,17
325,109	-9,22
325,322	-91,13
325,535	66,56
325,748	107,52
325,962	17,41
326,175	130,05
326,388	-3,07
326,601	189,44
326,814	21,5
327,027	-9,22
327,24	197,63
327,453	-89,09
327,666	103,42
327,879	140,29
328,092	-3,07
328,305	168,96
328,518	62,46
328,731	-29,7
328,944	70,65
329,157	101,37
329,37	56,32
329,583	226,3
329,796	93,18
330,009	5,12
330,222	56,32
330,435	109,57
330,648	64,51
330,861	105,47
331,073	132,09
331,286	146,43
331,499	76,8
331,712	31,74
331,925	95,23
332,138	82,94
332,35	109,57
332,563	56,32
332,776	181,25
332,989	-1,02
333,202	76,8
333,414	84,99
333,627	23,55
333,84	50,18
334,053	64,51
334,265	78,85
334,478	39,94
334,691	89,09
334,903	80,89
335,116	21,5
335,329	48,13
335,541	171,01
335,754	238,59
335,966	58,37
336,179	50,18
336,392	60,42
336,604	56,32
336,817	93,18
337,029	113,66
337,242	64,51
337,454	56,32
337,667	44,03
337,88	173,05
338,092	33,79
338,305	115,71
338,517	37,89
338,729	115,71
338,942	193,53
339,154	-23,55
339,367	-46,08
339,579	121,85
339,792	66,56
340,004	158,72
340,217	60,42
340,429	33,79
340,641	1,02
340,854	-39,94
341,066	17,41
341,278	66,56
341,491	207,87
341,703	93,18
341,915	-50,18
342,128	125,95
342,34	89,09
342,552	48,13
342,764	54,27
342,977	35,84
343,189	105,47
343,401	56,32
343,613	-11,26
343,826	44,03
344,038	-52,22
344,25	117,76
344,462	21,5
344,674	125,95
344,886	23,55
345,099	109,57
345,311	99,33
345,523	25,6
345,735	-76,8
345,947	80,89
346,159	105,47
346,371	64,51
346,583	50,18
346,795	173,05
347,007	91,13
347,219	195,58
347,431	128
347,643	125,95
347,855	5,12
348,067	121,85
348,279	-9,22
348,491	84,99
348,703	52,22
348,915	15,36
349,127	-15,36
349,339	21,5
349,551	-5,12
349,763	125,95
349,975	39,94
350,187	197,63
350,399	220,16
350,61	123,9
350,822	115,71
351,034	91,13
351,246	132,09
351,458	70,65
351,669	54,27
351,881	121,85
352,093	216,06
352,305	113,66
352,517	97,28
352,728	181,25
352,94	35,84
353,152	111,61
353,363	21,5
353,575	80,89
353,787	252,92
353,999	148,48
354,21	187,39
354,422	-121,85
354,633	3,07
354,845	60,42
355,057	27,65
355,268	66,56
355,48	166,91
355,692	3,07
355,903	132,09
356,115	-39,94
356,326	-7,17
356,538	230,4
356,749	138,24
356,961	179,2
357,172	9,22
357,384	-54,27
357,595	271,36
357,807	46,08
358,018	39,94
358,23	113,66
358,441	205,82
358,653	72,7
358,864	-23,55
359,075	-9,22
359,287	95,23
359,498	66,56
359,709	125,95
359,921	82,94
360,132	56,32
360,344	-41,98
360,555	33,79
360,766	113,66
360,977	15,36
361,189	134,14
361,4	123,9
361,611	121,85
361,823	136,19
362,034	87,04
362,245	-66,56
362,456	-27,65
362,667	109,57
362,879	80,89
363,09	156,67
363,301	101,37
363,512	39,94
363,723	27,65
363,935	-37,89
364,146	144,38
364,357	50,18
364,568	74,75
364,779	39,94
364,99	125,95
365,201	52,22
365,412	111,61
365,623	-46,08
365,834	11,26
366,045	95,23
366,256	121,85
366,467	109,57
366,678	78,85
366,889	123,9
367,1	-1,02
367,311	138,24
367,522	113,66
367,733	105,47
367,944	66,56
368,155	105,47
368,366	97,28
368,577	166,91
368,788	222,2
368,999	27,65
369,209	109,57
369,42	261,12
369,631	306,17
369,842	160,77
370,053	-25,6
370,264	191,49
370,474	-46,08
370,685	119,81
370,896	37,89
371,107	154,62
371,317	50,18
371,528	41,98
371,739	138,24
371,95	189,44
372,16	115,71
372,371	5,12
372,582	74,75
372,792	166,91
373,003	187,39
373,214	23,55
373,424	117,76
373,635	-3,07
373,846	121,85
374,056	144,38
374,267	70,65
374,477	105,47
374,688	50,18
374,898	99,33
375,109	62,46
375,319	97,28
375,53	166,91
375,74	146,43
375,951	-1,02
376,161	113,66
376,372	164,86
376,582	107,52
376,793	156,67
377,003	76,8
377,214	-41,98
377,424	201,72
377,635	58,37
377,845	23,55
378,055	220,16
378,266	89,09
378,476	115,71
378,686	142,33
378,897	121,85
379,107	171,01
379,317	158,72
379,528	31,74
379,738	138,24
379,948	35,84
380,158	158,72
380,369	39,94
380,579	130,05
380,789	138,24
380,999	107,52
381,21	218,11
381,42	216,06
381,63	11,26
381,84	158,72
382,05	99,33
382,261	160,77
382,471	216,06
382,681	54,27
382,891	211,96
383,101	179,2
383,311	37,89
383,521	46,08
383,731	146,43
383,941	181,25
384,151	105,47
384,361	64,51
384,571	95,23
384,781	76,8
384,991	209,92
385,201	240,64
385,411	166,91
385,621	142,33
385,831	158,72
386,041	64,51
386,251	97,28
386,461	130,05
386,671	97,28
386,881	121,85
387,091	91,13
387,301	134,14
387,511	154,62
387,72	101,37
387,93	136,19
388,14	-1,02
388,35	107,52
388,56	218,11
388,769	220,16
388,979	140,29
389,189	60,42
389,399	125,95
389,609	156,67
389,818	183,29
390,028	89,09
390,238	144,38
390,447	154,62
390,657	15,36
390,867	27,65
391,076	39,94
391,286	41,98
391,496	156,67
391,705	31,74
391,915	146,43
392,125	144,38
392,334	11,26
392,544	140,29
392,753	123,9
392,963	33,79
393,172	66,56
393,382	-9,22
393,591	248,83
393,801	48,13
394,01	220,16
394,22	33,79
394,429	37,89
394,639	72,7
394,848	125,95
395,058	50,18
395,267	138,24
395,477	142,33
395,686	66,56
395,895	248,83
396,105	338,94
396,314	103,42
396,524	109,57
396,733	109,57
396,942	201,72
397,152	119,81
397,361	203,77
397,57	181,25
397,78	216,06
397,989	166,91
398,198	254,97
398,407	125,95
398,617	76,8
398,826	99,33
399,035	162,81
399,244	142,33
399,453	80,89
399,663	87,04
399,872	160,77
400,081	-80,89
400,29	144,38
400,499	70,65
400,708	173,05
400,917	39,94
401,127	66,56
401,336	7,17
401,545	185,34
401,754	207,87
401,963	58,37
402,172	62,46
402,381	-11,26
402,59	-7,17
402,799	37,89
403,008	107,52
403,217	162,81
403,426	46,08
403,635	-13,31
403,844	62,46
404,053	15,36
404,262	-23,55
404,471	160,77
404,68	128
404,888	54,27
405,097	64,51
405,306	121,85
405,515	144,38
405,724	31,74
405,933	168,96
406,142	60,42
406,35	142,33
406,559	25,6
406,768	105,47
406,977	252,92
407,185	148,48
407,394	68,61
407,603	-31,74
407,812	134,14
408,02	193,53
408,229	58,37
408,438	148,48
408,646	72,7
408,855	123,9
409,064	199,68
409,272	164,86
409,481	259,07
409,69	193,53
409,898	273,4
410,107	316,41
410,315	297,98
410,524	216,06
410,733	185,34
410,941	236,54
411,15	193,53
411,358	205,82
411,567	228,35
411,775	187,39
411,984	121,85
412,192	179,2
412,401	78,85
412,609	185,34
412,818	132,09
413,026	95,23
413,234	27,65
413,443	58,37
413,651	17,41
413,86	56,32
414,068	158,72
414,276	265,21
414,485	50,18
414,693	218,11
414,901	138,24
415,11	54,27
415,318	-15,36
415,526	33,79
415,734	123,9
415,943	-5,12
416,151	220,16
416,359	66,56
416,567	117,76
416,776	33,79
416,984	203,77
417,192	140,29
417,4	-56,32
417,608	9,22
417,817	23,55
418,025	93,18
418,233	201,72
418,441	7,17
418,649	46,08
418,857	25,6
419,065	148,48
419,273	-46,08
419,481	48,13
419,689	-72,7
419,897	-39,94
420,105	17,41
420,313	68,61
420,521	109,57
420,729	113,66
420,937	70,65
421,145	13,31
421,353	87,04
421,561	140,29
421,769	27,65
421,977	21,5
422,185	136,19
422,393	-33,79
422,601	134,14
422,809	89,09
423,017	37,89
423,224	78,85
423,432	195,58
423,64	23,55
423,848	189,44
424,056	-25,6
424,263	48,13
424,471	64,51
424,679	35,84
424,887	50,18
425,094	148,48
425,302	82,94
425,51	5,12
425,718	87,04
425,925	-9,22
426,133	-35,84
426,341	113,66
426,548	82,94
426,756	-11,26
426,964	84,99
427,171	-15,36
427,379	109,57
427,586	58,37
427,794	41,98
428,001	179,2
428,209	33,79
428,417	154,62
428,624	89,09
428,832	5,12
429,039	80,89
429,247	84,99
429,454	66,56
429,662	203,77
429,869	99,33
430,076	27,65
430,284	46,08
430,491	119,81
430,699	156,67
430,906	203,77
431,114	44,03
431,321	107,52
431,528	113,66
431,736	9,22
431,943	250,88
432,15	285,69
432,358	263,16
432,565	498,68
432,772	279,55
432,979	629,75
433,187	683
433,394	861,17
433,601	861,17
433,808	1006,58
434,016	1084,4
434,223	1002,48
434,43	977,91
434,637	787,44
434,844	746,48
435,052	654,33
435,259	508,92
435,466	494,58
435,673	281,6
435,88	259,07
436,087	187,39
436,294	271,36
436,501	187,39
436,708	35,84
436,915	113,66
437,122	84,99
437,329	-72,7
437,537	35,84
437,743	39,94
437,95	214,01
438,157	113,66
438,364	56,32
438,571	37,89
438,778	177,15
438,985	123,9
439,192	150,53
439,399	64,51
439,606	68,61
439,813	93,18
440,02	187,39
440,227	267,26
440,433	97,28
440,64	68,61
440,847	15,36
441,054	103,42
441,261	134,14
441,467	39,94
441,674	11,26
441,881	101,37
442,088	27,65
442,294	179,2
442,501	123,9
442,708	115,71
442,914	82,94
443,121	97,28
443,328	84,99
443,534	130,05
443,741	46,08
443,948	-37,89
444,154	87,04
444,361	236,54
444,568	97,28
444,774	66,56
444,981	-64,51
445,187	84,99
445,394	27,65
445,6	58,37
445,807	54,27
446,013	15,36
446,22	-115,71
446,426	15,36
446,633	76,8
446,839	150,53
447,046	-23,55
447,252	121,85
447,459	-66,56
447,665	-7,17
447,871	117,76
448,078	187,39
448,284	62,46
448,491	111,61
448,697	140,29
448,903	138,24
449,11	52,22
449,316	7,17
449,522	128
449,728	154,62
449,935	150,53
450,141	-23,55
450,347	138,24
450,553	68,61
450,76	25,6
450,966	58,37
451,172	11,26
451,378	44,03
451,584	46,08
451,791	54,27
451,997	95,23
452,203	-35,84
452,409	142,33
452,615	107,52
452,821	3,07
453,027	50,18
453,233	199,68
453,44	-29,7
453,646	97,28
453,852	113,66
454,058	-25,6
454,264	74,75
454,47	142,33
454,676	41,98
454,882	56,32
455,088	115,71
455,294	35,84
455,5	87,04
455,705	66,56
455,911	68,61
456,117	-27,65
456,323	101,37
456,529	7,17
456,735	56,32
456,941	89,09
457,147	115,71
457,352	109,57
457,558	17,41
457,764	179,2
457,97	119,81
458,176	37,89
458,381	13,31
458,587	125,95
458,793	123,9
458,999	-60,42
459,204	95,23
459,41	144,38
459,616	80,89
459,821	164,86
460,027	-1,02
460,233	121,85
460,438	95,23
460,644	-5,12
460,85	119,81
461,055	164,86
461,261	72,7
461,466	39,94
461,672	60,42
461,878	107,52
462,083	207,87
462,289	-11,26
462,494	15,36
462,7	115,71
462,905	48,13
463,111	218,11
463,316	134,14
463,522	138,24
463,727	78,85
463,932	150,53
464,138	39,94
464,343	76,8
464,549	125,95
464,754	158,72
464,959	179,2
465,165	68,61
465,37	130,05
465,575	41,98
465,781	80,89
465,986	-44,03
466,191	91,13
466,397	158,72
466,602	177,15
466,807	109,57
467,012	58,37
467,218	111,61
467,423	-9,22
467,628	74,75
467,833	-3,07
468,038	46,08
468,244	-7,17
468,449	-15,36
468,654	148,48
468,859	64,51
469,064	58,37
469,269	35,84
469,474	191,49
469,679	254,97
469,885	111,61
470,09	58,37
470,295	84,99
470,5	7,17
470,705	95,23
470,91	101,37
471,115	177,15
471,32	11,26
471,525	181,25
471,73	164,86
471,935	93,18
472,139	46,08
472,344	17,41
472,549	56,32
472,754	97,28
472,959	95,23
473,164	27,65
473,369	97,28
473,574	66,56
473,778	166,91
473,983	156,67
474,188	107,52
474,393	56,32
474,598	80,89
474,802	29,7
475,007	29,7
475,212	181,25
475,417	89,09
475,621	218,11
475,826	-29,7
476,031	9,22
476,235	93,18
476,44	-31,74
476,645	99,33
476,849	-119,81
477,054	-48,13
477,259	11,26
477,463	166,91
477,668	302,08
477,872	183,29
478,077	99,33
478,282	-29,7
478,486	150,53
478,691	25,6
478,895	123,9
479,1	111,61
479,304	199,68
479,509	62,46
479,713	138,24
479,918	171,01
480,122	39,94
480,326	44,03
480,531	105,47
480,735	117,76
480,94	41,98
481,144	203,77
481,348	171,01
481,553	123,9
481,757	80,89
481,961	115,71
482,166	64,51
482,37	15,36
482,574	179,2
482,778	19,46
482,983	183,29
483,187	87,04
483,391	166,91
483,595	158,72
483,8	449,53
484,004	846,84
484,208	1303,53
484,412	2188,25
484,616	3302,35
484,821	4553,66
485,025	6005,67
485,229	7408,53
485,433	8627,07
485,637	9833,32
485,841	10447,71
486,045	10994,52
486,249	10775,39
486,453	9913,19
486,657	9016,18
486,861	7840,65
487,065	6546,33
487,269	5415,85
487,473	4250,56
487,677	3750,85
487,881	3204,05
488,085	2386,91
488,289	1881,06
488,493	1299,44
488,697	1027,06
488,901	668,66
489,105	459,77
489,309	257,02
489,512	226,3
489,716	230,4
489,92	132,09
490,124	132,09
490,328	148,48
490,531	134,14
490,735	207,87
490,939	25,6
491,143	173,05
491,346	142,33
491,55	107,52
491,754	119,81
491,958	138,24
492,161	138,24
492,365	82,94
492,569	76,8
492,772	156,67
492,976	205,82
493,18	52,22
493,383	37,89
493,587	115,71
493,79	144,38
493,994	25,6
494,197	111,61
494,401	93,18
494,605	19,46
494,808	33,79
495,012	113,66
495,215	179,2
495,419	146,43
495,622	74,75
495,825	-1,02
496,029	-17,41
496,232	60,42
496,436	56,32
496,639	156,67
496,843	41,98
497,046	3,07
497,249	222,2
497,453	64,51
497,656	44,03
497,859	103,42
498,063	23,55
498,266	95,23
498,469	-23,55
498,673	48,13
498,876	123,9
499,079	-17,41
499,282	48,13
499,485	273,4
499,689	162,81
499,892	185,34
500,095	70,65
500,298	-41,98
500,501	-99,33
500,705	107,52
500,908	109,57
501,111	-54,27
501,314	218,11
501,517	228,35
501,72	107,52
501,923	93,18
502,126	74,75
502,329	179,2
502,532	173,05
502,735	101,37
502,938	191,49
503,141	60,42
503,344	-29,7
503,547	173,05
503,75	-23,55
503,953	-11,26
504,156	140,29
504,359	121,85
504,562	15,36
504,765	54,27
504,968	158,72
505,17	80,89
505,373	123,9
505,576	84,99
505,779	87,04
505,982	-48,13
506,185	50,18
506,387	-15,36
506,59	142,33
506,793	103,42
506,996	-17,41
507,198	125,95
507,401	173,05
507,604	148,48
507,807	84,99
508,009	121,85
508,212	136,19
508,415	15,36
508,617	-13,31
508,82	93,18
509,022	93,18
509,225	130,05
509,428	64,51
509,63	41,98
509,833	9,22
510,035	238,59
510,238	117,76
510,44	-27,65
510,643	119,81
510,845	121,85
511,048	103,42
511,25	105,47
511,453	99,33
511,655	68,61
511,858	154,62
512,06	193,53
512,262	60,42
512,465	33,79
512,667	82,94
512,87	41,98
513,072	189,44
513,274	154,62
513,477	25,6
513,679	82,94
513,881	60,42
514,084	-7,17
514,286	134,14
514,488	134,14
514,69	21,5
514,893	11,26
515,095	60,42
515,297	-15,36
515,499	87,04
515,701	-11,26
515,904	125,95
516,106	146,43
516,308	146,43
516,51	91,13
516,712	48,13
516,914	125,95
517,116	-37,89
517,318	93,18
517,52	91,13
517,722	181,25
517,925	-3,07
518,127	136,19
518,329	130,05
518,531	-41,98
518,733	89,09
518,935	52,22
519,136	82,94
519,338	-3,07
519,54	5,12
519,742	11,26
519,944	115,71
520,146	84,99
520,348	117,76
520,55	93,18
520,752	3,07
520,954	13,31
521,155	13,31
521,357	60,42
521,559	93,18
521,761	164,86
521,963	52,22
522,164	46,08
522,366	93,18
522,568	33,79
522,77	160,77
522,971	146,43
523,173	-50,18
523,375	80,89
523,576	-23,55
523,778	15,36
523,98	-33,79
524,181	89,09
524,383	150,53
524,584	37,89
524,786	44,03
524,988	-33,79
525,189	15,36
525,391	146,43
525,592	-9,22
525,794	11,26
525,995	44,03
526,197	87,04
526,398	295,93
526,6	72,7
526,801	76,8
527,003	-54,27
527,204	80,89
527,406	95,23
527,607	74,75
527,808	7,17
528,01	87,04
528,211	142,33
528,412	-37,89
528,614	95,23
528,815	97,28
529,016	128
529,218	44,03
529,419	84,99
529,62	17,41
529,822	164,86
530,023	33,79
530,224	103,42
530,425	168,96
530,626	52,22
530,828	97,28
531,029	-3,07
531,23	128
531,431	-82,94
531,632	162,81
531,833	-82,94
532,035	-15,36
532,236	-44,03
532,437	158,72
532,638	62,46
532,839	-31,74
533,04	152,57
533,241	144,38
533,442	29,7
533,643	9,22
533,844	-5,12
534,045	-58,37
534,246	44,03
534,447	21,5
534,648	-3,07
534,849	109,57
535,05	56,32
535,251	-115,71
535,451	117,76
535,652	78,85
535,853	33,79
536,054	80,89
536,255	29,7
536,456	99,33
536,657	7,17
536,857	35,84
537,058	74,75
537,259	48,13
537,46	97,28
537,66	23,55
537,861	3,07
538,062	29,7
538,263	-15,36
538,463	138,24
538,664	84,99
538,865	-39,94
539,065	87,04
539,266	41,98
539,466	56,32
539,667	179,2
539,868	35,84
540,068	48,13
540,269	105,47
540,469	91,13
540,67	95,23
540,87	140,29
541,071	-7,17
541,271	62,46
541,472	48,13
541,672	105,47
541,873	19,46
542,073	15,36
542,274	50,18
542,474	74,75
542,675	50,18
542,875	66,56
543,075	-46,08
543,276	115,71
543,476	56,32
543,676	74,75
543,877	56,32
544,077	113,66
544,277	211,96
544,478	56,32
544,678	50,18
544,878	27,65
545,078	17,41
545,279	50,18
545,479	27,65
545,679	-15,36
545,879	3,07
546,079	93,18
546,28	-58,37
546,48	115,71
546,68	168,96
546,88	84,99
547,08	23,55
547,28	97,28
547,48	-58,37
547,68	125,95
547,88	41,98
548,081	62,46
548,281	-52,22
548,481	-13,31
548,681	93,18
548,881	72,7
549,081	148,48
549,28	23,55
549,48	70,65
549,68	93,18
549,88	11,26
550,08	-56,32
550,28	-1,02
550,48	84,99
550,68	105,47
550,88	23,55
551,08	11,26
551,279	128
551,479	-3,07
551,679	128
551,879	23,55
552,079	39,94
552,278	91,13
552,478	261,12
552,678	72,7
552,878	117,76
553,077	-3,07
553,277	7,17
553,477	39,94
553,676	115,71
553,876	35,84
554,076	93,18
554,275	60,42
554,475	41,98
554,674	99,33
554,874	9,22
555,074	-5,12
555,273	-7,17
555,473	9,22
555,672	56,32
555,872	80,89
556,071	113,66
556,271	72,7
556,47	123,9
556,67	21,5
556,869	35,84
557,068	-27,65
557,268	64,51
557,467	21,5
557,667	216,06
557,866	21,5
558,065	-33,79
558,265	91,13
558,464	-29,7
558,663	39,94
558,863	125,95
559,062	37,89
559,261	97,28
559,461	54,27
559,66	62,46
559,859	-19,46
560,058	-80,89
560,258	-99,33
560,457	80,89
560,656	199,68
560,855	35,84
561,054	62,46
561,253	142,33
561,453	132,09
561,652	17,41
561,851	1,02
562,05	41,98
562,249	-37,89
562,448	37,89
562,647	-82,94
562,846	-19,46
563,045	97,28
563,244	15,36
563,443	119,81
563,642	50,18
563,841	164,86
564,04	-9,22
564,239	62,46
564,438	58,37
564,637	-19,46
564,836	3,07
565,035	-41,98
565,234	17,41
565,432	134,14
565,631	84,99
565,83	93,18
566,029	-13,31
566,228	19,46
566,427	128
566,625	-84,99
566,824	119,81
567,023	33,79
567,222	66,56
567,42	-41,98
567,619	33,79
567,818	31,74
568,016	166,91
568,215	-25,6
568,414	144,38
568,612	25,6
568,811	148,48
569,01	48,13
569,208	17,41
569,407	130,05
569,605	142,33
569,804	46,08
570,002	115,71
570,201	17,41
570,4	138,24
570,598	105,47
570,797	70,65
570,995	-46,08
571,193	107,52
571,392	68,61
571,59	11,26
571,789	230,4
571,987	177,15
572,186	246,78
572,384	111,61
572,582	91,13
572,781	248,83
572,979	5,12
573,177	115,71
573,376	44,03
573,574	123,9
573,772	105,47
573,971	-1,02
574,169	-44,03
574,367	162,81
574,565	80,89
574,763	115,71
574,962	89,09
575,16	74,75
575,358	52,22
575,556	171,01
575,754	121,85
575,952	87,04
576,151	185,34
576,349	201,72
576,547	56,32
576,745	144,38
576,943	134,14
577,141	121,85
577,339	25,6
577,537	111,61
577,735	191,49
577,933	138,24
578,131	44,03
578,329	343,03
578,527	101,37
578,725	211,96
578,923	5,12
579,121	199,68
579,319	48,13
579,516	109,57
579,714	349,18
579,912	89,09
580,11	66,56
580,308	150,53
580,506	134,14
580,704	11,26
580,901	70,65
581,099	216,06
581,297	130,05
581,495	242,68
581,692	146,43
581,89	273,4
582,088	175,1
582,285	224,25
582,483	93,18
582,681	9,22
582,878	150,53
583,076	191,49
583,274	164,86
583,471	203,77
583,669	97,28
583,866	89,09
584,064	93,18
584,262	60,42
584,459	50,18
584,657	171,01
584,854	248,83
585,052	173,05
585,249	195,58
585,447	31,74
585,644	19,46
585,841	160,77
586,039	109,57
586,236	222,2
586,434	50,18
586,631	-5,12
586,828	19,46
587,026	164,86
587,223	-41,98
587,42	97,28
587,618	50,18
587,815	205,82
588,012	80,89
588,21	72,7
588,407	181,25
588,604	168,96
588,801	-9,22
588,999	107,52
589,196	119,81
589,393	9,22
589,59	152,57
589,787	105,47
589,984	70,65
590,182	117,76
590,379	72,7
590,576	56,32
590,773	68,61
590,97	111,61
591,167	162,81
591,364	140,29
591,561	89,09
591,758	162,81
591,955	146,43
592,152	15,36
592,349	93,18
592,546	119,81
592,743	46,08
592,94	115,71
593,137	66,56
593,334	132,09
593,531	115,71
593,727	144,38
593,924	91,13
594,121	109,57
594,318	37,89
594,515	160,77
594,712	193,53
594,908	154,62
595,105	17,41
595,302	132,09
595,499	105,47
595,696	214,01
595,892	97,28
596,089	171,01
596,286	15,36
596,482	199,68
596,679	101,37
596,876	76,8
597,072	179,2
597,269	123,9
597,466	132,09
597,662	113,66
597,859	-27,65
598,055	54,27
598,252	144,38
598,448	99,33
598,645	183,29
598,841	84,99
599,038	171,01
599,234	162,81
599,431	158,72
599,627	271,36
599,824	58,37
600,02	84,99
600,217	39,94
600,413	128
600,609	121,85
600,806	400,38
601,002	123,9
601,198	50,18
601,395	193,53
601,591	144,38
601,787	23,55
601,984	195,58
602,18	117,76
602,376	76,8
602,572	191,49
602,769	214,01
602,965	105,47
603,161	125,95
603,357	207,87
603,553	240,64
603,75	7,17
603,946	46,08
604,142	158,72
604,338	201,72
604,534	15,36
604,73	44,03
604,926	23,55
605,122	211,96
605,318	99,33
605,514	138,24
605,71	11,26
605,906	142,33
606,102	144,38
606,298	222,2
606,494	162,81
606,69	166,91
606,886	46,08
607,082	107,52
607,278	50,18
607,474	187,39
607,67	146,43
607,866	-39,94
608,062	160,77
608,257	72,7
608,453	9,22
608,649	121,85
608,845	-54,27
609,041	89,09
609,236	54,27
609,432	103,42
609,628	132,09
609,824	115,71
610,019	87,04
610,215	97,28
610,411	203,77
610,606	191,49
610,802	52,22
610,998	15,36
611,193	199,68
611,389	-23,55
611,584	125,95
611,78	27,65
611,976	52,22
612,171	220,16
612,367	191,49
612,562	101,37
612,758	193,53
612,953	-5,12
613,149	7,17
613,344	72,7
613,539	80,89
613,735	103,42
613,93	78,85
614,126	48,13
614,321	13,31
614,517	171,01
614,712	203,77
614,907	248,83
615,103	99,33
615,298	74,75
615,493	29,7
615,688	87,04
615,884	80,89
616,079	72,7
616,274	121,85
616,47	-21,5
616,665	31,74
616,86	52,22
617,055	91,13
617,25	11,26
617,445	70,65
617,641	76,8
617,836	74,75
618,031	33,79
618,226	117,76
618,421	115,71
618,616	23,55
618,811	60,42
619,006	-29,7
619,201	195,58
619,396	97,28
619,591	56,32
619,786	76,8
619,981	154,62
620,176	93,18
620,371	33,79
620,566	39,94
620,761	130,05
620,956	62,46
621,151	11,26
621,346	146,43
621,541	-50,18
621,735	173,05
621,93	56,32
622,125	41,98
622,32	15,36
622,515	-111,61
622,709	125,95
622,904	130,05
623,099	1,02
623,294	138,24
623,488	156,67
623,683	33,79
623,878	44,03
624,072	107,52
624,267	-21,5
624,462	25,6
624,656	-62,46
624,851	70,65
625,046	19,46
625,24	3,07
625,435	3,07
625,629	80,89
625,824	134,14
626,018	121,85
626,213	105,47
626,407	-17,41
626,602	74,75
626,796	-11,26
626,991	164,86
627,185	-9,22
627,38	31,74
627,574	175,1
627,768	113,66
627,963	54,27
628,157	97,28
628,352	25,6
628,546	109,57
628,74	97,28
628,935	41,98
629,129	50,18
629,323	156,67
629,517	25,6
629,712	41,98
629,906	-44,03
630,1	111,61
630,294	166,91
630,489	78,85
630,683	11,26
630,877	91,13
631,071	117,76
631,265	52,22
631,459	138,24
631,653	-7,17
631,848	64,51
632,042	125,95
632,236	9,22
632,43	144,38
632,624	66,56
632,818	56,32
633,012	136,19
633,206	29,7
633,4	37,89
633,594	97,28
633,788	72,7
633,982	82,94
634,176	195,58
634,369	50,18
634,563	41,98
634,757	-25,6
634,951	113,66
635,145	138,24
635,339	56,32
635,533	89,09
635,726	64,51
635,92	82,94
636,114	-5,12
636,308	39,94
636,501	48,13
636,695	187,39
636,889	9,22
637,083	1,02
637,276	-3,07
637,47	80,89
637,664	82,94
637,857	25,6
638,051	-44,03
638,244	70,65
638,438	66,56
638,632	156,67
638,825	-48,13
639,019	171,01
639,212	19,46
639,406	158,72
639,599	39,94
639,793	105,47
639,986	91,13
640,18	175,1
640,373	66,56
640,567	13,31
640,76	107,52
640,954	74,75
641,147	-39,94
641,34	37,89
641,534	93,18
641,727	160,77
641,92	109,57
642,114	187,39
642,307	54,27
642,5	128
642,694	29,7
642,887	123,9
643,08	195,58
643,273	162,81
643,467	60,42
643,66	15,36
643,853	-5,12
644,046	111,61
644,239	123,9
644,432	5,12
644,626	-44,03
644,819	31,74
645,012	-1,02
645,205	187,39
645,398	175,1
645,591	70,65
645,784	-21,5
645,977	39,94
646,17	54,27
646,363	41,98
646,556	25,6
646,749	-41,98
646,942	-25,6
647,135	216,06
647,328	19,46
647,521	115,71
647,714	78,85
647,907	103,42
648,099	-3,07
648,292	187,39
648,485	115,71
648,678	56,32
648,871	66,56
649,064	103,42
649,256	-21,5
649,449	41,98
649,642	-3,07
649,835	11,26
650,027	9,22
650,22	101,37
650,413	60,42
650,605	138,24
650,798	80,89
650,991	27,65
651,183	101,37
651,376	150,53
651,568	224,25
651,761	97,28
651,954	232,44
652,146	175,1
652,339	197,63
652,531	242,68
652,724	113,66
652,916	62,46
653,109	52,22
653,301	207,87
653,494	160,77
653,686	220,16
653,879	269,31
654,071	320,51
654,263	283,64
654,456	594,93
654,648	2298,84
654,84	6831
655,033	15069,98
655,225	25840,25
655,417	37556,67
655,61	48066,85
655,802	56115,37
655,994	60897,37
656,186	62457,93
656,379	59713,65
656,571	55691,44
656,763	49930,5
656,955	45668,68
657,148	41374,09
657,34	37861,82
657,532	33993,21
657,724	30589,49
657,916	27015,78
658,108	23124,64
658,3	19251,93
658,492	16220,94
658,684	12974,91
658,876	10957,66
659,068	8510,33
659,26	6501,28
659,452	5149,62
659,644	3687,37
659,836	2714,58
660,028	1917,92
660,22	1379,31
660,412	1031,15
660,604	668,66
660,796	584,7
660,988	558,07
661,18	326,65
661,372	336,89
661,563	289,79
661,755	349,18
661,947	105,47
662,139	164,86
662,331	230,4
662,522	181,25
662,714	52,22
662,906	19,46
663,097	74,75
663,289	76,8
663,481	23,55
663,673	111,61
663,864	173,05
664,056	162,81
664,247	-46,08
664,439	132,09
664,631	117,76
664,822	191,49
665,014	150,53
665,205	-11,26
665,397	99,33
665,588	64,51
665,78	76,8
665,971	138,24
666,163	31,74
666,354	101,37
666,546	-29,7
666,737	-41,98
666,929	41,98
667,12	-48,13
667,311	183,29
667,503	50,18
667,694	52,22
667,885	130,05
668,077	119,81
668,268	41,98
668,459	-15,36
668,651	72,7
668,842	154,62
669,033	11,26
669,224	-93,18
669,416	277,5
669,607	39,94
669,798	56,32
669,989	115,71
670,18	54,27
670,371	146,43
670,563	-44,03
670,754	56,32
670,945	64,51
671,136	60,42
671,327	-9,22
671,518	39,94
671,709	134,14
671,9	185,34
672,091	138,24
672,282	27,65
672,473	89,09
672,664	-41,98
672,855	72,7
673,046	39,94
673,237	162,81
673,428	48,13
673,619	91,13
673,809	-64,51
674	142,33
674,191	123,9
674,382	-25,6
674,573	-62,46
674,764	56,32
674,954	107,52
675,145	-31,74
675,336	-50,18
675,527	31,74
675,717	5,12
675,908	-5,12
676,099	9,22
676,289	144,38
676,48	-70,65
676,671	89,09
676,861	-19,46
677,052	60,42
677,243	-35,84
677,433	31,74
677,624	-11,26
677,814	68,61
678,005	-15,36
678,195	105,47
678,386	-1,02
678,576	33,79
678,767	-44,03
678,957	66,56
679,148	93,18
679,338	111,61
679,529	50,18
679,719	-60,42
679,909	181,25
680,1	97,28
680,29	-46,08
680,481	-119,81
680,671	152,57
680,861	48,13
681,052	5,12
681,242	-29,7
681,432	41,98
681,622	-5,12
681,813	-136,19
682,003	-9,22
682,193	-70,65
682,383	25,6
682,573	-9,22
682,764	-60,42
682,954	-44,03
683,144	158,72
683,334	-27,65
683,524	-33,79
683,714	111,61
683,904	64,51
684,094	3,07
684,284	-25,6
684,474	150,53
684,664	41,98
684,854	-23,55
685,044	-15,36
685,234	-68,61
685,424	29,7
685,614	-54,27
685,804	195,58
685,994	66,56
686,184	-5,12
686,374	-21,5
686,564	7,17
686,753	-5,12
686,943	-58,37
687,133	-27,65
687,323	15,36
687,513	50,18
687,702	5,12
687,892	60,42
688,082	119,81
688,272	130,05
688,461	19,46
688,651	132,09
688,841	97,28
689,03	68,61
689,22	37,89
689,41	121,85
689,599	37,89
689,789	-66,56
689,979	111,61
690,168	91,13
690,358	89,09
690,547	13,31
690,737	52,22
690,926	21,5
691,116	56,32
691,305	70,65
691,495	97,28
691,684	-3,07
691,874	39,94
692,063	101,37
692,252	41,98
692,442	66,56
692,631	-68,61
692,82	31,74
693,01	23,55
693,199	-19,46
693,388	105,47
693,578	-9,22
693,767	87,04
693,956	60,42
694,146	62,46
694,335	41,98
694,524	89,09
694,713	136,19
694,902	21,5
695,092	60,42
695,281	130,05
695,47	33,79
695,659	-37,89
695,848	-1,02
696,037	-56,32
696,226	46,08
696,415	52,22
696,604	160,77
696,793	48,13
696,982	82,94
697,171	160,77
697,36	1,02
697,549	-5,12
697,738	-115,71
697,927	111,61
698,116	-41,98
698,305	50,18
698,494	37,89
698,683	17,41
698,872	248,83
699,061	39,94
699,25	64,51
699,438	-9,22
699,627	-19,46
699,816	162,81
700,005	-25,6
700,193	-33,79
700,382	115,71
700,571	52,22
700,76	91,13
700,948	105,47
701,137	74,75
701,326	62,46
701,514	-89,09
701,703	64,51
701,892	60,42
702,08	232,44
702,269	56,32
702,457	-13,31
702,646	37,89
702,834	7,17
703,023	128
703,212	148,48
703,4	17,41
703,589	-44,03
703,777	-13,31
703,965	-11,26
704,154	-33,79
704,342	-31,74
704,531	-9,22
704,719	-7,17
704,907	101,37
705,096	-91,13
705,284	-74,75
705,472	-31,74
705,661	21,5
705,849	72,7
706,037	72,7
706,226	101,37
706,414	-5,12
706,602	-21,5
706,79	50,18
706,979	-17,41
707,167	29,7
707,355	-91,13
707,543	31,74
707,731	72,7
707,919	46,08
708,107	17,41
708,296	19,46
708,484	-78,85
708,672	60,42
708,86	33,79
709,048	-33,79
709,236	-93,18
709,424	117,76
709,612	46,08
709,8	-68,61
709,988	76,8
710,176	105,47
710,364	142,33
710,551	17,41
710,739	-41,98
710,927	17,41
711,115	74,75
711,303	84,99
711,491	54,27
711,679	-37,89
711,866	162,81
712,054	27,65
712,242	84,99
712,43	62,46
712,617	-58,37
712,805	115,71
712,993	72,7
713,181	-46,08
713,368	21,5
713,556	-11,26
713,744	44,03
713,931	195,58
714,119	89,09
714,306	33,79
714,494	17,41
714,682	-23,55
714,869	-74,75
715,057	15,36
715,244	-132,09
715,432	37,89
715,619	-74,75
715,807	-29,7
715,994	-15,36
716,182	41,98
716,369	84,99
716,556	11,26
716,744	-111,61
716,931	-39,94
717,119	11,26
717,306	54,27
717,493	78,85
717,681	-91,13
717,868	-115,71
718,055	113,66
718,242	-78,85
718,43	76,8
718,617	72,7
718,804	-19,46
718,991	89,09
719,179	58,37
719,366	101,37
719,553	23,55
719,74	15,36
719,927	15,36
720,114	-37,89
720,301	-41,98
720,488	-17,41
720,676	-80,89
720,863	115,71
721,05	197,63
721,237	56,32
721,424	35,84
721,611	60,42
721,798	-189,44
721,985	-87,04
722,172	62,46
722,358	-3,07
722,545	101,37
722,732	-5,12
722,919	72,7
723,106	64,51
723,293	19,46
723,48	-87,04
723,667	-66,56
723,853	89,09
724,04	48,13
724,227	31,74
724,414	-9,22
724,6	66,56
724,787	99,33
724,974	134,14
725,161	11,26
725,347	-41,98
725,534	-46,08
725,72	-7,17
725,907	183,29
726,094	87,04
726,28	1,02
726,467	13,31
726,653	5,12
726,84	154,62
727,027	84,99
727,213	-13,31
727,4	-17,41
727,586	87,04
727,773	70,65
727,959	3,07
728,145	21,5
728,332	70,65
728,518	-54,27
728,705	91,13
728,891	15,36
729,077	-13,31
729,264	-25,6
729,45	1,02
729,636	76,8
729,823	33,79
730,009	58,37
730,195	33,79
730,382	27,65
730,568	-50,18
730,754	89,09
730,94	5,12
731,126	-39,94
731,313	17,41
731,499	-39,94
731,685	78,85
731,871	44,03
732,057	39,94
732,243	121,85
732,429	9,22
732,615	113,66
732,801	31,74
732,987	-23,55
733,173	68,61
733,359	-74,75
733,545	-39,94
733,731	-15,36
733,917	211,96
734,103	33,79
734,289	39,94
734,475	21,5
734,661	187,39
734,847	46,08
735,033	11,26
735,219	58,37
735,404	7,17
735,59	-25,6
735,776	-48,13
735,962	-5,12
736,148	60,42
736,333	68,61
736,519	-1,02
736,705	-13,31
736,89	-13,31
737,076	-5,12
737,262	-140,29
737,447	-56,32
737,633	19,46
737,819	136,19
738,004	-11,26
738,19	23,55
738,375	46,08
738,561	132,09
738,747	11,26
738,932	-70,65
739,118	177,15
739,303	46,08
739,489	105,47
739,674	-56,32
739,859	27,65
740,045	52,22
740,23	9,22
740,416	-113,66
740,601	33,79
740,786	15,36
740,972	-15,36
741,157	-9,22
741,342	-107,52
741,528	-13,31
741,713	105,47
741,898	-29,7
742,084	-23,55
742,269	60,42
742,454	48,13
742,639	99,33
742,824	23,55
743,01	93,18
743,195	144,38
743,38	97,28
743,565	-15,36
743,75	134,14
743,935	84,99
744,12	84,99
744,305	-78,85
744,49	17,41
744,675	-1,02
744,86	-27,65
745,045	27,65
745,23	44,03
745,415	48,13
745,6	125,95
745,785	-13,31
745,97	136,19
746,155	-1,02
746,34	134,14
746,525	7,17
746,71	107,52
746,895	-93,18
747,079	-58,37
747,264	-5,12
747,449	148,48
747,634	64,51
747,819	-11,26
748,003	31,74
748,188	-9,22
748,373	125,95
748,557	80,89
748,742	-1,02
748,927	41,98
749,111	1,02
749,296	13,31
749,481	41,98
749,665	93,18
749,85	-119,81
750,034	78,85
750,219	-27,65
750,404	-17,41
750,588	93,18
750,773	31,74
750,957	54,27
751,141	15,36
751,326	48,13
751,51	-62,46
751,695	-31,74
751,879	-50,18
752,064	164,86
752,248	-5,12
752,432	175,1
752,617	74,75
752,801	123,9
752,985	-23,55
753,17	171,01
753,354	41,98
753,538	23,55
753,722	1,02
753,907	89,09
754,091	-31,74
754,275	99,33
754,459	-105,47
754,643	21,5
754,828	72,7
755,012	72,7
755,196	-60,42
755,38	25,6
755,564	-25,6
755,748	-15,36
755,932	101,37
756,116	33,79
756,3	144,38
756,484	11,26
756,668	123,9
756,852	-82,94
757,036	27,65
757,22	15,36
757,404	-62,46
757,588	17,41
757,772	-33,79
757,956	19,46
758,14	191,49
758,323	-62,46
758,507	119,81
758,691	-17,41
758,875	37,89
759,059	105,47
759,242	89,09
759,426	33,79
759,61	66,56
759,794	5,12
759,977	64,51
760,161	287,74
760,345	187,39
760,528	179,2
760,712	54,27
760,895	33,79
761,079	-5,12
761,263	35,84
761,446	76,8
761,63	-1,02
761,813	138,24
761,997	-58,37
762,18	25,6
762,364	99,33
762,547	-89,09
762,731	87,04
762,914	64,51
763,098	13,31
763,281	-19,46
763,464	-25,6
763,648	17,41
763,831	25,6
764,015	21,5
764,198	50,18
764,381	48,13
764,564	23,55
764,748	-25,6
764,931	62,46
765,114	11,26
765,297	103,42
765,481	-37,89
765,664	3,07
765,847	19,46
766,03	25,6
766,213	-50,18
766,397	76,8
766,58	-105,47
766,763	17,41
766,946	-95,23
767,129	-3,07
767,312	33,79
767,495	-9,22
767,678	-35,84
767,861	121,85
768,044	17,41
768,227	-62,46
768,41	-31,74
768,593	-21,5
768,776	27,65
768,959	-70,65
769,142	99,33
769,324	-46,08
769,507	29,7
769,69	-17,41
769,873	15,36
770,056	236,54
770,239	27,65
770,421	70,65
770,604	97,28
770,787	-11,26
770,97	56,32
771,152	-82,94
771,335	101,37
771,518	-33,79
771,7	148,48
771,883	191,49
772,066	41,98
772,248	82,94
772,431	162,81
772,613	87,04
772,796	23,55
772,978	107,52
773,161	128
773,343	-29,7
773,526	44,03
773,708	-95,23
773,891	-66,56
774,073	37,89
774,256	31,74
774,438	181,25
774,621	66,56
774,803	41,98
774,985	-19,46
775,168	89,09
775,35	46,08
775,532	54,27
775,715	-37,89
775,897	91,13
776,079	78,85
776,261	144,38
776,444	314,36
776,626	467,96
776,808	549,88
776,99	592,89
777,173	859,12
777,355	914,42
777,537	973,81
777,719	908,27
777,901	883,7
778,083	592,89
778,265	537,59
778,447	631,8
778,629	480,25
778,811	404,47
778,993	498,68
779,175	467,96
779,357	228,35
779,539	259,07
779,721	271,36
779,903	203,77
780,085	121,85
780,267	138,24
780,449	97,28
780,631	64,51
780,812	84,99
780,994	52,22
781,176	27,65
781,358	-5,12
781,54	-25,6
781,721	56,32
781,903	56,32
782,085	7,17
782,267	128
782,448	-41,98
782,63	1,02
782,812	15,36
782,993	113,66
783,175	76,8
783,357	-19,46
783,538	50,18
783,72	13,31
783,901	-1,02
784,083	1,02
784,264	68,61
784,446	-58,37
784,627	-89,09
784,809	62,46
784,99	-25,6
785,172	37,89
785,353	-25,6
785,535	-15,36
785,716	-33,79
785,897	-58,37
786,079	7,17
786,26	3,07
786,441	101,37
786,623	-54,27
786,804	-113,66
786,985	-5,12
787,167	23,55
787,348	60,42
787,529	33,79
787,71	132,09
787,891	41,98
788,073	-15,36
788,254	-58,37
788,435	132,09
788,616	-46,08
788,797	-144,38
788,978	-91,13
789,159	19,46
789,34	-5,12
789,522	29,7
789,703	17,41
789,884	-3,07
790,065	87,04
790,246	199,68
790,427	-29,7
790,607	99,33
790,788	74,75
790,969	-58,37
791,15	3,07
791,331	56,32
791,512	-41,98
791,693	-74,75
791,874	-99,33
792,054	150,53
792,235	97,28
792,416	-48,13
792,597	-23,55
792,778	-5,12
792,958	44,03
793,139	11,26
793,32	5,12
793,5	-115,71
793,681	103,42
793,862	-11,26
794,042	-11,26
794,223	-105,47
794,404	-9,22
794,584	-156,67
794,765	-48,13
794,945	31,74
795,126	3,07
795,306	60,42
795,487	21,5
795,667	41,98
795,848	60,42
796,028	15,36
796,209	11,26
796,389	58,37
796,57	91,13
796,75	-19,46
796,93	48,13
797,111	3,07
797,291	11,26
797,471	128
797,652	41,98
797,832	-25,6
798,012	46,08
798,192	-68,61
798,373	-9,22
798,553	17,41
798,733	27,65
798,913	-66,56
799,093	23,55
799,274	17,41
799,454	35,84
799,634	25,6
799,814	48,13
799,994	48,13
800,174	37,89
800,354	48,13
800,534	-111,61
800,714	80,89
800,894	-134,14
801,074	-72,7
801,254	17,41
801,434	91,13
801,614	-60,42
801,794	-17,41
801,974	1911,78
802,154	-29,7
802,334	37,89
802,514	-74,75
802,693	19,46
802,873	-27,65
803,053	125,95
803,233	44,03
803,413	25,6
803,592	-9,22
803,772	-23,55
803,952	17,41
804,131	-1,02
804,311	76,8
804,491	25,6
804,67	-46,08
804,85	-29,7
805,03	39,94
805,209	113,66
805,389	19,46
805,568	35,84
805,748	84,99
805,928	50,18
806,107	44,03
806,287	101,37
806,466	76,8
806,646	-64,51
806,825	-13,31
807,004	-33,79
807,184	23,55
807,363	-1,02
807,543	91,13
807,722	-93,18
807,901	-15,36
808,081	115,71
808,26	-130,05
808,439	13,31
808,619	13,31
808,798	-119,81
808,977	23,55
809,156	97,28
809,336	-11,26
809,515	84,99
809,694	-70,65
809,873	-19,46
810,052	7,17
810,231	101,37
810,411	-9,22
810,59	97,28
810,769	-19,46
810,948	56,32
811,127	-82,94
811,306	-37,89
811,485	25,6
811,664	76,8
811,843	23,55
812,022	17,41
812,201	-56,32
812,38	9,22
812,559	-33,79
812,737	66,56
812,916	-119,81
813,095	-54,27
813,274	-3,07
813,453	-54,27
813,632	25,6
813,811	132,09
813,989	-33,79
814,168	33,79
814,347	-105,47
814,526	11,26
814,704	130,05
814,883	119,81
815,062	-89,09
815,24	31,74
815,419	-72,7
815,598	23,55
815,776	-99,33
815,955	74,75
816,133	-117,76
816,312	-37,89
816,49	-72,7
816,669	-17,41
816,847	29,7
817,026	-52,22
817,204	-62,46
817,383	-21,5
817,561	-82,94
817,74	76,8
817,918	66,56
818,097	-58,37
818,275	-99,33
818,453	66,56
818,632	46,08
818,81	-31,74
818,988	-39,94
819,167	-48,13
819,345	44,03
819,523	-3,07
819,701	7,17
819,879	50,18
820,058	23,55
820,236	-39,94
820,414	-27,65
820,592	-103,42
820,77	-5,12
820,948	-66,56
821,127	-33,79
821,305	-50,18
821,483	-5,12
821,661	80,89
821,839	7,17
822,017	15,36
822,195	-46,08
822,373	64,51
822,551	50,18
822,729	89,09
822,907	-52,22
823,085	3,07
823,262	-1,02
823,44	-56,32
823,618	21,5
823,796	-56,32
823,974	-117,76
824,152	-13,31
824,329	-21,5
824,507	60,42
824,685	19,46
824,863	-15,36
825,04	-54,27
825,218	-46,08
825,396	35,84
825,574	17,41
825,751	35,84
825,929	142,33
826,107	-39,94
826,284	-33,79
826,462	35,84
826,639	7,17
826,817	-164,86
826,994	5,12
827,172	-121,85
827,349	111,61
827,527	25,6
827,704	64,51
827,882	44,03
828,059	1,02
828,237	-11,26
828,414	68,61
828,591	-37,89
828,769	62,46
828,946	-109,57
829,124	64,51
829,301	29,7
829,478	5,12
829,655	37,89
829,833	23,55
830,01	-113,66
830,187	48,13
830,364	54,27
830,542	27,65
830,719	80,89
830,896	136,19
831,073	48,13
831,25	58,37
831,427	78,85
831,604	-52,22
831,782	25,6
831,959	15,36
832,136	-17,41
832,313	11,26
832,49	-33,79
832,667	66,56
832,844	-58,37
833,021	142,33
833,198	29,7
833,374	25,6
833,551	-21,5
833,728	-1,02
833,905	105,47
834,082	-113,66
834,259	15,36
834,436	158,72
834,612	-105,47
834,789	-7,17
834,966	-48,13
835,143	21,5
835,319	-117,76
835,496	78,85
835,673	140,29
835,85	52,22
836,026	21,5
836,203	82,94
836,38	-66,56
836,556	29,7
836,733	-17,41
836,909	62,46
837,086	-48,13
837,262	-93,18
837,439	-29,7
837,616	48,13
837,792	-23,55
837,968	101,37
838,145	-113,66
838,321	-25,6
838,498	121,85
838,674	123,9
838,851	7,17
839,027	-50,18
839,203	-1,02
839,38	123,9
839,556	-82,94
839,732	-7,17
839,909	-11,26
840,085	58,37
840,261	-84,99
840,437	-37,89
840,614	9,22
840,79	35,84
840,966	39,94
841,142	31,74
841,318	84,99
841,494	-74,75
841,671	107,52
841,847	-121,85
842,023	-97,28
842,199	7,17
842,375	136,19
842,551	-54,27
842,727	-15,36
842,903	95,23
843,079	-54,27
843,255	132,09
843,431	29,7
843,607	134,14
843,783	-41,98
843,959	140,29
844,134	173,05
844,31	416,76
844,486	263,16
844,662	318,46
844,838	320,51
845,013	345,08
845,189	252,92
845,365	214,01
845,541	156,67
845,716	101,37
845,892	254,97
846,068	89,09
846,244	60,42
846,419	95,23
846,595	46,08
846,77	1,02
846,946	234,49
847,122	62,46
847,297	101,37
847,473	277,5
847,648	-39,94
847,824	66,56
847,999	-74,75
848,175	-46,08
848,35	48,13
848,526	130,05
848,701	72,7
848,876	-31,74
849,052	168,96
849,227	-7,17
849,403	39,94
849,578	-5,12
849,753	82,94
849,929	-5,12
850,104	-121,85
850,279	31,74
850,454	44,03
850,63	19,46
850,805	105,47
850,98	46,08
851,155	-41,98
851,33	11,26
851,505	-50,18
851,681	97,28
851,856	19,46
852,031	64,51
852,206	19,46
852,381	-33,79
852,556	23,55
852,731	64,51
852,906	91,13
853,081	35,84
853,256	105,47
853,431	-21,5
853,606	33,79
853,781	-33,79
853,956	-107,52
854,131	41,98
854,305	-99,33
854,48	-44,03
854,655	-33,79
854,83	-44,03
855,005	-50,18
855,18	9,22
855,354	-41,98
855,529	-11,26
855,704	-27,65
855,879	105,47
856,053	-80,89
856,228	-13,31
856,403	-130,05
856,577	31,74
856,752	-72,7
856,926	37,89
857,101	60,42
857,276	-82,94
857,45	31,74
857,625	46,08
857,799	33,79
857,974	80,89
858,148	-132,09
858,323	-17,41
858,497	-5,12
858,672	-15,36
858,846	-64,51
859,02	13,31
859,195	-99,33
859,369	-37,89
859,543	-17,41
859,718	44,03
859,892	72,7
860,066	-1,02
860,241	-13,31
860,415	-72,7
860,589	-33,79
860,763	-62,46
860,938	15,36
861,112	41,98
861,286	-31,74
861,46	46,08
861,634	-62,46
861,808	66,56
861,982	-156,67
862,157	-91,13
862,331	-64,51
862,505	-41,98
862,679	-113,66
862,853	-48,13
863,027	-19,46
863,201	132,09
863,375	-48,13
863,549	-9,22
863,722	17,41
863,896	115,71
864,07	-60,42
864,244	-46,08
864,418	52,22
864,592	87,04
864,766	72,7
864,939	-27,65
865,113	-68,61
865,287	48,13
865,461	-70,65
865,634	64,51
865,808	-15,36
865,982	-9,22
866,156	-78,85
866,329	-82,94
866,503	52,22
866,676	9,22
866,85	68,61
867,024	-56,32
867,197	11,26
867,371	-11,26
867,544	25,6
867,718	-27,65
867,891	84,99
868,065	-111,61
868,238	-25,6
868,412	21,5
868,585	44,03
868,759	-82,94
868,932	17,41
869,105	-148,48
869,279	9,22
869,452	-3,07
869,625	41,98
869,799	-11,26
869,972	-39,94
870,145	-58,37
870,319	109,57
870,492	-50,18
870,665	54,27
870,838	-148,48
871,011	-218,11
871,185	-80,89
871,358	-5,12
871,531	25,6
871,704	-33,79
871,877	-17,41
872,05	-87,04
872,223	-50,18
872,396	58,37
872,569	7,17
872,742	-82,94
872,915	-37,89
873,088	27,65
873,261	-80,89
873,434	99,33
873,607	3,07
873,78	109,57
873,953	-107,52
874,126	-19,46
874,299	74,75
874,471	-23,55
874,644	-52,22
874,817	50,18
874,99	109,57
875,163	25,6
875,335	19,46
875,508	25,6
875,681	17,41
875,853	33,79
876,026	76,8
876,199	25,6
876,371	15,36
876,544	-68,61
876,717	39,94
876,889	-78,85
877,062	44,03
877,234	3,07
877,407	25,6
877,579	29,7
877,752	-3,07
877,924	64,51
878,097	11,26
878,269	76,8
878,442	-13,31
878,614	56,32
878,786	-35,84
878,959	-17,41
879,131	19,46
879,303	-123,9
879,476	-58,37
879,648	58,37
879,82	58,37
879,993	-33,79
880,165	-3,07
880,337	-113,66
880,509	-21,5
880,681	-125,95
880,854	-103,42
881,026	60,42
881,198	240,64
881,37	-15,36
881,542	-84,99
881,714	-9,22
881,886	-1,02
882,058	101,37
882,23	-46,08
882,402	-35,84
882,574	7,17
882,746	11,26
882,918	105,47
883,09	56,32
883,262	-54,27
883,434	48,13
883,606	-84,99
883,778	27,65
883,95	91,13
884,122	-80,89
884,293	93,18
884,465	19,46
884,637	93,18
884,809	-46,08
884,98	-1,02
885,152	9,22
885,324	-33,79
885,496	-91,13
885,667	-15,36
885,839	23,55
886,011	111,61
886,182	39,94
886,354	68,61
886,525	-3,07
886,697	-39,94
886,869	5,12
887,04	-78,85
887,212	144,38
887,383	144,38
887,555	74,75
887,726	-13,31
887,897	1,02
888,069	27,65
888,24	80,89
888,412	1,02
888,583	-62,46
888,754	-3,07
888,926	-54,27
889,097	-64,51
889,268	-132,09
889,44	1,02
889,611	-80,89
889,782	-9,22
889,953	-56,32
890,125	72,7
890,296	-64,51
890,467	-39,94
890,638	-119,81
890,809	-52,22
890,98	-78,85
891,151	111,61
891,323	128
891,494	-27,65
891,665	27,65
891,836	1,02
892,007	15,36
892,178	52,22
892,349	101,37
892,52	-148,48
892,691	9,22
892,862	-80,89
893,032	-173,05
893,203	9,22
893,374	-23,55
893,545	87,04
893,716	33,79
893,887	7,17
894,057	-3,07
894,228	25,6
894,399	-52,22
894,57	121,85
894,74	17,41
894,911	-1,02
895,082	-72,7
895,253	-46,08
895,423	5,12
895,594	37,89
895,764	74,75
895,935	-89,09
896,106	11,26
896,276	17,41
896,447	-76,8
896,617	-21,5
896,788	-162,81
896,958	-66,56
897,129	-56,32
897,299	-37,89
897,47	101,37
897,64	70,65
897,81	7,17
897,981	23,55
898,151	3,07
898,322	62,46
898,492	56,32
898,662	-19,46
898,832	-37,89
899,003	-33,79
899,173	46,08
899,343	-58,37
899,513	-5,12
