Data from deuterium_USB4F104151__16__10-57-07-525.txt Node

Date: Wed Apr 15 10:57:07 EDT 2026
User: LaboPhy
Spectrometer: USB4F10415
Trigger mode: 4
Integration Time (sec): 1,000000E-1
Scans to average: 1
Electric dark correction enabled: true
Nonlinearity correction enabled: false
Boxcar width: 0
XAxis mode: Wavelengths
Number of Pixels in Spectrum: 3648
>>>>>Begin Spectral Data<<<<<
178,204	-418,47
178,424	-418,47
178,644	-418,47
178,864	-389,8
179,084	-438,95
179,304	36,18
179,524	-39,59
179,744	-21,16
179,964	52,56
180,184	9,56
180,404	-10,92
180,624	-21,16
180,844	-10,92
181,064	-82,6
181,283	116,05
181,503	-49,83
181,723	21,85
181,943	-88,75
182,163	187,73
182,383	30,04
182,602	38,23
182,822	68,95
183,042	68,95
183,262	-86,7
183,482	50,52
183,701	62,8
183,921	42,32
184,141	-43,69
184,361	50,52
184,58	91,48
184,8	5,46
185,02	-53,93
185,239	99,67
185,459	54,61
185,679	134,48
185,898	-96,94
186,118	75,09
186,338	3,41
186,557	114
186,777	-72,36
186,997	-39,59
187,216	25,94
187,436	228,69
187,655	85,33
187,875	120,15
188,095	56,66
188,314	157,01
188,534	64,85
188,753	-47,79
188,973	163,15
189,192	181,59
189,412	3,41
189,631	-23,21
189,851	42,32
190,07	189,78
190,29	-43,69
190,509	-23,21
190,729	85,33
190,948	161,11
191,168	189,78
191,387	25,94
191,607	58,71
191,826	138,58
192,045	19,8
192,265	-35,5
192,484	83,28
192,704	-45,74
192,923	-45,74
193,142	189,78
193,362	116,05
193,581	136,53
193,8	15,7
194,02	120,15
194,239	-21,16
194,458	73,04
194,678	-55,98
194,897	-15,02
195,116	60,76
195,335	3,41
195,555	3,41
195,774	17,75
195,993	132,44
196,212	68,95
196,432	-0,68
196,651	66,9
196,87	-58,03
197,089	187,73
197,308	17,75
197,528	60,76
197,747	-82,6
197,966	50,52
198,185	83,28
198,404	-90,79
198,623	157,01
198,842	189,78
199,062	83,28
199,281	132,44
199,5	68,95
199,719	42,32
199,938	42,32
200,157	81,24
200,376	165,2
200,595	99,67
200,814	5,46
201,033	-8,87
201,252	191,83
201,471	25,94
201,69	124,24
201,909	42,32
202,128	91,48
202,347	44,37
202,566	-45,74
202,785	-94,89
203,004	-21,16
203,223	255,31
203,442	7,51
203,661	-47,79
203,879	27,99
204,098	97,62
204,317	-8,87
204,536	46,42
204,755	124,24
204,974	150,87
205,193	-6,83
205,411	77,14
205,63	157,01
205,849	21,85
206,068	-45,74
206,287	-55,98
206,505	118,1
206,724	3,41
206,943	-25,26
207,162	11,61
207,381	58,71
207,599	38,23
207,818	-23,21
208,037	-37,55
208,255	27,99
208,474	50,52
208,693	91,48
208,911	-43,69
209,13	85,33
209,349	93,52
209,567	50,52
209,786	105,81
210,005	144,72
210,223	83,28
210,442	-64,17
210,661	9,56
210,879	99,67
211,098	19,8
211,316	48,47
211,535	66,9
211,753	-29,35
211,972	87,38
212,191	-4,78
212,409	-37,55
212,628	150,87
212,846	11,61
213,065	66,9
213,283	79,19
213,502	-31,4
213,72	-8,87
213,938	44,37
214,157	-62,12
214,375	11,61
214,594	38,23
214,812	64,85
215,031	-96,94
215,249	73,04
215,467	46,42
215,686	-29,35
215,904	46,42
216,122	52,56
216,341	169,3
216,559	1,37
216,778	66,9
216,996	210,26
217,214	48,47
217,432	-25,26
217,651	-62,12
217,869	99,67
218,087	-21,16
218,306	-31,4
218,524	25,94
218,742	60,76
218,96	52,56
219,179	-62,12
219,397	11,61
219,615	187,73
219,833	97,62
220,051	-72,36
220,27	19,8
220,488	64,85
220,706	99,67
220,924	-37,55
221,142	-55,98
221,36	42,32
221,578	95,57
221,796	17,75
222,015	-15,02
222,233	50,52
222,451	163,15
222,669	-6,83
222,887	142,68
223,105	-60,07
223,323	11,61
223,541	46,42
223,759	-33,45
223,977	56,66
224,195	247,12
224,413	62,8
224,631	-17,07
224,849	77,14
225,067	253,27
225,285	15,7
225,503	9,56
225,721	-123,56
225,939	99,67
226,157	11,61
226,375	261,46
226,592	-55,98
226,81	52,56
227,028	159,06
227,246	89,43
227,464	81,24
227,682	48,47
227,9	-35,5
228,117	17,75
228,335	95,57
228,553	27,99
228,771	5,46
228,989	40,28
229,206	163,15
229,424	44,37
229,642	-33,45
229,86	-31,4
230,077	134,48
230,295	40,28
230,513	114
230,731	54,61
230,948	183,63
231,166	111,96
231,384	5,46
231,601	-15,02
231,819	173,39
232,037	19,8
232,254	-15,02
232,472	-37,55
232,689	-64,17
232,907	99,67
233,125	-4,78
233,342	-58,03
233,56	42,32
233,777	-35,5
233,995	44,37
234,213	144,72
234,43	140,63
234,648	-10,92
234,865	-62,12
235,083	50,52
235,3	9,56
235,518	122,2
235,735	152,91
235,953	30,04
236,17	9,56
236,388	-4,78
236,605	-17,07
236,822	58,71
237,04	114
237,257	36,18
237,475	13,65
237,692	50,52
237,909	79,19
238,127	50,52
238,344	132,44
238,562	71
238,779	-29,35
238,996	-60,07
239,214	64,85
239,431	25,94
239,648	19,8
239,865	68,95
240,083	-33,45
240,3	-78,51
240,517	-4,78
240,735	-15,02
240,952	99,67
241,169	38,23
241,386	87,38
241,603	38,23
241,821	5,46
242,038	25,94
242,255	87,38
242,472	-53,93
242,689	64,85
242,907	38,23
243,124	44,37
243,341	73,04
243,558	15,7
243,775	-107,18
243,992	-0,68
244,209	87,38
244,426	136,53
244,643	42,32
244,86	-25,26
245,078	54,61
245,295	77,14
245,512	-92,84
245,729	-27,31
245,946	144,72
246,163	-39,59
246,38	5,46
246,597	-31,4
246,814	38,23
247,031	-4,78
247,248	32,08
247,464	116,05
247,681	30,04
247,898	11,61
248,115	42,32
248,332	36,18
248,549	101,72
248,766	85,33
248,983	58,71
249,2	95,57
249,417	62,8
249,633	38,23
249,85	27,99
250,067	101,72
250,284	58,71
250,501	-25,26
250,717	91,48
250,934	32,08
251,151	81,24
251,368	11,61
251,585	17,75
251,801	-78,51
252,018	25,94
252,235	138,58
252,451	-74,41
252,668	13,65
252,885	120,15
253,102	91,48
253,318	38,23
253,535	15,7
253,752	30,04
253,968	-33,45
254,185	-84,65
254,401	11,61
254,618	19,8
254,835	15,7
255,051	83,28
255,268	87,38
255,484	36,18
255,701	19,8
255,917	81,24
256,134	-21,16
256,351	5,46
256,567	-53,93
256,784	52,56
257	-45,74
257,217	81,24
257,433	91,48
257,65	103,76
257,866	232,79
258,082	1,37
258,299	-47,79
258,515	32,08
258,732	40,28
258,948	7,51
259,165	50,52
259,381	-43,69
259,597	85,33
259,814	52,56
260,03	-15,02
260,246	-4,78
260,463	34,13
260,679	60,76
260,895	58,71
261,112	99,67
261,328	32,08
261,544	5,46
261,761	99,67
261,977	-64,17
262,193	42,32
262,409	138,58
262,626	48,47
262,842	32,08
263,058	-25,26
263,274	66,9
263,49	40,28
263,707	58,71
263,923	64,85
264,139	-70,31
264,355	75,09
264,571	77,14
264,787	58,71
265,004	95,57
265,22	-41,64
265,436	-101,03
265,652	15,7
265,868	89,43
266,084	-45,74
266,3	58,71
266,516	-105,13
266,732	58,71
266,948	85,33
267,164	-12,97
267,38	99,67
267,596	-0,68
267,812	179,54
268,028	-2,73
268,244	42,32
268,46	5,46
268,676	9,56
268,892	56,66
269,108	-43,69
269,324	9,56
269,54	-35,5
269,756	124,24
269,972	-111,27
270,188	-6,83
270,403	-51,88
270,619	-29,35
270,835	27,99
271,051	71
271,267	-31,4
271,483	19,8
271,698	93,52
271,914	54,61
272,13	-31,4
272,346	-72,36
272,562	73,04
272,777	161,11
272,993	-78,51
273,209	-6,83
273,425	191,83
273,64	1,37
273,856	54,61
274,072	13,65
274,287	-51,88
274,503	68,95
274,719	64,85
274,934	-17,07
275,15	-88,75
275,366	-12,97
275,581	-43,69
275,797	-2,73
276,012	-25,26
276,228	83,28
276,444	52,56
276,659	77,14
276,875	15,7
277,09	50,52
277,306	-105,13
277,521	85,33
277,737	34,13
277,952	83,28
278,168	-25,26
278,383	-4,78
278,599	-6,83
278,814	132,44
279,03	62,8
279,245	132,44
279,461	64,85
279,676	175,44
279,892	-70,31
280,107	-92,84
280,322	-39,59
280,538	7,51
280,753	-0,68
280,969	75,09
281,184	21,85
281,399	116,05
281,615	-19,11
281,83	40,28
282,045	-31,4
282,26	-33,45
282,476	50,52
282,691	42,32
282,906	32,08
283,122	109,91
283,337	-17,07
283,552	60,76
283,767	9,56
283,983	99,67
284,198	13,65
284,413	-6,83
284,628	-25,26
284,843	75,09
285,058	46,42
285,274	71
285,489	-43,69
285,704	136,53
285,919	-21,16
286,134	-43,69
286,349	1,37
286,564	-19,11
286,779	144,72
286,995	54,61
287,21	-43,69
287,425	79,19
287,64	25,94
287,855	66,9
288,07	-76,46
288,285	54,61
288,5	105,81
288,715	77,14
288,93	9,56
289,145	-27,31
289,36	23,89
289,575	-35,5
289,79	109,91
290,004	-27,31
290,219	79,19
290,434	11,61
290,649	17,75
290,864	21,85
291,079	50,52
291,294	-21,16
291,509	60,76
291,724	-49,83
291,938	30,04
292,153	25,94
292,368	25,94
292,583	11,61
292,798	48,47
293,012	126,29
293,227	107,86
293,442	71
293,657	132,44
293,871	138,58
294,086	30,04
294,301	167,25
294,516	62,8
294,73	87,38
294,945	-31,4
295,16	140,63
295,374	128,34
295,589	46,42
295,804	-23,21
296,018	-17,07
296,233	114
296,447	116,05
296,662	36,18
296,877	124,24
297,091	91,48
297,306	23,89
297,52	60,76
297,735	9,56
297,949	27,99
298,164	58,71
298,378	83,28
298,593	-4,78
298,807	21,85
299,022	71
299,236	171,35
299,451	66,9
299,665	-29,35
299,88	-86,7
300,094	81,24
300,309	-19,11
300,523	62,8
300,737	1,37
300,952	73,04
301,166	25,94
301,381	-17,07
301,595	-47,79
301,809	56,66
302,024	-10,92
302,238	-82,6
302,452	148,82
302,667	34,13
302,881	93,52
303,095	75,09
303,309	38,23
303,524	-4,78
303,738	62,8
303,952	-45,74
304,166	79,19
304,381	-119,46
304,595	17,75
304,809	-21,16
305,023	68,95
305,237	-70,31
305,452	83,28
305,666	54,61
305,88	107,86
306,094	11,61
306,308	48,47
306,522	122,2
306,736	71
306,95	109,91
307,164	-0,68
307,379	50,52
307,593	202,07
307,807	128,34
308,021	48,47
308,235	50,52
308,449	-66,22
308,663	-19,11
308,877	255,31
309,091	46,42
309,305	50,52
309,519	-29,35
309,733	109,91
309,947	-55,98
310,161	200,02
310,374	89,43
310,588	189,78
310,802	44,37
311,016	-27,31
311,23	118,1
311,444	-55,98
311,658	48,47
311,872	154,96
312,085	154,96
312,299	240,98
312,513	157,01
312,727	50,52
312,941	30,04
313,154	93,52
313,368	25,94
313,582	64,85
313,796	64,85
314,009	-41,64
314,223	116,05
314,437	11,61
314,651	91,48
314,864	21,85
315,078	42,32
315,292	-43,69
315,505	-4,78
315,719	56,66
315,933	44,37
316,146	9,56
316,36	-37,55
316,573	116,05
316,787	130,39
317,001	62,8
317,214	-96,94
317,428	81,24
317,641	-17,07
317,855	5,46
318,068	114
318,282	-86,7
318,495	148,82
318,709	1,37
318,922	7,51
319,136	169,3
319,349	107,86
319,563	19,8
319,776	134,48
319,99	-37,55
320,203	87,38
320,417	75,09
320,63	52,56
320,843	197,97
321,057	79,19
321,27	58,71
321,483	58,71
321,697	191,83
321,91	75,09
322,124	79,19
322,337	19,8
322,55	21,85
322,763	46,42
322,977	34,13
323,19	42,32
323,403	34,13
323,617	118,1
323,83	144,72
324,043	38,23
324,256	42,32
324,469	-47,79
324,683	144,72
324,896	17,75
325,109	-45,74
325,322	-146,09
325,535	109,91
325,748	95,57
325,962	54,61
326,175	58,71
326,388	91,48
326,601	140,63
326,814	-49,83
327,027	66,9
327,24	116,05
327,453	-119,46
327,666	83,28
327,879	118,1
328,092	126,29
328,305	13,65
328,518	30,04
328,731	1,37
328,944	34,13
329,157	167,25
329,37	-31,4
329,583	245,07
329,796	159,06
330,009	-43,69
330,222	44,37
330,435	91,48
330,648	13,65
330,861	64,85
331,073	36,18
331,286	75,09
331,499	9,56
331,712	5,46
331,925	-27,31
332,138	83,28
332,35	206,16
332,563	-15,02
332,776	148,82
332,989	-55,98
333,202	-78,51
333,414	-10,92
333,627	56,66
333,84	87,38
334,053	120,15
334,265	54,61
334,478	-72,36
334,691	54,61
334,903	116,05
335,116	-37,55
335,329	7,51
335,541	25,94
335,754	202,07
335,966	-15,02
336,179	48,47
336,392	21,85
336,604	111,96
336,817	126,29
337,029	136,53
337,242	11,61
337,454	124,24
337,667	48,47
337,88	126,29
338,092	122,2
338,305	103,76
338,517	66,9
338,729	132,44
338,942	134,48
339,154	7,51
339,367	-10,92
339,579	114
339,792	-23,21
340,004	181,59
340,217	17,75
340,429	19,8
340,641	-39,59
340,854	-49,83
341,066	32,08
341,278	191,83
341,491	107,86
341,703	48,47
341,915	-27,31
342,128	99,67
342,34	157,01
342,552	-25,26
342,764	-15,02
342,977	3,41
343,189	50,52
343,401	97,62
343,613	-19,11
343,826	132,44
344,038	-51,88
344,25	136,53
344,462	-21,16
344,674	91,48
344,886	5,46
345,099	58,71
345,311	97,62
345,523	111,96
345,735	-49,83
345,947	58,71
346,159	32,08
346,371	30,04
346,583	1,37
346,795	197,97
347,007	19,8
347,219	116,05
347,431	58,71
347,643	146,77
347,855	-4,78
348,067	107,86
348,279	42,32
348,491	5,46
348,703	120,15
348,915	-29,35
349,127	-60,07
349,339	54,61
349,551	-60,07
349,763	54,61
349,975	9,56
350,187	161,11
350,399	163,15
350,61	91,48
350,822	-21,16
351,034	3,41
351,246	95,57
351,458	58,71
351,669	60,76
351,881	79,19
352,093	218,45
352,305	179,54
352,517	40,28
352,728	118,1
352,94	9,56
353,152	60,76
353,363	9,56
353,575	107,86
353,787	216,4
353,999	44,37
354,21	136,53
354,422	-21,16
354,633	75,09
354,845	95,57
355,057	73,04
355,268	25,94
355,48	154,96
355,692	9,56
355,903	66,9
356,115	-23,21
356,326	-88,75
356,538	193,87
356,749	142,68
356,961	204,11
357,172	83,28
357,384	-31,4
357,595	214,35
357,807	3,41
358,018	60,76
358,23	107,86
358,441	165,2
358,653	116,05
358,864	128,34
359,075	-53,93
359,287	109,91
359,498	140,63
359,709	75,09
359,921	25,94
360,132	64,85
360,344	13,65
360,555	58,71
360,766	93,52
360,977	-41,64
361,189	120,15
361,4	23,89
361,611	181,59
361,823	183,63
362,034	111,96
362,245	-10,92
362,456	21,85
362,667	103,76
362,879	3,41
363,09	99,67
363,301	132,44
363,512	75,09
363,723	42,32
363,935	62,8
364,146	146,77
364,357	60,76
364,568	103,76
364,779	-94,89
364,99	212,31
365,201	79,19
365,412	85,33
365,623	-84,65
365,834	68,95
366,045	-0,68
366,256	62,8
366,467	148,82
366,678	54,61
366,889	109,91
367,1	25,94
367,311	179,54
367,522	40,28
367,733	138,58
367,944	101,72
368,155	62,8
368,366	169,3
368,577	175,44
368,788	165,2
368,999	1,37
369,209	75,09
369,42	197,97
369,631	283,98
369,842	118,1
370,053	105,81
370,264	122,2
370,474	48,47
370,685	85,33
370,896	58,71
371,107	200,02
371,317	91,48
371,528	36,18
371,739	208,21
371,95	148,82
372,16	132,44
372,371	15,7
372,582	60,76
372,792	99,67
373,003	140,63
373,214	103,76
373,424	130,39
373,635	-39,59
373,846	169,3
374,056	87,38
374,267	109,91
374,477	83,28
374,688	42,32
374,898	97,62
375,109	99,67
375,319	7,51
375,53	173,39
375,74	101,72
375,951	-23,21
376,161	118,1
376,372	148,82
376,582	34,13
376,793	124,24
377,003	1,37
377,214	58,71
377,424	91,48
377,635	46,42
377,845	25,94
378,055	173,39
378,266	-45,74
378,476	138,58
378,686	93,52
378,897	101,72
379,107	138,58
379,317	152,91
379,528	79,19
379,738	107,86
379,948	-10,92
380,158	142,68
380,369	71
380,579	163,15
380,789	107,86
380,999	93,52
381,21	128,34
381,42	302,42
381,63	91,48
381,84	208,21
382,05	93,52
382,261	111,96
382,471	150,87
382,681	25,94
382,891	214,35
383,101	122,2
383,311	83,28
383,521	1,37
383,731	152,91
383,941	197,97
384,151	75,09
384,361	58,71
384,571	126,29
384,781	122,2
384,991	163,15
385,201	269,65
385,411	144,72
385,621	50,52
385,831	87,38
386,041	116,05
386,251	130,39
386,461	146,77
386,671	40,28
386,881	50,52
387,091	34,13
387,301	197,97
387,511	93,52
387,72	118,1
387,93	77,14
388,14	75,09
388,35	195,92
388,56	191,83
388,769	183,63
388,979	103,76
389,189	97,62
389,399	148,82
389,609	171,35
389,818	204,11
390,028	32,08
390,238	167,25
390,447	-29,35
390,657	87,38
390,867	111,96
391,076	21,85
391,286	75,09
391,496	77,14
391,705	154,96
391,915	206,16
392,125	66,9
392,334	36,18
392,544	204,11
392,753	19,8
392,963	34,13
393,172	34,13
393,382	-0,68
393,591	195,92
393,801	27,99
394,01	257,36
394,22	138,58
394,429	66,9
394,639	46,42
394,848	77,14
395,058	159,06
395,267	154,96
395,477	238,93
395,686	157,01
395,895	267,6
396,105	306,51
396,314	157,01
396,524	128,34
396,733	101,72
396,942	224,59
397,152	193,87
397,361	181,59
397,57	85,33
397,78	23,89
397,989	189,78
398,198	183,63
398,407	77,14
398,617	87,38
398,826	79,19
399,035	40,28
399,244	206,16
399,453	154,96
399,663	60,76
399,872	50,52
400,081	-15,02
400,29	161,11
400,499	-8,87
400,708	142,68
400,917	54,61
401,127	44,37
401,336	48,47
401,545	171,35
401,754	222,55
401,963	183,63
402,172	17,75
402,381	-2,73
402,59	68,95
402,799	66,9
403,008	150,87
403,217	87,38
403,426	79,19
403,635	-25,26
403,844	56,66
404,053	91,48
404,262	128,34
404,471	165,2
404,68	138,58
404,888	11,61
405,097	5,46
405,306	97,62
405,515	58,71
405,724	46,42
405,933	109,91
406,142	7,51
406,35	161,11
406,559	79,19
406,768	50,52
406,977	161,11
407,185	83,28
407,394	79,19
407,603	13,65
407,812	3,41
408,02	220,5
408,229	202,07
408,438	79,19
408,646	11,61
408,855	91,48
409,064	200,02
409,272	185,68
409,481	216,4
409,69	202,07
409,898	134,48
410,107	320,85
410,315	290,13
410,524	224,59
410,733	279,89
410,941	197,97
411,15	183,63
411,358	296,27
411,567	249,17
411,775	140,63
411,984	11,61
412,192	146,77
412,401	50,52
412,609	220,5
412,818	132,44
413,026	15,7
413,234	66,9
413,443	101,72
413,651	40,28
413,86	79,19
414,068	140,63
414,276	175,44
414,485	-35,5
414,693	255,31
414,901	161,11
415,11	42,32
415,318	11,61
415,526	-4,78
415,734	144,72
415,943	124,24
416,151	175,44
416,359	48,47
416,567	1,37
416,776	128,34
416,984	95,57
417,192	173,39
417,4	9,56
417,608	3,41
417,817	5,46
418,025	171,35
418,233	206,16
418,441	-6,83
418,649	-55,98
418,857	97,62
419,065	148,82
419,273	-78,51
419,481	138,58
419,689	71
419,897	15,7
420,105	9,56
420,313	152,91
420,521	144,72
420,729	120,15
420,937	-21,16
421,145	77,14
421,353	105,81
421,561	161,11
421,769	15,7
421,977	-21,16
422,185	83,28
422,393	-21,16
422,601	122,2
422,809	136,53
423,017	56,66
423,224	19,8
423,432	132,44
423,64	58,71
423,848	91,48
424,056	-4,78
424,263	111,96
424,471	34,13
424,679	85,33
424,887	9,56
425,094	187,73
425,302	-15,02
425,51	81,24
425,718	134,48
425,925	48,47
426,133	-25,26
426,341	224,59
426,548	19,8
426,756	7,51
426,964	60,76
427,171	13,65
427,379	95,57
427,586	-84,65
427,794	42,32
428,001	89,43
428,209	52,56
428,417	99,67
428,624	85,33
428,832	62,8
429,039	-47,79
429,247	25,94
429,454	17,75
429,662	154,96
429,869	95,57
430,076	97,62
430,284	27,99
430,491	163,15
430,699	169,3
430,906	197,97
431,114	23,89
431,321	58,71
431,528	11,61
431,736	210,26
431,943	152,91
432,15	234,83
432,358	277,84
432,565	451,92
432,772	296,27
432,979	601,42
433,187	623,95
433,394	869,7
433,601	918,86
433,808	1027,4
434,016	974,15
434,223	1000,77
434,43	939,33
434,637	863,56
434,844	779,59
435,052	681,29
435,259	486,73
435,466	429,39
435,673	304,46
435,88	310,61
436,087	292,18
436,294	206,16
436,501	195,92
436,708	15,7
436,915	21,85
437,122	120,15
437,329	25,94
437,537	58,71
437,743	140,63
437,95	238,93
438,157	9,56
438,364	42,32
438,571	77,14
438,778	66,9
438,985	107,86
439,192	193,87
439,399	46,42
439,606	56,66
439,813	13,65
440,02	165,2
440,227	150,87
440,433	21,85
440,64	91,48
440,847	-43,69
441,054	13,65
441,261	220,5
441,467	71
441,674	11,61
441,881	189,78
442,088	34,13
442,294	132,44
442,501	68,95
442,708	206,16
442,914	38,23
443,121	42,32
443,328	148,82
443,534	191,83
443,741	50,52
443,948	-146,09
444,154	101,72
444,361	263,51
444,568	85,33
444,774	103,76
444,981	-41,64
445,187	167,25
445,394	23,89
445,6	-39,59
445,807	7,51
446,013	77,14
446,22	-129,7
446,426	-2,73
446,633	101,72
446,839	191,83
447,046	-146,09
447,252	105,81
447,459	77,14
447,665	46,42
447,871	54,61
448,078	140,63
448,284	60,76
448,491	157,01
448,697	62,8
448,903	220,5
449,11	17,75
449,316	-23,21
449,522	54,61
449,728	128,34
449,935	128,34
450,141	-6,83
450,347	144,72
450,553	52,56
450,76	99,67
450,966	32,08
451,172	52,56
451,378	27,99
451,584	128,34
451,791	152,91
451,997	-2,73
452,203	5,46
452,409	81,24
452,615	85,33
452,821	71
453,027	-29,35
453,233	243,03
453,44	-23,21
453,646	71
453,852	42,32
454,058	-88,75
454,264	87,38
454,47	52,56
454,676	64,85
454,882	99,67
455,088	75,09
455,294	64,85
455,5	87,38
455,705	91,48
455,911	1,37
456,117	3,41
456,323	107,86
456,529	25,94
456,735	34,13
456,941	124,24
457,147	15,7
457,352	124,24
457,558	-23,21
457,764	124,24
457,97	95,57
458,176	71
458,381	62,8
458,587	167,25
458,793	11,61
458,999	-53,93
459,204	1,37
459,41	52,56
459,616	50,52
459,821	40,28
460,027	-64,17
460,233	79,19
460,438	126,29
460,644	48,47
460,85	111,96
461,055	83,28
461,261	75,09
461,466	7,51
461,672	7,51
461,878	62,8
462,083	183,63
462,289	-109,22
462,494	11,61
462,7	148,82
462,905	68,95
463,111	181,59
463,316	132,44
463,522	148,82
463,727	56,66
463,932	107,86
464,138	77,14
464,343	114
464,549	161,11
464,754	197,97
464,959	134,48
465,165	77,14
465,37	91,48
465,575	77,14
465,781	13,65
465,986	62,8
466,191	38,23
466,397	91,48
466,602	232,79
466,807	36,18
467,012	146,77
467,218	109,91
467,423	38,23
467,628	-19,11
467,833	13,65
468,038	75,09
468,244	5,46
468,449	-6,83
468,654	40,28
468,859	1,37
469,064	83,28
469,269	34,13
469,474	120,15
469,679	177,49
469,885	32,08
470,09	27,99
470,295	77,14
470,5	60,76
470,705	95,57
470,91	9,56
471,115	206,16
471,32	13,65
471,525	179,54
471,73	298,32
471,935	44,37
472,139	-21,16
472,344	17,75
472,549	83,28
472,754	224,59
472,959	146,77
473,164	116,05
473,369	109,91
473,574	142,68
473,778	116,05
473,983	144,72
474,188	122,2
474,393	-39,59
474,598	73,04
474,802	132,44
475,007	46,42
475,212	126,29
475,417	21,85
475,621	122,2
475,826	-31,4
476,031	66,9
476,235	73,04
476,44	99,67
476,645	124,24
476,849	-2,73
477,054	1,37
477,259	79,19
477,463	249,17
477,668	286,03
477,872	130,39
478,077	105,81
478,282	27,99
478,486	118,1
478,691	11,61
478,895	32,08
479,1	163,15
479,304	161,11
479,509	109,91
479,713	140,63
479,918	152,91
480,122	27,99
480,326	54,61
480,531	71
480,735	128,34
480,94	50,52
481,144	167,25
481,348	87,38
481,553	97,62
481,757	34,13
481,961	-4,78
482,166	85,33
482,37	71
482,574	183,63
482,778	34,13
482,983	58,71
483,187	97,62
483,391	116,05
483,595	81,24
483,8	386,38
484,004	789,83
484,208	1234,24
484,412	2256,18
484,616	3204,39
484,821	4476,18
485,025	5872,89
485,229	7548,13
485,433	8649,94
485,637	9755,84
485,841	10325,18
486,045	10765,49
486,249	10581,17
486,453	9764,03
486,657	8998,09
486,861	7759,07
487,065	6655,22
487,269	5561,6
487,473	4324,63
487,677	3722,52
487,881	3331,36
488,085	2321,71
488,289	1887,54
488,493	1181
488,697	1051,97
488,901	591,18
489,105	390,48
489,309	271,7
489,512	394,58
489,716	212,31
489,92	109,91
490,124	146,77
490,328	286,03
490,531	161,11
490,735	224,59
490,939	7,51
491,143	101,72
491,346	140,63
491,55	132,44
491,754	87,38
491,958	142,68
492,161	89,43
492,365	5,46
492,569	40,28
492,772	181,59
492,976	216,4
493,18	109,91
493,383	116,05
493,587	103,76
493,79	107,86
493,994	73,04
494,197	7,51
494,401	136,53
494,605	38,23
494,808	52,56
495,012	91,48
495,215	240,98
495,419	138,58
495,622	-31,4
495,825	36,18
496,029	75,09
496,232	54,61
496,436	85,33
496,639	97,62
496,843	66,9
497,046	60,76
497,249	157,01
497,453	71
497,656	11,61
497,859	27,99
498,063	138,58
498,266	157,01
498,469	40,28
498,673	32,08
498,876	91,48
499,079	-17,07
499,282	56,66
499,485	228,69
499,689	85,33
499,892	93,52
500,095	-31,4
500,298	87,38
500,501	-6,83
500,705	34,13
500,908	54,61
501,111	-15,02
501,314	66,9
501,517	148,82
501,72	44,37
501,923	103,76
502,126	-19,11
502,329	161,11
502,532	44,37
502,735	95,57
502,938	161,11
503,141	42,32
503,344	32,08
503,547	185,68
503,75	40,28
503,953	-8,87
504,156	71
504,359	48,47
504,562	1,37
504,765	132,44
504,968	64,85
505,17	120,15
505,373	118,1
505,576	54,61
505,779	30,04
505,982	-31,4
506,185	101,72
506,387	19,8
506,59	142,68
506,793	58,71
506,996	56,66
507,198	134,48
507,401	150,87
507,604	136,53
507,807	-4,78
508,009	138,58
508,212	148,82
508,415	50,52
508,617	11,61
508,82	7,51
509,022	79,19
509,225	132,44
509,428	52,56
509,63	34,13
509,833	-27,31
510,035	322,9
510,238	140,63
510,44	-25,26
510,643	103,76
510,845	101,72
511,048	183,63
511,25	-10,92
511,453	118,1
511,655	142,68
511,858	179,54
512,06	283,98
512,262	-10,92
512,465	-17,07
512,667	107,86
512,87	79,19
513,072	173,39
513,274	150,87
513,477	-8,87
513,679	21,85
513,881	101,72
514,084	-33,45
514,286	159,06
514,488	73,04
514,69	15,7
514,893	-6,83
515,095	-37,55
515,297	-68,27
515,499	32,08
515,701	-4,78
515,904	128,34
516,106	230,74
516,308	148,82
516,51	-31,4
516,712	23,89
516,914	95,57
517,116	23,89
517,318	15,7
517,52	7,51
517,722	181,59
517,925	-12,97
518,127	27,99
518,329	101,72
518,531	27,99
518,733	91,48
518,935	32,08
519,136	103,76
519,338	-66,22
519,54	52,56
519,742	68,95
519,944	159,06
520,146	101,72
520,348	79,19
520,55	85,33
520,752	-10,92
520,954	-25,26
521,155	64,85
521,357	30,04
521,559	87,38
521,761	87,38
521,963	142,68
522,164	99,67
522,366	42,32
522,568	99,67
522,77	77,14
522,971	91,48
523,173	58,71
523,375	25,94
523,576	17,75
523,778	30,04
523,98	99,67
524,181	83,28
524,383	167,25
524,584	13,65
524,786	1,37
524,988	-72,36
525,189	44,37
525,391	111,96
525,592	9,56
525,794	9,56
525,995	-19,11
526,197	128,34
526,398	263,51
526,6	105,81
526,801	60,76
527,003	-55,98
527,204	21,85
527,406	79,19
527,607	71
527,808	13,65
528,01	159,06
528,211	103,76
528,412	-6,83
528,614	105,81
528,815	152,91
529,016	114
529,218	77,14
529,419	27,99
529,62	21,85
529,822	130,39
530,023	-4,78
530,224	48,47
530,425	134,48
530,626	1,37
530,828	34,13
531,029	-78,51
531,23	105,81
531,431	-47,79
531,632	116,05
531,833	-35,5
532,035	-19,11
532,236	-62,12
532,437	68,95
532,638	25,94
532,839	-88,75
533,04	126,29
533,241	116,05
533,442	91,48
533,643	-15,02
533,844	30,04
534,045	64,85
534,246	46,42
534,447	-37,55
534,648	56,66
534,849	138,58
535,05	-15,02
535,251	-6,83
535,451	152,91
535,652	-10,92
535,853	-4,78
536,054	81,24
536,255	71
536,456	38,23
536,657	62,8
536,857	60,76
537,058	109,91
537,259	-31,4
537,46	62,8
537,66	-27,31
537,861	21,85
538,062	3,41
538,263	-131,75
538,463	105,81
538,664	171,35
538,865	-58,03
539,065	68,95
539,266	95,57
539,466	-53,93
539,667	173,39
539,868	75,09
540,068	99,67
540,269	73,04
540,469	-2,73
540,67	91,48
540,87	193,87
541,071	13,65
541,271	38,23
541,472	79,19
541,672	91,48
541,873	40,28
542,073	95,57
542,274	68,95
542,474	107,86
542,675	136,53
542,875	97,62
543,075	-55,98
543,276	-19,11
543,476	64,85
543,676	150,87
543,877	62,8
544,077	91,48
544,277	191,83
544,478	54,61
544,678	140,63
544,878	114
545,078	34,13
545,279	27,99
545,479	34,13
545,679	42,32
545,879	91,48
546,079	46,42
546,28	-96,94
546,48	85,33
546,68	93,52
546,88	42,32
547,08	21,85
547,28	144,72
547,48	-51,88
547,68	173,39
547,88	56,66
548,081	-0,68
548,281	-23,21
548,481	13,65
548,681	-4,78
548,881	38,23
549,081	140,63
549,28	-10,92
549,48	36,18
549,68	34,13
549,88	19,8
550,08	-55,98
550,28	23,89
550,48	187,73
550,68	15,7
550,88	87,38
551,08	25,94
551,279	111,96
551,479	5,46
551,679	81,24
551,879	-0,68
552,079	17,75
552,278	83,28
552,478	212,31
552,678	130,39
552,878	124,24
553,077	30,04
553,277	73,04
553,477	3,41
553,676	130,39
553,876	79,19
554,076	25,94
554,275	89,43
554,475	-29,35
554,674	128,34
554,874	52,56
555,074	-29,35
555,273	68,95
555,473	34,13
555,672	85,33
555,872	52,56
556,071	44,37
556,271	161,11
556,47	140,63
556,67	44,37
556,869	81,24
557,068	-45,74
557,268	40,28
557,467	-62,12
557,667	169,3
557,866	75,09
558,065	11,61
558,265	46,42
558,464	36,18
558,663	52,56
558,863	58,71
559,062	91,48
559,261	-74,41
559,461	95,57
559,66	30,04
559,859	-15,02
560,058	21,85
560,258	7,51
560,457	27,99
560,656	159,06
560,855	-12,97
561,054	105,81
561,253	42,32
561,453	126,29
561,652	-27,31
561,851	157,01
562,05	-72,36
562,249	-15,02
562,448	58,71
562,647	-8,87
562,846	68,95
563,045	3,41
563,244	128,34
563,443	38,23
563,642	44,37
563,841	68,95
564,04	68,95
564,239	-19,11
564,438	95,57
564,637	-51,88
564,836	54,61
565,035	7,51
565,234	-12,97
565,432	40,28
565,631	79,19
565,83	91,48
566,029	-90,79
566,228	58,71
566,427	126,29
566,625	-84,65
566,824	93,52
567,023	58,71
567,222	97,62
567,42	-17,07
567,619	95,57
567,818	85,33
568,016	261,46
568,215	30,04
568,414	109,91
568,612	11,61
568,811	36,18
569,01	64,85
569,208	89,43
569,407	73,04
569,605	122,2
569,804	27,99
570,002	154,96
570,201	25,94
570,4	152,91
570,598	58,71
570,797	81,24
570,995	-4,78
571,193	103,76
571,392	89,43
571,59	44,37
571,789	159,06
571,987	146,77
572,186	191,83
572,384	83,28
572,582	58,71
572,781	189,78
572,979	44,37
573,177	36,18
573,376	99,67
573,574	204,11
573,772	75,09
573,971	54,61
574,169	9,56
574,367	101,72
574,565	21,85
574,763	93,52
574,962	87,38
575,16	75,09
575,358	27,99
575,556	122,2
575,754	46,42
575,952	97,62
576,151	99,67
576,349	251,22
576,547	83,28
576,745	142,68
576,943	83,28
577,141	152,91
577,339	21,85
577,537	165,2
577,735	206,16
577,933	148,82
578,131	52,56
578,329	273,75
578,527	95,57
578,725	142,68
578,923	44,37
579,121	138,58
579,319	-45,74
579,516	109,91
579,714	314,7
579,912	116,05
580,11	50,52
580,308	185,68
580,506	122,2
580,704	50,52
580,901	148,82
581,099	240,98
581,297	132,44
581,495	185,68
581,692	48,47
581,89	349,52
582,088	173,39
582,285	134,48
582,483	71
582,681	93,52
582,878	157,01
583,076	93,52
583,274	124,24
583,471	265,55
583,669	136,53
583,866	56,66
584,064	95,57
584,262	-62,12
584,459	32,08
584,657	140,63
584,854	185,68
585,052	126,29
585,249	179,54
585,447	183,63
585,644	-8,87
585,841	224,59
586,039	134,48
586,236	165,2
586,434	85,33
586,631	-12,97
586,828	17,75
587,026	1,37
587,223	34,13
587,42	132,44
587,618	44,37
587,815	177,49
588,012	122,2
588,21	105,81
588,407	120,15
588,604	146,77
588,801	-2,73
588,999	83,28
589,196	195,92
589,393	40,28
589,59	40,28
589,787	15,7
589,984	60,76
590,182	130,39
590,379	-23,21
590,576	83,28
590,773	64,85
590,97	42,32
591,167	175,44
591,364	126,29
591,561	77,14
591,758	228,69
591,955	154,96
592,152	30,04
592,349	32,08
592,546	87,38
592,743	40,28
592,94	34,13
593,137	146,77
593,334	171,35
593,531	66,9
593,727	138,58
593,924	128,34
594,121	93,52
594,318	56,66
594,515	138,58
594,712	220,5
594,908	165,2
595,105	-8,87
595,302	83,28
595,499	95,57
595,696	263,51
595,892	23,89
596,089	144,72
596,286	79,19
596,482	140,63
596,679	77,14
596,876	50,52
597,072	152,91
597,269	77,14
597,466	140,63
597,662	66,9
597,859	-6,83
598,055	140,63
598,252	83,28
598,448	132,44
598,645	130,39
598,841	93,52
599,038	222,55
599,234	169,3
599,431	97,62
599,627	136,53
599,824	109,91
600,02	58,71
600,217	111,96
600,413	116,05
600,609	64,85
600,806	361,81
601,002	64,85
601,198	68,95
601,395	152,91
601,591	34,13
601,787	150,87
601,984	126,29
602,18	81,24
602,376	109,91
602,572	232,79
602,769	189,78
602,965	62,8
603,161	116,05
603,357	107,86
603,553	191,83
603,75	71
603,946	107,86
604,142	89,43
604,338	226,64
604,534	64,85
604,73	118,1
604,926	165,2
605,122	124,24
605,318	27,99
605,514	116,05
605,71	91,48
605,906	99,67
606,102	83,28
606,298	189,78
606,494	144,72
606,69	191,83
606,886	64,85
607,082	-23,21
607,278	17,75
607,474	120,15
607,67	116,05
607,866	38,23
608,062	111,96
608,257	75,09
608,453	19,8
608,649	83,28
608,845	-15,02
609,041	13,65
609,236	105,81
609,432	114
609,628	140,63
609,824	152,91
610,019	23,89
610,215	56,66
610,411	220,5
610,606	218,45
610,802	32,08
610,998	101,72
611,193	181,59
611,389	-39,59
611,584	56,66
611,78	23,89
611,976	87,38
612,171	234,83
612,367	173,39
612,562	85,33
612,758	54,61
612,953	-10,92
613,149	-31,4
613,344	36,18
613,539	15,7
613,735	130,39
613,93	93,52
614,126	36,18
614,321	66,9
614,517	222,55
614,712	101,72
614,907	132,44
615,103	89,43
615,298	-19,11
615,493	38,23
615,688	21,85
615,884	208,21
616,079	21,85
616,274	-8,87
616,47	38,23
616,665	25,94
616,86	60,76
617,055	38,23
617,25	60,76
617,445	64,85
617,641	48,47
617,836	5,46
618,031	-53,93
618,226	163,15
618,421	77,14
618,616	-2,73
618,811	17,75
619,006	-51,88
619,201	120,15
619,396	-15,02
619,591	60,76
619,786	75,09
619,981	132,44
620,176	50,52
620,371	-17,07
620,566	54,61
620,761	214,35
620,956	64,85
621,151	52,56
621,346	83,28
621,541	-27,31
621,735	154,96
621,93	101,72
622,125	75,09
622,32	11,61
622,515	-201,38
622,709	177,49
622,904	157,01
623,099	105,81
623,294	85,33
623,488	75,09
623,683	89,43
623,878	32,08
624,072	144,72
624,267	-33,45
624,462	25,94
624,656	-0,68
624,851	54,61
625,046	52,56
625,24	38,23
625,435	75,09
625,629	56,66
625,824	169,3
626,018	165,2
626,213	150,87
626,407	40,28
626,602	87,38
626,796	58,71
626,991	171,35
627,185	60,76
627,38	93,52
627,574	89,43
627,768	134,48
627,963	3,41
628,157	71
628,352	19,8
628,546	32,08
628,74	17,75
628,935	38,23
629,129	132,44
629,323	89,43
629,517	-25,26
629,712	-68,27
629,906	-6,83
630,1	195,92
630,294	126,29
630,489	118,1
630,683	-25,26
630,877	21,85
631,071	124,24
631,265	3,41
631,459	79,19
631,653	81,24
631,848	124,24
632,042	50,52
632,236	79,19
632,43	181,59
632,624	40,28
632,818	91,48
633,012	159,06
633,206	56,66
633,4	11,61
633,594	60,76
633,788	68,95
633,982	193,87
634,176	232,79
634,369	21,85
634,563	75,09
634,757	-62,12
634,951	97,62
635,145	146,77
635,339	9,56
635,533	134,48
635,726	103,76
635,92	62,8
636,114	-49,83
636,308	83,28
636,501	21,85
636,695	142,68
636,889	-29,35
637,083	103,76
637,276	-15,02
637,47	-15,02
637,664	17,75
637,857	58,71
638,051	95,57
638,244	120,15
638,438	91,48
638,632	154,96
638,825	-23,21
639,019	165,2
639,212	-39,59
639,406	105,81
639,599	30,04
639,793	34,13
639,986	77,14
640,18	21,85
640,373	-21,16
640,567	-2,73
640,76	136,53
640,954	118,1
641,147	81,24
641,34	103,76
641,534	48,47
641,727	97,62
641,92	79,19
642,114	126,29
642,307	111,96
642,5	77,14
642,694	52,56
642,887	50,52
643,08	165,2
643,273	161,11
643,467	38,23
643,66	-0,68
643,853	-60,07
644,046	101,72
644,239	62,8
644,432	-12,97
644,626	-12,97
644,819	36,18
645,012	46,42
645,205	64,85
645,398	142,68
645,591	15,7
645,784	73,04
645,977	34,13
646,17	130,39
646,363	66,9
646,556	25,94
646,749	-39,59
646,942	169,3
647,135	142,68
647,328	42,32
647,521	40,28
647,714	30,04
647,907	95,57
648,099	58,71
648,292	124,24
648,485	120,15
648,678	56,66
648,871	52,56
649,064	148,82
649,256	-4,78
649,449	52,56
649,642	-64,17
649,835	21,85
650,027	46,42
650,22	126,29
650,413	81,24
650,605	161,11
650,798	-25,26
650,991	46,42
651,183	128,34
651,376	175,44
651,568	218,45
651,761	83,28
651,954	142,68
652,146	64,85
652,339	154,96
652,531	271,7
652,724	60,76
652,916	136,53
653,109	-47,79
653,301	150,87
653,494	161,11
653,686	220,5
653,879	240,98
654,071	339,28
654,263	273,75
654,456	568,65
654,648	2309,43
654,84	6718,7
655,033	15334,51
655,225	25752,52
655,417	37753,62
655,61	47997,56
655,802	55968,26
655,994	60660,15
656,186	62427,55
656,379	59568,58
656,571	55747,07
656,763	49785,44
656,955	45312,67
657,148	41552,6
657,34	37817,11
657,532	33981,26
657,724	30391,17
657,916	26741,69
658,108	23188,47
658,3	19452,97
658,492	16010,34
658,684	12971,15
658,876	10742,96
659,068	8557,78
659,26	6620,4
659,452	5029,13
659,644	3558,69
659,836	2649,39
660,028	1760,57
660,22	1267,01
660,412	986,44
660,604	783,69
660,796	607,56
660,988	550,22
661,18	402,77
661,372	382,29
661,563	271,7
661,755	253,27
661,947	101,72
662,139	185,68
662,331	111,96
662,522	173,39
662,714	91,48
662,906	87,38
663,097	167,25
663,289	19,8
663,481	-12,97
663,673	171,35
663,864	161,11
664,056	154,96
664,247	54,61
664,439	206,16
664,631	71
664,822	120,15
665,014	77,14
665,205	91,48
665,397	23,89
665,588	46,42
665,78	83,28
665,971	93,52
666,163	25,94
666,354	99,67
666,546	44,37
666,737	36,18
666,929	11,61
667,12	73,04
667,311	154,96
667,503	75,09
667,694	124,24
667,885	58,71
668,077	36,18
668,268	-37,55
668,459	30,04
668,651	150,87
668,842	48,47
669,033	-19,11
669,224	-47,79
669,416	197,97
669,607	77,14
669,798	-23,21
669,989	154,96
670,18	64,85
670,371	99,67
670,563	-45,74
670,754	185,68
670,945	50,52
671,136	136,53
671,327	27,99
671,518	95,57
671,709	97,62
671,9	71
672,091	195,92
672,282	42,32
672,473	50,52
672,664	-21,16
672,855	15,7
673,046	38,23
673,237	138,58
673,428	23,89
673,619	48,47
673,809	3,41
674	161,11
674,191	89,43
674,382	17,75
674,573	64,85
674,764	11,61
674,954	99,67
675,145	-35,5
675,336	48,47
675,527	-31,4
675,717	27,99
675,908	-6,83
676,099	-37,55
676,289	111,96
676,48	-84,65
676,671	-15,02
676,861	-82,6
677,052	85,33
677,243	-15,02
677,433	-31,4
677,624	56,66
677,814	52,56
678,005	27,99
678,195	179,54
678,386	-35,5
678,576	-8,87
678,767	-66,22
678,957	-17,07
679,148	62,8
679,338	163,15
679,529	81,24
679,719	34,13
679,909	118,1
680,1	77,14
680,29	23,89
680,481	-39,59
680,671	75,09
680,861	68,95
681,052	11,61
681,242	-60,07
681,432	44,37
681,622	50,52
681,813	-21,16
682,003	-31,4
682,193	-127,66
682,383	58,71
682,573	87,38
682,764	-68,27
682,954	11,61
683,144	66,9
683,334	-21,16
683,524	17,75
683,714	-27,31
683,904	13,65
684,094	-31,4
684,284	-88,75
684,474	136,53
684,664	-10,92
684,854	-6,83
685,044	-55,98
685,234	81,24
685,424	91,48
685,614	-47,79
685,804	68,95
685,994	30,04
686,184	52,56
686,374	-6,83
686,564	30,04
686,753	-19,11
686,943	3,41
687,133	-23,21
687,323	-6,83
687,513	99,67
687,702	-15,02
687,892	7,51
688,082	111,96
688,272	95,57
688,461	-23,21
688,651	165,2
688,841	114
689,03	-10,92
689,22	15,7
689,41	66,9
689,599	73,04
689,789	-58,03
689,979	183,63
690,168	-29,35
690,358	118,1
690,547	68,95
690,737	64,85
690,926	77,14
691,116	99,67
691,305	85,33
691,495	81,24
691,684	-41,64
691,874	7,51
692,063	-55,98
692,252	107,86
692,442	140,63
692,631	-29,35
692,82	56,66
693,01	9,56
693,199	-23,21
693,388	140,63
693,578	66,9
693,767	79,19
693,956	89,43
694,146	-6,83
694,335	75,09
694,524	9,56
694,713	60,76
694,902	-12,97
695,092	27,99
695,281	56,66
695,47	-55,98
695,659	19,8
695,848	27,99
696,037	-15,02
696,226	66,9
696,415	66,9
696,604	71
696,793	91,48
696,982	48,47
697,171	208,21
697,36	-47,79
697,549	25,94
697,738	-92,84
697,927	17,75
698,116	-4,78
698,305	36,18
698,494	34,13
698,683	-64,17
698,872	210,26
699,061	107,86
699,25	-47,79
699,438	23,89
699,627	-33,45
699,816	216,4
700,005	-25,26
700,193	-29,35
700,382	54,61
700,571	15,7
700,76	13,65
700,948	103,76
701,137	64,85
701,326	116,05
701,514	32,08
701,703	-49,83
701,892	79,19
702,08	171,35
702,269	71
702,457	46,42
702,646	66,9
702,834	50,52
703,023	118,1
703,212	-12,97
703,4	-6,83
703,589	-6,83
703,777	11,61
703,965	11,61
704,154	-64,17
704,342	-103,08
704,531	-47,79
704,719	66,9
704,907	157,01
705,096	-74,41
705,284	-64,17
705,472	42,32
705,661	44,37
705,849	75,09
706,037	99,67
706,226	66,9
706,414	25,94
706,602	11,61
706,79	101,72
706,979	-53,93
707,167	25,94
707,355	-84,65
707,543	48,47
707,731	46,42
707,919	1,37
708,107	17,75
708,296	-98,99
708,484	3,41
708,672	52,56
708,86	95,57
709,048	7,51
709,236	-33,45
709,424	-8,87
709,612	44,37
709,8	-123,56
709,988	13,65
710,176	56,66
710,364	54,61
710,551	-19,11
710,739	40,28
710,927	-51,88
711,115	50,52
711,303	50,52
711,491	120,15
711,679	-88,75
711,866	32,08
712,054	-17,07
712,242	44,37
712,43	105,81
712,617	-4,78
712,805	132,44
712,993	-15,02
713,181	-121,51
713,368	34,13
713,556	-17,07
713,744	-39,59
713,931	208,21
714,119	48,47
714,306	5,46
714,494	-35,5
714,682	79,19
714,869	-55,98
715,057	-0,68
715,244	-170,66
715,432	-17,07
715,619	-154,28
715,807	-64,17
715,994	-37,55
716,182	-2,73
716,369	50,52
716,556	36,18
716,744	-70,31
716,931	-37,55
717,119	15,7
717,306	1,37
717,493	93,52
717,681	-117,42
717,868	5,46
718,055	83,28
718,242	-68,27
718,43	116,05
718,617	97,62
718,804	-8,87
718,991	-25,26
719,179	15,7
719,366	-19,11
719,553	1,37
719,74	9,56
719,927	-41,64
720,114	11,61
720,301	-105,13
720,488	-78,51
720,676	-6,83
720,863	140,63
721,05	87,38
721,237	21,85
721,424	-10,92
721,611	66,9
721,798	-88,75
721,985	-35,5
722,172	15,7
722,358	-58,03
722,545	21,85
722,732	81,24
722,919	140,63
723,106	50,52
723,293	42,32
723,48	-6,83
723,667	1,37
723,853	91,48
724,04	62,8
724,227	42,32
724,414	-119,46
724,6	32,08
724,787	105,81
724,974	222,55
725,161	1,37
725,347	-64,17
725,534	-2,73
725,72	73,04
725,907	58,71
726,094	46,42
726,28	-37,55
726,467	-19,11
726,653	-80,55
726,84	71
727,027	154,96
727,213	-10,92
727,4	97,62
727,586	-31,4
727,773	75,09
727,959	-4,78
728,145	9,56
728,332	62,8
728,518	-45,74
728,705	50,52
728,891	11,61
729,077	-23,21
729,264	-60,07
729,45	27,99
729,636	154,96
729,823	27,99
730,009	19,8
730,195	56,66
730,382	83,28
730,568	-43,69
730,754	56,66
730,94	1,37
731,126	-58,03
731,313	-19,11
731,499	-66,22
731,685	89,43
731,871	77,14
732,057	60,76
732,243	27,99
732,429	66,9
732,615	95,57
732,801	58,71
732,987	5,46
733,173	152,91
733,359	-53,93
733,545	105,81
733,731	-58,03
733,917	99,67
734,103	-88,75
734,289	75,09
734,475	-47,79
734,661	120,15
734,847	32,08
735,033	-39,59
735,219	111,96
735,404	-8,87
735,59	-31,4
735,776	-39,59
735,962	1,37
736,148	71
736,333	75,09
736,519	42,32
736,705	-80,55
736,89	60,76
737,076	5,46
737,262	-105,13
737,447	-49,83
737,633	-49,83
737,819	99,67
738,004	-12,97
738,19	7,51
738,375	114
738,561	58,71
738,747	9,56
738,932	-37,55
739,118	150,87
739,303	-2,73
739,489	-55,98
739,674	-47,79
739,859	-55,98
740,045	23,89
740,23	11,61
740,416	-144,04
740,601	1,37
740,786	-10,92
740,972	-43,69
741,157	-45,74
741,342	-74,41
741,528	-53,93
741,713	111,96
741,898	77,14
742,084	77,14
742,269	-47,79
742,454	27,99
742,639	105,81
742,824	34,13
743,01	120,15
743,195	175,44
743,38	13,65
743,565	75,09
743,75	132,44
743,935	60,76
744,12	77,14
744,305	-113,32
744,49	38,23
744,675	-8,87
744,86	-23,21
745,045	42,32
745,23	-6,83
745,415	-19,11
745,6	232,79
745,785	-17,07
745,97	173,39
746,155	179,54
746,34	68,95
746,525	-33,45
746,71	44,37
746,895	-17,07
747,079	-51,88
747,264	5,46
747,449	105,81
747,634	36,18
747,819	54,61
748,003	32,08
748,188	-121,51
748,373	21,85
748,557	30,04
748,742	-31,4
748,927	66,9
749,111	52,56
749,296	-15,02
749,481	46,42
749,665	62,8
749,85	44,37
750,034	62,8
750,219	52,56
750,404	-92,84
750,588	34,13
750,773	50,52
750,957	79,19
751,141	54,61
751,326	109,91
751,51	-29,35
751,695	13,65
751,879	25,94
752,064	122,2
752,248	17,75
752,432	101,72
752,617	109,91
752,801	3,41
752,985	-25,26
753,17	128,34
753,354	25,94
753,538	157,01
753,722	30,04
753,907	-2,73
754,091	-17,07
754,275	124,24
754,459	-109,22
754,643	-58,03
754,828	93,52
755,012	93,52
755,196	-39,59
755,38	99,67
755,564	7,51
755,748	17,75
755,932	87,38
756,116	60,76
756,3	40,28
756,484	42,32
756,668	157,01
756,852	-72,36
757,036	17,75
757,22	-23,21
757,404	-80,55
757,588	-15,02
757,772	58,71
757,956	77,14
758,14	134,48
758,323	30,04
758,507	3,41
758,691	17,75
758,875	122,2
759,059	148,82
759,242	-55,98
759,426	34,13
759,61	23,89
759,794	-47,79
759,977	-4,78
760,161	288,08
760,345	75,09
760,528	9,56
760,712	25,94
760,895	91,48
761,079	21,85
761,263	-96,94
761,446	-148,14
761,63	56,66
761,813	148,82
761,997	-119,46
762,18	89,43
762,364	9,56
762,547	-15,02
762,731	54,61
762,914	42,32
763,098	1,37
763,281	-39,59
763,464	13,65
763,648	-49,83
763,831	-92,84
764,015	-74,41
764,198	34,13
764,381	-49,83
764,564	-12,97
764,748	34,13
764,931	40,28
765,114	-6,83
765,297	30,04
765,481	-53,93
765,664	-37,55
765,847	54,61
766,03	91,48
766,213	34,13
766,397	40,28
766,58	-72,36
766,763	44,37
766,946	-21,16
767,129	-8,87
767,312	-72,36
767,495	21,85
767,678	3,41
767,861	-21,16
768,044	-35,5
768,227	-2,73
768,41	17,75
768,593	36,18
768,776	-25,26
768,959	-21,16
769,142	81,24
769,324	-55,98
769,507	34,13
769,69	-55,98
769,873	-72,36
770,056	193,87
770,239	5,46
770,421	79,19
770,604	116,05
770,787	-2,73
770,97	3,41
771,152	-72,36
771,335	218,45
771,518	-23,21
771,7	95,57
771,883	91,48
772,066	-37,55
772,248	5,46
772,431	32,08
772,613	89,43
772,796	-2,73
772,978	7,51
773,161	144,72
773,343	-45,74
773,526	36,18
773,708	-105,13
773,891	-115,37
774,073	56,66
774,256	1,37
774,438	148,82
774,621	-17,07
774,803	-17,07
774,985	11,61
775,168	103,76
775,35	11,61
775,532	-21,16
775,715	-74,41
775,897	99,67
776,079	56,66
776,261	185,68
776,444	177,49
776,626	367,95
776,808	568,65
776,99	664,91
777,173	937,29
777,355	978,25
777,537	931,14
777,719	896,33
777,901	798,03
778,083	693,58
778,265	589,13
778,447	650,57
778,629	533,84
778,811	503,12
778,993	460,11
779,175	572,75
779,357	314,7
779,539	169,3
779,721	283,98
779,903	240,98
780,085	181,59
780,267	142,68
780,449	64,85
780,631	136,53
780,812	175,44
780,994	-4,78
781,176	25,94
781,358	-47,79
781,54	17,75
781,721	91,48
781,903	161,11
782,085	3,41
782,267	107,86
782,448	-78,51
782,63	-64,17
782,812	48,47
782,993	77,14
783,175	-4,78
783,357	-41,64
783,538	21,85
783,72	-8,87
783,901	-49,83
784,083	71
784,264	27,99
784,446	-49,83
784,627	-92,84
784,809	66,9
784,99	-64,17
785,172	36,18
785,353	13,65
785,535	42,32
785,716	-47,79
785,897	-33,45
786,079	30,04
786,26	34,13
786,441	-37,55
786,623	-139,94
786,804	-37,55
786,985	81,24
787,167	-6,83
787,348	-0,68
787,529	5,46
787,71	189,78
787,891	11,61
788,073	-21,16
788,254	-90,79
788,435	157,01
788,616	97,62
788,797	-88,75
788,978	9,56
789,159	-47,79
789,34	-21,16
789,522	-31,4
789,703	-6,83
789,884	-12,97
790,065	-12,97
790,246	179,54
790,427	-19,11
790,607	109,91
790,788	38,23
790,969	36,18
791,15	3,41
791,331	-10,92
791,512	-39,59
791,693	-17,07
791,874	-47,79
792,054	79,19
792,235	116,05
792,416	-68,27
792,597	3,41
792,778	15,7
792,958	34,13
793,139	64,85
793,32	-6,83
793,5	-45,74
793,681	124,24
793,862	48,47
794,042	46,42
794,223	-123,56
794,404	-88,75
794,584	-109,22
794,765	-4,78
794,945	-10,92
795,126	91,48
795,306	118,1
795,487	11,61
795,667	-53,93
795,848	-35,5
796,028	3,41
796,209	87,38
796,389	95,57
796,57	-60,07
796,75	-0,68
796,93	34,13
797,111	-64,17
797,291	-60,07
797,471	-37,55
797,652	-62,12
797,832	-23,21
798,012	75,09
798,192	3,41
798,373	-80,55
798,553	34,13
798,733	30,04
798,913	-53,93
799,093	-62,12
799,274	-80,55
799,454	105,81
799,634	60,76
799,814	11,61
799,994	118,1
800,174	77,14
800,354	-62,12
800,534	-45,74
800,714	68,95
800,894	-45,74
801,074	-2,73
801,254	-68,27
801,434	89,43
801,614	-4,78
801,794	-51,88
801,974	1858,87
802,154	7,51
802,334	75,09
802,514	-4,78
802,693	-117,42
802,873	-4,78
803,053	109,91
803,233	9,56
803,413	-117,42
803,592	-43,69
803,772	-55,98
803,952	30,04
804,131	-127,66
804,311	97,62
804,491	11,61
804,67	-109,22
804,85	-121,51
805,03	25,94
805,209	93,52
805,389	-4,78
805,568	-64,17
805,748	-62,12
805,928	-92,84
806,107	-53,93
806,287	75,09
806,466	46,42
806,646	34,13
806,825	60,76
807,004	-98,99
807,184	34,13
807,363	36,18
807,543	32,08
807,722	-47,79
807,901	68,95
808,081	46,42
808,26	-92,84
808,439	27,99
808,619	-6,83
808,798	-27,31
808,977	-10,92
809,156	54,61
809,336	75,09
809,515	25,94
809,694	-105,13
809,873	-23,21
810,052	79,19
810,231	163,15
810,411	34,13
810,59	36,18
810,769	56,66
810,948	79,19
811,127	-154,28
811,306	-78,51
811,485	36,18
811,664	142,68
811,843	-35,5
812,022	48,47
812,201	-68,27
812,38	23,89
812,559	-78,51
812,737	46,42
812,916	-76,46
813,095	-88,75
813,274	13,65
813,453	-0,68
813,632	36,18
813,811	130,39
813,989	-55,98
814,168	-12,97
814,347	-53,93
814,526	-80,55
814,704	48,47
814,883	68,95
815,062	-107,18
815,24	87,38
815,419	-68,27
815,598	77,14
815,776	-146,09
815,955	-31,4
816,133	-135,85
816,312	17,75
816,49	-10,92
816,669	38,23
816,847	-60,07
817,026	13,65
817,204	-45,74
817,383	-23,21
817,561	-43,69
817,74	75,09
817,918	-12,97
818,097	-17,07
818,275	-19,11
818,453	48,47
818,632	81,24
818,81	-6,83
818,988	-60,07
819,167	-64,17
819,345	11,61
819,523	-60,07
819,701	13,65
819,879	44,37
820,058	-23,21
820,236	5,46
820,414	-141,99
820,592	-0,68
820,77	-94,89
820,948	-21,16
821,127	-23,21
821,305	-21,16
821,483	-64,17
821,661	109,91
821,839	9,56
822,017	-76,46
822,195	13,65
822,373	62,8
822,551	-4,78
822,729	48,47
822,907	-21,16
823,085	30,04
823,262	5,46
823,44	-68,27
823,618	-66,22
823,796	32,08
823,974	-72,36
824,152	-96,94
824,329	-33,45
824,507	17,75
824,685	27,99
824,863	68,95
825,04	-55,98
825,218	54,61
825,396	-51,88
825,574	-10,92
825,751	46,42
825,929	9,56
826,107	-64,17
826,284	71
826,462	-19,11
826,639	-41,64
826,817	-19,11
826,994	-6,83
827,172	-105,13
827,349	40,28
827,527	50,52
827,704	48,47
827,882	97,62
828,059	-25,26
828,237	-31,4
828,414	91,48
828,591	-103,08
828,769	11,61
828,946	-109,22
829,124	25,94
829,301	91,48
829,478	-66,22
829,655	1,37
829,833	5,46
830,01	-113,32
830,187	48,47
830,364	9,56
830,542	23,89
830,719	71
830,896	71
831,073	111,96
831,25	-78,51
831,427	60,76
831,604	15,7
831,782	-15,02
831,959	44,37
832,136	-25,26
832,313	30,04
832,49	-15,02
832,667	-6,83
832,844	-35,5
833,021	79,19
833,198	19,8
833,374	13,65
833,551	46,42
833,728	19,8
833,905	87,38
834,082	-90,79
834,259	107,86
834,436	89,43
834,612	-62,12
834,789	109,91
834,966	-10,92
835,143	-62,12
835,319	-115,37
835,496	48,47
835,673	75,09
835,85	58,71
836,026	-15,02
836,203	120,15
836,38	-19,11
836,556	-62,12
836,733	-2,73
836,909	122,2
837,086	-37,55
837,262	-137,9
837,439	-53,93
837,616	-8,87
837,792	-35,5
837,968	124,24
838,145	-111,27
838,321	-55,98
838,498	54,61
838,674	19,8
838,851	-45,74
839,027	-55,98
839,203	11,61
839,38	36,18
839,556	7,51
839,732	-55,98
839,909	-10,92
840,085	42,32
840,261	-111,27
840,437	17,75
840,614	-29,35
840,79	5,46
840,966	50,52
841,142	58,71
841,318	-117,42
841,494	23,89
841,671	91,48
841,847	-117,42
842,023	-121,51
842,199	5,46
842,375	122,2
842,551	-113,32
842,727	-127,66
842,903	132,44
843,079	-88,75
843,255	71
843,431	-8,87
843,607	75,09
843,783	-19,11
843,959	140,63
844,134	206,16
844,31	408,91
844,486	279,89
844,662	251,22
844,838	378,19
845,013	292,18
845,189	298,32
845,365	189,78
845,541	169,3
845,716	126,29
845,892	220,5
846,068	-4,78
846,244	13,65
846,419	183,63
846,595	30,04
846,77	42,32
846,946	154,96
847,122	-12,97
847,297	3,41
847,473	169,3
847,648	-55,98
847,824	116,05
847,999	-8,87
848,175	21,85
848,35	1,37
848,526	83,28
848,701	87,38
848,876	34,13
849,052	54,61
849,227	-45,74
849,403	3,41
849,578	-12,97
849,753	81,24
849,929	75,09
850,104	-60,07
850,279	23,89
850,454	27,99
850,63	99,67
850,805	5,46
850,98	-10,92
851,155	3,41
851,33	42,32
851,505	-35,5
851,681	27,99
851,856	-10,92
852,031	44,37
852,206	-21,16
852,381	-107,18
852,556	3,41
852,731	25,94
852,906	54,61
853,081	44,37
853,256	62,8
853,431	-6,83
853,606	-51,88
853,781	-0,68
853,956	-92,84
854,131	40,28
854,305	-29,35
854,48	-21,16
854,655	-45,74
854,83	-90,79
855,005	-94,89
855,18	-4,78
855,354	-35,5
855,529	-2,73
855,704	-23,21
855,879	75,09
856,053	-72,36
856,228	-8,87
856,403	-109,22
856,577	58,71
856,752	-98,99
856,926	11,61
857,101	19,8
857,276	-72,36
857,45	38,23
857,625	77,14
857,799	-21,16
857,974	64,85
858,148	-107,18
858,323	-21,16
858,497	-17,07
858,672	-129,7
858,846	-74,41
859,02	17,75
859,195	-8,87
859,369	-23,21
859,543	-82,6
859,718	64,85
859,892	40,28
860,066	15,7
860,241	-121,51
860,415	-15,02
860,589	-70,31
860,763	42,32
860,938	-88,75
861,112	-15,02
861,286	-66,22
861,46	-37,55
861,634	5,46
861,808	66,9
861,982	-64,17
862,157	-121,51
862,331	9,56
862,505	-146,09
862,679	-70,31
862,853	77,14
863,027	-47,79
863,201	91,48
863,375	-35,5
863,549	54,61
863,722	21,85
863,896	99,67
864,07	-43,69
864,244	-96,94
864,418	58,71
864,592	-2,73
864,766	-8,87
864,939	27,99
865,113	-68,27
865,287	54,61
865,461	-90,79
865,634	-6,83
865,808	-86,7
865,982	-35,5
866,156	-72,36
866,329	-131,75
866,503	-27,31
866,676	68,95
866,85	27,99
867,024	-125,61
867,197	21,85
867,371	73,04
867,544	-109,22
867,718	-162,47
867,891	79,19
868,065	-84,65
868,238	-53,93
868,412	62,8
868,585	95,57
868,759	-62,12
868,932	-29,35
869,105	-86,7
869,279	-6,83
869,452	-86,7
869,625	-6,83
869,799	-29,35
869,972	-170,66
870,145	-2,73
870,319	-8,87
870,492	-35,5
870,665	-62,12
870,838	13,65
871,011	-141,99
871,185	-25,26
871,358	-84,65
871,531	21,85
871,704	-78,51
871,877	-25,26
872,05	-60,07
872,223	-72,36
872,396	81,24
872,569	60,76
872,742	-86,7
872,915	-90,79
873,088	-80,55
873,261	-113,32
873,434	105,81
873,607	-21,16
873,78	30,04
873,953	-98,99
874,126	32,08
874,299	19,8
874,471	-62,12
874,644	-43,69
874,817	42,32
874,99	140,63
875,163	-131,75
875,335	-21,16
875,508	-64,17
875,681	52,56
875,853	-55,98
876,026	-62,12
876,199	36,18
876,371	-0,68
876,544	-78,51
876,717	21,85
876,889	-58,03
877,062	-10,92
877,234	-146,09
877,407	-72,36
877,579	-64,17
877,752	-6,83
877,924	46,42
878,097	36,18
878,269	46,42
878,442	-19,11
878,614	56,66
878,786	17,75
878,959	21,85
879,131	-12,97
879,303	-84,65
879,476	-23,21
879,648	17,75
879,82	19,8
879,993	7,51
880,165	-64,17
880,337	-74,41
880,509	27,99
880,681	-115,37
880,854	-58,03
881,026	21,85
881,198	134,48
881,37	9,56
881,542	-0,68
881,714	-62,12
881,886	-21,16
882,058	-78,51
882,23	48,47
882,402	-51,88
882,574	21,85
882,746	128,34
882,918	52,56
883,09	91,48
883,262	-41,64
883,434	-25,26
883,606	-103,08
883,778	15,7
883,95	81,24
884,122	-21,16
884,293	38,23
884,465	-10,92
884,637	50,52
884,809	-78,51
884,98	-12,97
885,152	42,32
885,324	21,85
885,496	9,56
885,667	-37,55
885,839	-33,45
886,011	118,1
886,182	52,56
886,354	62,8
886,525	95,57
886,697	27,99
886,869	-141,99
887,04	-37,55
887,212	159,06
887,383	167,25
887,555	15,7
887,726	-25,26
887,897	-98,99
888,069	23,89
888,24	42,32
888,412	-15,02
888,583	-45,74
888,754	83,28
888,926	-162,47
889,097	-98,99
889,268	-33,45
889,44	52,56
889,611	-103,08
889,782	-86,7
889,953	-45,74
890,125	161,11
890,296	-15,02
890,467	-45,74
890,638	-90,79
890,809	-41,64
890,98	-78,51
891,151	87,38
891,323	109,91
891,494	44,37
891,665	60,76
891,836	-21,16
892,007	1,37
892,178	79,19
892,349	42,32
892,52	-53,93
892,691	-45,74
892,862	-101,03
893,032	-101,03
893,203	-33,45
893,374	-0,68
893,545	111,96
893,716	30,04
893,887	38,23
894,057	-23,21
894,228	-88,75
894,399	-41,64
894,57	83,28
894,74	50,52
894,911	71
895,082	27,99
895,253	5,46
895,423	-51,88
895,594	66,9
895,764	-31,4
895,935	-117,42
896,106	-12,97
896,276	-47,79
896,447	-58,03
896,617	-0,68
896,788	-78,51
896,958	-47,79
897,129	17,75
897,299	-146,09
897,47	144,72
897,64	9,56
897,81	11,61
897,981	-17,07
898,151	-84,65
898,322	-53,93
898,492	5,46
898,662	-68,27
898,832	-27,31
899,003	-55,98
899,173	-2,73
899,343	-84,65
899,513	-109,22
