Data from deuterium_USB4F104151__23__10-57-07-582.txt Node

Date: Wed Apr 15 10:57:07 EDT 2026
User: LaboPhy
Spectrometer: USB4F10415
Trigger mode: 4
Integration Time (sec): 1,000000E-1
Scans to average: 1
Electric dark correction enabled: true
Nonlinearity correction enabled: false
Boxcar width: 0
XAxis mode: Wavelengths
Number of Pixels in Spectrum: 3648
>>>>>Begin Spectral Data<<<<<
178,204	-447,99
178,424	-447,99
178,644	-447,99
178,864	-386,55
179,084	-433,66
179,304	16,9
179,524	-79,36
179,744	-81,41
179,964	49,66
180,184	47,62
180,404	125,44
180,624	6,66
180,844	41,47
181,064	-83,45
181,283	45,57
181,503	-93,69
181,723	4,61
181,943	-81,41
182,163	117,25
182,383	-101,89
182,602	55,81
182,822	150,01
183,042	43,52
183,262	-11,78
183,482	-1,54
183,701	49,66
183,921	74,24
184,141	-65,02
184,361	49,66
184,58	86,53
184,8	68,09
185,02	-13,82
185,239	45,57
185,459	74,24
185,679	-7,68
185,898	-112,13
186,118	-15,87
186,338	64
186,557	113,15
186,777	-38,4
186,997	-26,11
187,216	-5,63
187,436	274,94
187,655	107,01
187,875	88,57
188,095	104,96
188,314	164,35
188,534	104,96
188,753	-44,54
188,973	100,86
189,192	211,45
189,412	2,56
189,631	-13,82
189,851	92,67
190,07	150,01
190,29	39,42
190,509	-24,06
190,729	49,66
190,948	49,66
191,168	207,36
191,387	33,28
191,607	0,51
191,826	-24,06
192,045	-26,11
192,265	-22,02
192,484	25,09
192,704	25,09
192,923	-62,98
193,142	135,68
193,362	160,25
193,581	94,72
193,8	-3,58
194,02	61,95
194,239	137,73
194,458	129,53
194,678	-73,21
194,897	6,66
195,116	64
195,335	18,94
195,555	76,29
195,774	-83,45
195,993	184,83
196,212	29,18
196,432	-28,16
196,651	-11,78
196,87	23,04
197,089	238,08
197,308	66,05
197,528	88,57
197,747	-73,21
197,966	121,34
198,185	150,01
198,404	-11,78
198,623	113,15
198,842	145,92
199,062	82,43
199,281	147,97
199,5	109,05
199,719	98,81
199,938	18,94
200,157	64
200,376	88,57
200,595	162,3
200,814	96,77
201,033	6,66
201,252	188,93
201,471	137,73
201,69	66,05
201,909	61,95
202,128	104,96
202,347	55,81
202,566	55,81
202,785	-101,89
203,004	-38,4
203,223	225,79
203,442	41,47
203,661	-34,3
203,879	147,97
204,098	145,92
204,317	4,61
204,536	94,72
204,755	49,66
204,974	88,57
205,193	-5,63
205,411	164,35
205,63	47,62
205,849	-3,58
206,068	-17,92
206,287	-46,59
206,505	213,5
206,724	49,66
206,943	23,04
207,162	-79,36
207,381	59,9
207,599	18,94
207,818	-7,68
208,037	-38,4
208,255	-3,58
208,474	35,33
208,693	35,33
208,911	41,47
209,13	182,78
209,349	107,01
209,567	96,77
209,786	8,7
210,005	74,24
210,223	76,29
210,442	-167,42
210,661	-44,54
210,879	78,33
211,098	33,28
211,316	16,9
211,535	131,58
211,753	-13,82
211,972	96,77
212,191	-36,35
212,409	39,42
212,628	61,95
212,846	16,9
213,065	35,33
213,283	80,38
213,502	-1,54
213,72	61,95
213,938	31,23
214,157	-34,3
214,375	184,83
214,594	-95,74
214,812	78,33
215,031	55,81
215,249	-15,87
215,467	55,81
215,686	-15,87
215,904	51,71
216,122	78,33
216,341	172,54
216,559	72,19
216,778	55,81
216,996	125,44
217,214	80,38
217,432	-1,54
217,651	-34,3
217,869	-15,87
218,087	14,85
218,306	12,8
218,524	86,53
218,742	55,81
218,96	141,82
219,179	-1,54
219,397	94,72
219,615	207,36
219,833	141,82
220,051	37,38
220,27	74,24
220,488	98,81
220,706	98,81
220,924	-56,83
221,142	-13,82
221,36	6,66
221,578	39,42
221,796	-7,68
222,015	41,47
222,233	-5,63
222,451	145,92
222,669	18,94
222,887	107,01
223,105	-11,78
223,323	51,71
223,541	39,42
223,759	49,66
223,977	18,94
224,195	203,26
224,413	33,28
224,631	18,94
224,849	61,95
225,067	203,26
225,285	-97,79
225,503	14,85
225,721	-173,57
225,939	51,71
226,157	47,62
226,375	225,79
226,592	2,56
226,81	4,61
227,028	72,19
227,246	80,38
227,464	20,99
227,682	47,62
227,9	113,15
228,117	2,56
228,335	33,28
228,553	47,62
228,771	0,51
228,989	-1,54
229,206	59,9
229,424	-36,35
229,642	68,09
229,86	-91,65
230,077	213,5
230,295	96,77
230,513	82,43
230,731	59,9
230,948	152,06
231,166	160,25
231,384	-91,65
231,601	-144,89
231,819	107,01
232,037	-17,92
232,254	-5,63
232,472	35,33
232,689	-46,59
232,907	137,73
233,125	-7,68
233,342	-95,74
233,56	55,81
233,777	-5,63
233,995	-5,63
234,213	23,04
234,43	25,09
234,648	80,38
234,865	-9,73
235,083	61,95
235,3	20,99
235,518	156,16
235,735	170,49
235,953	86,53
236,17	4,61
236,388	0,51
236,605	41,47
236,822	61,95
237,04	66,05
237,257	33,28
237,475	-13,82
237,692	82,43
237,909	131,58
238,127	-15,87
238,344	123,39
238,562	0,51
238,779	-26,11
238,996	-32,26
239,214	-62,98
239,431	119,29
239,648	84,48
239,865	141,82
240,083	123,39
240,3	-38,4
240,517	-34,3
240,735	119,29
240,952	125,44
241,169	59,9
241,386	92,67
241,603	51,71
241,821	-9,73
242,038	100,86
242,255	145,92
242,472	-110,08
242,689	94,72
242,907	131,58
243,124	18,94
243,341	-26,11
243,558	-91,65
243,775	-108,03
243,992	-105,98
244,209	107,01
244,426	182,78
244,643	41,47
244,86	-7,68
245,078	76,29
245,295	90,62
245,512	8,7
245,729	-44,54
245,946	51,71
246,163	94,72
246,38	41,47
246,597	4,61
246,814	57,86
247,031	64
247,248	-19,97
247,464	70,14
247,681	16,9
247,898	8,7
248,115	70,14
248,332	-24,06
248,549	213,5
248,766	199,16
248,983	57,86
249,2	137,73
249,417	102,91
249,633	-22,02
249,85	113,15
250,067	27,14
250,284	78,33
250,501	82,43
250,717	111,1
250,934	-122,37
251,151	41,47
251,368	33,28
251,585	33,28
251,801	18,94
252,018	-1,54
252,235	72,19
252,451	-58,88
252,668	-87,55
252,885	121,34
253,102	74,24
253,318	12,8
253,535	45,57
253,752	-24,06
253,968	-48,64
254,185	-99,84
254,401	18,94
254,618	64
254,835	6,66
255,051	125,44
255,268	176,64
255,484	66,05
255,701	23,04
255,917	43,52
256,134	-34,3
256,351	25,09
256,567	-165,37
256,784	4,61
257	-38,4
257,217	35,33
257,433	35,33
257,65	57,86
257,866	127,49
258,082	-42,5
258,299	-52,74
258,515	68,09
258,732	-22,02
258,948	-93,69
259,165	64
259,381	-48,64
259,597	61,95
259,814	8,7
260,03	2,56
260,246	29,18
260,463	129,53
260,679	158,21
260,895	-5,63
261,112	27,14
261,328	-71,17
261,544	27,14
261,761	150,01
261,977	-5,63
262,193	-50,69
262,409	64
262,626	51,71
262,842	0,51
263,058	-50,69
263,274	104,96
263,49	139,77
263,707	74,24
263,923	76,29
264,139	-89,6
264,355	16,9
264,571	94,72
264,787	96,77
265,004	53,76
265,22	16,9
265,436	-52,74
265,652	74,24
265,868	-1,54
266,084	-110,08
266,3	6,66
266,516	-91,65
266,732	119,29
266,948	25,09
267,164	-11,78
267,38	113,15
267,596	-9,73
267,812	113,15
268,028	-32,26
268,244	33,28
268,46	37,38
268,676	0,51
268,892	68,09
269,108	-79,36
269,324	-40,45
269,54	-36,35
269,756	113,15
269,972	-38,4
270,188	57,86
270,403	-130,56
270,619	51,71
270,835	84,48
271,051	113,15
271,267	51,71
271,483	-120,32
271,698	104,96
271,914	127,49
272,13	20,99
272,346	-15,87
272,562	66,05
272,777	117,25
272,993	43,52
273,209	14,85
273,425	61,95
273,64	-24,06
273,856	27,14
274,072	20,99
274,287	-62,98
274,503	31,23
274,719	84,48
274,934	-79,36
275,15	-81,41
275,366	80,38
275,581	-30,21
275,797	64
276,012	74,24
276,228	-9,73
276,444	55,81
276,659	70,14
276,875	45,57
277,09	23,04
277,306	-40,45
277,521	-13,82
277,737	20,99
277,952	49,66
278,168	-46,59
278,383	-24,06
278,599	47,62
278,814	76,29
279,03	-15,87
279,245	168,45
279,461	47,62
279,676	156,16
279,892	-3,58
280,107	-9,73
280,322	-15,87
280,538	64
280,753	14,85
280,969	162,3
281,184	10,75
281,399	178,69
281,615	31,23
281,83	23,04
282,045	-28,16
282,26	0,51
282,476	100,86
282,691	125,44
282,906	113,15
283,122	25,09
283,337	-3,58
283,552	55,81
283,767	0,51
283,983	64
284,198	12,8
284,413	-34,3
284,628	-79,36
284,843	137,73
285,058	45,57
285,274	16,9
285,489	0,51
285,704	125,44
285,919	-40,45
286,134	-26,11
286,349	2,56
286,564	25,09
286,779	213,5
286,995	10,75
287,21	-85,5
287,425	117,25
287,64	45,57
287,855	84,48
288,07	-91,65
288,285	80,38
288,5	119,29
288,715	100,86
288,93	-11,78
289,145	18,94
289,36	121,34
289,575	-9,73
289,79	217,6
290,004	-44,54
290,219	174,59
290,434	33,28
290,649	-101,89
290,864	-95,74
291,079	6,66
291,294	121,34
291,509	82,43
291,724	-54,78
291,938	0,51
292,153	74,24
292,368	-34,3
292,583	-7,68
292,798	10,75
293,012	-32,26
293,227	104,96
293,442	-1,54
293,657	72,19
293,871	133,63
294,086	-5,63
294,301	193,02
294,516	92,67
294,73	2,56
294,945	10,75
295,16	10,75
295,374	145,92
295,589	74,24
295,804	-60,93
296,018	72,19
296,233	160,25
296,447	92,67
296,662	-32,26
296,877	152,06
297,091	117,25
297,306	8,7
297,52	-26,11
297,735	80,38
297,949	33,28
298,164	61,95
298,378	12,8
298,593	-67,07
298,807	-19,97
299,022	14,85
299,236	174,59
299,451	33,28
299,665	-26,11
299,88	8,7
300,094	33,28
300,309	55,81
300,523	55,81
300,737	23,04
300,952	117,25
301,166	64
301,381	-56,83
301,595	-65,02
301,809	39,42
302,024	14,85
302,238	43,52
302,452	78,33
302,667	92,67
302,881	180,73
303,095	109,05
303,309	-32,26
303,524	25,09
303,738	-9,73
303,952	33,28
304,166	88,57
304,381	-97,79
304,595	172,54
304,809	-5,63
305,023	8,7
305,237	-34,3
305,452	31,23
305,666	41,47
305,88	66,05
306,094	94,72
306,308	115,2
306,522	55,81
306,736	90,62
306,95	59,9
307,164	47,62
307,379	39,42
307,593	127,49
307,807	139,77
308,021	82,43
308,235	147,97
308,449	-19,97
308,663	43,52
308,877	211,45
309,091	12,8
309,305	41,47
309,519	-144,89
309,733	123,39
309,947	-85,5
310,161	59,9
310,374	31,23
310,588	172,54
310,802	-7,68
311,016	-58,88
311,23	55,81
311,444	-22,02
311,658	20,99
311,872	164,35
312,085	180,73
312,299	64
312,513	154,11
312,727	96,77
312,941	6,66
313,154	45,57
313,368	27,14
313,582	96,77
313,796	96,77
314,009	90,62
314,223	115,2
314,437	88,57
314,651	129,53
314,864	82,43
315,078	43,52
315,292	-95,74
315,505	43,52
315,719	84,48
315,933	23,04
316,146	41,47
316,36	-32,26
316,573	139,77
316,787	84,48
317,001	37,38
317,214	-52,74
317,428	96,77
317,641	-62,98
317,855	41,47
318,068	47,62
318,282	-42,5
318,495	190,97
318,709	96,77
318,922	41,47
319,136	102,91
319,349	113,15
319,563	37,38
319,776	92,67
319,99	-28,16
320,203	186,88
320,417	76,29
320,63	117,25
320,843	131,58
321,057	84,48
321,27	84,48
321,483	66,05
321,697	121,34
321,91	45,57
322,124	51,71
322,337	107,01
322,55	37,38
322,763	133,63
322,977	10,75
323,19	-7,68
323,403	-5,63
323,617	92,67
323,83	141,82
324,043	-36,35
324,256	68,09
324,469	-28,16
324,683	92,67
324,896	68,09
325,109	55,81
325,322	4,61
325,535	92,67
325,748	143,87
325,962	39,42
326,175	96,77
326,388	59,9
326,601	156,16
326,814	31,23
327,027	45,57
327,24	129,53
327,453	-48,64
327,666	90,62
327,879	102,91
328,092	115,2
328,305	100,86
328,518	-50,69
328,731	37,38
328,944	49,66
329,157	82,43
329,37	-15,87
329,583	166,4
329,796	76,29
330,009	-65,02
330,222	125,44
330,435	125,44
330,648	20,99
330,861	74,24
331,073	72,19
331,286	113,15
331,499	47,62
331,712	-83,45
331,925	-7,68
332,138	51,71
332,35	145,92
332,563	27,14
332,776	170,49
332,989	-58,88
333,202	16,9
333,414	-3,58
333,627	23,04
333,84	10,75
334,053	66,05
334,265	6,66
334,478	14,85
334,691	113,15
334,903	74,24
335,116	-5,63
335,329	-3,58
335,541	147,97
335,754	246,27
335,966	2,56
336,179	74,24
336,392	84,48
336,604	-5,63
336,817	152,06
337,029	131,58
337,242	88,57
337,454	80,38
337,667	96,77
337,88	182,78
338,092	141,82
338,305	193,02
338,517	-9,73
338,729	121,34
338,942	154,11
339,154	0,51
339,367	14,85
339,579	80,38
339,792	-77,31
340,004	117,25
340,217	-3,58
340,429	84,48
340,641	27,14
340,854	-34,3
341,066	35,33
341,278	102,91
341,491	113,15
341,703	57,86
341,915	-38,4
342,128	129,53
342,34	107,01
342,552	-19,97
342,764	66,05
342,977	-15,87
343,189	98,81
343,401	31,23
343,613	-81,41
343,826	64
344,038	14,85
344,25	33,28
344,462	10,75
344,674	37,38
344,886	8,7
345,099	109,05
345,311	139,77
345,523	37,38
345,735	-17,92
345,947	72,19
346,159	127,49
346,371	57,86
346,583	53,76
346,795	193,02
347,007	27,14
347,219	96,77
347,431	143,87
347,643	195,07
347,855	39,42
348,067	135,68
348,279	-11,78
348,491	92,67
348,703	143,87
348,915	49,66
349,127	55,81
349,339	12,8
349,551	23,04
349,763	117,25
349,975	64
350,187	117,25
350,399	119,29
350,61	145,92
350,822	49,66
351,034	33,28
351,246	92,67
351,458	92,67
351,669	88,57
351,881	160,25
352,093	221,69
352,305	133,63
352,517	127,49
352,728	209,4
352,94	55,81
353,152	174,59
353,363	-32,26
353,575	98,81
353,787	227,84
353,999	104,96
354,21	229,88
354,422	-22,02
354,633	55,81
354,845	109,05
355,057	-17,92
355,268	82,43
355,48	236,03
355,692	-60,93
355,903	-13,82
356,115	57,86
356,326	-7,68
356,538	197,12
356,749	47,62
356,961	166,4
357,172	70,14
357,384	66,05
357,595	289,28
357,807	20,99
358,018	8,7
358,23	64
358,441	180,73
358,653	143,87
358,864	14,85
359,075	27,14
359,287	74,24
359,498	178,69
359,709	86,53
359,921	59,9
360,132	119,29
360,344	57,86
360,555	41,47
360,766	-22,02
360,977	8,7
361,189	238,08
361,4	31,23
361,611	109,05
361,823	176,64
362,034	57,86
362,245	-19,97
362,456	-15,87
362,667	59,9
362,879	29,18
363,09	70,14
363,301	96,77
363,512	111,1
363,723	4,61
363,935	113,15
364,146	113,15
364,357	72,19
364,568	47,62
364,779	27,14
364,99	252,41
365,201	43,52
365,412	154,11
365,623	-65,02
365,834	166,4
366,045	123,39
366,256	41,47
366,467	55,81
366,678	115,2
366,889	41,47
367,1	104,96
367,311	111,1
367,522	55,81
367,733	129,53
367,944	76,29
368,155	33,28
368,366	125,44
368,577	186,88
368,788	207,36
368,999	41,47
369,209	80,38
369,42	186,88
369,631	334,33
369,842	119,29
370,053	31,23
370,264	80,38
370,474	35,33
370,685	152,06
370,896	37,38
371,107	129,53
371,317	119,29
371,528	86,53
371,739	190,97
371,95	123,39
372,16	141,82
372,371	-50,69
372,582	49,66
372,792	188,93
373,003	76,29
373,214	96,77
373,424	162,3
373,635	64
373,846	117,25
374,056	141,82
374,267	119,29
374,477	100,86
374,688	2,56
374,898	4,61
375,109	123,39
375,319	47,62
375,53	143,87
375,74	94,72
375,951	100,86
376,161	74,24
376,372	158,21
376,582	80,38
376,793	102,91
377,003	27,14
377,214	41,47
377,424	203,26
377,635	82,43
377,845	0,51
378,055	162,3
378,266	-5,63
378,476	90,62
378,686	109,05
378,897	45,57
379,107	141,82
379,317	172,54
379,528	0,51
379,738	160,25
379,948	31,23
380,158	195,07
380,369	76,29
380,579	74,24
380,789	33,28
380,999	113,15
381,21	162,3
381,42	305,66
381,63	25,09
381,84	182,78
382,05	141,82
382,261	223,74
382,471	141,82
382,681	92,67
382,891	168,45
383,101	41,47
383,311	4,61
383,521	27,14
383,731	211,45
383,941	152,06
384,151	125,44
384,361	125,44
384,571	115,2
384,781	64
384,991	254,46
385,201	213,5
385,411	201,21
385,621	190,97
385,831	53,76
386,041	61,95
386,251	-42,5
386,461	180,73
386,671	86,53
386,881	57,86
387,091	41,47
387,301	164,35
387,511	76,29
387,72	186,88
387,93	160,25
388,14	-38,4
388,35	47,62
388,56	190,97
388,769	109,05
388,979	80,38
389,189	68,09
389,399	16,9
389,609	119,29
389,818	61,95
390,028	74,24
390,238	88,57
390,447	76,29
390,657	121,34
390,867	88,57
391,076	-54,78
391,286	143,87
391,496	18,94
391,705	57,86
391,915	295,42
392,125	170,49
392,334	-3,58
392,544	160,25
392,753	59,9
392,963	55,81
393,172	92,67
393,382	37,38
393,591	221,69
393,801	4,61
394,01	104,96
394,22	180,73
394,429	31,23
394,639	61,95
394,848	80,38
395,058	98,81
395,267	90,62
395,477	162,3
395,686	104,96
395,895	219,64
396,105	320
396,314	188,93
396,524	84,48
396,733	111,1
396,942	231,93
397,152	178,69
397,361	135,68
397,57	154,11
397,78	92,67
397,989	129,53
398,198	256,51
398,407	145,92
398,617	102,91
398,826	104,96
399,035	82,43
399,244	156,16
399,453	88,57
399,663	76,29
399,872	76,29
400,081	47,62
400,29	152,06
400,499	6,66
400,708	158,21
400,917	137,73
401,127	-15,87
401,336	2,56
401,545	195,07
401,754	164,35
401,963	154,11
402,172	41,47
402,381	-32,26
402,59	98,81
402,799	47,62
403,008	188,93
403,217	88,57
403,426	23,04
403,635	37,38
403,844	39,42
404,053	-19,97
404,262	-17,92
404,471	170,49
404,68	109,05
404,888	92,67
405,097	-7,68
405,306	72,19
405,515	119,29
405,724	82,43
405,933	127,49
406,142	64
406,35	184,83
406,559	-13,82
406,768	53,76
406,977	145,92
407,185	47,62
407,394	-7,68
407,603	16,9
407,812	119,29
408,02	172,54
408,229	115,2
408,438	117,25
408,646	109,05
408,855	182,78
409,064	119,29
409,272	158,21
409,481	244,22
409,69	166,4
409,898	121,34
410,107	254,46
410,315	305,66
410,524	178,69
410,733	283,13
410,941	197,12
411,15	186,88
411,358	176,64
411,567	137,73
411,775	145,92
411,984	123,39
412,192	164,35
412,401	72,19
412,609	240,12
412,818	117,25
413,026	33,28
413,234	104,96
413,443	96,77
413,651	80,38
413,86	84,48
414,068	170,49
414,276	141,82
414,485	31,23
414,693	223,74
414,901	174,59
415,11	115,2
415,318	23,04
415,526	29,18
415,734	125,44
415,943	51,71
416,151	156,16
416,359	-30,21
416,567	109,05
416,776	125,44
416,984	20,99
417,192	164,35
417,4	10,75
417,608	18,94
417,817	14,85
418,025	139,77
418,233	227,84
418,441	-5,63
418,649	16,9
418,857	76,29
419,065	115,2
419,273	16,9
419,481	61,95
419,689	64
419,897	-30,21
420,105	55,81
420,313	117,25
420,521	72,19
420,729	158,21
420,937	80,38
421,145	-56,83
421,353	135,68
421,561	193,02
421,769	59,9
421,977	57,86
422,185	145,92
422,393	45,57
422,601	111,1
422,809	53,76
423,017	111,1
423,224	23,04
423,432	145,92
423,64	-67,07
423,848	156,16
424,056	-13,82
424,263	123,39
424,471	86,53
424,679	123,39
424,887	-34,3
425,094	92,67
425,302	31,23
425,51	33,28
425,718	45,57
425,925	16,9
426,133	-11,78
426,341	160,25
426,548	-26,11
426,756	64
426,964	133,63
427,171	-58,88
427,379	111,1
427,586	102,91
427,794	70,14
428,001	125,44
428,209	16,9
428,417	92,67
428,624	27,14
428,832	64
429,039	33,28
429,247	55,81
429,454	82,43
429,662	121,34
429,869	109,05
430,076	-19,97
430,284	147,97
430,491	178,69
430,699	90,62
430,906	229,88
431,114	12,8
431,321	164,35
431,528	104,96
431,736	203,26
431,943	199,16
432,15	252,41
432,358	297,47
432,565	502,26
432,772	295,42
432,979	496,12
433,187	645,62
433,394	799,22
433,601	891,38
433,808	1053,17
434,016	963,06
434,223	1061,36
434,43	891,38
434,637	983,54
434,844	727,54
435,052	598,52
435,259	545,27
435,466	367,1
435,673	283,13
435,88	238,08
436,087	320
436,294	301,56
436,501	193,02
436,708	133,63
436,915	74,24
437,122	170,49
437,329	117,25
437,537	-22,02
437,743	125,44
437,95	143,87
438,157	104,96
438,364	-3,58
438,571	78,33
438,778	147,97
438,985	70,14
439,192	168,45
439,399	57,86
439,606	43,52
439,813	170,49
440,02	88,57
440,227	236,03
440,433	76,29
440,64	117,25
440,847	18,94
441,054	150,01
441,261	143,87
441,467	131,58
441,674	-15,87
441,881	90,62
442,088	-32,26
442,294	117,25
442,501	90,62
442,708	188,93
442,914	23,04
443,121	59,9
443,328	66,05
443,534	113,15
443,741	20,99
443,948	-54,78
444,154	-1,54
444,361	233,98
444,568	12,8
444,774	80,38
444,981	-60,93
445,187	162,3
445,394	6,66
445,6	6,66
445,807	129,53
446,013	47,62
446,22	-9,73
446,426	-40,45
446,633	96,77
446,839	219,64
447,046	0,51
447,252	117,25
447,459	4,61
447,665	76,29
447,871	72,19
448,078	102,91
448,284	33,28
448,491	100,86
448,697	64
448,903	82,43
449,11	55,81
449,316	23,04
449,522	166,4
449,728	84,48
449,935	12,8
450,141	6,66
450,347	84,48
450,553	47,62
450,76	61,95
450,966	6,66
451,172	37,38
451,378	47,62
451,584	90,62
451,791	162,3
451,997	119,29
452,203	6,66
452,409	213,5
452,615	100,86
452,821	66,05
453,027	-28,16
453,233	227,84
453,44	35,33
453,646	-24,06
453,852	57,86
454,058	-34,3
454,264	37,38
454,47	98,81
454,676	-30,21
454,882	88,57
455,088	186,88
455,294	61,95
455,5	96,77
455,705	92,67
455,911	35,33
456,117	84,48
456,323	72,19
456,529	152,06
456,735	78,33
456,941	47,62
457,147	107,01
457,352	80,38
457,558	-89,6
457,764	96,77
457,97	88,57
458,176	70,14
458,381	-50,69
458,587	176,64
458,793	84,48
458,999	33,28
459,204	88,57
459,41	-1,54
459,616	82,43
459,821	25,09
460,027	-9,73
460,233	176,64
460,438	186,88
460,644	6,66
460,85	111,1
461,055	123,39
461,261	135,68
461,466	74,24
461,672	104,96
461,878	-38,4
462,083	127,49
462,289	12,8
462,494	-5,63
462,7	96,77
462,905	49,66
463,111	152,06
463,316	242,17
463,522	143,87
463,727	74,24
463,932	115,2
464,138	109,05
464,343	37,38
464,549	141,82
464,754	172,54
464,959	170,49
465,165	16,9
465,37	139,77
465,575	12,8
465,781	33,28
465,986	16,9
466,191	64
466,397	66,05
466,602	195,07
466,807	141,82
467,012	82,43
467,218	4,61
467,423	84,48
467,628	68,09
467,833	-34,3
468,038	35,33
468,244	-46,59
468,449	-9,73
468,654	111,1
468,859	82,43
469,064	20,99
469,269	88,57
469,474	219,64
469,679	170,49
469,885	80,38
470,09	0,51
470,295	59,9
470,5	35,33
470,705	131,58
470,91	39,42
471,115	94,72
471,32	96,77
471,525	236,03
471,73	217,6
471,935	16,9
472,139	6,66
472,344	-22,02
472,549	96,77
472,754	123,39
472,959	94,72
473,164	53,76
473,369	96,77
473,574	217,6
473,778	156,16
473,983	137,73
474,188	160,25
474,393	29,18
474,598	96,77
474,802	47,62
475,007	14,85
475,212	162,3
475,417	80,38
475,621	199,16
475,826	-9,73
476,031	55,81
476,235	27,14
476,44	37,38
476,645	92,67
476,849	68,09
477,054	-44,54
477,259	66,05
477,463	154,11
477,668	303,61
477,872	160,25
478,077	80,38
478,282	-30,21
478,486	117,25
478,691	125,44
478,895	107,01
479,1	178,69
479,304	147,97
479,509	51,71
479,713	211,45
479,918	188,93
480,122	29,18
480,326	133,63
480,531	76,29
480,735	164,35
480,94	98,81
481,144	131,58
481,348	164,35
481,553	113,15
481,757	33,28
481,961	27,14
482,166	47,62
482,37	12,8
482,574	178,69
482,778	31,23
482,983	162,3
483,187	107,01
483,391	160,25
483,595	207,36
483,8	537,08
484,004	784,88
484,208	1245,68
484,412	2138,59
484,616	3201,49
484,821	4442,56
485,025	5927,33
485,229	7383,44
485,433	8792,44
485,637	9974,12
485,841	10266,98
486,045	10848,6
486,249	10578,27
486,453	9863,53
486,657	8900,98
486,861	8055,17
487,065	6519,2
487,269	5487,02
487,473	4231,62
487,677	3787,21
487,881	3123,66
488,085	2279,9
488,289	1769,96
488,493	1290,73
488,697	1022,45
488,901	655,86
489,105	326,14
489,309	158,21
489,512	301,56
489,716	203,26
489,92	201,21
490,124	207,36
490,328	188,93
490,531	135,68
490,735	186,88
490,939	-13,82
491,143	180,73
491,346	147,97
491,55	135,68
491,754	141,82
491,958	184,83
492,161	88,57
492,365	68,09
492,569	-5,63
492,772	193,02
492,976	162,3
493,18	98,81
493,383	121,34
493,587	43,52
493,79	129,53
493,994	16,9
494,197	96,77
494,401	96,77
494,605	14,85
494,808	45,57
495,012	107,01
495,215	156,16
495,419	180,73
495,622	127,49
495,825	43,52
496,029	115,2
496,232	137,73
496,436	64
496,639	141,82
496,843	172,54
497,046	23,04
497,249	217,6
497,453	61,95
497,656	23,04
497,859	156,16
498,063	211,45
498,266	141,82
498,469	16,9
498,673	59,9
498,876	10,75
499,079	-7,68
499,282	59,9
499,485	317,95
499,689	8,7
499,892	162,3
500,095	6,66
500,298	-9,73
500,501	-32,26
500,705	154,11
500,908	-13,82
501,111	57,86
501,314	109,05
501,517	170,49
501,72	94,72
501,923	100,86
502,126	2,56
502,329	156,16
502,532	141,82
502,735	18,94
502,938	115,2
503,141	51,71
503,344	-3,58
503,547	166,4
503,75	35,33
503,953	33,28
504,156	104,96
504,359	96,77
504,562	37,38
504,765	82,43
504,968	109,05
505,17	80,38
505,373	66,05
505,576	170,49
505,779	-13,82
505,982	-99,84
506,185	55,81
506,387	-5,63
506,59	68,09
506,793	96,77
506,996	96,77
507,198	158,21
507,401	164,35
507,604	213,5
507,807	41,47
508,009	96,77
508,212	64
508,415	14,85
508,617	27,14
508,82	96,77
509,022	90,62
509,225	27,14
509,428	10,75
509,63	35,33
509,833	41,47
510,035	289,28
510,238	113,15
510,44	41,47
510,643	74,24
510,845	119,29
511,048	170,49
511,25	98,81
511,453	147,97
511,655	29,18
511,858	219,64
512,06	268,8
512,262	33,28
512,465	107,01
512,667	68,09
512,87	-112,13
513,072	43,52
513,274	74,24
513,477	-19,97
513,679	23,04
513,881	51,71
514,084	45,57
514,286	123,39
514,488	86,53
514,69	174,59
514,893	41,47
515,095	16,9
515,297	-11,78
515,499	35,33
515,701	-22,02
515,904	96,77
516,106	254,46
516,308	133,63
516,51	61,95
516,712	113,15
516,914	66,05
517,116	16,9
517,318	-15,87
517,52	59,9
517,722	205,31
517,925	39,42
518,127	119,29
518,329	147,97
518,531	-116,22
518,733	90,62
518,935	51,71
519,136	139,77
519,338	16,9
519,54	94,72
519,742	72,19
519,944	195,07
520,146	125,44
520,348	70,14
520,55	123,39
520,752	6,66
520,954	37,38
521,155	86,53
521,357	25,09
521,559	88,57
521,761	123,39
521,963	78,33
522,164	57,86
522,366	178,69
522,568	117,25
522,77	145,92
522,971	139,77
523,173	59,9
523,375	88,57
523,576	41,47
523,778	-48,64
523,98	-17,92
524,181	98,81
524,383	72,19
524,584	35,33
524,786	121,34
524,988	68,09
525,189	96,77
525,391	147,97
525,592	51,71
525,794	-15,87
525,995	25,09
526,197	119,29
526,398	279,04
526,6	96,77
526,801	164,35
527,003	-130,56
527,204	49,66
527,406	20,99
527,607	80,38
527,808	33,28
528,01	55,81
528,211	133,63
528,412	-65,02
528,614	117,25
528,815	102,91
529,016	125,44
529,218	80,38
529,419	82,43
529,62	16,9
529,822	115,2
530,023	80,38
530,224	47,62
530,425	74,24
530,626	-5,63
530,828	141,82
531,029	-7,68
531,23	154,11
531,431	-32,26
531,632	197,12
531,833	-58,88
532,035	31,23
532,236	-17,92
532,437	121,34
532,638	47,62
532,839	-136,7
533,04	121,34
533,241	141,82
533,442	66,05
533,643	68,09
533,844	47,62
534,045	127,49
534,246	66,05
534,447	33,28
534,648	-19,97
534,849	104,96
535,05	104,96
535,251	16,9
535,451	76,29
535,652	41,47
535,853	86,53
536,054	88,57
536,255	43,52
536,456	104,96
536,657	6,66
536,857	51,71
537,058	135,68
537,259	8,7
537,46	20,99
537,66	76,29
537,861	-19,97
538,062	-5,63
538,263	-108,03
538,463	111,1
538,664	90,62
538,865	14,85
539,065	125,44
539,266	127,49
539,466	49,66
539,667	135,68
539,868	123,39
540,068	61,95
540,269	53,76
540,469	84,48
540,67	174,59
540,87	117,25
541,071	-65,02
541,271	121,34
541,472	170,49
541,672	139,77
541,873	100,86
542,073	-26,11
542,274	25,09
542,474	115,2
542,675	129,53
542,875	33,28
543,075	-34,3
543,276	64
543,476	33,28
543,676	70,14
543,877	88,57
544,077	66,05
544,277	113,15
544,478	55,81
544,678	113,15
544,878	20,99
545,078	23,04
545,279	72,19
545,479	-11,78
545,679	29,18
545,879	64
546,079	92,67
546,28	-15,87
546,48	147,97
546,68	145,92
546,88	57,86
547,08	55,81
547,28	86,53
547,48	-38,4
547,68	174,59
547,88	47,62
548,081	76,29
548,281	-38,4
548,481	96,77
548,681	31,23
548,881	18,94
549,081	53,76
549,28	31,23
549,48	37,38
549,68	12,8
549,88	45,57
550,08	-34,3
550,28	-17,92
550,48	166,4
550,68	-1,54
550,88	4,61
551,08	57,86
551,279	145,92
551,479	84,48
551,679	168,45
551,879	-5,63
552,079	123,39
552,278	39,42
552,478	188,93
552,678	123,39
552,878	119,29
553,077	41,47
553,277	-3,58
553,477	29,18
553,676	154,11
553,876	156,16
554,076	10,75
554,275	51,71
554,475	33,28
554,674	113,15
554,874	23,04
555,074	51,71
555,273	-7,68
555,473	27,14
555,672	64
555,872	4,61
556,071	86,53
556,271	166,4
556,47	70,14
556,67	37,38
556,869	109,05
557,068	55,81
557,268	57,86
557,467	96,77
557,667	133,63
557,866	16,9
558,065	25,09
558,265	8,7
558,464	49,66
558,663	16,9
558,863	51,71
559,062	18,94
559,261	-58,88
559,461	43,52
559,66	49,66
559,859	-5,63
560,058	10,75
560,258	-75,26
560,457	61,95
560,656	170,49
560,855	-24,06
561,054	80,38
561,253	57,86
561,453	51,71
561,652	14,85
561,851	86,53
562,05	92,67
562,249	-93,69
562,448	164,35
562,647	-30,21
562,846	78,33
563,045	115,2
563,244	8,7
563,443	104,96
563,642	29,18
563,841	53,76
564,04	98,81
564,239	57,86
564,438	0,51
564,637	-65,02
564,836	-48,64
565,035	43,52
565,234	20,99
565,432	152,06
565,631	59,9
565,83	90,62
566,029	51,71
566,228	129,53
566,427	127,49
566,625	-83,45
566,824	43,52
567,023	84,48
567,222	94,72
567,42	84,48
567,619	31,23
567,818	4,61
568,016	219,64
568,215	88,57
568,414	172,54
568,612	64
568,811	92,67
569,01	76,29
569,208	117,25
569,407	100,86
569,605	160,25
569,804	119,29
570,002	188,93
570,201	90,62
570,4	113,15
570,598	59,9
570,797	41,47
570,995	45,57
571,193	162,3
571,392	100,86
571,59	-1,54
571,789	143,87
571,987	156,16
572,186	172,54
572,384	31,23
572,582	121,34
572,781	197,12
572,979	-1,54
573,177	43,52
573,376	158,21
573,574	150,01
573,772	78,33
573,971	31,23
574,169	76,29
574,367	111,1
574,565	35,33
574,763	33,28
574,962	129,53
575,16	158,21
575,358	45,57
575,556	84,48
575,754	92,67
575,952	109,05
576,151	145,92
576,349	225,79
576,547	-50,69
576,745	174,59
576,943	156,16
577,141	66,05
577,339	88,57
577,537	88,57
577,735	174,59
577,933	188,93
578,131	-13,82
578,329	227,84
578,527	68,09
578,725	186,88
578,923	31,23
579,121	162,3
579,319	23,04
579,516	131,58
579,714	320
579,912	98,81
580,11	61,95
580,308	117,25
580,506	72,19
580,704	41,47
580,901	131,58
581,099	291,32
581,297	174,59
581,495	154,11
581,692	170,49
581,89	301,56
582,088	211,45
582,285	115,2
582,483	164,35
582,681	115,2
582,878	141,82
583,076	145,92
583,274	115,2
583,471	328,19
583,669	86,53
583,866	59,9
584,064	92,67
584,262	29,18
584,459	80,38
584,657	55,81
584,854	207,36
585,052	137,73
585,249	195,07
585,447	92,67
585,644	68,09
585,841	279,04
586,039	225,79
586,236	223,74
586,434	178,69
586,631	107,01
586,828	27,14
587,026	115,2
587,223	-48,64
587,42	-7,68
587,618	94,72
587,815	215,55
588,012	72,19
588,21	-13,82
588,407	127,49
588,604	88,57
588,801	84,48
588,999	180,73
589,196	127,49
589,393	78,33
589,59	145,92
589,787	76,29
589,984	152,06
590,182	139,77
590,379	53,76
590,576	25,09
590,773	-85,5
590,97	49,66
591,167	139,77
591,364	154,11
591,561	57,86
591,758	244,22
591,955	184,83
592,152	88,57
592,349	66,05
592,546	104,96
592,743	2,56
592,94	78,33
593,137	139,77
593,334	207,36
593,531	147,97
593,727	123,39
593,924	82,43
594,121	84,48
594,318	-5,63
594,515	154,11
594,712	160,25
594,908	293,37
595,105	64
595,302	86,53
595,499	143,87
595,696	221,69
595,892	31,23
596,089	147,97
596,286	49,66
596,482	248,32
596,679	66,05
596,876	25,09
597,072	121,34
597,269	8,7
597,466	39,42
597,662	49,66
597,859	39,42
598,055	66,05
598,252	66,05
598,448	115,2
598,645	176,64
598,841	39,42
599,038	293,37
599,234	219,64
599,431	152,06
599,627	125,44
599,824	76,29
600,02	37,38
600,217	27,14
600,413	137,73
600,609	100,86
600,806	416,25
601,002	137,73
601,198	-1,54
601,395	131,58
601,591	131,58
601,787	119,29
601,984	221,69
602,18	107,01
602,376	178,69
602,572	141,82
602,769	293,37
602,965	104,96
603,161	174,59
603,357	113,15
603,553	229,88
603,75	-7,68
603,946	90,62
604,142	111,1
604,338	233,98
604,534	88,57
604,73	154,11
604,926	72,19
605,122	145,92
605,318	80,38
605,514	154,11
605,71	147,97
605,906	115,2
606,102	57,86
606,298	172,54
606,494	150,01
606,69	170,49
606,886	162,3
607,082	78,33
607,278	-19,97
607,474	150,01
607,67	92,67
607,866	-30,21
608,062	131,58
608,257	121,34
608,453	-15,87
608,649	184,83
608,845	31,23
609,041	-40,45
609,236	123,39
609,432	119,29
609,628	104,96
609,824	117,25
610,019	-5,63
610,215	92,67
610,411	145,92
610,606	162,3
610,802	-3,58
610,998	109,05
611,193	195,07
611,389	10,75
611,584	92,67
611,78	18,94
611,976	61,95
612,171	227,84
612,367	229,88
612,562	49,66
612,758	76,29
612,953	31,23
613,149	98,81
613,344	27,14
613,539	78,33
613,735	141,82
613,93	68,09
614,126	86,53
614,321	29,18
614,517	158,21
614,712	76,29
614,907	145,92
615,103	131,58
615,298	33,28
615,493	10,75
615,688	27,14
615,884	45,57
616,079	66,05
616,274	109,05
616,47	-42,5
616,665	43,52
616,86	6,66
617,055	55,81
617,25	47,62
617,445	43,52
617,641	68,09
617,836	-1,54
618,031	-48,64
618,226	152,06
618,421	88,57
618,616	-1,54
618,811	64
619,006	-22,02
619,201	174,59
619,396	51,71
619,591	-32,26
619,786	127,49
619,981	117,25
620,176	82,43
620,371	4,61
620,566	53,76
620,761	160,25
620,956	-65,02
621,151	90,62
621,346	35,33
621,541	-28,16
621,735	135,68
621,93	-5,63
622,125	27,14
622,32	-54,78
622,515	4,61
622,709	119,29
622,904	92,67
623,099	98,81
623,294	123,39
623,488	143,87
623,683	43,52
623,878	25,09
624,072	115,2
624,267	27,14
624,462	8,7
624,656	-32,26
624,851	137,73
625,046	-1,54
625,24	74,24
625,435	55,81
625,629	51,71
625,824	88,57
626,018	113,15
626,213	170,49
626,407	39,42
626,602	164,35
626,796	57,86
626,991	154,11
627,185	6,66
627,38	49,66
627,574	123,39
627,768	160,25
627,963	129,53
628,157	131,58
628,352	37,38
628,546	6,66
628,74	104,96
628,935	-11,78
629,129	47,62
629,323	98,81
629,517	-56,83
629,712	23,04
629,906	-42,5
630,1	12,8
630,294	125,44
630,489	113,15
630,683	-5,63
630,877	80,38
631,071	158,21
631,265	-17,92
631,459	121,34
631,653	31,23
631,848	12,8
632,042	84,48
632,236	-46,59
632,43	129,53
632,624	47,62
632,818	18,94
633,012	94,72
633,206	37,38
633,4	55,81
633,594	61,95
633,788	82,43
633,982	90,62
634,176	133,63
634,369	12,8
634,563	18,94
634,757	-32,26
634,951	88,57
635,145	172,54
635,339	55,81
635,533	123,39
635,726	162,3
635,92	2,56
636,114	6,66
636,308	2,56
636,501	53,76
636,695	203,26
636,889	-38,4
637,083	147,97
637,276	88,57
637,47	39,42
637,664	88,57
637,857	66,05
638,051	86,53
638,244	227,84
638,438	-1,54
638,632	143,87
638,825	-24,06
639,019	190,97
639,212	113,15
639,406	139,77
639,599	39,42
639,793	59,9
639,986	70,14
640,18	96,77
640,373	-40,45
640,567	111,1
640,76	113,15
640,954	137,73
641,147	4,61
641,34	76,29
641,534	18,94
641,727	111,1
641,92	25,09
642,114	145,92
642,307	-46,59
642,5	137,73
642,694	94,72
642,887	84,48
643,08	90,62
643,273	176,64
643,467	109,05
643,66	-3,58
643,853	49,66
644,046	107,01
644,239	143,87
644,432	-5,63
644,626	-85,5
644,819	66,05
645,012	104,96
645,205	78,33
645,398	190,97
645,591	29,18
645,784	-15,87
645,977	18,94
646,17	43,52
646,363	16,9
646,556	76,29
646,749	16,9
646,942	31,23
647,135	96,77
647,328	29,18
647,521	141,82
647,714	102,91
647,907	78,33
648,099	43,52
648,292	88,57
648,485	70,14
648,678	35,33
648,871	96,77
649,064	160,25
649,256	10,75
649,449	31,23
649,642	-5,63
649,835	84,48
650,027	41,47
650,22	94,72
650,413	70,14
650,605	129,53
650,798	31,23
650,991	115,2
651,183	145,92
651,376	115,2
651,568	98,81
651,761	154,11
651,954	125,44
652,146	125,44
652,339	221,69
652,531	199,16
652,724	96,77
652,916	188,93
653,109	-7,68
653,301	186,88
653,494	145,92
653,686	219,64
653,879	227,84
654,071	320
654,263	254,46
654,456	559,61
654,648	2267,61
654,84	6896,02
655,033	15098,14
655,225	26054,77
655,417	37320,65
655,61	47482,67
655,802	55709,36
655,994	60763,74
656,186	62430,79
656,379	59854,45
656,571	55658,16
656,763	50142,98
656,955	45371,21
657,148	41639,81
657,34	37423,04
657,532	33413,12
657,724	30292,02
657,916	26650,73
658,108	22919,33
658,3	19226,84
658,492	16269,58
658,684	13041,98
658,876	10850,65
659,068	8350,08
659,26	6453,66
659,452	4905,4
659,644	3639,75
659,836	2677,21
660,028	1810,92
660,22	1292,78
660,412	920,05
660,604	719,35
660,796	543,22
660,988	502,26
661,18	336,38
661,372	393,72
661,563	252,41
661,755	252,41
661,947	154,11
662,139	221,69
662,331	188,93
662,522	158,21
662,714	121,34
662,906	47,62
663,097	78,33
663,289	80,38
663,481	20,99
663,673	180,73
663,864	64
664,056	82,43
664,247	41,47
664,439	164,35
664,631	55,81
664,822	145,92
665,014	49,66
665,205	78,33
665,397	72,19
665,588	162,3
665,78	92,67
665,971	115,2
666,163	35,33
666,354	152,06
666,546	-58,88
666,737	61,95
666,929	-17,92
667,12	35,33
667,311	186,88
667,503	80,38
667,694	143,87
667,885	86,53
668,077	117,25
668,268	-67,07
668,459	70,14
668,651	143,87
668,842	78,33
669,033	37,38
669,224	-81,41
669,416	190,97
669,607	47,62
669,798	-19,97
669,989	154,11
670,18	-9,73
670,371	111,1
670,563	49,66
670,754	123,39
670,945	119,29
671,136	109,05
671,327	-24,06
671,518	125,44
671,709	135,68
671,9	133,63
672,091	102,91
672,282	-11,78
672,473	53,76
672,664	-26,11
672,855	51,71
673,046	66,05
673,237	121,34
673,428	37,38
673,619	141,82
673,809	31,23
674	195,07
674,191	84,48
674,382	55,81
674,573	70,14
674,764	14,85
674,954	141,82
675,145	-79,36
675,336	-17,92
675,527	-15,87
675,717	35,33
675,908	68,09
676,099	31,23
676,289	82,43
676,48	-32,26
676,671	51,71
676,861	16,9
677,052	53,76
677,243	10,75
677,433	-58,88
677,624	55,81
677,814	121,34
678,005	-11,78
678,195	133,63
678,386	12,8
678,576	-30,21
678,767	-101,89
678,957	-15,87
679,148	47,62
679,338	115,2
679,529	125,44
679,719	-5,63
679,909	57,86
680,1	100,86
680,29	82,43
680,481	-108,03
680,671	82,43
680,861	64
681,052	37,38
681,242	-17,92
681,432	104,96
681,622	41,47
681,813	-97,79
682,003	-24,06
682,193	-34,3
682,383	96,77
682,573	-15,87
682,764	-24,06
682,954	8,7
683,144	68,09
683,334	-7,68
683,524	41,47
683,714	-17,92
683,904	23,04
684,094	-34,3
684,284	47,62
684,474	104,96
684,664	141,82
684,854	8,7
685,044	23,04
685,234	14,85
685,424	10,75
685,614	-105,98
685,804	186,88
685,994	162,3
686,184	20,99
686,374	66,05
686,564	35,33
686,753	-11,78
686,943	-124,41
687,133	-17,92
687,323	57,86
687,513	68,09
687,702	0,51
687,892	-30,21
688,082	109,05
688,272	68,09
688,461	-9,73
688,651	127,49
688,841	47,62
689,03	27,14
689,22	16,9
689,41	-9,73
689,599	88,57
689,789	-36,35
689,979	129,53
690,168	66,05
690,358	76,29
690,547	27,14
690,737	33,28
690,926	88,57
691,116	51,71
691,305	121,34
691,495	100,86
691,684	33,28
691,874	74,24
692,063	-50,69
692,252	59,9
692,442	92,67
692,631	31,23
692,82	27,14
693,01	125,44
693,199	-9,73
693,388	61,95
693,578	-34,3
693,767	33,28
693,956	41,47
694,146	53,76
694,335	137,73
694,524	86,53
694,713	61,95
694,902	39,42
695,092	35,33
695,281	86,53
695,47	27,14
695,659	33,28
695,848	45,57
696,037	-87,55
696,226	178,69
696,415	29,18
696,604	98,81
696,793	86,53
696,982	51,71
697,171	162,3
697,36	-3,58
697,549	-13,82
697,738	-112,13
697,927	53,76
698,116	-30,21
698,305	41,47
698,494	92,67
698,683	10,75
698,872	170,49
699,061	47,62
699,25	-67,07
699,438	-24,06
699,627	0,51
699,816	129,53
700,005	-120,32
700,193	-13,82
700,382	162,3
700,571	47,62
700,76	107,01
700,948	107,01
701,137	96,77
701,326	150,01
701,514	-108,03
701,703	86,53
701,892	86,53
702,08	190,97
702,269	-26,11
702,457	-46,59
702,646	53,76
702,834	51,71
703,023	98,81
703,212	109,05
703,4	47,62
703,589	-9,73
703,777	-9,73
703,965	23,04
704,154	-15,87
704,342	-128,51
704,531	16,9
704,719	6,66
704,907	82,43
705,096	-87,55
705,284	-97,79
705,472	47,62
705,661	88,57
705,849	-13,82
706,037	88,57
706,226	104,96
706,414	84,48
706,602	-56,83
706,79	133,63
706,979	25,09
707,167	25,09
707,355	-44,54
707,543	39,42
707,731	-17,92
707,919	45,57
708,107	-11,78
708,296	-38,4
708,484	-48,64
708,672	68,09
708,86	88,57
709,048	18,94
709,236	-9,73
709,424	76,29
709,612	43,52
709,8	-56,83
709,988	80,38
710,176	96,77
710,364	147,97
710,551	-42,5
710,739	-103,93
710,927	8,7
711,115	25,09
711,303	109,05
711,491	113,15
711,679	-75,26
711,866	107,01
712,054	-73,21
712,242	53,76
712,43	188,93
712,617	84,48
712,805	74,24
712,993	4,61
713,181	-15,87
713,368	94,72
713,556	-38,4
713,744	-15,87
713,931	141,82
714,119	45,57
714,306	-79,36
714,494	-22,02
714,682	37,38
714,869	-122,37
715,057	53,76
715,244	-177,66
715,432	-19,97
715,619	-5,63
715,807	-5,63
715,994	16,9
716,182	74,24
716,369	29,18
716,556	64
716,744	-81,41
716,931	-44,54
717,119	-24,06
717,306	-26,11
717,493	66,05
717,681	-187,9
717,868	27,14
718,055	61,95
718,242	31,23
718,43	-9,73
718,617	125,44
718,804	-15,87
718,991	211,45
719,179	39,42
719,366	107,01
719,553	74,24
719,74	14,85
719,927	-89,6
720,114	47,62
720,301	-65,02
720,488	-24,06
720,676	-34,3
720,863	51,71
721,05	186,88
721,237	53,76
721,424	94,72
721,611	-48,64
721,798	-56,83
721,985	12,8
722,172	-103,93
722,358	12,8
722,545	182,78
722,732	-1,54
722,919	80,38
723,106	49,66
723,293	55,81
723,48	70,14
723,667	-40,45
723,853	76,29
724,04	20,99
724,227	121,34
724,414	-11,78
724,6	31,23
724,787	186,88
724,974	143,87
725,161	2,56
725,347	-44,54
725,534	29,18
725,72	47,62
725,907	76,29
726,094	70,14
726,28	-56,83
726,467	-9,73
726,653	-13,82
726,84	207,36
727,027	127,49
727,213	-26,11
727,4	72,19
727,586	72,19
727,773	8,7
727,959	-19,97
728,145	37,38
728,332	14,85
728,518	29,18
728,705	94,72
728,891	16,9
729,077	8,7
729,264	-60,93
729,45	14,85
729,636	61,95
729,823	8,7
730,009	41,47
730,195	-65,02
730,382	16,9
730,568	-58,88
730,754	-5,63
730,94	31,23
731,126	-1,54
731,313	43,52
731,499	10,75
731,685	6,66
731,871	57,86
732,057	90,62
732,243	88,57
732,429	59,9
732,615	111,1
732,801	-3,58
732,987	-40,45
733,173	-13,82
733,359	-1,54
733,545	-11,78
733,731	57,86
733,917	16,9
734,103	33,28
734,289	86,53
734,475	20,99
734,661	186,88
734,847	6,66
735,033	-9,73
735,219	-65,02
735,404	33,28
735,59	39,42
735,776	-26,11
735,962	-32,26
736,148	45,57
736,333	147,97
736,519	76,29
736,705	-9,73
736,89	-9,73
737,076	-7,68
737,262	64
737,447	-42,5
737,633	-58,88
737,819	94,72
738,004	66,05
738,19	2,56
738,375	84,48
738,561	-71,17
738,747	-22,02
738,932	-75,26
739,118	127,49
739,303	51,71
739,489	-13,82
739,674	18,94
739,859	-26,11
740,045	94,72
740,23	-13,82
740,416	-140,8
740,601	53,76
740,786	0,51
740,972	-22,02
741,157	37,38
741,342	-58,88
741,528	-56,83
741,713	51,71
741,898	8,7
742,084	47,62
742,269	70,14
742,454	98,81
742,639	104,96
742,824	10,75
743,01	131,58
743,195	223,74
743,38	8,7
743,565	-73,21
743,75	37,38
743,935	70,14
744,12	156,16
744,305	-40,45
744,49	-67,07
744,675	-58,88
744,86	2,56
745,045	109,05
745,23	8,7
745,415	-24,06
745,6	125,44
745,785	10,75
745,97	57,86
746,155	125,44
746,34	90,62
746,525	43,52
746,71	96,77
746,895	-44,54
747,079	-52,74
747,264	-15,87
747,449	145,92
747,634	82,43
747,819	137,73
748,003	31,23
748,188	-71,17
748,373	109,05
748,557	31,23
748,742	12,8
748,927	41,47
749,111	-13,82
749,296	6,66
749,481	90,62
749,665	-1,54
749,85	27,14
750,034	82,43
750,219	20,99
750,404	18,94
750,588	80,38
750,773	37,38
750,957	37,38
751,141	-26,11
751,326	88,57
751,51	4,61
751,695	16,9
751,879	51,71
752,064	133,63
752,248	10,75
752,432	145,92
752,617	31,23
752,801	43,52
752,985	-3,58
753,17	115,2
753,354	-5,63
753,538	117,25
753,722	-13,82
753,907	-42,5
754,091	-73,21
754,275	74,24
754,459	-40,45
754,643	-5,63
754,828	59,9
755,012	55,81
755,196	-60,93
755,38	23,04
755,564	4,61
755,748	-9,73
755,932	-9,73
756,116	82,43
756,3	-3,58
756,484	-30,21
756,668	109,05
756,852	-13,82
757,036	78,33
757,22	41,47
757,404	20,99
757,588	47,62
757,772	76,29
757,956	0,51
758,14	211,45
758,323	-5,63
758,507	16,9
758,691	-40,45
758,875	37,38
759,059	186,88
759,242	8,7
759,426	57,86
759,61	23,04
759,794	8,7
759,977	98,81
760,161	266,75
760,345	152,06
760,528	111,1
760,712	74,24
760,895	55,81
761,079	39,42
761,263	-95,74
761,446	-7,68
761,63	25,09
761,813	143,87
761,997	-81,41
762,18	0,51
762,364	72,19
762,547	-142,85
762,731	10,75
762,914	64
763,098	-46,59
763,281	0,51
763,464	76,29
763,648	78,33
763,831	-5,63
764,015	-126,46
764,198	162,3
764,381	35,33
764,564	-24,06
764,748	10,75
764,931	2,56
765,114	-81,41
765,297	84,48
765,481	-24,06
765,664	51,71
765,847	14,85
766,03	55,81
766,213	-50,69
766,397	25,09
766,58	-65,02
766,763	82,43
766,946	-34,3
767,129	-62,98
767,312	-65,02
767,495	-34,3
767,678	-65,02
767,861	41,47
768,044	-50,69
768,227	35,33
768,41	-54,78
768,593	-26,11
768,776	33,28
768,959	-38,4
769,142	94,72
769,324	-19,97
769,507	27,14
769,69	49,66
769,873	-36,35
770,056	215,55
770,239	-7,68
770,421	98,81
770,604	41,47
770,787	51,71
770,97	10,75
771,152	-15,87
771,335	47,62
771,518	-73,21
771,7	64
771,883	117,25
772,066	4,61
772,248	6,66
772,431	141,82
772,613	49,66
772,796	72,19
772,978	84,48
773,161	150,01
773,343	33,28
773,526	-34,3
773,708	-62,98
773,891	-24,06
774,073	-46,59
774,256	-17,92
774,438	127,49
774,621	6,66
774,803	55,81
774,985	49,66
775,168	117,25
775,35	6,66
775,532	123,39
775,715	-62,98
775,897	66,05
776,079	70,14
776,261	176,64
776,444	295,42
776,626	412,15
776,808	571,9
776,99	592,37
777,173	918
777,355	934,39
777,537	956,91
777,719	973,3
777,901	748,02
778,083	700,92
778,265	627,19
778,447	662,01
778,629	516,6
778,811	463,35
778,993	387,58
779,175	412,15
779,357	328,19
779,539	254,46
779,721	250,36
779,903	205,31
780,085	178,69
780,267	180,73
780,449	160,25
780,631	147,97
780,812	250,36
780,994	113,15
781,176	80,38
781,358	-9,73
781,54	-11,78
781,721	115,2
781,903	104,96
782,085	-9,73
782,267	74,24
782,448	-99,84
782,63	-17,92
782,812	45,57
782,993	113,15
783,175	78,33
783,357	-26,11
783,538	-15,87
783,72	-75,26
783,901	39,42
784,083	49,66
784,264	98,81
784,446	-22,02
784,627	-42,5
784,809	74,24
784,99	-48,64
785,172	80,38
785,353	39,42
785,535	33,28
785,716	-54,78
785,897	-99,84
786,079	6,66
786,26	29,18
786,441	-7,68
786,623	-75,26
786,804	2,56
786,985	57,86
787,167	-56,83
787,348	-28,16
787,529	0,51
787,71	123,39
787,891	49,66
788,073	-9,73
788,254	-95,74
788,435	145,92
788,616	-1,54
788,797	-134,65
788,978	43,52
789,159	10,75
789,34	90,62
789,522	119,29
789,703	-112,13
789,884	25,09
790,065	27,14
790,246	115,2
790,427	25,09
790,607	143,87
790,788	59,9
790,969	20,99
791,15	82,43
791,331	27,14
791,512	-17,92
791,693	-15,87
791,874	-15,87
792,054	201,21
792,235	41,47
792,416	-46,59
792,597	-62,98
792,778	-30,21
792,958	59,9
793,139	53,76
793,32	-13,82
793,5	-73,21
793,681	76,29
793,862	49,66
794,042	37,38
794,223	-105,98
794,404	-46,59
794,584	-71,17
794,765	61,95
794,945	25,09
795,126	96,77
795,306	49,66
795,487	-85,5
795,667	-36,35
795,848	80,38
796,028	-19,97
796,209	-87,55
796,389	90,62
796,57	-36,35
796,75	-62,98
796,93	-15,87
797,111	-101,89
797,291	-44,54
797,471	68,09
797,652	-9,73
797,832	-38,4
798,012	88,57
798,192	-58,88
798,373	-30,21
798,553	4,61
798,733	25,09
798,913	43,52
799,093	-19,97
799,274	6,66
799,454	39,42
799,634	37,38
799,814	55,81
799,994	104,96
800,174	82,43
800,354	-32,26
800,534	-146,94
800,714	104,96
800,894	-126,46
801,074	-87,55
801,254	-5,63
801,434	150,01
801,614	0,51
801,794	-60,93
801,974	1933,79
802,154	-42,5
802,334	117,25
802,514	-93,69
802,693	-54,78
802,873	-56,83
803,053	61,95
803,233	51,71
803,413	-15,87
803,592	-34,3
803,772	-32,26
803,952	18,94
804,131	-79,36
804,311	98,81
804,491	100,86
804,67	-30,21
804,85	-85,5
805,03	66,05
805,209	74,24
805,389	-38,4
805,568	-81,41
805,748	-50,69
805,928	49,66
806,107	123,39
806,287	12,8
806,466	18,94
806,646	-157,18
806,825	-7,68
807,004	-67,07
807,184	29,18
807,363	18,94
807,543	74,24
807,722	-7,68
807,901	78,33
808,081	27,14
808,26	-169,47
808,439	-17,92
808,619	-81,41
808,798	-28,16
808,977	4,61
809,156	121,34
809,336	29,18
809,515	23,04
809,694	-71,17
809,873	4,61
810,052	39,42
810,231	16,9
810,411	31,23
810,59	23,04
810,769	27,14
810,948	29,18
811,127	-73,21
811,306	-50,69
811,485	-52,74
811,664	197,12
811,843	-1,54
812,022	43,52
812,201	-17,92
812,38	-15,87
812,559	-58,88
812,737	25,09
812,916	-161,28
813,095	-26,11
813,274	33,28
813,453	-9,73
813,632	-5,63
813,811	41,47
813,989	-163,33
814,168	66,05
814,347	-40,45
814,526	37,38
814,704	178,69
814,883	170,49
815,062	-122,37
815,24	41,47
815,419	-17,92
815,598	35,33
815,776	-163,33
815,955	-30,21
816,133	-58,88
816,312	41,47
816,49	-11,78
816,669	-1,54
816,847	-67,07
817,026	-11,78
817,204	55,81
817,383	-69,12
817,561	-79,36
817,74	47,62
817,918	29,18
818,097	-62,98
818,275	-79,36
818,453	-17,92
818,632	76,29
818,81	-1,54
818,988	-38,4
819,167	-42,5
819,345	-9,73
819,523	-93,69
819,701	59,9
819,879	64
820,058	10,75
820,236	-75,26
820,414	57,86
820,592	-108,03
820,77	-9,73
820,948	-56,83
821,127	-9,73
821,305	49,66
821,483	-85,5
821,661	76,29
821,839	14,85
822,017	-73,21
822,195	14,85
822,373	43,52
822,551	10,75
822,729	66,05
822,907	10,75
823,085	96,77
823,262	14,85
823,44	-87,55
823,618	-38,4
823,796	-44,54
823,974	-13,82
824,152	-71,17
824,329	-69,12
824,507	84,48
824,685	39,42
824,863	-42,5
825,04	-48,64
825,218	-9,73
825,396	25,09
825,574	-17,92
825,751	8,7
825,929	10,75
826,107	-67,07
826,284	-7,68
826,462	0,51
826,639	-46,59
826,817	-128,51
826,994	-46,59
827,172	-91,65
827,349	154,11
827,527	51,71
827,704	59,9
827,882	74,24
828,059	-17,92
828,237	-19,97
828,414	98,81
828,591	-132,61
828,769	25,09
828,946	-79,36
829,124	49,66
829,301	35,33
829,478	16,9
829,655	-17,92
829,833	35,33
830,01	-161,28
830,187	125,44
830,364	-60,93
830,542	-38,4
830,719	115,2
830,896	-11,78
831,073	18,94
831,25	-32,26
831,427	47,62
831,604	6,66
831,782	-114,17
831,959	23,04
832,136	-34,3
832,313	23,04
832,49	-65,02
832,667	2,56
832,844	-95,74
833,021	145,92
833,198	119,29
833,374	-28,16
833,551	27,14
833,728	-81,41
833,905	111,1
834,082	-132,61
834,259	-7,68
834,436	117,25
834,612	-9,73
834,789	39,42
834,966	-9,73
835,143	14,85
835,319	-89,6
835,496	4,61
835,673	23,04
835,85	125,44
836,026	37,38
836,203	-50,69
836,38	-122,37
836,556	-44,54
836,733	-38,4
836,909	139,77
837,086	4,61
837,262	-112,13
837,439	8,7
837,616	-34,3
837,792	-38,4
837,968	0,51
838,145	-175,61
838,321	57,86
838,498	25,09
838,674	-28,16
838,851	-32,26
839,027	-60,93
839,203	-83,45
839,38	39,42
839,556	-38,4
839,732	20,99
839,909	6,66
840,085	41,47
840,261	-108,03
840,437	-60,93
840,614	-54,78
840,79	96,77
840,966	70,14
841,142	6,66
841,318	0,51
841,494	-40,45
841,671	-17,92
841,847	-65,02
842,023	6,66
842,199	49,66
842,375	57,86
842,551	-128,51
842,727	-134,65
842,903	74,24
843,079	-110,08
843,255	82,43
843,431	27,14
843,607	43,52
843,783	-5,63
843,959	164,35
844,134	129,53
844,31	360,95
844,486	242,17
844,662	246,27
844,838	274,94
845,013	320
845,189	268,8
845,365	203,26
845,541	129,53
845,716	176,64
845,892	147,97
846,068	49,66
846,244	-7,68
846,419	139,77
846,595	-5,63
846,77	57,86
846,946	150,01
847,122	53,76
847,297	92,67
847,473	262,65
847,648	47,62
847,824	59,9
847,999	-89,6
848,175	-5,63
848,35	33,28
848,526	80,38
848,701	92,67
848,876	47,62
849,052	119,29
849,227	-52,74
849,403	-36,35
849,578	16,9
849,753	-19,97
849,929	80,38
850,104	-32,26
850,279	-79,36
850,454	29,18
850,63	33,28
850,805	135,68
850,98	0,51
851,155	-5,63
851,33	25,09
851,505	-48,64
851,681	123,39
851,856	-58,88
852,031	-1,54
852,206	-38,4
852,381	-75,26
852,556	-9,73
852,731	47,62
852,906	98,81
853,081	37,38
853,256	82,43
853,431	-34,3
853,606	-81,41
853,781	-34,3
853,956	-144,89
854,131	-11,78
854,305	-77,31
854,48	-9,73
854,655	-91,65
854,83	-28,16
855,005	-87,55
855,18	6,66
855,354	-11,78
855,529	-15,87
855,704	-44,54
855,879	68,09
856,053	-58,88
856,228	68,09
856,403	-32,26
856,577	86,53
856,752	-85,5
856,926	39,42
857,101	53,76
857,276	-42,5
857,45	25,09
857,625	39,42
857,799	-15,87
857,974	4,61
858,148	-99,84
858,323	33,28
858,497	-95,74
858,672	-46,59
858,846	-62,98
859,02	88,57
859,195	-73,21
859,369	-26,11
859,543	25,09
859,718	20,99
859,892	6,66
860,066	-11,78
860,241	-65,02
860,415	-50,69
860,589	14,85
860,763	33,28
860,938	-46,59
861,112	2,56
861,286	-26,11
861,46	-5,63
861,634	33,28
861,808	107,01
861,982	-161,28
862,157	-120,32
862,331	-34,3
862,505	-91,65
862,679	-93,69
862,853	-17,92
863,027	31,23
863,201	123,39
863,375	-69,12
863,549	53,76
863,722	57,86
863,896	92,67
864,07	-108,03
864,244	16,9
864,418	25,09
864,592	-15,87
864,766	-24,06
864,939	-26,11
865,113	-65,02
865,287	139,77
865,461	-56,83
865,634	-5,63
865,808	-9,73
865,982	-1,54
866,156	-28,16
866,329	-81,41
866,503	16,9
866,676	43,52
866,85	-48,64
867,024	-11,78
867,197	-11,78
867,371	12,8
867,544	-17,92
867,718	-83,45
867,891	90,62
868,065	-103,93
868,238	61,95
868,412	72,19
868,585	2,56
868,759	-9,73
868,932	-54,78
869,105	-120,32
869,279	61,95
869,452	-24,06
869,625	55,81
869,799	-34,3
869,972	14,85
870,145	-85,5
870,319	39,42
870,492	-13,82
870,665	-42,5
870,838	-50,69
871,011	-222,72
871,185	0,51
871,358	-42,5
871,531	51,71
871,704	-103,93
871,877	57,86
872,05	12,8
872,223	-38,4
872,396	104,96
872,569	43,52
872,742	-163,33
872,915	18,94
873,088	-91,65
873,261	-67,07
873,434	70,14
873,607	-120,32
873,78	37,38
873,953	-116,22
874,126	-81,41
874,299	-24,06
874,471	-65,02
874,644	-7,68
874,817	-7,68
874,99	160,25
875,163	-81,41
875,335	82,43
875,508	-17,92
875,681	127,49
875,853	-97,79
876,026	14,85
876,199	92,67
876,371	-81,41
876,544	74,24
876,717	80,38
876,889	-26,11
877,062	70,14
877,234	23,04
877,407	-15,87
877,579	-46,59
877,752	92,67
877,924	72,19
878,097	8,7
878,269	18,94
878,442	16,9
878,614	20,99
878,786	43,52
878,959	31,23
879,131	14,85
879,303	-112,13
879,476	-54,78
879,648	147,97
879,82	-22,02
879,993	-56,83
880,165	-56,83
880,337	-136,7
880,509	25,09
880,681	-144,89
880,854	-81,41
881,026	16,9
881,198	182,78
881,37	45,57
881,542	-22,02
881,714	-134,65
881,886	-65,02
882,058	-50,69
882,23	14,85
882,402	-7,68
882,574	27,14
882,746	70,14
882,918	74,24
883,09	78,33
883,262	10,75
883,434	8,7
883,606	-134,65
883,778	-81,41
883,95	129,53
884,122	33,28
884,293	113,15
884,465	18,94
884,637	98,81
884,809	-24,06
884,98	68,09
885,152	64
885,324	49,66
885,496	-40,45
885,667	-19,97
885,839	-40,45
886,011	123,39
886,182	57,86
886,354	51,71
886,525	-13,82
886,697	55,81
886,869	-155,13
887,04	-54,78
887,212	162,3
887,383	115,2
887,555	16,9
887,726	-42,5
887,897	-30,21
888,069	-67,07
888,24	33,28
888,412	64
888,583	14,85
888,754	16,9
888,926	-46,59
889,097	-22,02
889,268	-71,17
889,44	82,43
889,611	-40,45
889,782	-58,88
889,953	-122,37
890,125	94,72
890,296	12,8
890,467	-58,88
890,638	-30,21
890,809	-60,93
890,98	-22,02
891,151	-17,92
891,323	80,38
891,494	16,9
891,665	10,75
891,836	-5,63
892,007	2,56
892,178	47,62
892,349	-5,63
892,52	-97,79
892,691	2,56
892,862	-58,88
893,032	-130,56
893,203	-93,69
893,374	23,04
893,545	61,95
893,716	10,75
893,887	104,96
894,057	-32,26
894,228	45,57
894,399	0,51
894,57	84,48
894,74	-34,3
894,911	25,09
895,082	-52,74
895,253	-9,73
895,423	55,81
895,594	61,95
895,764	-7,68
895,935	-91,65
896,106	4,61
896,276	-50,69
896,447	29,18
896,617	-97,79
896,788	-75,26
896,958	-7,68
897,129	-1,54
897,299	-46,59
897,47	117,25
897,64	41,47
897,81	-71,17
897,981	88,57
898,151	-122,37
898,322	68,09
898,492	33,28
898,662	-65,02
898,832	4,61
899,003	-54,78
899,173	64
899,343	-34,3
899,513	-30,21
