Data from deuterium_USB4F104151__2__10-57-07-412.txt Node

Date: Wed Apr 15 10:57:07 EDT 2026
User: LaboPhy
Spectrometer: USB4F10415
Trigger mode: 4
Integration Time (sec): 1,000000E-1
Scans to average: 1
Electric dark correction enabled: true
Nonlinearity correction enabled: false
Boxcar width: 0
XAxis mode: Wavelengths
Number of Pixels in Spectrum: 3648
>>>>>Begin Spectral Data<<<<<
178,204	-443,04
178,424	-443,04
178,644	-443,04
178,864	-481,96
179,084	-477,86
179,304	-137,9
179,524	42,32
179,744	-41,64
179,964	54,61
180,184	52,56
180,404	71
180,624	-113,32
180,844	13,65
181,064	-98,99
181,283	142,68
181,503	-25,26
181,723	40,28
181,943	-164,52
182,163	163,15
182,383	-2,73
182,602	-25,26
182,822	154,96
183,042	52,56
183,262	-29,35
183,482	-94,89
183,701	-21,16
183,921	101,72
184,141	-68,27
184,361	-15,02
184,58	68,95
184,8	17,75
185,02	-98,99
185,239	146,77
185,459	105,81
185,679	79,19
185,898	-139,94
186,118	-19,11
186,338	81,24
186,557	107,86
186,777	-82,6
186,997	-31,4
187,216	23,89
187,436	144,72
187,655	34,13
187,875	64,85
188,095	23,89
188,314	146,77
188,534	124,24
188,753	73,04
188,973	148,82
189,192	87,38
189,412	17,75
189,631	-29,35
189,851	48,47
190,07	200,02
190,29	-125,61
190,509	-12,97
190,729	-0,68
190,948	167,25
191,168	210,26
191,387	62,8
191,607	-39,59
191,826	-6,83
192,045	-62,12
192,265	50,52
192,484	44,37
192,704	58,71
192,923	-88,75
193,142	191,83
193,362	183,63
193,581	130,39
193,8	48,47
194,02	58,71
194,239	60,76
194,458	27,99
194,678	-66,22
194,897	-2,73
195,116	77,14
195,335	42,32
195,555	23,89
195,774	5,46
195,993	83,28
196,212	3,41
196,432	-60,07
196,651	-49,83
196,87	54,61
197,089	265,55
197,308	42,32
197,528	50,52
197,747	-90,79
197,966	75,09
198,185	71
198,404	-35,5
198,623	107,86
198,842	68,95
199,062	89,43
199,281	97,62
199,5	-2,73
199,719	36,18
199,938	50,52
200,157	19,8
200,376	138,58
200,595	109,91
200,814	-8,87
201,033	5,46
201,252	171,35
201,471	15,7
201,69	62,8
201,909	9,56
202,128	89,43
202,347	64,85
202,566	9,56
202,785	-115,37
203,004	-15,02
203,223	197,97
203,442	-39,59
203,661	-82,6
203,879	30,04
204,098	163,15
204,317	-66,22
204,536	68,95
204,755	97,62
204,974	75,09
205,193	-31,4
205,411	99,67
205,63	118,1
205,849	-2,73
206,068	9,56
206,287	-49,83
206,505	163,15
206,724	7,51
206,943	36,18
207,162	9,56
207,381	5,46
207,599	1,37
207,818	-41,64
208,037	5,46
208,255	-47,79
208,474	60,76
208,693	13,65
208,911	25,94
209,13	103,76
209,349	21,85
209,567	11,61
209,786	85,33
210,005	101,72
210,223	85,33
210,442	-158,38
210,661	56,66
210,879	50,52
211,098	66,9
211,316	44,37
211,535	91,48
211,753	54,61
211,972	60,76
212,191	-25,26
212,409	-43,69
212,628	54,61
212,846	75,09
213,065	-21,16
213,283	105,81
213,502	114
213,72	40,28
213,938	-8,87
214,157	-41,64
214,375	122,2
214,594	-2,73
214,812	44,37
215,031	-55,98
215,249	-8,87
215,467	15,7
215,686	-4,78
215,904	-21,16
216,122	32,08
216,341	116,05
216,559	89,43
216,778	64,85
216,996	159,06
217,214	19,8
217,432	-8,87
217,651	-55,98
217,869	27,99
218,087	-0,68
218,306	-72,36
218,524	-33,45
218,742	75,09
218,96	54,61
219,179	-115,37
219,397	-37,55
219,615	220,5
219,833	66,9
220,051	-41,64
220,27	46,42
220,488	85,33
220,706	56,66
220,924	-41,64
221,142	-37,55
221,36	77,14
221,578	23,89
221,796	-4,78
222,015	25,94
222,233	44,37
222,451	142,68
222,669	-70,31
222,887	46,42
223,105	1,37
223,323	-19,11
223,541	25,94
223,759	52,56
223,977	34,13
224,195	144,72
224,413	38,23
224,631	5,46
224,849	118,1
225,067	206,16
225,285	-49,83
225,503	-31,4
225,721	-148,14
225,939	3,41
226,157	79,19
226,375	169,3
226,592	-10,92
226,81	15,7
227,028	73,04
227,246	109,91
227,464	15,7
227,682	68,95
227,9	58,71
228,117	17,75
228,335	93,52
228,553	25,94
228,771	-0,68
228,989	-74,41
229,206	54,61
229,424	-58,03
229,642	3,41
229,86	-101,03
230,077	99,67
230,295	50,52
230,513	85,33
230,731	77,14
230,948	179,54
231,166	146,77
231,384	46,42
231,601	-60,07
231,819	138,58
232,037	-60,07
232,254	-109,22
232,472	1,37
232,689	-47,79
232,907	128,34
233,125	-33,45
233,342	-17,07
233,56	-15,02
233,777	-74,41
233,995	38,23
234,213	73,04
234,43	103,76
234,648	58,71
234,865	-58,03
235,083	97,62
235,3	-41,64
235,518	32,08
235,735	87,38
235,953	42,32
236,17	60,76
236,388	-23,21
236,605	32,08
236,822	87,38
237,04	89,43
237,257	122,2
237,475	-103,08
237,692	60,76
237,909	109,91
238,127	-58,03
238,344	114
238,562	-15,02
238,779	-101,03
238,996	-82,6
239,214	-21,16
239,431	101,72
239,648	-113,32
239,865	122,2
240,083	71
240,3	-37,55
240,517	-64,17
240,735	68,95
240,952	105,81
241,169	40,28
241,386	85,33
241,603	-4,78
241,821	-80,55
242,038	7,51
242,255	91,48
242,472	-125,61
242,689	89,43
242,907	48,47
243,124	40,28
243,341	77,14
243,558	-45,74
243,775	-33,45
243,992	-23,21
244,209	15,7
244,426	144,72
244,643	-4,78
244,86	-51,88
245,078	167,25
245,295	30,04
245,512	-17,07
245,729	-8,87
245,946	99,67
246,163	23,89
246,38	-66,22
246,597	40,28
246,814	3,41
247,031	116,05
247,248	-21,16
247,464	79,19
247,681	30,04
247,898	71
248,115	126,29
248,332	-80,55
248,549	87,38
248,766	138,58
248,983	64,85
249,2	91,48
249,417	144,72
249,633	-47,79
249,85	-21,16
250,067	73,04
250,284	91,48
250,501	15,7
250,717	-23,21
250,934	-23,21
251,151	-51,88
251,368	40,28
251,585	105,81
251,801	44,37
252,018	-35,5
252,235	58,71
252,451	-66,22
252,668	15,7
252,885	85,33
253,102	68,95
253,318	-90,79
253,535	30,04
253,752	-6,83
253,968	-33,45
254,185	-39,59
254,401	25,94
254,618	73,04
254,835	-12,97
255,051	87,38
255,268	101,72
255,484	46,42
255,701	46,42
255,917	52,56
256,134	-70,31
256,351	-0,68
256,567	-39,59
256,784	38,23
257	-191,14
257,217	40,28
257,433	134,48
257,65	15,7
257,866	152,92
258,082	-76,46
258,299	-43,69
258,515	38,23
258,732	-43,69
258,948	-58,03
259,165	-37,55
259,381	-25,26
259,597	130,39
259,814	77,14
260,03	23,89
260,246	27,99
260,463	136,53
260,679	83,28
260,895	-8,87
261,112	64,85
261,328	44,37
261,544	-21,16
261,761	83,28
261,977	11,61
262,193	-17,07
262,409	97,62
262,626	15,7
262,842	-55,98
263,058	-45,74
263,274	42,32
263,49	36,18
263,707	60,76
263,923	146,77
264,139	-88,75
264,355	7,51
264,571	142,68
264,787	73,04
265,004	116,05
265,22	83,28
265,436	-49,83
265,652	-37,55
265,868	44,37
266,084	-62,12
266,3	-31,4
266,516	-60,07
266,732	124,24
266,948	-29,35
267,164	-41,64
267,38	56,66
267,596	5,46
267,812	54,61
268,028	75,09
268,244	-17,07
268,46	-21,16
268,676	5,46
268,892	-31,4
269,108	-29,35
269,324	-33,45
269,54	-90,79
269,756	58,71
269,972	-98,99
270,188	-2,73
270,403	-90,79
270,619	-8,87
270,835	40,28
271,051	-23,21
271,267	-27,31
271,483	-12,97
271,698	75,09
271,914	-4,78
272,13	36,18
272,346	-35,5
272,562	21,85
272,777	66,9
272,993	7,51
273,209	-49,83
273,425	64,85
273,64	-98,99
273,856	73,04
274,072	36,18
274,287	-2,73
274,503	99,67
274,719	95,57
274,934	-64,17
275,15	-125,61
275,366	-8,87
275,581	-80,55
275,797	1,37
276,012	40,28
276,228	-98,99
276,444	73,04
276,659	130,39
276,875	-17,07
277,09	-29,35
277,306	9,56
277,521	56,66
277,737	-62,12
277,952	36,18
278,168	32,08
278,383	40,28
278,599	-74,41
278,814	85,33
279,03	73,04
279,245	134,48
279,461	42,32
279,676	111,96
279,892	-70,31
280,107	11,61
280,322	-47,79
280,538	62,8
280,753	-25,26
280,969	17,75
281,184	-51,88
281,399	185,68
281,615	-4,78
281,83	7,51
282,045	-60,07
282,26	42,32
282,476	-4,78
282,691	79,19
282,906	46,42
283,122	52,56
283,337	17,75
283,552	15,7
283,767	-80,55
283,983	81,24
284,198	27,99
284,413	7,51
284,628	-23,21
284,843	23,89
285,058	-25,26
285,274	-0,68
285,489	3,41
285,704	183,63
285,919	-31,4
286,134	9,56
286,349	-15,02
286,564	-53,93
286,779	116,05
286,995	75,09
287,21	-25,26
287,425	71
287,64	-39,59
287,855	-2,73
288,07	-103,08
288,285	36,18
288,5	89,43
288,715	91,48
288,93	-37,55
289,145	-68,27
289,36	32,08
289,575	62,8
289,79	181,59
290,004	1,37
290,219	68,95
290,434	-19,11
290,649	-68,27
290,864	23,89
291,079	-45,74
291,294	-23,21
291,509	97,62
291,724	-0,68
291,938	-37,55
292,153	17,75
292,368	-84,65
292,583	13,65
292,798	91,48
293,012	-15,02
293,227	114
293,442	15,7
293,657	101,72
293,871	68,95
294,086	77,14
294,301	177,49
294,516	89,43
294,73	-15,02
294,945	-58,03
295,16	62,8
295,374	101,72
295,589	64,85
295,804	-78,51
296,018	-12,97
296,233	154,96
296,447	50,52
296,662	7,51
296,877	116,05
297,091	116,05
297,306	-4,78
297,52	32,08
297,735	122,2
297,949	11,61
298,164	-27,31
298,378	52,56
298,593	-45,74
298,807	-62,12
299,022	48,47
299,236	220,5
299,451	-41,64
299,665	-31,4
299,88	-82,6
300,094	40,28
300,309	7,51
300,523	30,04
300,737	-21,16
300,952	42,32
301,166	34,13
301,381	-4,78
301,595	-23,21
301,809	11,61
302,024	9,56
302,238	-21,16
302,452	148,82
302,667	46,42
302,881	91,48
303,095	75,09
303,309	54,61
303,524	-8,87
303,738	-8,87
303,952	-15,02
304,166	-8,87
304,381	-88,75
304,595	165,2
304,809	-45,74
305,023	1,37
305,237	-17,07
305,452	32,08
305,666	64,85
305,88	-0,68
306,094	68,95
306,308	42,32
306,522	97,62
306,736	83,28
306,95	142,68
307,164	40,28
307,379	-86,7
307,593	93,52
307,807	114
308,021	15,7
308,235	111,96
308,449	-60,07
308,663	-47,79
308,877	247,12
309,091	81,24
309,305	124,24
309,519	-72,36
309,733	175,44
309,947	-84,65
310,161	15,7
310,374	154,96
310,588	93,52
310,802	-113,32
311,016	23,89
311,23	56,66
311,444	-45,74
311,658	-27,31
311,872	107,86
312,085	185,68
312,299	150,87
312,513	60,76
312,727	1,37
312,941	-80,55
313,154	99,67
313,368	-6,83
313,582	11,61
313,796	44,37
314,009	5,46
314,223	105,81
314,437	48,47
314,651	97,62
314,864	101,72
315,078	-2,73
315,292	-8,87
315,505	-2,73
315,719	73,04
315,933	46,42
316,146	9,56
316,36	-10,92
316,573	128,34
316,787	71
317,001	165,2
317,214	3,41
317,428	95,57
317,641	-74,41
317,855	75,09
318,068	87,38
318,282	105,81
318,495	195,92
318,709	146,77
318,922	32,08
319,136	171,35
319,349	93,52
319,563	-25,26
319,776	142,68
319,99	-74,41
320,203	44,37
320,417	60,76
320,63	114
320,843	202,07
321,057	66,9
321,27	3,41
321,483	44,37
321,697	175,44
321,91	126,29
322,124	1,37
322,337	58,71
322,55	32,08
322,763	54,61
322,977	50,52
323,19	-76,46
323,403	101,72
323,617	40,28
323,83	66,9
324,043	-12,97
324,256	-25,26
324,469	-129,7
324,683	68,95
324,896	11,61
325,109	3,41
325,322	-19,11
325,535	103,76
325,748	54,61
325,962	25,94
326,175	40,28
326,388	107,86
326,601	101,72
326,814	-64,17
327,027	68,95
327,24	101,72
327,453	-154,28
327,666	118,1
327,879	122,2
328,092	21,85
328,305	48,47
328,518	17,75
328,731	34,13
328,944	19,8
329,157	105,81
329,37	-12,97
329,583	222,55
329,796	95,57
330,009	-72,36
330,222	73,04
330,435	101,72
330,648	46,42
330,861	73,04
331,073	44,37
331,286	140,63
331,499	38,23
331,712	-62,12
331,925	46,42
332,138	124,24
332,35	68,95
332,563	-21,16
332,776	109,91
332,989	-74,41
333,202	-6,83
333,414	25,94
333,627	1,37
333,84	75,09
334,053	-2,73
334,265	-6,83
334,478	9,56
334,691	52,56
334,903	32,08
335,116	-129,7
335,329	32,08
335,541	177,49
335,754	118,1
335,966	-17,07
336,179	62,8
336,392	38,23
336,604	114
336,817	152,92
337,029	48,47
337,242	138,58
337,454	116,05
337,667	109,91
337,88	81,24
338,092	118,1
338,305	134,48
338,517	-41,64
338,729	181,59
338,942	146,77
339,154	-76,46
339,367	32,08
339,579	122,2
339,792	36,18
340,004	107,86
340,217	32,08
340,429	19,8
340,641	-29,35
340,854	-35,5
341,066	30,04
341,278	97,62
341,491	228,69
341,703	38,23
341,915	19,8
342,128	50,52
342,34	91,48
342,552	-82,6
342,764	15,7
342,977	44,37
343,189	107,86
343,401	122,2
343,613	-51,88
343,826	30,04
344,038	-33,45
344,25	73,04
344,462	17,75
344,674	25,94
344,886	87,38
345,099	40,28
345,311	120,15
345,523	-10,92
345,735	-74,41
345,947	105,81
346,159	48,47
346,371	42,32
346,583	-4,78
346,795	236,88
347,007	-35,5
347,219	68,95
347,431	42,32
347,643	132,44
347,855	60,76
348,067	208,21
348,279	-115,37
348,491	62,8
348,703	189,78
348,915	-8,87
349,127	1,37
349,339	93,52
349,551	-0,68
349,763	169,3
349,975	52,56
350,187	109,91
350,399	114
350,61	118,1
350,822	7,51
351,034	79,19
351,246	27,99
351,458	77,14
351,669	73,04
351,881	103,76
352,093	40,28
352,305	173,39
352,517	159,06
352,728	130,39
352,94	114
353,152	107,86
353,363	25,94
353,575	105,81
353,787	175,44
353,999	13,65
354,21	126,29
354,422	-96,94
354,633	-0,68
354,845	73,04
355,057	118,1
355,268	93,52
355,48	60,76
355,692	-37,55
355,903	105,81
356,115	3,41
356,326	-127,66
356,538	107,86
356,749	97,62
356,961	220,5
357,172	-23,21
357,384	-21,16
357,595	261,46
357,807	1,37
358,018	-103,08
358,23	25,94
358,441	140,63
358,653	165,2
358,864	58,71
359,075	5,46
359,287	42,32
359,498	58,71
359,709	54,61
359,921	83,28
360,132	138,58
360,344	30,04
360,555	-8,87
360,766	97,62
360,977	11,61
361,189	171,35
361,4	-51,88
361,611	171,35
361,823	97,62
362,034	60,76
362,245	-58,03
362,456	83,28
362,667	95,57
362,879	-25,26
363,09	122,2
363,301	87,38
363,512	64,85
363,723	-51,88
363,935	66,9
364,146	179,54
364,357	93,52
364,568	34,13
364,779	-21,16
364,99	150,87
365,201	25,94
365,412	228,69
365,623	-82,6
365,834	87,38
366,045	40,28
366,256	54,61
366,467	132,44
366,678	52,56
366,889	120,15
367,1	-29,35
367,311	132,44
367,522	-31,4
367,733	103,76
367,944	116,05
368,155	-37,55
368,366	93,52
368,577	134,48
368,788	179,54
368,999	-21,16
369,209	-8,87
369,42	283,98
369,631	286,03
369,842	148,82
370,053	99,67
370,264	224,59
370,474	-0,68
370,685	191,83
370,896	62,8
371,107	130,39
371,317	109,91
371,528	-17,07
371,739	148,82
371,95	5,46
372,16	134,48
372,371	-0,68
372,582	50,52
372,792	68,95
373,003	30,04
373,214	83,28
373,424	146,77
373,635	27,99
373,846	171,35
374,056	89,43
374,267	93,52
374,477	75,09
374,688	-21,16
374,898	179,54
375,109	34,13
375,319	150,87
375,53	103,76
375,74	116,05
375,951	97,62
376,161	50,52
376,372	122,2
376,582	60,76
376,793	105,81
377,003	-17,07
377,214	32,08
377,424	7,51
377,635	42,32
377,845	-76,46
378,055	128,34
378,266	-15,02
378,476	34,13
378,686	56,66
378,897	50,52
379,107	140,63
379,317	97,62
379,528	-49,83
379,738	75,09
379,948	-60,07
380,158	101,72
380,369	97,62
380,579	30,04
380,789	73,04
380,999	87,38
381,21	116,05
381,42	195,92
381,63	152,92
381,84	167,25
382,05	77,14
382,261	130,39
382,471	130,39
382,681	-25,26
382,891	214,35
383,101	114
383,311	-49,83
383,521	73,04
383,731	175,44
383,941	195,92
384,151	140,63
384,361	48,47
384,571	32,08
384,781	64,85
384,991	214,35
385,201	314,7
385,411	81,24
385,621	56,66
385,831	177,49
386,041	52,56
386,251	81,24
386,461	214,35
386,671	9,56
386,881	60,76
387,091	-4,78
387,301	263,51
387,511	109,91
387,72	134,48
387,93	140,63
388,14	-6,83
388,35	134,48
388,56	171,35
388,769	189,78
388,979	136,53
389,189	81,24
389,399	27,99
389,609	91,48
389,818	64,85
390,028	91,48
390,238	120,15
390,447	-31,4
390,657	105,81
390,867	54,61
391,076	-105,13
391,286	62,8
391,496	21,85
391,705	23,89
391,915	179,54
392,125	89,43
392,334	21,85
392,544	167,25
392,753	23,89
392,963	83,28
393,172	109,91
393,382	89,43
393,591	183,63
393,801	46,42
394,01	130,39
394,22	77,14
394,429	87,38
394,639	54,61
394,848	124,24
395,058	71
395,267	5,46
395,477	136,53
395,686	138,58
395,895	220,5
396,105	292,18
396,314	109,91
396,524	101,72
396,733	85,33
396,942	228,69
397,152	189,78
397,361	120,15
397,57	114
397,78	109,91
397,989	120,15
398,198	177,49
398,407	91,48
398,617	48,47
398,826	120,15
399,035	103,76
399,244	107,86
399,453	30,04
399,663	77,14
399,872	77,14
400,081	-23,21
400,29	91,48
400,499	-78,51
400,708	208,21
400,917	101,72
401,127	68,95
401,336	-21,16
401,545	263,51
401,754	169,3
401,963	54,61
402,172	9,56
402,381	30,04
402,59	81,24
402,799	44,37
403,008	154,96
403,217	9,56
403,426	114
403,635	-27,31
403,844	68,95
404,053	91,48
404,262	1,37
404,471	212,31
404,68	-0,68
404,888	91,48
405,097	126,29
405,306	50,52
405,515	175,44
405,724	42,32
405,933	132,44
406,142	87,38
406,35	191,83
406,559	75,09
406,768	99,67
406,977	173,39
407,185	111,96
407,394	107,86
407,603	-94,89
407,812	83,28
408,02	197,97
408,229	64,85
408,438	148,82
408,646	23,89
408,855	87,38
409,064	146,77
409,272	114
409,481	214,35
409,69	157,01
409,898	120,15
410,107	333,14
410,315	320,85
410,524	134,48
410,733	308,56
410,941	218,45
411,15	247,12
411,358	132,44
411,567	216,4
411,775	89,43
411,984	77,14
412,192	64,85
412,401	-29,35
412,609	249,17
412,818	191,83
413,026	134,48
413,234	81,24
413,443	44,37
413,651	71
413,86	1,37
414,068	173,39
414,276	68,95
414,485	19,8
414,693	142,68
414,901	234,83
415,11	105,81
415,318	97,62
415,526	-58,03
415,734	185,68
415,943	68,95
416,151	216,4
416,359	132,44
416,567	99,67
416,776	91,48
416,984	44,37
417,192	159,06
417,4	-41,64
417,608	27,99
417,817	-8,87
418,025	99,67
418,233	183,63
418,441	21,85
418,649	-58,03
418,857	99,67
419,065	114
419,273	-19,11
419,481	48,47
419,689	11,61
419,897	1,37
420,105	42,32
420,313	111,96
420,521	142,68
420,729	140,63
420,937	30,04
421,145	-98,99
421,353	54,61
421,561	146,77
421,769	81,24
421,977	-29,35
422,185	68,95
422,393	15,7
422,601	99,67
422,809	48,47
423,017	36,18
423,224	97,62
423,432	83,28
423,64	19,8
423,848	157,01
424,056	-8,87
424,263	66,9
424,471	46,42
424,679	142,68
424,887	-47,79
425,094	89,43
425,302	58,71
425,51	-41,64
425,718	64,85
425,925	5,46
426,133	-23,21
426,341	220,5
426,548	-119,46
426,756	27,99
426,964	83,28
427,171	-15,02
427,379	32,08
427,586	101,72
427,794	34,13
428,001	103,76
428,209	52,56
428,417	157,01
428,624	116,05
428,832	71
429,039	44,37
429,247	50,52
429,454	73,04
429,662	134,48
429,869	11,61
430,076	38,23
430,284	101,72
430,491	7,51
430,699	154,96
430,906	179,54
431,114	122,2
431,321	77,14
431,528	42,32
431,736	107,86
431,943	154,96
432,15	286,03
432,358	376,14
432,565	427,34
432,772	259,41
432,979	580,94
433,187	640,33
433,394	857,42
433,601	908,62
433,808	1013,06
434,016	976,2
434,223	941,38
434,43	929,1
434,637	836,94
434,844	701,77
435,052	560,46
435,259	492,88
435,466	421,2
435,673	294,22
435,88	251,22
436,087	195,92
436,294	230,74
436,501	142,68
436,708	77,14
436,915	23,89
437,122	142,68
437,329	-82,6
437,537	32,08
437,743	21,85
437,95	87,38
438,157	50,52
438,364	25,94
438,571	97,62
438,778	138,58
438,985	132,44
439,192	124,24
439,399	93,52
439,606	66,9
439,813	140,63
440,02	175,44
440,227	159,06
440,433	105,81
440,64	68,95
440,847	17,75
441,054	107,86
441,261	165,2
441,467	60,76
441,674	5,46
441,881	101,72
442,088	23,89
442,294	128,34
442,501	154,96
442,708	107,86
442,914	-6,83
443,121	-37,55
443,328	42,32
443,534	165,2
443,741	99,67
443,948	-0,68
444,154	54,61
444,361	238,93
444,568	-6,83
444,774	13,65
444,981	-45,74
445,187	109,91
445,394	9,56
445,6	-43,69
445,807	99,67
446,013	9,56
446,22	-121,51
446,426	13,65
446,633	32,08
446,839	236,88
447,046	-35,5
447,252	40,28
447,459	-15,02
447,665	-23,21
447,871	109,91
448,078	122,2
448,284	99,67
448,491	152,92
448,697	173,39
448,903	52,56
449,11	48,47
449,316	91,48
449,522	32,08
449,728	91,48
449,935	77,14
450,141	23,89
450,347	218,45
450,553	23,89
450,76	1,37
450,966	23,89
451,172	27,99
451,378	3,41
451,584	9,56
451,791	222,55
451,997	64,85
452,203	19,8
452,409	204,11
452,615	103,76
452,821	-4,78
453,027	42,32
453,233	220,5
453,44	27,99
453,646	-15,02
453,852	118,1
454,058	9,56
454,264	165,2
454,47	25,94
454,676	-15,02
454,882	15,7
455,088	40,28
455,294	99,67
455,5	56,66
455,705	140,63
455,911	32,08
456,117	36,18
456,323	-31,4
456,529	50,52
456,735	3,41
456,941	5,46
457,147	60,76
457,352	120,15
457,558	-17,07
457,764	167,25
457,97	66,9
458,176	68,95
458,381	3,41
458,587	206,16
458,793	124,24
458,999	-19,11
459,204	89,43
459,41	-21,16
459,616	48,47
459,821	118,1
460,027	-82,6
460,233	11,61
460,438	81,24
460,644	-0,68
460,85	128,34
461,055	48,47
461,261	138,58
461,466	17,75
461,672	44,37
461,878	15,7
462,083	46,42
462,289	-33,45
462,494	40,28
462,7	116,05
462,905	66,9
463,111	159,06
463,316	83,28
463,522	173,39
463,727	73,04
463,932	77,14
464,138	75,09
464,343	148,82
464,549	167,25
464,754	148,82
464,959	75,09
465,165	44,37
465,37	124,24
465,575	130,39
465,781	7,51
465,986	30,04
466,191	3,41
466,397	79,19
466,602	200,02
466,807	95,57
467,012	93,52
467,218	122,2
467,423	91,48
467,628	134,48
467,833	-78,51
468,038	1,37
468,244	38,23
468,449	-21,16
468,654	-10,92
468,859	7,51
469,064	-21,16
469,269	93,52
469,474	42,32
469,679	111,96
469,885	109,91
470,09	58,71
470,295	73,04
470,5	-25,26
470,705	73,04
470,91	58,71
471,115	134,48
471,32	9,56
471,525	200,02
471,73	179,54
471,935	52,56
472,139	-8,87
472,344	-0,68
472,549	79,19
472,754	99,67
472,959	75,09
473,164	50,52
473,369	89,43
473,574	95,57
473,778	9,56
473,983	89,43
474,188	75,09
474,393	42,32
474,598	122,2
474,802	77,14
475,007	30,04
475,212	189,78
475,417	19,8
475,621	79,19
475,826	-25,26
476,031	-6,83
476,235	64,85
476,44	-49,83
476,645	52,56
476,849	-17,07
477,054	-39,59
477,259	1,37
477,463	173,39
477,668	240,98
477,872	191,83
478,077	-0,68
478,282	97,62
478,486	185,68
478,691	64,85
478,895	34,13
479,1	150,87
479,304	150,87
479,509	167,25
479,713	136,53
479,918	130,39
480,122	56,66
480,326	54,61
480,531	56,66
480,735	73,04
480,94	38,23
481,144	189,78
481,348	83,28
481,553	148,82
481,757	46,42
481,961	99,67
482,166	122,2
482,37	7,51
482,574	48,47
482,778	40,28
482,983	212,31
483,187	107,86
483,391	64,85
483,595	185,68
483,8	482,64
484,004	820,55
484,208	1277,25
484,412	2215,22
484,616	3249,44
484,821	4478,22
485,025	5891,32
485,229	7691,49
485,433	8854,73
485,637	9788,61
485,841	10386,61
486,045	10751,15
486,249	10628,28
486,453	9921,73
486,657	9166,03
486,861	7759,07
487,065	6606,06
487,269	5477,63
487,473	4291,86
487,677	3759,39
487,881	3200,29
488,085	2381,1
488,289	1740,09
488,493	1260,87
488,697	1135,94
488,901	671,05
489,105	339,28
489,309	324,94
489,512	351,57
489,716	247,12
489,92	183,63
490,124	204,11
490,328	202,07
490,531	132,44
490,735	261,46
490,939	-6,83
491,143	142,68
491,346	183,63
491,55	15,7
491,754	107,86
491,958	159,06
492,161	103,76
492,365	77,14
492,569	71
492,772	169,3
492,976	146,77
493,18	17,75
493,383	93,52
493,587	52,56
493,79	146,77
493,994	83,28
494,197	21,85
494,401	68,95
494,605	-12,97
494,808	111,96
495,012	56,66
495,215	191,83
495,419	114
495,622	-15,02
495,825	73,04
496,029	79,19
496,232	27,99
496,436	5,46
496,639	142,68
496,843	9,56
497,046	-74,41
497,249	136,53
497,453	79,19
497,656	-33,45
497,859	56,66
498,063	114
498,266	95,57
498,469	23,89
498,673	-25,26
498,876	48,47
499,079	-53,93
499,282	60,76
499,485	230,74
499,689	122,2
499,892	175,44
500,095	87,38
500,298	19,8
500,501	-37,55
500,705	60,76
500,908	101,72
501,111	5,46
501,314	68,95
501,517	185,68
501,72	56,66
501,923	91,48
502,126	75,09
502,329	130,39
502,532	27,99
502,735	-0,68
502,938	144,72
503,141	116,05
503,344	-64,17
503,547	185,68
503,75	73,04
503,953	-21,16
504,156	140,63
504,359	34,13
504,562	-37,55
504,765	-4,78
504,968	-15,02
505,17	91,48
505,373	177,49
505,576	159,06
505,779	122,2
505,982	19,8
506,185	36,18
506,387	21,85
506,59	99,67
506,793	32,08
506,996	77,14
507,198	107,86
507,401	212,31
507,604	44,37
507,807	-8,87
508,009	66,9
508,212	97,62
508,415	-0,68
508,617	-66,22
508,82	17,75
509,022	126,29
509,225	75,09
509,428	17,75
509,63	17,75
509,833	-15,02
510,035	185,68
510,238	167,25
510,44	-90,79
510,643	97,62
510,845	56,66
511,048	138,58
511,25	-8,87
511,453	85,33
511,655	120,15
511,858	140,63
512,06	191,83
512,262	-29,35
512,465	44,37
512,667	73,04
512,87	3,41
513,072	101,72
513,274	79,19
513,477	19,8
513,679	-4,78
513,881	56,66
514,084	3,41
514,286	122,2
514,488	87,38
514,69	34,13
514,893	-4,78
515,095	15,7
515,297	-12,97
515,499	56,66
515,701	9,56
515,904	81,24
516,106	197,97
516,308	30,04
516,51	46,42
516,712	91,48
516,914	68,95
517,116	-12,97
517,318	-23,21
517,52	75,09
517,722	93,52
517,925	-8,87
518,127	79,19
518,329	173,39
518,531	-64,17
518,733	5,46
518,935	42,32
519,136	177,49
519,338	-60,07
519,54	15,7
519,742	116,05
519,944	173,39
520,146	52,56
520,348	9,56
520,55	68,95
520,752	1,37
520,954	-2,73
521,155	77,14
521,357	7,51
521,559	126,29
521,761	101,72
521,963	64,85
522,164	83,28
522,366	73,04
522,568	120,15
522,77	68,95
522,971	99,67
523,173	42,32
523,375	77,14
523,576	-92,84
523,778	46,42
523,98	50,52
524,181	52,56
524,383	140,63
524,584	-8,87
524,786	79,19
524,988	-41,64
525,189	62,8
525,391	58,71
525,592	-21,16
525,794	-47,79
525,995	50,52
526,197	77,14
526,398	259,41
526,6	97,62
526,801	-0,68
527,003	-115,37
527,204	-10,92
527,406	25,94
527,607	38,23
527,808	-82,6
528,01	27,99
528,211	89,43
528,412	-51,88
528,614	226,64
528,815	148,82
529,016	46,42
529,218	38,23
529,419	81,24
529,62	13,65
529,822	111,96
530,023	-8,87
530,224	206,16
530,425	71
530,626	15,7
530,828	89,43
531,029	-76,46
531,23	109,91
531,431	-10,92
531,632	101,72
531,833	3,41
532,035	46,42
532,236	-29,35
532,437	56,66
532,638	32,08
532,839	-39,59
533,04	46,42
533,241	56,66
533,442	87,38
533,643	25,94
533,844	-23,21
534,045	68,95
534,246	25,94
534,447	-31,4
534,648	-10,92
534,849	32,08
535,05	81,24
535,251	21,85
535,451	87,38
535,652	7,51
535,853	-17,07
536,054	169,3
536,255	36,18
536,456	-31,4
536,657	-33,45
536,857	23,89
537,058	54,61
537,259	-0,68
537,46	-23,21
537,66	23,89
537,861	34,13
538,062	81,24
538,263	-127,66
538,463	46,42
538,664	105,81
538,865	-19,11
539,065	-6,83
539,266	46,42
539,466	-29,35
539,667	111,96
539,868	89,43
540,068	-0,68
540,269	120,15
540,469	38,23
540,67	107,86
540,87	138,58
541,071	5,46
541,271	111,96
541,472	144,72
541,672	62,8
541,873	68,95
542,073	-0,68
542,274	56,66
542,474	66,9
542,675	73,04
542,875	87,38
543,075	-70,31
543,276	-43,69
543,476	-19,11
543,676	81,24
543,877	-15,02
544,077	71
544,277	128,34
544,478	-31,4
544,678	81,24
544,878	-0,68
545,078	97,62
545,279	56,66
545,479	11,61
545,679	-17,07
545,879	-8,87
546,079	71
546,28	-62,12
546,48	17,75
546,68	261,46
546,88	15,7
547,08	-17,07
547,28	68,95
547,48	-96,94
547,68	83,28
547,88	15,7
548,081	5,46
548,281	-35,5
548,481	64,85
548,681	-27,31
548,881	17,75
549,081	7,51
549,28	27,99
549,48	23,89
549,68	46,42
549,88	-2,73
550,08	-60,07
550,28	-41,64
550,48	167,25
550,68	68,95
550,88	-0,68
551,08	40,28
551,279	187,73
551,479	13,65
551,679	157,01
551,879	-21,16
552,079	44,37
552,278	60,76
552,478	173,39
552,678	66,9
552,878	44,37
553,077	-6,83
553,277	7,51
553,477	-12,97
553,676	68,95
553,876	32,08
554,076	25,94
554,275	62,8
554,475	68,95
554,674	93,52
554,874	50,52
555,074	-76,46
555,273	7,51
555,473	17,75
555,672	48,47
555,872	66,9
556,071	64,85
556,271	197,97
556,47	30,04
556,67	25,94
556,869	71
557,068	-53,93
557,268	81,24
557,467	7,51
557,667	122,2
557,866	9,56
558,065	75,09
558,265	73,04
558,464	-4,78
558,663	-8,87
558,863	56,66
559,062	27,99
559,261	-10,92
559,461	42,32
559,66	89,43
559,859	-33,45
560,058	1,37
560,258	-15,02
560,457	73,04
560,656	171,35
560,855	-84,65
561,054	27,99
561,253	73,04
561,453	17,75
561,652	52,56
561,851	-12,97
562,05	-0,68
562,249	-4,78
562,448	83,28
562,647	-58,03
562,846	66,9
563,045	95,57
563,244	62,8
563,443	64,85
563,642	-4,78
563,841	-27,31
564,04	-0,68
564,239	97,62
564,438	15,7
564,637	-103,08
564,836	-25,26
565,035	-37,55
565,234	-27,31
565,432	21,85
565,631	9,56
565,83	105,81
566,029	64,85
566,228	54,61
566,427	144,72
566,625	-21,16
566,824	114
567,023	-60,07
567,222	60,76
567,42	85,33
567,619	-25,26
567,818	54,61
568,016	191,83
568,215	50,52
568,414	107,86
568,612	83,28
568,811	97,62
569,01	13,65
569,208	101,72
569,407	75,09
569,605	116,05
569,804	60,76
570,002	183,63
570,201	-51,88
570,4	191,83
570,598	66,9
570,797	13,65
570,995	-62,12
571,193	136,53
571,392	97,62
571,59	-6,83
571,789	159,06
571,987	152,92
572,186	208,21
572,384	-4,78
572,582	73,04
572,781	177,49
572,979	-58,03
573,177	97,62
573,376	25,94
573,574	142,68
573,772	97,62
573,971	19,8
574,169	44,37
574,367	58,71
574,565	34,13
574,763	124,24
574,962	140,63
575,16	95,57
575,358	9,56
575,556	60,76
575,754	60,76
575,952	142,68
576,151	124,24
576,349	216,4
576,547	-17,07
576,745	177,49
576,943	148,82
577,141	58,71
577,339	5,46
577,537	177,49
577,735	140,63
577,933	163,15
578,131	-2,73
578,329	247,12
578,527	116,05
578,725	83,28
578,923	-43,69
579,121	124,24
579,319	9,56
579,516	34,13
579,714	320,85
579,912	183,63
580,11	13,65
580,308	134,48
580,506	50,52
580,704	23,89
580,901	42,32
581,099	181,59
581,297	116,05
581,495	226,64
581,692	114
581,89	281,94
582,088	107,86
582,285	154,96
582,483	32,08
582,681	46,42
582,878	122,2
583,076	130,39
583,274	169,3
583,471	189,78
583,669	19,8
583,866	75,09
584,064	-0,68
584,262	21,85
584,459	60,76
584,657	118,1
584,854	197,97
585,052	202,07
585,249	220,5
585,447	66,9
585,644	-21,16
585,841	152,92
586,039	159,06
586,236	255,31
586,434	60,76
586,631	9,56
586,828	-0,68
587,026	97,62
587,223	-82,6
587,42	15,7
587,618	163,15
587,815	132,44
588,012	97,62
588,21	120,15
588,407	118,1
588,604	136,53
588,801	-29,35
588,999	56,66
589,196	204,11
589,393	66,9
589,59	38,23
589,787	126,29
589,984	105,81
590,182	142,68
590,379	25,94
590,576	38,23
590,773	-23,21
590,97	1,37
591,167	165,2
591,364	142,68
591,561	50,52
591,758	214,35
591,955	136,53
592,152	56,66
592,349	25,94
592,546	50,52
592,743	19,8
592,94	32,08
593,137	99,67
593,334	204,11
593,531	126,29
593,727	177,49
593,924	54,61
594,121	118,1
594,318	-12,97
594,515	93,52
594,712	189,78
594,908	173,39
595,105	-10,92
595,302	195,92
595,499	116,05
595,696	240,98
595,892	-4,78
596,089	134,48
596,286	68,95
596,482	130,39
596,679	97,62
596,876	19,8
597,072	111,96
597,269	-17,07
597,466	50,52
597,662	19,8
597,859	1,37
598,055	105,81
598,252	56,66
598,448	97,62
598,645	101,72
598,841	146,77
599,038	195,92
599,234	208,21
599,431	111,96
599,627	58,71
599,824	185,68
600,02	48,47
600,217	44,37
600,413	177,49
600,609	107,86
600,806	413,01
601,002	189,78
601,198	75,09
601,395	161,11
601,591	77,14
601,787	132,44
601,984	146,77
602,18	64,85
602,376	99,67
602,572	114
602,769	120,15
602,965	167,25
603,161	163,15
603,357	66,9
603,553	195,92
603,75	-17,07
603,946	-25,26
604,142	148,82
604,338	224,59
604,534	-35,5
604,73	48,47
604,926	-21,16
605,122	202,07
605,318	99,67
605,514	140,63
605,71	68,95
605,906	148,82
606,102	23,89
606,298	185,68
606,494	89,43
606,69	120,15
606,886	85,33
607,082	38,23
607,278	-19,11
607,474	105,81
607,67	83,28
607,866	-35,5
608,062	187,73
608,257	107,86
608,453	-74,41
608,649	77,14
608,845	62,8
609,041	-74,41
609,236	124,24
609,432	103,76
609,628	97,62
609,824	60,76
610,019	-37,55
610,215	-21,16
610,411	122,2
610,606	208,21
610,802	85,33
610,998	81,24
611,193	93,52
611,389	-10,92
611,584	132,44
611,78	-2,73
611,976	30,04
612,171	224,59
612,367	58,71
612,562	81,24
612,758	89,43
612,953	-94,89
613,149	27,99
613,344	-8,87
613,539	105,81
613,735	81,24
613,93	81,24
614,126	48,47
614,321	81,24
614,517	114
614,712	181,59
614,907	236,88
615,103	85,33
615,298	42,32
615,493	48,47
615,688	56,66
615,884	81,24
616,079	-0,68
616,274	91,48
616,47	-31,4
616,665	62,8
616,86	73,04
617,055	-0,68
617,25	-29,35
617,445	89,43
617,641	83,28
617,836	-45,74
618,031	-21,16
618,226	118,1
618,421	71
618,616	32,08
618,811	32,08
619,006	5,46
619,201	91,48
619,396	46,42
619,591	3,41
619,786	83,28
619,981	89,43
620,176	154,96
620,371	-0,68
620,566	66,9
620,761	136,53
620,956	71
621,151	13,65
621,346	107,86
621,541	-78,51
621,735	132,44
621,93	83,28
622,125	13,65
622,32	-94,89
622,515	-117,42
622,709	77,14
622,904	197,97
623,099	19,8
623,294	118,1
623,488	54,61
623,683	15,7
623,878	64,85
624,072	89,43
624,267	-90,79
624,462	93,52
624,656	-74,41
624,851	77,14
625,046	7,51
625,24	38,23
625,435	13,65
625,629	56,66
625,824	226,64
626,018	128,34
626,213	58,71
626,407	38,23
626,602	103,76
626,796	-10,92
626,991	103,76
627,185	-94,89
627,38	15,7
627,574	136,53
627,768	161,11
627,963	-55,98
628,157	75,09
628,352	71
628,546	-31,4
628,74	11,61
628,935	21,85
629,129	21,85
629,323	68,95
629,517	-53,93
629,712	27,99
629,906	5,46
630,1	171,35
630,294	146,77
630,489	97,62
630,683	60,76
630,877	25,94
631,071	122,2
631,265	52,56
631,459	64,85
631,653	32,08
631,848	73,04
632,042	116,05
632,236	-29,35
632,43	150,87
632,624	-12,97
632,818	79,19
633,012	212,31
633,206	23,89
633,4	95,57
633,594	66,9
633,788	95,57
633,982	15,7
634,176	107,86
634,369	-6,83
634,563	15,7
634,757	-31,4
634,951	99,67
635,145	161,11
635,339	-0,68
635,533	101,72
635,726	66,9
635,92	-27,31
636,114	36,18
636,308	32,08
636,501	-4,78
636,695	114
636,889	-45,74
637,083	99,67
637,276	-8,87
637,47	-139,94
637,664	81,24
637,857	46,42
638,051	25,94
638,244	64,85
638,438	73,04
638,632	249,17
638,825	-76,46
639,019	224,59
639,212	50,52
639,406	101,72
639,599	-43,69
639,793	75,09
639,986	13,65
640,18	224,59
640,373	40,28
640,567	7,51
640,76	87,38
640,954	103,76
641,147	13,65
641,34	87,38
641,534	85,33
641,727	103,76
641,92	54,61
642,114	105,81
642,307	15,7
642,5	154,96
642,694	-33,45
642,887	103,76
643,08	167,25
643,273	140,63
643,467	34,13
643,66	-33,45
643,853	-62,12
644,046	200,02
644,239	120,15
644,432	-70,31
644,626	-31,4
644,819	-0,68
645,012	60,76
645,205	116,05
645,398	173,39
645,591	52,56
645,784	-33,45
645,977	-6,83
646,17	79,19
646,363	75,09
646,556	-6,83
646,749	19,8
646,942	38,23
647,135	154,96
647,328	38,23
647,521	83,28
647,714	56,66
647,907	124,24
648,099	-0,68
648,292	195,92
648,485	75,09
648,678	85,33
648,871	-10,92
649,064	85,33
649,256	-98,99
649,449	-45,74
649,642	-15,02
649,835	66,9
650,027	-68,27
650,22	208,21
650,413	75,09
650,605	75,09
650,798	109,91
650,991	11,61
651,183	103,76
651,376	116,05
651,568	179,54
651,761	56,66
651,954	222,55
652,146	60,76
652,339	152,92
652,531	167,25
652,724	44,37
652,916	118,1
653,109	-45,74
653,301	210,26
653,494	195,92
653,686	140,63
653,879	181,59
654,071	224,59
654,263	238,93
654,456	617,8
654,648	2075,96
654,84	6864,11
655,033	15213,68
655,225	25904,07
655,417	37532,44
655,61	47979,13
655,802	55921,15
655,994	61305,26
656,186	62230,94
656,379	60109,25
656,571	55777,79
656,763	49932,89
656,955	45236,9
657,148	41528,03
657,34	37724,95
657,532	33987,41
657,724	30444,42
657,916	27139
658,108	23415,79
658,3	19094,58
658,492	16266,33
658,684	12962,96
658,876	10826,93
659,068	8729,81
659,26	6669,55
659,452	5094,66
659,644	3781,92
659,836	2719,02
660,028	1819,96
660,22	1224
660,412	941,38
660,604	793,93
660,796	623,95
660,988	533,84
661,18	390,48
661,372	318,8
661,563	304,46
661,755	245,07
661,947	140,63
662,139	132,44
662,331	83,28
662,522	167,25
662,714	87,38
662,906	105,81
663,097	75,09
663,289	25,94
663,481	-33,45
663,673	111,96
663,864	122,2
664,056	85,33
664,247	-12,97
664,439	189,78
664,631	73,04
664,822	132,44
665,014	111,96
665,205	42,32
665,397	30,04
665,588	97,62
665,78	-6,83
665,971	97,62
666,163	87,38
666,354	132,44
666,546	44,37
666,737	32,08
666,929	-0,68
667,12	17,75
667,311	60,76
667,503	52,56
667,694	77,14
667,885	81,24
668,077	138,58
668,268	-115,37
668,459	32,08
668,651	91,48
668,842	15,7
669,033	-60,07
669,224	7,51
669,416	238,93
669,607	1,37
669,798	-33,45
669,989	200,02
670,18	-33,45
670,371	130,39
670,563	-43,69
670,754	126,29
670,945	50,52
671,136	200,02
671,327	23,89
671,518	146,77
671,709	126,29
671,9	197,97
672,091	89,43
672,282	38,23
672,473	9,56
672,664	-39,59
672,855	27,99
673,046	50,52
673,237	95,57
673,428	27,99
673,619	66,9
673,809	50,52
674	83,28
674,191	27,99
674,382	77,14
674,573	25,94
674,764	44,37
674,954	161,11
675,145	60,76
675,336	-72,36
675,527	-127,66
675,717	46,42
675,908	42,32
676,099	-49,83
676,289	-37,55
676,48	-86,7
676,671	34,13
676,861	-49,83
677,052	87,38
677,243	-35,5
677,433	-33,45
677,624	44,37
677,814	-4,78
678,005	-53,93
678,195	222,55
678,386	-35,5
678,576	-8,87
678,767	-64,17
678,957	44,37
679,148	130,39
679,338	91,48
679,529	54,61
679,719	5,46
679,909	101,72
680,1	75,09
680,29	-39,59
680,481	-58,03
680,671	11,61
680,861	-35,5
681,052	25,94
681,242	-92,84
681,432	56,66
681,622	75,09
681,813	-51,88
682,003	-12,97
682,193	-98,99
682,383	17,75
682,573	-60,07
682,764	-21,16
682,954	-37,55
683,144	83,28
683,334	-0,68
683,524	-29,35
683,714	-84,65
683,904	83,28
684,094	3,41
684,284	-19,11
684,474	34,13
684,664	17,75
684,854	21,85
685,044	-90,79
685,234	-6,83
685,424	-23,21
685,614	-37,55
685,804	79,19
685,994	56,66
686,184	36,18
686,374	146,77
686,564	21,85
686,753	122,2
686,943	-76,46
687,133	-31,4
687,323	-19,11
687,513	1,37
687,702	-33,45
687,892	9,56
688,082	56,66
688,272	56,66
688,461	56,66
688,651	181,59
688,841	97,62
689,03	38,23
689,22	3,41
689,41	60,76
689,599	36,18
689,789	-88,75
689,979	118,1
690,168	109,91
690,358	109,91
690,547	-21,16
690,737	25,94
690,926	7,51
691,116	38,23
691,305	66,9
691,495	32,08
691,684	-82,6
691,874	-74,41
692,063	-27,31
692,252	52,56
692,442	23,89
692,631	-19,11
692,82	52,56
693,01	-25,26
693,199	-94,89
693,388	103,76
693,578	-0,68
693,767	42,32
693,956	118,1
694,146	32,08
694,335	71
694,524	56,66
694,713	62,8
694,902	-2,73
695,092	-45,74
695,281	95,57
695,47	23,89
695,659	-23,21
695,848	-58,03
696,037	-33,45
696,226	118,1
696,415	11,61
696,604	122,2
696,793	114
696,982	-19,11
697,171	150,87
697,36	-123,56
697,549	-15,02
697,738	-139,94
697,927	42,32
698,116	-53,93
698,305	-33,45
698,494	40,28
698,683	25,94
698,872	118,1
699,061	9,56
699,25	-21,16
699,438	-15,02
699,627	58,71
699,816	214,35
700,005	-105,13
700,193	-25,26
700,382	48,47
700,571	50,52
700,76	52,56
700,948	87,38
701,137	-4,78
701,326	132,44
701,514	-15,02
701,703	144,72
701,892	111,96
702,08	114
702,269	1,37
702,457	13,65
702,646	40,28
702,834	-29,35
703,023	91,48
703,212	66,9
703,4	-6,83
703,589	-12,97
703,777	-76,46
703,965	-74,41
704,154	-8,87
704,342	1,37
704,531	40,28
704,719	58,71
704,907	122,2
705,096	-8,87
705,284	-178,86
705,472	30,04
705,661	42,32
705,849	83,28
706,037	204,11
706,226	52,56
706,414	40,28
706,602	-127,66
706,79	62,8
706,979	-72,36
707,167	-4,78
707,355	-135,85
707,543	-15,02
707,731	9,56
707,919	-29,35
708,107	-19,11
708,296	-10,92
708,484	-98,99
708,672	21,85
708,86	66,9
709,048	68,95
709,236	-43,69
709,424	-6,83
709,612	46,42
709,8	-139,94
709,988	-31,4
710,176	25,94
710,364	167,25
710,551	-21,16
710,739	13,65
710,927	-29,35
711,115	66,9
711,303	93,52
711,491	75,09
711,679	-45,74
711,866	75,09
712,054	-51,88
712,242	-43,69
712,43	30,04
712,617	7,51
712,805	64,85
712,993	-55,98
713,181	-90,79
713,368	118,1
713,556	-25,26
713,744	-47,79
713,931	216,4
714,119	7,51
714,306	-49,83
714,494	-66,22
714,682	27,99
714,869	-121,51
715,057	-25,26
715,244	-53,93
715,432	23,89
715,619	-41,64
715,807	-29,35
715,994	32,08
716,182	46,42
716,369	13,65
716,556	83,28
716,744	-96,94
716,931	-53,93
717,119	52,56
717,306	48,47
717,493	-49,83
717,681	-111,27
717,868	-137,9
718,055	50,52
718,242	-31,4
718,43	-6,83
718,617	44,37
718,804	-15,02
718,991	71
719,179	5,46
719,366	42,32
719,553	-25,26
719,74	-2,73
719,927	-6,83
720,114	7,51
720,301	-39,59
720,488	-78,51
720,676	-29,35
720,863	81,24
721,05	118,1
721,237	48,47
721,424	66,9
721,611	21,85
721,798	-76,46
721,985	-55,98
722,172	-25,26
722,358	-31,4
722,545	75,09
722,732	-41,64
722,919	99,67
723,106	34,13
723,293	-90,79
723,48	9,56
723,667	-127,66
723,853	142,68
724,04	75,09
724,227	79,19
724,414	-15,02
724,6	27,99
724,787	83,28
724,974	200,02
725,161	-35,5
725,347	-39,59
725,534	66,9
725,72	13,65
725,907	99,67
726,094	85,33
726,28	-74,41
726,467	-2,73
726,653	-62,12
726,84	89,43
727,027	165,2
727,213	-0,68
727,4	-19,11
727,586	54,61
727,773	32,08
727,959	-74,41
728,145	7,51
728,332	-27,31
728,518	-53,93
728,705	5,46
728,891	-19,11
729,077	27,99
729,264	-66,22
729,45	32,08
729,636	7,51
729,823	17,75
730,009	19,8
730,195	-6,83
730,382	-55,98
730,568	-101,03
730,754	38,23
730,94	-72,36
731,126	-80,55
731,313	46,42
731,499	-8,87
731,685	66,9
731,871	-6,83
732,057	-8,87
732,243	99,67
732,429	34,13
732,615	134,48
732,801	19,8
732,987	15,7
733,173	-25,26
733,359	-66,22
733,545	-39,59
733,731	-33,45
733,917	126,29
734,103	34,13
734,289	48,47
734,475	-12,97
734,661	116,05
734,847	25,94
735,033	13,65
735,219	15,7
735,404	-123,56
735,59	-17,07
735,776	-115,37
735,962	48,47
736,148	97,62
736,333	-6,83
736,519	-17,07
736,705	-29,35
736,89	1,37
737,076	7,51
737,262	-33,45
737,447	-37,55
737,633	32,08
737,819	-51,88
738,004	-0,68
738,19	7,51
738,375	60,76
738,561	73,04
738,747	-0,68
738,932	-70,31
739,118	189,78
739,303	64,85
739,489	34,13
739,674	42,32
739,859	-103,08
740,045	-25,26
740,23	77,14
740,416	-80,55
740,601	-17,07
740,786	52,56
740,972	-55,98
741,157	-90,79
741,342	-41,64
741,528	-49,83
741,713	46,42
741,898	-12,97
742,084	-49,83
742,269	27,99
742,454	42,32
742,639	60,76
742,824	-33,45
743,01	101,72
743,195	71
743,38	40,28
743,565	5,46
743,75	11,61
743,935	134,48
744,12	25,94
744,305	7,51
744,49	-33,45
744,675	-17,07
744,86	-58,03
745,045	-2,73
745,23	66,9
745,415	-4,78
745,6	126,29
745,785	-23,21
745,97	97,62
746,155	23,89
746,34	154,96
746,525	73,04
746,71	97,62
746,895	-68,27
747,079	-131,75
747,264	9,56
747,449	-25,26
747,634	111,96
747,819	21,85
748,003	3,41
748,188	-115,37
748,373	68,95
748,557	5,46
748,742	44,37
748,927	58,71
749,111	-109,22
749,296	11,61
749,481	1,37
749,665	27,99
749,85	32,08
750,034	75,09
750,219	36,18
750,404	40,28
750,588	56,66
750,773	-21,16
750,957	54,61
751,141	68,95
751,326	66,9
751,51	-82,6
751,695	-19,11
751,879	17,75
752,064	122,2
752,248	85,33
752,432	120,15
752,617	128,34
752,801	73,04
752,985	1,37
753,17	77,14
753,354	-19,11
753,538	27,99
753,722	-76,46
753,907	-39,59
754,091	-66,22
754,275	32,08
754,459	-117,42
754,643	46,42
754,828	-41,64
755,012	52,56
755,196	-45,74
755,38	56,66
755,564	17,75
755,748	48,47
755,932	101,72
756,116	9,56
756,3	64,85
756,484	-23,21
756,668	75,09
756,852	-66,22
757,036	52,56
757,22	50,52
757,404	-12,97
757,588	-19,11
757,772	66,9
757,956	-8,87
758,14	185,68
758,323	-41,64
758,507	32,08
758,691	-25,26
758,875	79,19
759,059	40,28
759,242	-62,12
759,426	5,46
759,61	44,37
759,794	-105,13
759,977	150,87
760,161	281,94
760,345	62,8
760,528	25,94
760,712	23,89
760,895	7,51
761,079	-2,73
761,263	-55,98
761,446	-74,41
761,63	7,51
761,813	183,63
761,997	-82,6
762,18	27,99
762,364	116,05
762,547	-121,51
762,731	-53,93
762,914	40,28
763,098	66,9
763,281	34,13
763,464	1,37
763,648	-43,69
763,831	17,75
764,015	-45,74
764,198	17,75
764,381	-88,75
764,564	60,76
764,748	3,41
764,931	15,7
765,114	-78,51
765,297	150,87
765,481	-80,55
765,664	-53,93
765,847	-39,59
766,03	95,57
766,213	-49,83
766,397	25,94
766,58	-90,79
766,763	-0,68
766,946	1,37
767,129	-35,5
767,312	-58,03
767,495	-27,31
767,678	-80,55
767,861	21,85
768,044	93,52
768,227	-6,83
768,41	11,61
768,593	52,56
768,776	54,61
768,959	17,75
769,142	99,67
769,324	-31,4
769,507	-10,92
769,69	-41,64
769,873	32,08
770,056	132,44
770,239	-15,02
770,421	68,95
770,604	-35,5
770,787	9,56
770,97	56,66
771,152	-10,92
771,335	11,61
771,518	-88,75
771,7	122,2
771,883	99,67
772,066	-0,68
772,248	38,23
772,431	40,28
772,613	34,13
772,796	-23,21
772,978	66,9
773,161	95,57
773,343	48,47
773,526	-8,87
773,708	-135,85
773,891	-242,34
774,073	34,13
774,256	-62,12
774,438	107,86
774,621	-29,35
774,803	107,86
774,985	-60,07
775,168	66,9
775,35	-94,89
775,532	91,48
775,715	-58,03
775,897	85,33
776,079	-15,02
776,261	132,44
776,444	206,16
776,626	417,1
776,808	537,93
776,99	666,96
777,173	886,09
777,355	920,9
777,537	896,33
777,719	875,85
777,901	728,39
778,083	699,72
778,265	523,6
778,447	531,79
778,629	488,78
778,811	466,25
778,993	482,64
779,175	394,58
779,357	333,14
779,539	228,69
779,721	154,96
779,903	200,02
780,085	109,91
780,267	105,81
780,449	95,57
780,631	132,44
780,812	138,58
780,994	34,13
781,176	15,7
781,358	32,08
781,54	15,7
781,721	3,41
781,903	71
782,085	-25,26
782,267	146,77
782,448	-88,75
782,63	-53,93
782,812	-8,87
782,993	62,8
783,175	34,13
783,357	-2,73
783,538	30,04
783,72	-90,79
783,901	-0,68
784,083	81,24
784,264	46,42
784,446	-88,75
784,627	-80,55
784,809	93,52
784,99	-94,89
785,172	79,19
785,353	-12,97
785,535	-64,17
785,716	-103,08
785,897	-135,85
786,079	32,08
786,26	81,24
786,441	-41,64
786,623	-80,55
786,804	-60,07
786,985	7,51
787,167	71
787,348	19,8
787,529	9,56
787,71	81,24
787,891	81,24
788,073	-78,51
788,254	-17,07
788,435	165,2
788,616	-19,11
788,797	-107,18
788,978	-64,17
789,159	-49,83
789,34	-4,78
789,522	-88,75
789,703	46,42
789,884	58,71
790,065	-21,16
790,246	107,86
790,427	-92,84
790,607	124,24
790,788	48,47
790,969	-0,68
791,15	85,33
791,331	-41,64
791,512	36,18
791,693	-76,46
791,874	-19,11
792,054	114
792,235	56,66
792,416	-84,65
792,597	-25,26
792,778	77,14
792,958	25,94
793,139	42,32
793,32	23,89
793,5	3,41
793,681	13,65
793,862	32,08
794,042	7,51
794,223	-86,7
794,404	11,61
794,584	-70,31
794,765	-21,16
794,945	-70,31
795,126	60,76
795,306	-6,83
795,487	-64,17
795,667	-68,27
795,848	-2,73
796,028	-68,27
796,209	11,61
796,389	5,46
796,57	66,9
796,75	-15,02
796,93	48,47
797,111	-15,02
797,291	-58,03
797,471	17,75
797,652	-35,5
797,832	-49,83
798,012	15,7
798,192	-64,17
798,373	-123,56
798,553	7,51
798,733	109,91
798,913	-62,12
799,093	-92,84
799,274	-31,4
799,454	105,81
799,634	-8,87
799,814	73,04
799,994	17,75
800,174	5,46
800,354	19,8
800,534	-105,13
800,714	-10,92
800,894	-72,36
801,074	-41,64
801,254	-47,79
801,434	79,19
801,614	-25,26
801,794	-74,41
801,974	1891,64
802,154	34,13
802,334	27,99
802,514	-72,36
802,693	1,37
802,873	-49,83
803,053	126,29
803,233	-17,07
803,413	-43,69
803,592	-82,6
803,772	15,7
803,952	1,37
804,131	-113,32
804,311	109,91
804,491	40,28
804,67	-27,31
804,85	-58,03
805,03	40,28
805,209	122,2
805,389	-51,88
805,568	-45,74
805,748	-39,59
805,928	-4,78
806,107	23,89
806,287	38,23
806,466	68,95
806,646	25,94
806,825	-60,07
807,004	-51,88
807,184	40,28
807,363	25,94
807,543	15,7
807,722	-49,83
807,901	15,7
808,081	93,52
808,26	-172,71
808,439	52,56
808,619	19,8
808,798	-80,55
808,977	-33,45
809,156	66,9
809,336	60,76
809,515	7,51
809,694	-51,88
809,873	-107,18
810,052	19,8
810,231	40,28
810,411	1,37
810,59	75,09
810,769	9,56
810,948	-4,78
811,127	-144,04
811,306	-121,51
811,485	-129,7
811,664	99,67
811,843	60,76
812,022	-55,98
812,201	-51,88
812,38	-47,79
812,559	44,37
812,737	48,47
812,916	-98,99
813,095	-76,46
813,274	11,61
813,453	-17,07
813,632	11,61
813,811	83,28
813,989	-25,26
814,168	-25,26
814,347	-125,61
814,526	-74,41
814,704	122,2
814,883	73,04
815,062	-66,22
815,24	-4,78
815,419	-109,22
815,598	-0,68
815,776	-139,94
815,955	25,94
816,133	-146,09
816,312	-41,64
816,49	-123,56
816,669	44,37
816,847	-64,17
817,026	15,7
817,204	-29,35
817,383	-60,07
817,561	17,75
817,74	64,85
817,918	-25,26
818,097	-51,88
818,275	-55,98
818,453	-43,69
818,632	95,57
818,81	11,61
818,988	-27,31
819,167	-49,83
819,345	-12,97
819,523	3,41
819,701	-0,68
819,879	56,66
820,058	68,95
820,236	-8,87
820,414	-49,83
820,592	60,76
820,77	-70,31
820,948	-23,21
821,127	-135,85
821,305	-60,07
821,483	-162,47
821,661	13,65
821,839	21,85
822,017	-90,79
822,195	-37,55
822,373	30,04
822,551	46,42
822,729	38,23
822,907	-10,92
823,085	54,61
823,262	-39,59
823,44	-146,09
823,618	-74,41
823,796	-37,55
823,974	-90,79
824,152	-64,17
824,329	11,61
824,507	7,51
824,685	83,28
824,863	-80,55
825,04	-21,16
825,218	9,56
825,396	-23,21
825,574	25,94
825,751	-12,97
825,929	146,77
826,107	-98,99
826,284	-4,78
826,462	-10,92
826,639	-17,07
826,817	-123,56
826,994	-23,21
827,172	-111,27
827,349	97,62
827,527	11,61
827,704	83,28
827,882	42,32
828,059	-111,27
828,237	-86,7
828,414	40,28
828,591	-168,62
828,769	-90,79
828,946	-47,79
829,124	62,8
829,301	44,37
829,478	-29,35
829,655	-6,83
829,833	-37,55
830,01	-92,84
830,187	36,18
830,364	-45,74
830,542	7,51
830,719	30,04
830,896	46,42
831,073	68,95
831,25	62,8
831,427	85,33
831,604	23,89
831,782	-88,75
831,959	19,8
832,136	-129,7
832,313	36,18
832,49	-94,89
832,667	36,18
832,844	-74,41
833,021	68,95
833,198	13,65
833,374	21,85
833,551	-6,83
833,728	-8,87
833,905	68,95
834,082	-172,71
834,259	-4,78
834,436	34,13
834,612	-113,32
834,789	73,04
834,966	-94,89
835,143	1,37
835,319	-60,07
835,496	38,23
835,673	25,94
835,85	34,13
836,026	91,48
836,203	-23,21
836,38	-37,55
836,556	15,7
836,733	-17,07
836,909	89,43
837,086	-37,55
837,262	-195,24
837,439	-49,83
837,616	-121,51
837,792	9,56
837,968	-33,45
838,145	-135,85
838,321	15,7
838,498	5,46
838,674	30,04
838,851	-53,93
839,027	-80,55
839,203	23,89
839,38	81,24
839,556	-15,02
839,732	50,52
839,909	-6,83
840,085	25,94
840,261	-8,87
840,437	-43,69
840,614	-45,74
840,79	-29,35
840,966	9,56
841,142	-49,83
841,318	-49,83
841,494	15,7
841,671	48,47
841,847	-82,6
842,023	-72,36
842,199	81,24
842,375	85,33
842,551	-96,94
842,727	-103,08
842,903	134,48
843,079	-86,7
843,255	91,48
843,431	7,51
843,607	171,35
843,783	-49,83
843,959	171,35
844,134	197,97
844,31	345,42
844,486	208,21
844,662	275,79
844,838	318,8
845,013	314,7
845,189	365,9
845,365	140,63
845,541	134,48
845,716	11,61
845,892	183,63
846,068	60,76
846,244	-10,92
846,419	118,1
846,595	34,13
846,77	-53,93
846,946	202,07
847,122	32,08
847,297	7,51
847,473	179,54
847,648	-84,65
847,824	68,95
847,999	-43,69
848,175	3,41
848,35	15,7
848,526	73,04
848,701	60,76
848,876	27,99
849,052	-31,4
849,227	-64,17
849,403	-23,21
849,578	-41,64
849,753	25,94
849,929	32,08
850,104	-78,51
850,279	-31,4
850,454	34,13
850,63	1,37
850,805	73,04
850,98	-41,64
851,155	25,94
851,33	15,7
851,505	-33,45
851,681	124,24
851,856	-117,42
852,031	58,71
852,206	17,75
852,381	-45,74
852,556	15,7
852,731	52,56
852,906	-4,78
853,081	32,08
853,256	95,57
853,431	-66,22
853,606	-68,27
853,781	-53,93
853,956	-199,34
854,131	11,61
854,305	-123,56
854,48	-107,18
854,655	-58,03
854,83	-45,74
855,005	-41,64
855,18	-6,83
855,354	-92,84
855,529	1,37
855,704	-62,12
855,879	-17,07
856,053	-74,41
856,228	7,51
856,403	-152,23
856,577	46,42
856,752	-60,07
856,926	-17,07
857,101	-25,26
857,276	-107,18
857,45	-47,79
857,625	-12,97
857,799	38,23
857,974	-12,97
858,148	-152,23
858,323	17,75
858,497	-76,46
858,672	32,08
858,846	-139,94
859,02	144,72
859,195	-68,27
859,369	-23,21
859,543	21,85
859,718	-27,31
859,892	7,51
860,066	-25,26
860,241	-4,78
860,415	-39,59
860,589	-31,4
860,763	-17,07
860,938	-29,35
861,112	48,47
861,286	-37,55
861,46	93,52
861,634	-10,92
861,808	64,85
861,982	-127,66
862,157	-4,78
862,331	-21,16
862,505	-172,71
862,679	-105,13
862,853	-37,55
863,027	-25,26
863,201	71
863,375	-53,93
863,549	-19,11
863,722	7,51
863,896	85,33
864,07	-72,36
864,244	11,61
864,418	7,51
864,592	-62,12
864,766	11,61
864,939	40,28
865,113	-66,22
865,287	56,66
865,461	-78,51
865,634	-4,78
865,808	-64,17
865,982	-25,26
866,156	-64,17
866,329	-119,46
866,503	-35,5
866,676	64,85
866,85	66,9
867,024	11,61
867,197	21,85
867,371	64,85
867,544	7,51
867,718	-94,89
867,891	91,48
868,065	-82,6
868,238	9,56
868,412	97,62
868,585	23,89
868,759	-53,93
868,932	-6,83
869,105	-68,27
869,279	-41,64
869,452	-121,51
869,625	-8,87
869,799	-129,7
869,972	-53,93
870,145	1,37
870,319	42,32
870,492	-39,59
870,665	-33,45
870,838	-117,42
871,011	-178,86
871,185	-31,4
871,358	-39,59
871,531	34,13
871,704	-41,64
871,877	-15,02
872,05	-84,65
872,223	-60,07
872,396	36,18
872,569	64,85
872,742	-39,59
872,915	-4,78
873,088	-72,36
873,261	-86,7
873,434	56,66
873,607	-10,92
873,78	62,8
873,953	-115,37
874,126	5,46
874,299	-51,88
874,471	-39,59
874,644	34,13
874,817	17,75
874,99	17,75
875,163	5,46
875,335	-103,08
875,508	-39,59
875,681	11,61
875,853	-2,73
876,026	-15,02
876,199	34,13
876,371	-8,87
876,544	-25,26
876,717	-0,68
876,889	-70,31
877,062	50,52
877,234	-90,79
877,407	-53,93
877,579	19,8
877,752	11,61
877,924	66,9
878,097	-33,45
878,269	27,99
878,442	19,8
878,614	-12,97
878,786	-21,16
878,959	-49,83
879,131	-0,68
879,303	-172,71
879,476	-68,27
879,648	99,67
879,82	50,52
879,993	-23,21
880,165	-33,45
880,337	-66,22
880,509	-0,68
880,681	-49,83
880,854	-51,88
881,026	17,75
881,198	169,3
881,37	-96,94
881,542	-66,22
881,714	-98,99
881,886	-84,65
882,058	-31,4
882,23	7,51
882,402	3,41
882,574	42,32
882,746	48,47
882,918	7,51
883,09	36,18
883,262	-62,12
883,434	-17,07
883,606	-96,94
883,778	-107,18
883,95	89,43
884,122	7,51
884,293	114
884,465	25,94
884,637	-6,83
884,809	-113,32
884,98	3,41
885,152	71
885,324	32,08
885,496	-113,32
885,667	-113,32
885,839	-98,99
886,011	93,52
886,182	-25,26
886,354	81,24
886,525	-8,87
886,697	-45,74
886,869	-109,22
887,04	-0,68
887,212	5,46
887,383	152,92
887,555	-25,26
887,726	-70,31
887,897	-82,6
888,069	7,51
888,24	-0,68
888,412	17,75
888,583	-53,93
888,754	-94,89
888,926	-150,18
889,097	-55,98
889,268	-21,16
889,44	-33,45
889,611	-107,18
889,782	-129,7
889,953	-64,17
890,125	44,37
890,296	-25,26
890,467	-88,75
890,638	-53,93
890,809	-8,87
890,98	-39,59
891,151	-8,87
891,323	64,85
891,494	27,99
891,665	-76,46
891,836	-33,45
892,007	-8,87
892,178	-23,21
892,349	7,51
892,52	-107,18
892,691	25,94
892,862	-43,69
893,032	-94,89
893,203	-68,27
893,374	-66,22
893,545	77,14
893,716	-94,89
893,887	-17,07
894,057	-49,83
894,228	-60,07
894,399	-10,92
894,57	87,38
894,74	-101,03
894,911	-96,94
895,082	-21,16
895,253	-125,61
895,423	-101,03
895,594	58,71
895,764	58,71
895,935	-78,51
896,106	-53,93
896,276	-47,79
896,447	15,7
896,617	-55,98
896,788	-92,84
896,958	34,13
897,129	-125,61
897,299	-139,94
897,47	105,81
897,64	15,7
897,81	7,51
897,981	9,56
898,151	-62,12
898,322	-45,74
898,492	50,52
898,662	-92,84
898,832	-23,21
899,003	-49,83
899,173	36,18
899,343	-27,31
899,513	-103,08
