Data from deuterium_USB4F104151__11__10-57-07-487.txt Node

Date: Wed Apr 15 10:57:07 EDT 2026
User: LaboPhy
Spectrometer: USB4F10415
Trigger mode: 4
Integration Time (sec): 1,000000E-1
Scans to average: 1
Electric dark correction enabled: true
Nonlinearity correction enabled: false
Boxcar width: 0
XAxis mode: Wavelengths
Number of Pixels in Spectrum: 3648
>>>>>Begin Spectral Data<<<<<
178,204	-373,58
178,424	-373,58
178,644	-373,58
178,864	-463,69
179,084	-426,83
179,304	-7
179,524	36,01
179,744	-60,24
179,964	-15,19
180,184	13,48
180,404	29,87
180,624	31,91
180,844	3,24
181,064	-93,01
181,283	42,15
181,503	-103,25
181,723	122,02
181,943	-113,49
182,163	167,08
182,383	-9,05
182,602	74,92
182,822	126,12
183,042	72,87
183,262	13,48
183,482	-19,29
183,701	111,78
183,921	40,11
184,141	-72,53
184,361	74,92
184,58	17,58
184,8	85,16
185,02	-37,72
185,239	99,5
185,459	76,97
185,679	103,59
185,898	-168,79
186,118	40,11
186,338	40,11
186,557	154,79
186,777	-52,05
186,997	19,63
187,216	-2,9
187,436	216,23
187,655	66,73
187,875	103,59
188,095	48,3
188,314	183,46
188,534	60,59
188,753	-39,76
188,973	105,64
189,192	214,18
189,412	27,82
189,631	44,2
189,851	81,07
190,07	203,94
190,29	-82,77
190,509	15,53
190,729	-27,48
190,948	156,84
191,168	199,85
191,387	1,19
191,607	-7
191,826	33,96
192,045	-54,1
192,265	1,19
192,484	132,26
192,704	91,31
192,923	-0,85
193,142	169,13
193,362	87,21
193,581	107,69
193,8	11,43
194,02	113,83
194,239	11,43
194,458	46,25
194,678	23,72
194,897	19,63
195,116	15,53
195,335	81,07
195,555	-19,29
195,774	7,34
195,993	70,83
196,212	119,98
196,432	-25,43
196,651	-33,62
196,87	1,19
197,089	294,05
197,308	11,43
197,528	87,21
197,747	-66,39
197,966	60,59
198,185	128,17
198,404	-9,05
198,623	158,89
198,842	158,89
199,062	50,35
199,281	81,07
199,5	79,02
199,719	79,02
199,938	31,91
200,157	31,91
200,376	173,22
200,595	191,66
200,814	3,24
201,033	-15,19
201,252	218,28
201,471	-31,57
201,69	79,02
201,909	-0,85
202,128	138,41
202,347	130,22
202,566	3,24
202,785	-70,48
203,004	-29,52
203,223	210,09
203,442	-4,95
203,661	-19,29
203,879	64,68
204,098	158,89
204,317	-25,43
204,536	171,18
204,755	122,02
204,974	40,11
205,193	-13,14
205,411	122,02
205,63	109,74
205,849	124,07
206,068	-15,19
206,287	1,19
206,505	95,4
206,724	-0,85
206,943	21,67
207,162	-13,14
207,381	66,73
207,599	-13,14
207,818	-2,9
208,037	-50
208,255	19,63
208,474	48,3
208,693	99,5
208,911	-17,24
209,13	62,63
209,349	23,72
209,567	97,45
209,786	42,15
210,005	111,78
210,223	-2,9
210,442	-152,4
210,661	38,06
210,879	21,67
211,098	33,96
211,316	5,29
211,535	-9,05
211,753	7,34
211,972	85,16
212,191	-39,76
212,409	-56,15
212,628	95,4
212,846	1,19
213,065	68,78
213,283	85,16
213,502	66,73
213,72	99,5
213,938	-31,57
214,157	62,63
214,375	76,97
214,594	-2,9
214,812	113,83
215,031	-9,05
215,249	60,59
215,467	74,92
215,686	31,91
215,904	64,68
216,122	15,53
216,341	156,84
216,559	76,97
216,778	44,2
216,996	156,84
217,214	-23,38
217,432	-21,33
217,651	-121,68
217,869	115,88
218,087	15,53
218,306	-31,57
218,524	9,39
218,742	33,96
218,96	40,11
219,179	9,39
219,397	58,54
219,615	220,33
219,833	107,69
220,051	-35,67
220,27	64,68
220,488	70,83
220,706	27,82
220,924	-93,01
221,142	-25,43
221,36	-27,48
221,578	68,78
221,796	-25,43
222,015	7,34
222,233	87,21
222,451	148,65
222,669	-21,33
222,887	23,72
223,105	-29,52
223,323	3,24
223,541	42,15
223,759	68,78
223,977	33,96
224,195	197,8
224,413	29,87
224,631	1,19
224,849	62,63
225,067	162,98
225,285	42,15
225,503	-64,34
225,721	-107,35
225,939	-11,09
226,157	33,96
226,375	222,38
226,592	-37,72
226,81	48,3
227,028	56,49
227,246	85,16
227,464	46,25
227,682	95,4
227,9	52,39
228,117	81,07
228,335	95,4
228,553	36,01
228,771	36,01
228,989	44,2
229,206	165,03
229,424	-64,34
229,642	27,82
229,86	1,19
230,077	105,64
230,295	7,34
230,513	103,59
230,731	38,06
230,948	150,7
231,166	179,37
231,384	-37,72
231,601	31,91
231,819	150,7
232,037	-13,14
232,254	-11,09
232,472	-23,38
232,689	-41,81
232,907	177,32
233,125	-78,68
233,342	-99,16
233,56	-35,67
233,777	13,48
233,995	62,63
234,213	81,07
234,43	146,6
234,648	52,39
234,865	50,35
235,083	152,74
235,3	-37,72
235,518	97,45
235,735	76,97
235,953	-15,19
236,17	-4,95
236,388	25,77
236,605	23,72
236,822	-2,9
237,04	154,79
237,257	48,3
237,475	-103,25
237,692	79,02
237,909	74,92
238,127	27,82
238,344	25,77
238,562	62,63
238,779	-41,81
238,996	-56,15
239,214	54,44
239,431	13,48
239,648	-21,33
239,865	72,87
240,083	-4,95
240,3	7,34
240,517	-123,73
240,735	19,63
240,952	105,64
241,169	31,91
241,386	87,21
241,603	1,19
241,821	1,19
242,038	29,87
242,255	101,55
242,472	1,19
242,689	23,72
242,907	31,91
243,124	97,45
243,341	9,39
243,558	-9,05
243,775	-121,68
243,992	-74,58
244,209	91,31
244,426	183,46
244,643	72,87
244,86	7,34
245,078	72,87
245,295	89,26
245,512	1,19
245,729	-70,48
245,946	97,45
246,163	62,63
246,38	3,24
246,597	31,91
246,814	25,77
247,031	-54,1
247,248	21,67
247,464	74,92
247,681	85,16
247,898	40,11
248,115	101,55
248,332	11,43
248,549	173,22
248,766	189,61
248,983	81,07
249,2	7,34
249,417	95,4
249,633	-2,9
249,85	138,41
250,067	25,77
250,284	44,2
250,501	152,74
250,717	126,12
250,934	-54,1
251,151	44,2
251,368	101,55
251,585	-19,29
251,801	66,73
252,018	-4,95
252,235	85,16
252,451	-76,63
252,668	17,58
252,885	124,07
253,102	9,39
253,318	17,58
253,535	-2,9
253,752	68,78
253,968	-11,09
254,185	-119,64
254,401	58,54
254,618	99,5
254,835	40,11
255,051	97,45
255,268	162,98
255,484	36,01
255,701	31,91
255,917	23,72
256,134	-76,63
256,351	1,19
256,567	-47,96
256,784	36,01
257	-68,44
257,217	91,31
257,433	85,16
257,65	74,92
257,866	165,03
258,082	-39,76
258,299	-17,24
258,515	-9,05
258,732	-25,43
258,948	-117,59
259,165	29,87
259,381	-50
259,597	66,73
259,814	-0,85
260,03	9,39
260,246	-17,24
260,463	109,74
260,679	113,83
260,895	76,97
261,112	89,26
261,328	42,15
261,544	-78,68
261,761	89,26
261,977	-66,39
262,193	-31,57
262,409	31,91
262,626	44,2
262,842	23,72
263,058	19,63
263,274	81,07
263,49	15,53
263,707	31,91
263,923	107,69
264,139	-41,81
264,355	48,3
264,571	48,3
264,787	142,5
265,004	109,74
265,22	-7
265,436	-17,24
265,652	25,77
265,868	60,59
266,084	-72,53
266,3	-27,48
266,516	-21,33
266,732	83,11
266,948	40,11
267,164	-50
267,38	33,96
267,596	117,93
267,812	162,98
268,028	9,39
268,244	-39,76
268,46	21,67
268,676	-39,76
268,892	87,21
269,108	-64,34
269,324	-23,38
269,54	-58,2
269,756	93,35
269,972	-62,29
270,188	93,35
270,403	-54,1
270,619	15,53
270,835	148,65
271,051	107,69
271,267	31,91
271,483	-45,91
271,698	138,41
271,914	46,25
272,13	11,43
272,346	3,24
272,562	9,39
272,777	126,12
272,993	-62,29
273,209	25,77
273,425	66,73
273,64	-9,05
273,856	66,73
274,072	-43,86
274,287	3,24
274,503	136,36
274,719	52,39
274,934	-0,85
275,15	-58,2
275,366	89,26
275,581	-29,52
275,797	-2,9
276,012	97,45
276,228	7,34
276,444	64,68
276,659	154,79
276,875	17,58
277,09	27,82
277,306	-35,67
277,521	54,44
277,737	3,24
277,952	36,01
278,168	50,35
278,383	-15,19
278,599	72,87
278,814	119,98
279,03	27,82
279,245	62,63
279,461	76,97
279,676	119,98
279,892	-58,2
280,107	-88,92
280,322	-66,39
280,538	119,98
280,753	-13,14
280,969	117,93
281,184	40,11
281,399	128,17
281,615	52,39
281,83	15,53
282,045	-35,67
282,26	33,96
282,476	74,92
282,691	81,07
282,906	107,69
283,122	81,07
283,337	-19,29
283,552	91,31
283,767	40,11
283,983	54,44
284,198	27,82
284,413	136,36
284,628	-107,35
284,843	36,01
285,058	85,16
285,274	-15,19
285,489	29,87
285,704	83,11
285,919	-78,68
286,134	44,2
286,349	40,11
286,564	-41,81
286,779	126,12
286,995	5,29
287,21	-115,54
287,425	1,19
287,64	-7
287,855	152,74
288,07	-105,3
288,285	150,7
288,5	89,26
288,715	173,22
288,93	-0,85
289,145	-50
289,36	27,82
289,575	-58,2
289,79	158,89
290,004	-25,43
290,219	140,46
290,434	-31,57
290,649	46,25
290,864	-41,81
291,079	42,15
291,294	15,53
291,509	23,72
291,724	-2,9
291,938	-7
292,153	5,29
292,368	15,53
292,583	66,73
292,798	66,73
293,012	-41,81
293,227	23,72
293,442	-15,19
293,657	132,26
293,871	72,87
294,086	40,11
294,301	144,55
294,516	95,4
294,73	1,19
294,945	-70,48
295,16	-93,01
295,374	103,59
295,589	91,31
295,804	-7
296,018	-7
296,233	93,35
296,447	111,78
296,662	13,48
296,877	117,93
297,091	115,88
297,306	19,63
297,52	56,49
297,735	46,25
297,949	44,2
298,164	46,25
298,378	85,16
298,593	-43,86
298,807	-37,72
299,022	62,63
299,236	199,85
299,451	52,39
299,665	68,78
299,88	-0,85
300,094	52,39
300,309	17,58
300,523	58,54
300,737	31,91
300,952	42,15
301,166	60,59
301,381	15,53
301,595	44,2
301,809	40,11
302,024	-0,85
302,238	-9,05
302,452	167,08
302,667	5,29
302,881	140,46
303,095	64,68
303,309	21,67
303,524	-29,52
303,738	44,2
303,952	11,43
304,166	13,48
304,381	-107,35
304,595	74,92
304,809	-2,9
305,023	25,77
305,237	19,63
305,452	-29,52
305,666	109,74
305,88	97,45
306,094	48,3
306,308	9,39
306,522	66,73
306,736	117,93
306,95	62,63
307,164	29,87
307,379	-9,05
307,593	144,55
307,807	122,02
308,021	179,37
308,235	74,92
308,449	-131,92
308,663	23,72
308,877	212,14
309,091	89,26
309,305	74,92
309,519	-183,12
309,733	148,65
309,947	-39,76
310,161	52,39
310,374	66,73
310,588	173,22
310,802	-50
311,016	9,39
311,23	27,82
311,444	-23,38
311,658	58,54
311,872	158,89
312,085	124,07
312,299	89,26
312,513	148,65
312,727	115,88
312,941	5,29
313,154	93,35
313,368	107,69
313,582	136,36
313,796	156,84
314,009	5,29
314,223	117,93
314,437	81,07
314,651	85,16
314,864	-9,05
315,078	3,24
315,292	-47,96
315,505	31,91
315,719	25,77
315,933	113,83
316,146	-9,05
316,36	-41,81
316,573	177,32
316,787	97,45
317,001	46,25
317,214	48,3
317,428	17,58
317,641	15,53
317,855	-9,05
318,068	107,69
318,282	105,64
318,495	240,81
318,709	105,64
318,922	31,91
319,136	171,18
319,349	72,87
319,563	27,82
319,776	99,5
319,99	-64,34
320,203	91,31
320,417	31,91
320,63	66,73
320,843	187,56
321,057	31,91
321,27	89,26
321,483	56,49
321,697	162,98
321,91	56,49
322,124	87,21
322,337	72,87
322,55	3,24
322,763	132,26
322,977	11,43
323,19	25,77
323,403	89,26
323,617	132,26
323,83	142,5
324,043	13,48
324,256	44,2
324,469	-50
324,683	238,76
324,896	48,3
325,109	-47,96
325,322	-66,39
325,535	132,26
325,748	50,35
325,962	17,58
326,175	99,5
326,388	95,4
326,601	113,83
326,814	48,3
327,027	68,78
327,24	179,37
327,453	-103,25
327,666	87,21
327,879	70,83
328,092	165,03
328,305	105,64
328,518	21,67
328,731	-0,85
328,944	19,63
329,157	138,41
329,37	-9,05
329,583	177,32
329,796	91,31
330,009	27,82
330,222	124,07
330,435	40,11
330,648	74,92
330,861	140,46
331,073	62,63
331,286	156,84
331,499	52,39
331,712	-17,24
331,925	42,15
332,138	44,2
332,35	148,65
332,563	3,24
332,776	162,98
332,989	3,24
333,202	27,82
333,414	38,06
333,627	38,06
333,84	1,19
334,053	64,68
334,265	11,43
334,478	-31,57
334,691	167,08
334,903	60,59
335,116	7,34
335,329	130,22
335,541	136,36
335,754	183,46
335,966	95,4
336,179	15,53
336,392	99,5
336,604	42,15
336,817	134,31
337,029	66,73
337,242	93,35
337,454	124,07
337,667	76,97
337,88	160,94
338,092	70,83
338,305	144,55
338,517	15,53
338,729	140,46
338,942	195,75
339,154	-64,34
339,367	-41,81
339,579	85,16
339,792	3,24
340,004	3,24
340,217	91,31
340,429	60,59
340,641	31,91
340,854	-25,43
341,066	-9,05
341,278	162,98
341,491	214,18
341,703	126,12
341,915	15,53
342,128	117,93
342,34	66,73
342,552	-19,29
342,764	23,72
342,977	38,06
343,189	66,73
343,401	9,39
343,613	-0,85
343,826	21,67
344,038	-103,25
344,25	66,73
344,462	-19,29
344,674	130,22
344,886	-25,43
345,099	38,06
345,311	50,35
345,523	-2,9
345,735	-43,86
345,947	115,88
346,159	156,84
346,371	9,39
346,583	66,73
346,795	224,42
347,007	111,78
347,219	81,07
347,431	27,82
347,643	210,09
347,855	52,39
348,067	173,22
348,279	-27,48
348,491	7,34
348,703	140,46
348,915	64,68
349,127	7,34
349,339	72,87
349,551	1,19
349,763	197,8
349,975	33,96
350,187	97,45
350,399	179,37
350,61	27,82
350,822	38,06
351,034	122,02
351,246	122,02
351,458	165,03
351,669	76,97
351,881	212,14
352,093	150,7
352,305	138,41
352,517	142,5
352,728	187,56
352,94	140,46
353,152	122,02
353,363	-27,48
353,575	189,61
353,787	240,81
353,999	87,21
354,21	220,33
354,422	62,63
354,633	1,19
354,845	93,35
355,057	33,96
355,268	44,2
355,48	74,92
355,692	29,87
355,903	1,19
356,115	5,29
356,326	11,43
356,538	124,07
356,749	103,59
356,961	97,45
357,172	42,15
357,384	-99,16
357,595	320,68
357,807	29,87
358,018	64,68
358,23	44,2
358,441	81,07
358,653	113,83
358,864	62,63
359,075	-19,29
359,287	76,97
359,498	154,79
359,709	105,64
359,921	46,25
360,132	58,54
360,344	62,63
360,555	44,2
360,766	119,98
360,977	11,43
361,189	212,14
361,4	76,97
361,611	277,67
361,823	107,69
362,034	134,31
362,245	-58,2
362,456	11,43
362,667	191,66
362,879	5,29
363,09	58,54
363,301	130,22
363,512	70,83
363,723	-50
363,935	1,19
364,146	122,02
364,357	89,26
364,568	19,63
364,779	-23,38
364,99	144,55
365,201	-17,24
365,412	162,98
365,623	-66,39
365,834	148,65
366,045	105,64
366,256	103,59
366,467	93,35
366,678	48,3
366,889	60,59
367,1	85,16
367,311	171,18
367,522	89,26
367,733	99,5
367,944	134,31
368,155	115,88
368,366	124,07
368,577	156,84
368,788	193,7
368,999	19,63
369,209	79,02
369,42	214,18
369,631	249
369,842	220,33
370,053	42,15
370,264	201,9
370,474	1,19
370,685	122,02
370,896	17,58
371,107	128,17
371,317	33,96
371,528	27,82
371,739	142,5
371,95	179,37
372,16	56,49
372,371	-13,14
372,582	-25,43
372,792	97,45
373,003	158,89
373,214	56,49
373,424	93,35
373,635	27,82
373,846	197,8
374,056	68,78
374,267	119,98
374,477	158,89
374,688	62,63
374,898	91,31
375,109	70,83
375,319	126,12
375,53	83,11
375,74	109,74
375,951	23,72
376,161	126,12
376,372	138,41
376,582	17,58
376,793	105,64
377,003	-0,85
377,214	15,53
377,424	185,51
377,635	64,68
377,845	25,77
378,055	165,03
378,266	-50
378,476	56,49
378,686	97,45
378,897	152,74
379,107	212,14
379,317	189,61
379,528	25,77
379,738	173,22
379,948	97,45
380,158	113,83
380,369	109,74
380,579	124,07
380,789	62,63
380,999	152,74
381,21	140,46
381,42	222,38
381,63	74,92
381,84	203,94
382,05	128,17
382,261	193,7
382,471	205,99
382,681	79,02
382,891	169,13
383,101	97,45
383,311	-41,81
383,521	25,77
383,731	144,55
383,941	175,27
384,151	79,02
384,361	48,3
384,571	48,3
384,781	140,46
384,991	251,05
385,201	167,08
385,411	93,35
385,621	146,6
385,831	122,02
386,041	85,16
386,251	27,82
386,461	93,35
386,671	62,63
386,881	72,87
387,091	44,2
387,301	122,02
387,511	105,64
387,72	191,66
387,93	160,94
388,14	56,49
388,35	181,42
388,56	81,07
388,769	126,12
388,979	-15,19
389,189	91,31
389,399	117,93
389,609	134,31
389,818	72,87
390,028	58,54
390,238	199,85
390,447	-35,67
390,657	132,26
390,867	44,2
391,076	-25,43
391,286	113,83
391,496	31,91
391,705	70,83
391,915	138,41
392,125	208,04
392,334	42,15
392,544	236,71
392,753	76,97
392,963	33,96
393,172	117,93
393,382	38,06
393,591	203,94
393,801	64,68
394,01	203,94
394,22	154,79
394,429	50,35
394,639	68,78
394,848	76,97
395,058	113,83
395,267	68,78
395,477	111,78
395,686	91,31
395,895	253,09
396,105	394,4
396,314	124,07
396,524	76,97
396,733	-13,14
396,942	224,42
397,152	171,18
397,361	238,76
397,57	228,52
397,78	122,02
397,989	115,88
398,198	263,33
398,407	29,87
398,617	109,74
398,826	167,08
399,035	81,07
399,244	117,93
399,453	52,39
399,663	74,92
399,872	74,92
400,081	46,25
400,29	236,71
400,499	25,77
400,708	175,27
400,917	144,55
401,127	19,63
401,336	40,11
401,545	136,36
401,754	117,93
401,963	113,83
402,172	99,5
402,381	25,77
402,59	64,68
402,799	72,87
403,008	91,31
403,217	17,58
403,426	140,46
403,635	31,91
403,844	52,39
404,053	117,93
404,262	-15,19
404,471	183,46
404,68	126,12
404,888	74,92
405,097	52,39
405,306	107,69
405,515	107,69
405,724	31,91
405,933	173,22
406,142	136,36
406,35	117,93
406,559	74,92
406,768	72,87
406,977	187,56
407,185	62,63
407,394	99,5
407,603	27,82
407,812	56,49
408,02	199,85
408,229	173,22
408,438	68,78
408,646	85,16
408,855	154,79
409,064	208,04
409,272	152,74
409,481	158,89
409,69	218,28
409,898	189,61
410,107	242,85
410,315	343,21
410,524	140,46
410,733	283,81
410,941	154,79
411,15	208,04
411,358	222,38
411,567	212,14
411,775	128,17
411,984	56,49
412,192	181,42
412,401	89,26
412,609	195,75
412,818	126,12
413,026	46,25
413,234	-11,09
413,443	83,11
413,651	56,49
413,86	21,67
414,068	253,09
414,276	249
414,485	25,77
414,693	83,11
414,901	173,22
415,11	156,84
415,318	1,19
415,526	64,68
415,734	124,07
415,943	7,34
416,151	107,69
416,359	58,54
416,567	119,98
416,776	142,5
416,984	113,83
417,192	122,02
417,4	-2,9
417,608	85,16
417,817	33,96
418,025	101,55
418,233	181,42
418,441	-27,48
418,649	9,39
418,857	31,91
419,065	126,12
419,273	70,83
419,481	74,92
419,689	58,54
419,897	83,11
420,105	-54,1
420,313	101,55
420,521	187,56
420,729	105,64
420,937	89,26
421,145	3,24
421,353	115,88
421,561	148,65
421,769	74,92
421,977	33,96
422,185	38,06
422,393	17,58
422,601	142,5
422,809	11,43
423,017	15,53
423,224	66,73
423,432	105,64
423,64	68,78
423,848	179,37
424,056	-25,43
424,263	128,17
424,471	36,01
424,679	48,3
424,887	1,19
425,094	171,18
425,302	132,26
425,51	33,96
425,718	134,31
425,925	-21,33
426,133	-7
426,341	189,61
426,548	-7
426,756	25,77
426,964	44,2
427,171	-13,14
427,379	40,11
427,586	-4,95
427,794	101,55
428,001	52,39
428,209	72,87
428,417	150,7
428,624	91,31
428,832	68,78
429,039	15,53
429,247	25,77
429,454	99,5
429,662	165,03
429,869	195,75
430,076	79,02
430,284	197,8
430,491	99,5
430,699	60,59
430,906	171,18
431,114	33,96
431,321	79,02
431,528	99,5
431,736	171,18
431,943	138,41
432,15	251,05
432,358	365,73
432,565	504,99
432,772	261,29
432,979	652,45
433,187	662,69
433,394	826,53
433,601	830,62
433,808	1004,7
434,016	1072,28
434,223	916,64
434,43	881,82
434,637	828,57
434,844	654,5
435,052	666,78
435,259	558,24
435,466	378,02
435,673	240,81
435,88	318,63
436,087	203,94
436,294	214,18
436,501	167,08
436,708	62,63
436,915	122,02
437,122	210,09
437,329	21,67
437,537	93,35
437,743	23,72
437,95	197,8
438,157	99,5
438,364	-0,85
438,571	44,2
438,778	40,11
438,985	152,74
439,192	154,79
439,399	-9,05
439,606	132,26
439,813	146,6
440,02	173,22
440,227	273,57
440,433	130,22
440,64	-0,85
440,847	-29,52
441,054	54,44
441,261	140,46
441,467	68,78
441,674	46,25
441,881	64,68
442,088	54,44
442,294	165,03
442,501	89,26
442,708	117,93
442,914	7,34
443,121	158,89
443,328	103,59
443,534	72,87
443,741	52,39
443,948	-52,05
444,154	52,39
444,361	228,52
444,568	27,82
444,774	17,58
444,981	-21,33
445,187	130,22
445,394	44,2
445,6	50,35
445,807	56,49
446,013	52,39
446,22	-56,15
446,426	-17,24
446,633	138,41
446,839	128,17
447,046	-27,48
447,252	167,08
447,459	9,39
447,665	-29,52
447,871	115,88
448,078	93,35
448,284	130,22
448,491	181,42
448,697	101,55
448,903	158,89
449,11	128,17
449,316	9,39
449,522	228,52
449,728	97,45
449,935	117,93
450,141	58,54
450,347	105,64
450,553	23,72
450,76	42,15
450,966	85,16
451,172	117,93
451,378	76,97
451,584	76,97
451,791	160,94
451,997	128,17
452,203	-2,9
452,409	103,59
452,615	87,21
452,821	58,54
453,027	7,34
453,233	269,48
453,44	9,39
453,646	11,43
453,852	72,87
454,058	-86,87
454,264	97,45
454,47	187,56
454,676	64,68
454,882	52,39
455,088	66,73
455,294	79,02
455,5	115,88
455,705	60,59
455,911	11,43
456,117	42,15
456,323	29,87
456,529	15,53
456,735	74,92
456,941	107,69
457,147	111,78
457,352	72,87
457,558	17,58
457,764	236,71
457,97	-0,85
458,176	66,73
458,381	148,65
458,587	173,22
458,793	107,69
458,999	-60,24
459,204	36,01
459,41	40,11
459,616	40,11
459,821	52,39
460,027	-68,44
460,233	107,69
460,438	85,16
460,644	-9,05
460,85	62,63
461,055	68,78
461,261	111,78
461,466	-17,24
461,672	66,73
461,878	58,54
462,083	99,5
462,289	-15,19
462,494	5,29
462,7	165,03
462,905	3,24
463,111	158,89
463,316	253,09
463,522	226,47
463,727	15,53
463,932	152,74
464,138	29,87
464,343	117,93
464,549	236,71
464,754	158,89
464,959	99,5
465,165	58,54
465,37	15,53
465,575	70,83
465,781	93,35
465,986	-9,05
466,191	58,54
466,397	-0,85
466,602	89,26
466,807	48,3
467,012	238,76
467,218	142,5
467,423	74,92
467,628	89,26
467,833	48,3
468,038	60,59
468,244	-50
468,449	-35,67
468,654	83,11
468,859	7,34
469,064	50,35
469,269	-9,05
469,474	154,79
469,679	103,59
469,885	81,07
470,09	58,54
470,295	76,97
470,5	-27,48
470,705	148,65
470,91	97,45
471,115	109,74
471,32	15,53
471,525	218,28
471,73	158,89
471,935	83,11
472,139	79,02
472,344	-15,19
472,549	97,45
472,754	99,5
472,959	126,12
473,164	27,82
473,369	158,89
473,574	179,37
473,778	93,35
473,983	154,79
474,188	144,55
474,393	36,01
474,598	70,83
474,802	150,7
475,007	64,68
475,212	177,32
475,417	50,35
475,621	277,67
475,826	21,67
476,031	70,83
476,235	9,39
476,44	40,11
476,645	83,11
476,849	1,19
477,054	-13,14
477,259	81,07
477,463	220,33
477,668	195,75
477,872	152,74
478,077	70,83
478,282	27,82
478,486	62,63
478,691	95,4
478,895	83,11
479,1	208,04
479,304	154,79
479,509	48,3
479,713	134,31
479,918	119,98
480,122	95,4
480,326	62,63
480,531	31,91
480,735	99,5
480,94	5,29
481,144	162,98
481,348	95,4
481,553	109,74
481,757	27,82
481,961	-11,09
482,166	33,96
482,37	-7
482,574	171,18
482,778	111,78
482,983	74,92
483,187	70,83
483,391	144,55
483,595	214,18
483,8	375,97
484,004	832,67
484,208	1178,78
484,412	2157,71
484,616	3161,21
484,821	4631,65
485,025	5989,46
485,229	7525,43
485,433	8768,55
485,637	9821,2
485,841	10601,48
486,045	10853,38
486,249	10789,89
486,453	9784,34
486,657	8940,58
486,861	7941,17
487,065	6501,45
487,269	5452,89
487,473	4441,19
487,677	3710,07
487,881	3206,27
488,085	2331,78
488,289	1821,84
488,493	1291,41
488,697	1047,71
488,901	793,76
489,105	369,83
489,309	246,95
489,512	349,35
489,716	208,04
489,92	95,4
490,124	197,8
490,328	234,66
490,531	91,31
490,735	203,94
490,939	83,11
491,143	93,35
491,346	25,77
491,55	117,93
491,754	79,02
491,958	152,74
492,161	113,83
492,365	134,31
492,569	70,83
492,772	212,14
492,976	220,33
493,18	132,26
493,383	97,45
493,587	13,48
493,79	134,31
493,994	19,63
494,197	107,69
494,401	177,32
494,605	136,36
494,808	13,48
495,012	132,26
495,215	218,28
495,419	132,26
495,622	54,44
495,825	66,73
496,029	33,96
496,232	109,74
496,436	113,83
496,639	113,83
496,843	124,07
497,046	-0,85
497,249	68,78
497,453	95,4
497,656	76,97
497,859	79,02
498,063	171,18
498,266	81,07
498,469	-9,05
498,673	15,53
498,876	56,49
499,079	27,82
499,282	27,82
499,485	201,9
499,689	60,59
499,892	105,64
500,095	44,2
500,298	66,73
500,501	-9,05
500,705	74,92
500,908	113,83
501,111	-21,33
501,314	187,56
501,517	152,74
501,72	50,35
501,923	81,07
502,126	29,87
502,329	162,98
502,532	101,55
502,735	113,83
502,938	117,93
503,141	81,07
503,344	58,54
503,547	160,94
503,75	40,11
503,953	-4,95
504,156	107,69
504,359	25,77
504,562	-11,09
504,765	83,11
504,968	97,45
505,17	64,68
505,373	31,91
505,576	38,06
505,779	91,31
505,982	-17,24
506,185	89,26
506,387	19,63
506,59	138,41
506,793	-56,15
506,996	56,49
507,198	124,07
507,401	238,76
507,604	97,45
507,807	144,55
508,009	138,41
508,212	183,46
508,415	50,35
508,617	31,91
508,82	97,45
509,022	44,2
509,225	158,89
509,428	87,21
509,63	113,83
509,833	38,06
510,035	214,18
510,238	97,45
510,44	21,67
510,643	175,27
510,845	150,7
511,048	156,84
511,25	17,58
511,453	25,77
511,655	113,83
511,858	191,66
512,06	195,75
512,262	-7
512,465	56,49
512,667	83,11
512,87	-43,86
513,072	189,61
513,274	83,11
513,477	-58,2
513,679	109,74
513,881	36,01
514,084	58,54
514,286	171,18
514,488	83,11
514,69	83,11
514,893	31,91
515,095	99,5
515,297	62,63
515,499	66,73
515,701	81,07
515,904	165,03
516,106	191,66
516,308	105,64
516,51	33,96
516,712	156,84
516,914	17,58
517,116	-64,34
517,318	-2,9
517,52	11,43
517,722	99,5
517,925	-11,09
518,127	23,72
518,329	107,69
518,531	3,24
518,733	23,72
518,935	17,58
519,136	27,82
519,338	42,15
519,54	138,41
519,742	117,93
519,944	165,03
520,146	56,49
520,348	62,63
520,55	169,13
520,752	-25,43
520,954	-15,19
521,155	56,49
521,357	-4,95
521,559	56,49
521,761	113,83
521,963	83,11
522,164	107,69
522,366	101,55
522,568	93,35
522,77	122,02
522,971	85,16
523,173	31,91
523,375	62,63
523,576	-17,24
523,778	23,72
523,98	101,55
524,181	81,07
524,383	42,15
524,584	-23,38
524,786	70,83
524,988	52,39
525,189	124,07
525,391	171,18
525,592	38,06
525,794	70,83
525,995	68,78
526,197	85,16
526,398	226,47
526,6	62,63
526,801	122,02
527,003	-80,72
527,204	15,53
527,406	48,3
527,607	27,82
527,808	9,39
528,01	52,39
528,211	150,7
528,412	-13,14
528,614	115,88
528,815	238,76
529,016	154,79
529,218	105,64
529,419	52,39
529,62	-43,86
529,822	93,35
530,023	107,69
530,224	128,17
530,425	68,78
530,626	36,01
530,828	72,87
531,029	15,53
531,23	17,58
531,431	54,44
531,632	150,7
531,833	-27,48
532,035	56,49
532,236	-52,05
532,437	126,12
532,638	72,87
532,839	-47,96
533,04	115,88
533,241	148,65
533,442	97,45
533,643	-45,91
533,844	-23,38
534,045	36,01
534,246	11,43
534,447	9,39
534,648	3,24
534,849	158,89
535,05	-58,2
535,251	-13,14
535,451	74,92
535,652	-9,05
535,853	29,87
536,054	64,68
536,255	68,78
536,456	-0,85
536,657	33,96
536,857	11,43
537,058	134,31
537,259	19,63
537,46	85,16
537,66	27,82
537,861	64,68
538,062	42,15
538,263	-125,78
538,463	56,49
538,664	126,12
538,865	-19,29
539,065	74,92
539,266	126,12
539,466	-29,52
539,667	113,83
539,868	-25,43
540,068	48,3
540,269	99,5
540,469	93,35
540,67	91,31
540,87	130,22
541,071	-82,77
541,271	115,88
541,472	187,56
541,672	126,12
541,873	83,11
542,073	-43,86
542,274	56,49
542,474	99,5
542,675	91,31
542,875	70,83
543,075	-58,2
543,276	31,91
543,476	72,87
543,676	103,59
543,877	-70,48
544,077	109,74
544,277	218,28
544,478	105,64
544,678	156,84
544,878	54,44
545,078	27,82
545,279	-23,38
545,479	-23,38
545,679	-35,67
545,879	-52,05
546,079	165,03
546,28	-66,39
546,48	58,54
546,68	191,66
546,88	99,5
547,08	95,4
547,28	234,66
547,48	-37,72
547,68	105,64
547,88	76,97
548,081	89,26
548,281	-35,67
548,481	13,48
548,681	60,59
548,881	72,87
549,081	154,79
549,28	48,3
549,48	-13,14
549,68	138,41
549,88	-21,33
550,08	-47,96
550,28	48,3
550,48	185,51
550,68	-4,95
550,88	-21,33
551,08	-15,19
551,279	251,05
551,479	-15,19
551,679	165,03
551,879	19,63
552,079	76,97
552,278	54,44
552,478	138,41
552,678	85,16
552,878	119,98
553,077	21,67
553,277	-35,67
553,477	-2,9
553,676	162,98
553,876	36,01
554,076	66,73
554,275	64,68
554,475	50,35
554,674	105,64
554,874	27,82
555,074	-0,85
555,273	72,87
555,473	15,53
555,672	-25,43
555,872	-0,85
556,071	50,35
556,271	179,37
556,47	64,68
556,67	72,87
556,869	42,15
557,068	19,63
557,268	27,82
557,467	17,58
557,667	173,22
557,866	95,4
558,065	76,97
558,265	52,39
558,464	-68,44
558,663	3,24
558,863	97,45
559,062	109,74
559,261	-0,85
559,461	115,88
559,66	48,3
559,859	-2,9
560,058	3,24
560,258	3,24
560,457	58,54
560,656	187,56
560,855	-109,4
561,054	99,5
561,253	89,26
561,453	50,35
561,652	-35,67
561,851	89,26
562,05	7,34
562,249	81,07
562,448	40,11
562,647	-0,85
562,846	40,11
563,045	44,2
563,244	27,82
563,443	109,74
563,642	33,96
563,841	115,88
564,04	89,26
564,239	83,11
564,438	81,07
564,637	-97,11
564,836	-15,19
565,035	62,63
565,234	40,11
565,432	91,31
565,631	50,35
565,83	85,16
566,029	54,44
566,228	-23,38
566,427	162,98
566,625	-111,44
566,824	154,79
567,023	25,77
567,222	21,67
567,42	17,58
567,619	119,98
567,818	21,67
568,016	138,41
568,215	68,78
568,414	132,26
568,612	74,92
568,811	124,07
569,01	72,87
569,208	68,78
569,407	136,36
569,605	171,18
569,804	-15,19
570,002	91,31
570,201	-54,1
570,4	138,41
570,598	93,35
570,797	138,41
570,995	17,58
571,193	101,55
571,392	132,26
571,59	-17,24
571,789	119,98
571,987	122,02
572,186	185,51
572,384	66,73
572,582	95,4
572,781	158,89
572,979	66,73
573,177	72,87
573,376	62,63
573,574	195,75
573,772	64,68
573,971	40,11
574,169	-0,85
574,367	132,26
574,565	124,07
574,763	93,35
574,962	87,21
575,16	74,92
575,358	31,91
575,556	91,31
575,754	60,59
575,952	25,77
576,151	105,64
576,349	197,8
576,547	9,39
576,745	105,64
576,943	126,12
577,141	113,83
577,339	66,73
577,537	126,12
577,735	177,32
577,933	101,55
578,131	44,2
578,329	203,94
578,527	74,92
578,725	144,55
578,923	7,34
579,121	177,32
579,319	-25,43
579,516	64,68
579,714	281,77
579,912	169,13
580,11	-21,33
580,308	56,49
580,506	66,73
580,704	-64,34
580,901	54,44
581,099	214,18
581,297	126,12
581,495	226,47
581,692	74,92
581,89	205,99
582,088	132,26
582,285	203,94
582,483	29,87
582,681	81,07
582,878	165,03
583,076	89,26
583,274	181,42
583,471	267,43
583,669	138,41
583,866	109,74
584,064	146,6
584,262	40,11
584,459	64,68
584,657	146,6
584,854	99,5
585,052	169,13
585,249	191,66
585,447	179,37
585,644	-33,62
585,841	179,37
586,039	154,79
586,236	300,2
586,434	64,68
586,631	76,97
586,828	117,93
587,026	111,78
587,223	-31,57
587,42	54,44
587,618	162,98
587,815	271,53
588,012	109,74
588,21	56,49
588,407	117,93
588,604	181,42
588,801	44,2
588,999	25,77
589,196	76,97
589,393	36,01
589,59	113,83
589,787	68,78
589,984	107,69
590,182	193,7
590,379	21,67
590,576	60,59
590,773	29,87
590,97	48,3
591,167	119,98
591,364	146,6
591,561	19,63
591,758	152,74
591,955	154,79
592,152	83,11
592,349	-7
592,546	58,54
592,743	40,11
592,94	132,26
593,137	62,63
593,334	119,98
593,531	132,26
593,727	105,64
593,924	119,98
594,121	148,65
594,318	101,55
594,515	156,84
594,712	189,61
594,908	220,33
595,105	40,11
595,302	111,78
595,499	138,41
595,696	193,7
595,892	-9,05
596,089	185,51
596,286	148,65
596,482	197,8
596,679	167,08
596,876	54,44
597,072	165,03
597,269	72,87
597,466	113,83
597,662	83,11
597,859	56,49
598,055	15,53
598,252	158,89
598,448	130,22
598,645	179,37
598,841	148,65
599,038	205,99
599,234	175,27
599,431	117,93
599,627	105,64
599,824	97,45
600,02	165,03
600,217	1,19
600,413	146,6
600,609	158,89
600,806	443,56
601,002	146,6
601,198	-35,67
601,395	152,74
601,591	156,84
601,787	130,22
601,984	117,93
602,18	79,02
602,376	130,22
602,572	156,84
602,769	236,71
602,965	105,64
603,161	152,74
603,357	193,7
603,553	214,18
603,75	146,6
603,946	146,6
604,142	119,98
604,338	246,95
604,534	54,44
604,73	101,55
604,926	91,31
605,122	191,66
605,318	19,63
605,514	146,6
605,71	60,59
605,906	185,51
606,102	46,25
606,298	246,95
606,494	156,84
606,69	173,22
606,886	36,01
607,082	52,39
607,278	38,06
607,474	81,07
607,67	130,22
607,866	-17,24
608,062	185,51
608,257	107,69
608,453	-9,05
608,649	124,07
608,845	21,67
609,041	91,31
609,236	87,21
609,432	105,64
609,628	138,41
609,824	171,18
610,019	72,87
610,215	97,45
610,411	179,37
610,606	165,03
610,802	-52,05
610,998	134,31
611,193	205,99
611,389	-17,24
611,584	173,22
611,78	5,29
611,976	52,39
612,171	238,76
612,367	124,07
612,562	122,02
612,758	95,4
612,953	-133,97
613,149	-7
613,344	81,07
613,539	40,11
613,735	179,37
613,93	122,02
614,126	83,11
614,321	50,35
614,517	208,04
614,712	142,5
614,907	95,4
615,103	7,34
615,298	122,02
615,493	25,77
615,688	7,34
615,884	107,69
616,079	83,11
616,274	91,31
616,47	42,15
616,665	-62,29
616,86	85,16
617,055	-25,43
617,25	-11,09
617,445	15,53
617,641	66,73
617,836	44,2
618,031	7,34
618,226	87,21
618,421	156,84
618,616	9,39
618,811	81,07
619,006	-0,85
619,201	214,18
619,396	25,77
619,591	19,63
619,786	21,67
619,981	144,55
620,176	31,91
620,371	7,34
620,566	-17,24
620,761	113,83
620,956	5,29
621,151	58,54
621,346	81,07
621,541	-86,87
621,735	62,63
621,93	-0,85
622,125	29,87
622,32	-31,57
622,515	-45,91
622,709	113,83
622,904	171,18
623,099	105,64
623,294	115,88
623,488	85,16
623,683	89,26
623,878	31,91
624,072	195,75
624,267	25,77
624,462	-4,95
624,656	-9,05
624,851	17,58
625,046	48,3
625,24	31,91
625,435	25,77
625,629	25,77
625,824	97,45
626,018	107,69
626,213	81,07
626,407	-0,85
626,602	132,26
626,796	31,91
626,991	146,6
627,185	21,67
627,38	79,02
627,574	181,42
627,768	87,21
627,963	-4,95
628,157	103,59
628,352	13,48
628,546	17,58
628,74	58,54
628,935	27,82
629,129	15,53
629,323	93,35
629,517	-13,14
629,712	50,35
629,906	50,35
630,1	146,6
630,294	50,35
630,489	76,97
630,683	60,59
630,877	-13,14
631,071	136,36
631,265	27,82
631,459	199,85
631,653	23,72
631,848	27,82
632,042	58,54
632,236	52,39
632,43	134,31
632,624	36,01
632,818	33,96
633,012	107,69
633,206	79,02
633,4	48,3
633,594	140,46
633,788	38,06
633,982	115,88
634,176	232,62
634,369	25,77
634,563	52,39
634,757	-64,34
634,951	93,35
635,145	122,02
635,339	95,4
635,533	165,03
635,726	72,87
635,92	81,07
636,114	-45,91
636,308	-52,05
636,501	-19,29
636,695	146,6
636,889	-11,09
637,083	136,36
637,276	-27,48
637,47	-25,43
637,664	66,73
637,857	38,06
638,051	56,49
638,244	181,42
638,438	72,87
638,632	232,62
638,825	-13,14
639,019	205,99
639,212	19,63
639,406	97,45
639,599	52,39
639,793	115,88
639,986	48,3
640,18	224,42
640,373	89,26
640,567	97,45
640,76	195,75
640,954	113,83
641,147	58,54
641,34	89,26
641,534	36,01
641,727	124,07
641,92	148,65
642,114	72,87
642,307	15,53
642,5	44,2
642,694	50,35
642,887	89,26
643,08	146,6
643,273	189,61
643,467	-35,67
643,66	-19,29
643,853	5,29
644,046	83,11
644,239	23,72
644,432	29,87
644,626	5,29
644,819	33,96
645,012	66,73
645,205	144,55
645,398	85,16
645,591	48,3
645,784	-82,77
645,977	-0,85
646,17	162,98
646,363	79,02
646,556	11,43
646,749	1,19
646,942	91,31
647,135	130,22
647,328	11,43
647,521	79,02
647,714	-0,85
647,907	58,54
648,099	29,87
648,292	193,7
648,485	56,49
648,678	62,63
648,871	54,44
649,064	132,26
649,256	-7
649,449	11,43
649,642	-4,95
649,835	99,5
650,027	36,01
650,22	181,42
650,413	44,2
650,605	146,6
650,798	74,92
650,991	31,91
651,183	165,03
651,376	21,67
651,568	171,18
651,761	122,02
651,954	171,18
652,146	144,55
652,339	242,85
652,531	220,33
652,724	140,46
652,916	97,45
653,109	31,91
653,301	332,97
653,494	238,76
653,686	173,22
653,879	232,62
654,071	238,76
654,263	236,71
654,456	566,43
654,648	2180,23
654,84	6722,63
655,033	15299,52
655,225	26092,32
655,417	37272,18
655,61	47958,48
655,802	56441,17
655,994	61251,84
656,186	62433,52
656,379	59812,12
656,571	55857,49
656,763	49971,63
656,955	45949,42
657,148	41558,58
657,34	37489,26
657,532	33942,18
657,724	30540,5
657,916	26671,89
658,108	23196,49
658,3	19284,87
658,492	16356,27
658,684	13198,31
658,876	10714,12
659,068	8414,25
659,26	6534,21
659,452	4879,46
659,644	3705,97
659,836	2747,52
660,028	1918,09
660,22	1279,13
660,412	957,6
660,604	629,92
660,796	650,4
660,988	570,53
661,18	423,08
661,372	392,36
661,563	244,9
661,755	330,92
661,947	187,56
662,139	244,9
662,331	130,22
662,522	210,09
662,714	103,59
662,906	117,93
663,097	72,87
663,289	128,17
663,481	91,31
663,673	181,42
663,864	79,02
664,056	158,89
664,247	87,21
664,439	230,57
664,631	179,37
664,822	214,18
665,014	105,64
665,205	62,63
665,397	27,82
665,588	162,98
665,78	36,01
665,971	142,5
666,163	33,96
666,354	144,55
666,546	44,2
666,737	-7
666,929	103,59
667,12	40,11
667,311	46,25
667,503	56,49
667,694	97,45
667,885	70,83
668,077	132,26
668,268	-27,48
668,459	119,98
668,651	154,79
668,842	113,83
669,033	33,96
669,224	5,29
669,416	224,42
669,607	48,3
669,798	-41,81
669,989	111,78
670,18	46,25
670,371	128,17
670,563	-86,87
670,754	81,07
670,945	179,37
671,136	44,2
671,327	-29,52
671,518	134,31
671,709	185,51
671,9	-7
672,091	173,22
672,282	29,87
672,473	40,11
672,664	-47,96
672,855	13,48
673,046	29,87
673,237	134,31
673,428	83,11
673,619	124,07
673,809	-19,29
674	154,79
674,191	132,26
674,382	87,21
674,573	66,73
674,764	-21,33
674,954	31,91
675,145	-0,85
675,336	23,72
675,527	25,77
675,717	-52,05
675,908	25,77
676,099	36,01
676,289	-15,19
676,48	-80,72
676,671	-9,05
676,861	23,72
677,052	95,4
677,243	-47,96
677,433	-25,43
677,624	44,2
677,814	68,78
678,005	5,29
678,195	165,03
678,386	-82,77
678,576	29,87
678,767	-80,72
678,957	17,58
679,148	83,11
679,338	97,45
679,529	99,5
679,719	-45,91
679,909	54,44
680,1	64,68
680,29	-58,2
680,481	-90,96
680,671	3,24
680,861	95,4
681,052	21,67
681,242	-54,1
681,432	40,11
681,622	17,58
681,813	-90,96
682,003	-0,85
682,193	-103,25
682,383	15,53
682,573	-60,24
682,764	-15,19
682,954	64,68
683,144	130,22
683,334	11,43
683,524	-76,63
683,714	-23,38
683,904	99,5
684,094	19,63
684,284	29,87
684,474	62,63
684,664	81,07
684,854	-4,95
685,044	-4,95
685,234	1,19
685,424	66,73
685,614	-11,09
685,804	72,87
685,994	5,29
686,184	-62,29
686,374	9,39
686,564	50,35
686,753	50,35
686,943	-17,24
687,133	15,53
687,323	-29,52
687,513	23,72
687,702	-35,67
687,892	-66,39
688,082	76,97
688,272	74,92
688,461	17,58
688,651	171,18
688,841	72,87
689,03	-25,43
689,22	-17,24
689,41	130,22
689,599	119,98
689,789	-62,29
689,979	162,98
690,168	68,78
690,358	48,3
690,547	11,43
690,737	29,87
690,926	38,06
691,116	81,07
691,305	128,17
691,495	79,02
691,684	11,43
691,874	33,96
692,063	48,3
692,252	-41,81
692,442	66,73
692,631	-21,33
692,82	-9,05
693,01	46,25
693,199	-13,14
693,388	66,73
693,578	17,58
693,767	85,16
693,956	29,87
694,146	64,68
694,335	52,39
694,524	-45,91
694,713	54,44
694,902	21,67
695,092	38,06
695,281	-29,52
695,47	36,01
695,659	113,83
695,848	1,19
696,037	5,29
696,226	33,96
696,415	40,11
696,604	74,92
696,793	74,92
696,982	-15,19
697,171	216,23
697,36	-50
697,549	58,54
697,738	-133,97
697,927	-39,76
698,116	33,96
698,305	89,26
698,494	81,07
698,683	17,58
698,872	285,86
699,061	52,39
699,25	-2,9
699,438	68,78
699,627	-31,57
699,816	146,6
700,005	-78,68
700,193	36,01
700,382	105,64
700,571	31,91
700,76	101,55
700,948	95,4
701,137	132,26
701,326	81,07
701,514	-39,76
701,703	31,91
701,892	25,77
702,08	212,14
702,269	13,48
702,457	-68,44
702,646	-15,19
702,834	23,72
703,023	93,35
703,212	146,6
703,4	17,58
703,589	-43,86
703,777	-35,67
703,965	89,26
704,154	40,11
704,342	-37,72
704,531	-45,91
704,719	91,31
704,907	62,63
705,096	-62,29
705,284	-39,76
705,472	27,82
705,661	15,53
705,849	136,36
706,037	62,63
706,226	-29,52
706,414	101,55
706,602	-39,76
706,79	107,69
706,979	-64,34
707,167	38,06
707,355	-105,3
707,543	19,63
707,731	11,43
707,919	62,63
708,107	33,96
708,296	-21,33
708,484	-9,05
708,672	13,48
708,86	87,21
709,048	42,15
709,236	-78,68
709,424	60,59
709,612	-4,95
709,8	-103,25
709,988	44,2
710,176	79,02
710,364	124,07
710,551	-15,19
710,739	-15,19
710,927	-107,35
711,115	19,63
711,303	83,11
711,491	91,31
711,679	-17,24
711,866	81,07
712,054	-9,05
712,242	56,49
712,43	122,02
712,617	-15,19
712,805	93,35
712,993	-47,96
713,181	-17,24
713,368	60,59
713,556	56,49
713,744	9,39
713,931	216,23
714,119	105,64
714,306	-23,38
714,494	-47,96
714,682	38,06
714,869	-9,05
715,057	27,82
715,244	-164,69
715,432	58,54
715,619	-70,48
715,807	-23,38
715,994	-29,52
716,182	15,53
716,369	66,73
716,556	83,11
716,744	-72,53
716,931	-9,05
717,119	42,15
717,306	31,91
717,493	58,54
717,681	-0,85
717,868	-19,29
718,055	52,39
718,242	-9,05
718,43	56,49
718,617	99,5
718,804	-4,95
718,991	15,53
719,179	36,01
719,366	31,91
719,553	-0,85
719,74	3,24
719,927	-47,96
720,114	23,72
720,301	-19,29
720,488	-66,39
720,676	-52,05
720,863	74,92
721,05	156,84
721,237	-9,05
721,424	-31,57
721,611	-33,62
721,798	-82,77
721,985	-170,83
722,172	-7
722,358	27,82
722,545	60,59
722,732	42,15
722,919	140,46
723,106	42,15
723,293	-15,19
723,48	5,29
723,667	-2,9
723,853	54,44
724,04	1,19
724,227	58,54
724,414	-25,43
724,6	56,49
724,787	126,12
724,974	214,18
725,161	9,39
725,347	-66,39
725,534	1,19
725,72	70,83
725,907	70,83
726,094	109,74
726,28	-74,58
726,467	54,44
726,653	-70,48
726,84	122,02
727,027	115,88
727,213	25,77
727,4	119,98
727,586	-0,85
727,773	21,67
727,959	-9,05
728,145	1,19
728,332	62,63
728,518	17,58
728,705	103,59
728,891	5,29
729,077	-4,95
729,264	-31,57
729,45	31,91
729,636	60,59
729,823	52,39
730,009	103,59
730,195	64,68
730,382	154,79
730,568	5,29
730,754	23,72
730,94	-17,24
731,126	-15,19
731,313	-56,15
731,499	11,43
731,685	76,97
731,871	-2,9
732,057	76,97
732,243	81,07
732,429	25,77
732,615	171,18
732,801	27,82
732,987	50,35
733,173	25,77
733,359	-23,38
733,545	64,68
733,731	5,29
733,917	144,55
734,103	68,78
734,289	-0,85
734,475	29,87
734,661	124,07
734,847	70,83
735,033	1,19
735,219	87,21
735,404	42,15
735,59	11,43
735,776	-0,85
735,962	-45,91
736,148	54,44
736,333	144,55
736,519	64,68
736,705	-13,14
736,89	89,26
737,076	-7
737,262	-23,38
737,447	-17,24
737,633	-47,96
737,819	68,78
738,004	38,06
738,19	42,15
738,375	66,73
738,561	113,83
738,747	-21,33
738,932	-105,3
739,118	242,85
739,303	54,44
739,489	-25,43
739,674	-11,09
739,859	44,2
740,045	68,78
740,23	91,31
740,416	-142,16
740,601	-45,91
740,786	29,87
740,972	-64,34
741,157	-23,38
741,342	-90,96
741,528	-117,59
741,713	95,4
741,898	48,3
742,084	13,48
742,269	64,68
742,454	42,15
742,639	72,87
742,824	23,72
743,01	83,11
743,195	183,46
743,38	23,72
743,565	33,96
743,75	48,3
743,935	107,69
744,12	140,46
744,305	-117,59
744,49	-54,1
744,675	9,39
744,86	21,67
745,045	54,44
745,23	-68,44
745,415	40,11
745,6	138,41
745,785	-25,43
745,97	48,3
746,155	60,59
746,34	158,89
746,525	60,59
746,71	99,5
746,895	-54,1
747,079	-37,72
747,264	48,3
747,449	130,22
747,634	152,74
747,819	23,72
748,003	1,19
748,188	-43,86
748,373	27,82
748,557	3,24
748,742	93,35
748,927	44,2
749,111	-19,29
749,296	23,72
749,481	74,92
749,665	89,26
749,85	11,43
750,034	130,22
750,219	27,82
750,404	13,48
750,588	68,78
750,773	-76,63
750,957	95,4
751,141	25,77
751,326	140,46
751,51	-58,2
751,695	-41,81
751,879	3,24
752,064	208,04
752,248	64,68
752,432	113,83
752,617	109,74
752,801	132,26
752,985	60,59
753,17	167,08
753,354	1,19
753,538	76,97
753,722	-70,48
753,907	-15,19
754,091	-90,96
754,275	103,59
754,459	-4,95
754,643	-2,9
754,828	103,59
755,012	29,87
755,196	-72,53
755,38	56,49
755,564	-29,52
755,748	33,96
755,932	154,79
756,116	81,07
756,3	40,11
756,484	9,39
756,668	33,96
756,852	-33,62
757,036	-39,76
757,22	-17,24
757,404	-37,72
757,588	13,48
757,772	42,15
757,956	31,91
758,14	136,36
758,323	56,49
758,507	76,97
758,691	9,39
758,875	130,22
759,059	144,55
759,242	42,15
759,426	27,82
759,61	105,64
759,794	-62,29
759,977	158,89
760,161	269,48
760,345	218,28
760,528	68,78
760,712	89,26
760,895	9,39
761,079	25,77
761,263	-47,96
761,446	36,01
761,63	25,77
761,813	66,73
761,997	-37,72
762,18	-21,33
762,364	-84,82
762,547	-80,72
762,731	-23,38
762,914	23,72
763,098	-76,63
763,281	-41,81
763,464	7,34
763,648	11,43
763,831	-33,62
764,015	-39,76
764,198	119,98
764,381	-31,57
764,564	101,55
764,748	81,07
764,931	-4,95
765,114	-7
765,297	85,16
765,481	-64,34
765,664	21,67
765,847	93,35
766,03	189,61
766,213	-41,81
766,397	25,77
766,58	-58,2
766,763	101,55
766,946	-45,91
767,129	-33,62
767,312	-84,82
767,495	50,35
767,678	27,82
767,861	56,49
768,044	66,73
768,227	-33,62
768,41	3,24
768,593	-9,05
768,776	-13,14
768,959	68,78
769,142	101,55
769,324	-52,05
769,507	31,91
769,69	-37,72
769,873	-43,86
770,056	197,8
770,239	19,63
770,421	171,18
770,604	72,87
770,787	-0,85
770,97	-9,05
771,152	-68,44
771,335	52,39
771,518	-74,58
771,7	58,54
771,883	191,66
772,066	-82,77
772,248	-0,85
772,431	103,59
772,613	85,16
772,796	17,58
772,978	60,59
773,161	79,02
773,343	7,34
773,526	-41,81
773,708	-150,36
773,891	-54,1
774,073	56,49
774,256	-33,62
774,438	89,26
774,621	-58,2
774,803	91,31
774,985	-9,05
775,168	144,55
775,35	-15,19
775,532	83,11
775,715	-11,09
775,897	103,59
776,079	23,72
776,261	140,46
776,444	326,82
776,626	427,17
776,808	652,45
776,99	648,35
777,173	881,82
777,355	967,84
777,537	933,02
777,719	902,3
777,901	760,99
778,083	754,85
778,265	521,38
778,447	726,18
778,629	507,04
778,811	507,04
778,993	441,51
779,175	378,02
779,357	357,54
779,539	189,61
779,721	271,53
779,903	220,33
780,085	93,35
780,267	99,5
780,449	93,35
780,631	50,35
780,812	150,7
780,994	42,15
781,176	3,24
781,358	-62,29
781,54	42,15
781,721	126,12
781,903	-2,9
782,085	5,29
782,267	185,51
782,448	-107,35
782,63	1,19
782,812	40,11
782,993	115,88
783,175	44,2
783,357	-41,81
783,538	-19,29
783,72	-25,43
783,901	7,34
784,083	46,25
784,264	17,58
784,446	-88,92
784,627	-52,05
784,809	52,39
784,99	-0,85
785,172	93,35
785,353	105,64
785,535	-13,14
785,716	-33,62
785,897	-82,77
786,079	19,63
786,26	58,54
786,441	-15,19
786,623	-56,15
786,804	-7
786,985	-4,95
787,167	89,26
787,348	-58,2
787,529	38,06
787,71	156,84
787,891	81,07
788,073	33,96
788,254	-70,48
788,435	138,41
788,616	54,44
788,797	-58,2
788,978	-68,44
789,159	46,25
789,34	91,31
789,522	64,68
789,703	11,43
789,884	-2,9
790,065	56,49
790,246	105,64
790,427	-9,05
790,607	95,4
790,788	122,02
790,969	-23,38
791,15	17,58
791,331	-45,91
791,512	-119,64
791,693	-41,81
791,874	17,58
792,054	160,94
792,235	48,3
792,416	-105,3
792,597	-50
792,778	79,02
792,958	11,43
793,139	87,21
793,32	1,19
793,5	-82,77
793,681	109,74
793,862	3,24
794,042	-0,85
794,223	-68,44
794,404	-39,76
794,584	-52,05
794,765	1,19
794,945	-29,52
795,126	40,11
795,306	79,02
795,487	3,24
795,667	-39,76
795,848	79,02
796,028	9,39
796,209	-52,05
796,389	83,11
796,57	50,35
796,75	-17,24
796,93	-35,67
797,111	-66,39
797,291	13,48
797,471	5,29
797,652	17,58
797,832	-76,63
798,012	25,77
798,192	-54,1
798,373	-74,58
798,553	-41,81
798,733	97,45
798,913	-80,72
799,093	-50
799,274	11,43
799,454	48,3
799,634	17,58
799,814	89,26
799,994	52,39
800,174	23,72
800,354	-2,9
800,534	-64,34
800,714	31,91
800,894	-99,16
801,074	44,2
801,254	-23,38
801,434	111,78
801,614	11,43
801,794	-99,16
801,974	2002,06
802,154	-52,05
802,334	44,2
802,514	-58,2
802,693	-0,85
802,873	-29,52
803,053	85,16
803,233	40,11
803,413	-13,14
803,592	-43,86
803,772	-39,76
803,952	-4,95
804,131	-109,4
804,311	60,59
804,491	126,12
804,67	-125,78
804,85	-70,48
805,03	79,02
805,209	111,78
805,389	11,43
805,568	-86,87
805,748	-56,15
805,928	-17,24
806,107	83,11
806,287	25,77
806,466	50,35
806,646	-82,77
806,825	-78,68
807,004	-7
807,184	15,53
807,363	50,35
807,543	68,78
807,722	-27,48
807,901	56,49
808,081	52,39
808,26	-162,64
808,439	19,63
808,619	56,49
808,798	-72,53
808,977	-2,9
809,156	138,41
809,336	-4,95
809,515	58,54
809,694	-90,96
809,873	3,24
810,052	44,2
810,231	132,26
810,411	81,07
810,59	44,2
810,769	58,54
810,948	-50
811,127	-76,63
811,306	-76,63
811,485	11,43
811,664	195,75
811,843	-41,81
812,022	89,26
812,201	-54,1
812,38	11,43
812,559	-15,19
812,737	76,97
812,916	-33,62
813,095	-29,52
813,274	-27,48
813,453	-4,95
813,632	105,64
813,811	64,68
813,989	-138,07
814,168	31,91
814,347	-37,72
814,526	21,67
814,704	79,02
814,883	134,31
815,062	-156,5
815,24	87,21
815,419	-86,87
815,598	21,67
815,776	-93,01
815,955	-47,96
816,133	-58,2
816,312	-66,39
816,49	-11,09
816,669	-7
816,847	-45,91
817,026	7,34
817,204	-13,14
817,383	-9,05
817,561	-43,86
817,74	-21,33
817,918	46,25
818,097	-58,2
818,275	-88,92
818,453	1,19
818,632	105,64
818,81	-39,76
818,988	-88,92
819,167	-35,67
819,345	36,01
819,523	-103,25
819,701	66,73
819,879	29,87
820,058	-15,19
820,236	9,39
820,414	-17,24
820,592	-43,86
820,77	-45,91
820,948	-29,52
821,127	38,06
821,305	-9,05
821,483	-78,68
821,661	66,73
821,839	46,25
822,017	-58,2
822,195	29,87
822,373	111,78
822,551	15,53
822,729	58,54
822,907	-50
823,085	58,54
823,262	9,39
823,44	-62,29
823,618	-105,3
823,796	42,15
823,974	-37,72
824,152	-9,05
824,329	-93,01
824,507	7,34
824,685	23,72
824,863	-21,33
825,04	-56,15
825,218	95,4
825,396	-25,43
825,574	44,2
825,751	-21,33
825,929	56,49
826,107	-25,43
826,284	-4,95
826,462	1,19
826,639	-170,83
826,817	-103,25
826,994	54,44
827,172	-133,97
827,349	134,31
827,527	-45,91
827,704	40,11
827,882	136,36
828,059	-47,96
828,237	-9,05
828,414	72,87
828,591	-107,35
828,769	-15,19
828,946	-66,39
829,124	-9,05
829,301	11,43
829,478	-15,19
829,655	54,44
829,833	23,72
830,01	-152,4
830,187	111,78
830,364	-21,33
830,542	60,59
830,719	93,35
830,896	42,15
831,073	23,72
831,25	29,87
831,427	-17,24
831,604	25,77
831,782	15,53
831,959	38,06
832,136	-64,34
832,313	15,53
832,49	3,24
832,667	-21,33
832,844	56,49
833,021	7,34
833,198	-11,09
833,374	33,96
833,551	-56,15
833,728	3,24
833,905	128,17
834,082	-45,91
834,259	68,78
834,436	115,88
834,612	-93,01
834,789	15,53
834,966	23,72
835,143	-17,24
835,319	-109,4
835,496	13,48
835,673	56,49
835,85	70,83
836,026	-0,85
836,203	111,78
836,38	-37,72
836,556	-90,96
836,733	-97,11
836,909	173,22
837,086	-54,1
837,262	-117,59
837,439	54,44
837,616	-99,16
837,792	3,24
837,968	-9,05
838,145	-164,69
838,321	15,53
838,498	23,72
838,674	-0,85
838,851	95,4
839,027	-129,88
839,203	11,43
839,38	33,96
839,556	-31,57
839,732	122,02
839,909	31,91
840,085	36,01
840,261	-29,52
840,437	-47,96
840,614	-113,49
840,79	25,77
840,966	56,49
841,142	62,63
841,318	-103,25
841,494	1,19
841,671	97,45
841,847	-148,31
842,023	-47,96
842,199	-9,05
842,375	89,26
842,551	-119,64
842,727	-66,39
842,903	44,2
843,079	-60,24
843,255	183,46
843,431	-29,52
843,607	173,22
843,783	-39,76
843,959	197,8
844,134	140,46
844,31	373,92
844,486	310,44
844,662	283,81
844,838	208,04
845,013	279,72
845,189	332,97
845,365	93,35
845,541	109,74
845,716	134,31
845,892	191,66
846,068	83,11
846,244	50,35
846,419	134,31
846,595	-2,9
846,77	-17,24
846,946	183,46
847,122	44,2
847,297	23,72
847,473	138,41
847,648	-33,62
847,824	50,35
847,999	-60,24
848,175	-68,44
848,35	9,39
848,526	105,64
848,701	103,59
848,876	115,88
849,052	70,83
849,227	-68,44
849,403	50,35
849,578	-0,85
849,753	-45,91
849,929	3,24
850,104	-62,29
850,279	-43,86
850,454	42,15
850,63	23,72
850,805	48,3
850,98	-27,48
851,155	-50
851,33	13,48
851,505	-62,29
851,681	70,83
851,856	-97,11
852,031	70,83
852,206	58,54
852,381	-76,63
852,556	-29,52
852,731	7,34
852,906	81,07
853,081	76,97
853,256	115,88
853,431	42,15
853,606	-90,96
853,781	-129,88
853,956	-111,44
854,131	-4,95
854,305	-78,68
854,48	33,96
854,655	-33,62
854,83	-90,96
855,005	15,53
855,18	11,43
855,354	21,67
855,529	5,29
855,704	50,35
855,879	44,2
856,053	-54,1
856,228	-9,05
856,403	-129,88
856,577	11,43
856,752	-93,01
856,926	-4,95
857,101	52,39
857,276	-64,34
857,45	107,69
857,625	79,02
857,799	-17,24
857,974	27,82
858,148	-111,44
858,323	23,72
858,497	52,39
858,672	-72,53
858,846	-66,39
859,02	42,15
859,195	-17,24
859,369	-29,52
859,543	23,72
859,718	42,15
859,892	44,2
860,066	1,19
860,241	-88,92
860,415	-76,63
860,589	-50
860,763	-72,53
860,938	-43,86
861,112	132,26
861,286	-47,96
861,46	13,48
861,634	-39,76
861,808	40,11
861,982	-68,44
862,157	-64,34
862,331	-111,44
862,505	-68,44
862,679	-45,91
862,853	7,34
863,027	-0,85
863,201	181,42
863,375	15,53
863,549	33,96
863,722	-25,43
863,896	83,11
864,07	-76,63
864,244	-43,86
864,418	31,91
864,592	9,39
864,766	23,72
864,939	-27,48
865,113	-82,77
865,287	93,35
865,461	-60,24
865,634	-17,24
865,808	15,53
865,982	-31,57
866,156	-33,62
866,329	-119,64
866,503	-21,33
866,676	95,4
866,85	19,63
867,024	-74,58
867,197	68,78
867,371	46,25
867,544	9,39
867,718	-56,15
867,891	138,41
868,065	-131,92
868,238	-54,1
868,412	103,59
868,585	62,63
868,759	3,24
868,932	-43,86
869,105	-125,78
869,279	56,49
869,452	-23,38
869,625	62,63
869,799	9,39
869,972	-86,87
870,145	23,72
870,319	87,21
870,492	-39,76
870,665	-23,38
870,838	-23,38
871,011	-101,2
871,185	-107,35
871,358	-88,92
871,531	81,07
871,704	-35,67
871,877	7,34
872,05	27,82
872,223	-90,96
872,396	-41,81
872,569	66,73
872,742	-129,88
872,915	25,77
873,088	-21,33
873,261	-105,3
873,434	7,34
873,607	-25,43
873,78	31,91
873,953	-88,92
874,126	-0,85
874,299	42,15
874,471	-11,09
874,644	-11,09
874,817	66,73
874,99	103,59
875,163	25,77
875,335	31,91
875,508	-29,52
875,681	101,55
875,853	-4,95
876,026	-23,38
876,199	99,5
876,371	-54,1
876,544	-54,1
876,717	-2,9
876,889	33,96
877,062	15,53
877,234	-68,44
877,407	-82,77
877,579	15,53
877,752	-101,2
877,924	101,55
878,097	-17,24
878,269	81,07
878,442	70,83
878,614	27,82
878,786	-15,19
878,959	-4,95
879,131	-7
879,303	-156,5
879,476	7,34
879,648	46,25
879,82	-33,62
879,993	64,68
880,165	25,77
880,337	-56,15
880,509	7,34
880,681	-144,21
880,854	-23,38
881,026	68,78
881,198	162,98
881,37	7,34
881,542	-7
881,714	-19,29
881,886	-119,64
882,058	-35,67
882,23	60,59
882,402	7,34
882,574	7,34
882,746	95,4
882,918	36,01
883,09	-58,2
883,262	-19,29
883,434	11,43
883,606	-58,2
883,778	-15,19
883,95	103,59
884,122	7,34
884,293	52,39
884,465	-47,96
884,637	42,15
884,809	5,29
884,98	-50
885,152	7,34
885,324	25,77
885,496	-50
885,667	-21,33
885,839	-72,53
886,011	68,78
886,182	62,63
886,354	46,25
886,525	-27,48
886,697	72,87
886,869	5,29
887,04	-131,92
887,212	81,07
887,383	64,68
887,555	-0,85
887,726	-23,38
887,897	-103,25
888,069	-9,05
888,24	89,26
888,412	-82,77
888,583	-52,05
888,754	-78,68
888,926	-103,25
889,097	-54,1
889,268	-111,44
889,44	11,43
889,611	-33,62
889,782	-41,81
889,953	-90,96
890,125	103,59
890,296	-52,05
890,467	-107,35
890,638	-84,82
890,809	13,48
890,98	5,29
891,151	36,01
891,323	97,45
891,494	-54,1
891,665	-0,85
891,836	-4,95
892,007	-4,95
892,178	-21,33
892,349	1,19
892,52	-15,19
892,691	29,87
892,862	-29,52
893,032	-172,88
893,203	-66,39
893,374	66,73
893,545	124,07
893,716	-23,38
893,887	105,64
894,057	-74,58
894,228	7,34
894,399	-0,85
894,57	99,5
894,74	-19,29
894,911	-17,24
895,082	-25,43
895,253	-50
895,423	-25,43
895,594	58,54
895,764	72,87
895,935	-129,88
896,106	38,06
896,276	-70,48
896,447	-19,29
896,617	-54,1
896,788	-82,77
896,958	21,67
897,129	-39,76
897,299	-101,2
897,47	72,87
897,64	72,87
897,81	-47,96
897,981	-11,09
898,151	-4,95
898,322	50,35
898,492	52,39
898,662	-70,48
898,832	-31,57
899,003	-31,57
899,173	134,31
899,343	-64,34
899,513	-93,01
